,bvp+hr_XAp0,bvp+hr_XAp1,bvp+hr_XAp2,bvp+hr_XCond1,bvp+hr_XCond2,bvp+hr_XDist,bvp+hr_XFuzz1,bvp+hr_XFuzz2,bvp+hr_XK2_1,bvp+hr_XK2_2,bvp+hr_XPermEn,bvp+hr_XSamp0,bvp+hr_XSamp1,bvp+hr_XSamp2,bvp+hr_XSpec
0,5.703782474656201,-1.6921221341480062,0.0,1.4348795840476927,1.421024290288692,0.698075189063025,3.9652764992729983,12.664820002558152,,,0.6528756675646988,6.918928579580262,inf,,0.9073862326992528
1,,0.0,0.0,1.6898787908286805,1.6784602575633818,0.7501033477539197,4.588477578352842,6.739204902535341,,,0.62595550513784,inf,,,0.8967276354948387
2,5.237758671955661,-4.38225808886957,0.0,1.6199424573169579,1.5905655548448456,0.6924357079074634,3.8776309460041984,2.957641777786666,,,0.6547956803312163,5.364932115630021,inf,,0.8292718117195371
3,5.7037824746562,-2.75682819608383,0.0,1.404126571359621,1.3512201311042549,0.8192380512936779,4.038785822108348,2.2711534523773933,,,0.6547956803312163,6.430831206891828,inf,,0.6821697531457012
4,,0.0,0.0,1.6120627231262195,1.5795513539946369,0.7409509803416214,3.8947827489669797,6.48353034003293,,,0.6509067234006624,inf,,,0.91256735444934
5,,0.0,0.0,1.5750723955298256,1.5506659068711057,0.6680869952379793,4.218539139561494,8.26112460271467,,,0.6468212168108125,inf,,,0.8885185580573015
6,4.439180991212044,-4.439180991212044,0.0,1.532316349117935,1.5026916353876145,0.759049877570578,4.287175354168705,51.494075824217056,,,0.6180765742263259,4.411798793007552,inf,,0.8417095314008177
7,4.715175560376215,-4.715175560376215,0.0,1.513203837497671,1.5322322006935296,0.7967488805827027,5.440952599130463,20.86717524091435,,,0.648888643467878,4.661152820739028,inf,,0.5934252352238424
8,3.934569342252527,-3.934569342252527,0.0,1.6877842401333283,1.6654627365053665,0.7890092569540312,3.917509285149726,3.9358402084447897,,,0.6333676938231112,3.8637620818108926,inf,,0.8615534394991518
9,4.972604243119868,-4.972604243119868,0.0,1.5997048950293147,1.5571938049701128,0.7622390559722065,4.2458972994559545,12.70827855353719,,,0.6357360191111145,4.90028723692739,inf,,0.678884689061237
10,3.5736715297501163,-3.5355414724030214,-0.038130057347094896,1.4790927381571428,1.465726114085458,0.8089666379745429,4.4539522601523505,33.06609588085797,,,0.6309483474627791,3.527895034708113,7.186522734044344,inf,0.6775929755062358
11,3.402891805054896,-3.402891805054896,0.0,1.5991641678740545,1.6119021359796881,0.844438641121193,4.560533376134124,18.13486789260643,,,0.648888643467878,3.397205360392618,inf,,0.7811613437687046
12,3.446897687355337,-3.446897687355337,0.0,1.473618252200118,1.4474054713468525,0.8124405252644102,6.145392887074995,143.42380306733733,,,0.6403206450210053,3.398201872682357,inf,,0.6337456819832449
13,4.923819880254352,-4.923819880254352,0.0,1.6340604774385565,1.5396126712362266,0.796226974525276,4.627414838298715,13.62636679519241,,,0.6528756675646988,4.803621124711929,inf,,0.5864971838511586
14,4.64809507912337,-3.62215490916161,-1.0104465196980152,1.7471269249169636,1.6968684936775436,0.7383120400110801,3.6904666567811466,3.3232387641997847,3.277236418516394,,0.648888643467878,4.211627722836833,3.2256453129234472,inf,0.4194567146157805
15,3.3608821336817583,-3.3608821336817583,0.0,1.666303363611695,1.6333019510105933,0.7892212526710606,4.5210183392901175,30.892146589798212,,,0.6447042257417027,3.3508211743370886,inf,,0.5176545242135691
16,4.219784317900643,-3.6852783042998953,0.0,1.7724071790529805,1.7705589416832752,0.8033159679288736,5.338663177051649,173.60068566931523,,,0.6528756675646988,3.9804208159037864,inf,,0.6792213674648231
17,3.9241891363335957,-3.9241891363335957,0.0,1.5942474223988465,1.572395969112094,0.8808477228524838,4.757189117467982,73.36402331714896,,,0.6309483474627791,3.909249078545421,inf,,0.48246701793132446
18,3.8422327238404703,-0.8490232220935203,-2.99320950174695,1.5913835863617192,1.575934810508355,0.7920327388202394,3.9006104761680924,33.285497988919836,2.8229795306659677,,0.6284777104787076,3.8243174250090406,2.5270017189550535,inf,0.49905807495617954
19,4.539960711384417,-4.539960711384417,0.0,1.7480737196312537,1.7408021846489716,0.7716854256224144,4.099472162762901,6.514926049981891,,,0.6403206450210053,4.327538449389812,inf,,0.64828894762724
20,4.648907058453024,-3.4556875801167477,0.0,1.577047700021397,1.5433709646884424,0.7533495987241512,4.181935464768833,5.903264172925714,,,0.6284777104787076,4.717965680133436,inf,,0.6798369808253996
21,5.534346497185992,-0.8301519745778989,0.0,1.3965090279498535,1.3685443233056005,0.7022004888994481,3.498718601259965,3.9855546608862493,,,0.62595550513784,7.382213258577253,inf,,0.7385058789202823
22,4.332185692741491,-3.234698650580313,0.0,1.6671021113372988,1.6159648001076834,0.8398204197242466,4.652321870519163,12.64274914627487,,,0.6509067234006624,4.518992489747039,inf,,0.5495699841698942
23,5.703782474656203,-2.205462556867065,0.0,1.5616256181919903,1.5063856938629145,0.7361280361122318,3.663540699217375,3.8812048597905946,,,0.6447042257417027,6.653974758206037,inf,,0.7591018195408252
24,5.184972066957115,-2.350520670353892,0.0,1.7118911278790305,1.644334871535545,0.7252367354024576,4.0480335939267835,2.871751363990337,,,0.6584896970785714,5.8901120528476945,inf,,0.6208579542614179
25,4.818326029359998,-4.721959508772797,0.0,1.6344575640805472,1.6249219144958826,0.8069556778692448,3.7982299784218516,9.674980129934317,,,0.6447042257417027,4.771618393625756,inf,,0.6956105954372236
26,4.344442847298886,-4.344442847298886,0.0,1.6132342475814354,1.5850299249960547,0.7963486145649957,3.547164446374337,2.005009486626435,,,0.648888643467878,4.166915255056936,inf,,0.8404906621330374
27,4.3869286798211915,-4.284567010625364,0.0,1.6598028713047703,1.6135595248091053,0.8490710728456311,4.100954552981746,61.94002678706183,,,0.6403206450210053,4.027932796702849,inf,,0.7287147384172652
28,5.298163013439639,-2.3841733560478375,0.0,1.6141670816465918,1.5632382419326385,0.8640163619106573,4.25667564615576,28.19695223358882,,,0.6468212168108125,6.041588934290551,inf,,0.5393310092076218
29,4.91356566634339,-4.356694890824472,0.0,1.627264586192546,1.541374351130308,0.8049140313264569,3.1077183657392267,2.6221907186477553,,,0.6468212168108125,4.990832666800076,inf,,0.74053639654065
30,,0.0,0.0,1.5816187904924859,1.5533661293340482,0.4715329718276611,2.5074022390846573,2.3477126147608476,,,0.6333676938231112,inf,,,0.9559964585584206
31,,0.0,0.0,1.4604214857010858,1.414550171142768,0.6278843530540209,3.469232838929628,4.498799230498754,,,0.6425374456860184,inf,,,0.897364869227974
32,4.284244807476585,-1.5205338690217505,-2.1924782974579564,1.4117423359546564,1.3844619437693202,0.8304008265669881,5.024339355143157,33.54727238469039,2.4022238706845633,,0.6284777104787076,4.25373114773356,2.408901673215593,inf,0.5384892512162046
33,4.758363587816874,-1.9350678590455288,0.0,1.5615442912041089,1.4773550091972294,0.7628558754093762,3.9628641978703625,5.989837248445005,,,0.6652988471865258,5.467393696591971,inf,,0.8341414261842077
34,5.703782474656201,-1.8442230001388384,0.0,1.718080644664983,1.6996064700463902,0.7593661492897164,4.344072816990177,7.903368830777671,,,0.6447042257417027,6.832853970809019,inf,,0.7520709543913132
35,5.596933699787277,-4.72008075348727,0.0,1.7058702152802334,1.6721422980504874,0.7546341523980418,3.276439800900148,4.763205349386817,,,0.6309483474627791,5.73081114704412,inf,,0.630101015959561
36,5.703782474656199,-1.3498951856686336,0.0,1.7548536293271504,1.7304934819600764,0.6252607878377302,3.252678480102438,2.801834349884335,,,0.6509067234006624,7.144885072271086,inf,,0.850306875642953
37,5.082403288219064,-4.862165812396238,0.0,1.6660932598515141,1.6870987135639535,0.6403070843667801,3.2187541191591773,7.172427031728757,,,0.6528756675646988,5.044536845771937,inf,,0.5250471089936443
38,5.294195504325324,-4.6588920438062855,0.0,1.693834633305984,1.6856293014451051,0.7845193539222032,4.144042009802047,5.607517680866743,,,0.6509067234006624,5.367310238034988,inf,,0.8333246424790874
39,5.514605425268769,-5.496223407184539,0.0,1.5894064790575693,1.5023584922397957,0.749274658078515,4.013969974637067,4.355412346086804,,,0.648888643467878,5.451727579847571,inf,,0.5871773191721025
40,4.8308731121079695,-4.8308731121079695,0.0,1.2808242907243834,1.2755621405904414,0.7531595480961641,4.479712371145607,11.062135420948394,,,0.6284777104787076,4.784828625362563,inf,,0.764536654114775
41,,0.0,0.0,1.7390761368870624,1.7412629948831713,0.759084481511853,4.57071157277646,10.056713644201487,,,0.6309483474627791,inf,,,0.6380452518105932
42,4.874018857897777,-4.044772586698152,-0.1143901720412847,1.602680598419822,1.6042336387540888,0.7630747364776225,3.4276676413059564,2.44781984798675,,,0.6425374456860184,4.852208057501738,4.76359742258261,inf,0.7553639356458246
43,4.144751796980154,-4.144751796980154,0.0,1.6649186045448623,1.6284272002202889,0.8051705109136346,3.7163442428152464,2.9866841868783602,,,0.6357360191111145,4.135861242425034,inf,,0.8481025342785105
44,4.930161325707136,-4.930161325707136,0.0,1.6267955427025458,1.604140367554263,0.7835925160276569,4.5505060510550965,12.365971475652644,,,0.6447042257417027,4.85078659315436,inf,,0.5950478382952662
45,5.431144583635955,-5.431144583635955,0.0,1.493339085902484,1.463260407819259,0.8530657580417917,4.727626423127145,29.706994324144382,,,0.6233814453054027,5.3720835167876455,inf,,0.7978649246453299
46,4.780865716266594,-3.155371372735952,0.0,1.680582700004495,1.6676215133567251,0.8499019350802868,3.937239264524842,3.7030218138598205,,,0.648888643467878,4.878146111050177,inf,,0.5852727784426874
47,,0.0,0.0,1.6253675409511406,1.5865543130339588,0.4888455585983588,1.7492675090373706,1.7077330561387933,,,0.6468212168108125,inf,,,0.7067985584236096
48,5.703782474656204,-2.2434877733647736,0.0,1.698207148714768,1.6212381411748518,0.7607495908757261,2.9334075102467825,1.8432198224282228,,,0.6333676938231112,6.636880324846738,inf,,0.7657487602753678
49,4.279512583352064,-4.136862163906995,0.0,1.3876779056898787,1.3842111617755684,0.817846019977849,4.435323129070571,21.36295972361577,,,0.6468212168108125,4.025440583574889,inf,,0.6334083487762507
50,4.353860685532162,-2.0279271873593734,-2.3259334981727884,1.3186405782013964,1.2985022428039779,0.7688439336301126,4.372869813242891,64.85517494767522,2.327890336316067,,0.6425374456860184,4.28550506768326,2.318038836895886,inf,0.6339098755661348
51,,0.0,0.0,1.716297395975432,1.6734656717741823,0.6355518925127651,3.8107144515973106,47.02346822917784,,,0.6468212168108125,inf,,,0.8421430725475133
52,5.703782474656201,-5.3045177014302665,0.0,1.5241291893226676,1.529390090424167,0.7361989403766345,4.151868637325955,20.701050628146305,,,0.6447042257417027,5.7763531674910364,inf,,0.5855547794367464
53,5.703782474656203,-4.467962938480692,0.0,1.1992954069181305,1.1818103855290447,0.6496591735347402,4.143620676897056,10.329393881013335,,,0.6153451465759925,5.947979435168243,inf,,0.7423537666401355
54,,0.0,0.0,1.4543213703383175,1.4272703070474795,0.663233717265889,4.339284357614458,41.678469231364815,,,0.6180765742263259,inf,,,0.8261452363172191
55,4.648184514313385,-4.400281340216671,0.0,0.8433270129854269,0.8040352719839565,0.6482079579428566,3.8839791612814754,1.9705199871640757,,,0.6153451465759925,4.693394419402931,inf,,0.5566371367568137
56,5.028462935044532,-1.610480557400007,-1.7921126953134596,1.3721407248799937,1.3491202011744625,0.7704923896219619,4.110799603665442,9.834188147054967,1.7507695217082468,,0.5783247308855777,5.219300826229812,1.6449693408125858,inf,0.664205022126193
57,4.886164111050549,-4.886164111050549,0.0,1.5823520111518719,1.55041412914503,0.785464751164487,5.377447698684227,7.667795005804773,,,0.6447042257417027,4.814520415169965,inf,,0.7324621405075956
58,4.974402182308619,-4.593031348331626,0.0,1.630551346756707,1.5946475220799496,0.8222483537564884,4.155038366016388,82.86873256113148,,,0.6125606311107803,4.966618408679482,inf,,0.6760328552770725
59,,0.0,0.0,1.4855715984184619,1.4482337745376015,0.8911741575038502,3.9451059499377368,26.650470333074967,,,0.5202020156036558,inf,,,0.8857403450146926
60,5.7037824746562,-5.7037824746562,0.0,1.6590578335364266,1.6284158563873246,0.8152432511417307,3.987891682459642,37.323784027170056,,,0.5490601803369085,5.703782474656201,inf,,0.7285052387732536
61,4.495163834218593,-0.2654089036054863,-4.079916136139153,1.3467730468643524,1.3089050808764158,0.7744590252868333,4.031792817183506,38.9060989549054,1.7048316406854398,,0.5947193981915972,4.392750598036858,1.6488383362536934,inf,0.5942260860154772
62,5.164645983742352,-5.164645983742352,0.0,1.6710239100703261,1.6394901175800822,0.6914918109023993,4.354221503927242,49.106951380261926,,,0.5978297680564633,5.0849997093851185,inf,,0.7201578995273494
63,4.3028613627150545,-4.3028613627150545,0.0,1.4584078791533712,1.4307320893108828,0.7799480909703573,4.477809698049507,6.300438379061922,,,0.6207552362147116,4.282281857801691,inf,,0.7026626102841905
64,5.2499986256776285,-5.2499986256776285,0.0,1.655464453635695,1.646886872673779,0.7473004599070866,4.016596825206564,5.737684282578309,,,0.6333676938231112,5.1252982024163956,inf,,0.688492305170925
65,4.377901348751184,-4.377901348751184,0.0,1.452198317696818,1.4493370045210616,0.8180641669904317,4.220157661850655,11.619270301970651,,,0.585052858160615,4.371416455561866,inf,,0.853028565205667
66,5.458316598627473,-4.639569108833352,0.0,1.723670328526246,1.7185830685353214,0.8538274165232883,3.7814483392829414,31.81144516781525,,,0.5713653840954815,5.524242560824123,inf,,0.8945422712389337
67,5.703782474656202,-5.07636640244402,0.0,1.6639451679895836,1.6821749777801018,0.903055818531138,4.1749919873858055,6.08864238733214,,,0.5202020156036558,5.820316290912153,inf,,0.8102072029215969
68,5.7037824746562,-5.7037824746562,0.0,1.7012238050595339,1.6935817413170977,0.849437549174927,4.436980925688443,18.341340973749375,,,0.5451288209179292,5.703782474656201,inf,,0.7944039345439401
69,4.790165825794937,-4.790165825794937,0.0,1.7810091069982774,1.7532013045640513,0.8203671685534691,4.002535464324517,3.730135524758669,,,0.648888643467878,4.75728590072498,inf,,0.7995875238941235
70,4.467161673684432,-4.2586941289124915,0.0,1.756417687955262,1.6781404816736856,0.775066441472413,3.925220659956232,15.2988557905124,,,0.6380535849069913,4.433086038287357,inf,,0.8538784768015103
71,4.14929807510716,-2.1815039865452674,-1.5252022938837957,1.6174378448361955,1.5929947094549137,0.8376629859287665,4.521438678599276,29.542169814282918,3.297835907498989,,0.6509067234006624,3.8835435341062774,3.1419947805322432,inf,0.5632186595733149
72,4.466752806532818,-4.1838584621190735,0.0,1.204003127318074,1.1564200167678744,0.7417286542477712,3.8254040509355893,2.4649230642103888,,,0.6357360191111145,4.367028559096447,inf,,0.716390510721497
73,4.761666674450365,-4.301372229253496,0.0,1.1879752756718434,1.1674180854778209,0.7396675506991462,4.579360271895255,19.2398090166724,,,0.6547956803312163,4.820014934487606,inf,,0.8115482530461229
74,4.453028946299168,-4.096786630595234,0.0,1.7319666217788643,1.7110546416799817,0.8191186067736013,4.283310200198131,13.451115034492599,,,0.6425374456860184,4.314991233337723,inf,,0.6894690494523026
75,4.273681303081757,-3.931786798835216,0.0,1.4951073138391098,1.4532763439803569,0.7172313782709656,4.280653370523134,2.111494303807288,,,0.6357360191111145,4.023575491333894,inf,,0.6284116907920537
76,4.560100680133494,-4.484099002131268,0.0,1.5999910352991424,1.6007774639576693,0.8042916806028093,4.040165197196292,2.6319718148401536,,,0.6468212168108125,4.392750598036858,inf,,0.6173401526783991
77,4.62571653482848,-4.62571653482848,0.0,1.531496372896012,1.5091989537633093,0.8106907373896021,4.283182211642905,21.684806498939796,,,0.6309483474627791,4.56594947283481,inf,,0.8468375518207839
78,5.601385732073482,-4.929219444224665,0.0,1.5125857785045995,1.4980296799465842,0.7977987748227119,4.233527219193083,40.54018466120816,,,0.6008849035917525,5.693832143803033,inf,,0.7240525780394127
79,5.7037824746562,-3.118067752812056,0.0,1.6182749503426497,1.6282398608382997,0.8261696939748199,3.6417647955665853,3.6303279503257286,,,0.5677978065141052,6.307698521488204,inf,,0.8005434020880481
80,,0.0,0.0,1.6393445880549276,1.6312021028688304,0.7323054189223697,3.9142493979016484,32.90046825649207,,,0.5490601803369085,inf,,,0.7505810570579221
81,4.617334139231335,-4.617334139231335,0.0,1.5324943813558598,1.4617714733535034,0.6795456221574432,3.9457422316298594,4.0425795779564115,,,0.6097226960127671,4.615220521841593,inf,,0.647548843759687
82,5.079950012152249,-5.079950012152249,0.0,1.6016764740232399,1.5911877188557397,0.7654374257992252,5.076533360676092,13.155673472796032,,,0.6447042257417027,5.061928588483807,inf,,0.5782797749122383
83,,0.0,0.0,1.4742562548592426,1.458066909769284,0.8754763535263841,4.813939797580025,22.492483218089244,,,0.524519217297268,inf,,,0.9134725308677839
84,,0.0,0.0,1.77355366558993,1.7853312780242216,0.750070271981523,3.444232251246439,27.634229007764493,,,0.5158180382284114,inf,,,0.8316854635817387
85,4.841357979926089,-4.841357979926089,0.0,1.6832782768817924,1.645658261958138,0.7930895483757524,3.666843238540024,23.23933330609479,,,0.6038851895711802,4.730481488065267,inf,,0.8812948668163841
86,4.588871814012103,-4.588871814012103,0.0,1.6663883113197875,1.6872627829388525,0.7708034406831347,5.058620249084602,6.80810965230245,,,0.6547956803312163,4.513908594709767,inf,,0.807535599017746
87,5.140768886117714,-4.4381971383482925,0.0,1.6908065832683934,1.6707142124598835,0.7771825524092091,4.290137221839694,4.1041739249465286,,,0.6447042257417027,5.144166686720778,inf,,0.7695851917386308
88,4.633649361232567,-4.633649361232567,0.0,1.6760899143055419,1.6848846289098705,0.7857074229779988,4.877369518572334,4.878118887444371,,,0.6284777104787076,4.515939052260149,inf,,0.6870656133716778
89,5.327004068666037,-5.309247388437151,0.0,1.4818415034743038,1.441980263497752,0.7408984367304664,4.0407423543530445,9.578986769537744,,,0.648888643467878,5.179053945721219,inf,,0.7074764632392904
90,5.19893118172868,-4.401761733863616,0.0,1.5972820320092063,1.5922551248889119,0.821490645443723,3.5437428569695713,5.157999697859999,,,0.6468212168108125,5.32306553623723,inf,,0.8225553614750811
91,,0.0,0.0,1.294582250530042,1.2736132934726154,0.8329802215600648,3.617244075042222,6.2944843131637,,,0.581717464821069,inf,,,0.9522670190292856
92,,0.0,0.0,1.7019766662529765,1.6838964848044304,0.7520146368117502,4.147351903083686,10.586885589759099,,,0.5604843169999094,inf,,,0.8813080022565482
93,,0.0,0.0,1.466375900363328,1.4352277797215311,0.8593539354786484,3.1885725838649006,4.652172931522253,,,0.5329562494928909,inf,,,0.9085520946168896
94,4.993328399061033,-4.077884859233177,0.0,1.612622802610925,1.5927772785632097,0.7693711472915076,3.8616903875579482,10.040768614975887,,,0.6125606311107803,5.077844043789706,inf,,0.6432328139826247
95,4.587961392193493,-4.587961392193493,0.0,1.5895993036869773,1.5693318625802657,0.7608462831739562,3.0176174186094307,0.7164132774321681,,,0.6284777104787076,4.573456210498564,inf,,0.6628001883025897
96,,0.0,0.0,1.369561784289151,1.2045373429773771,0.8233485984884119,0.8302818624114154,0.8977848647088146,,,0.6309483474627791,inf,,,0.9025896210188487
97,,0.0,0.0,1.6503643884976253,1.4519074881520448,0.7028534832198953,1.0384463963700092,0.633407665475634,,,0.6309483474627791,inf,,,0.6914142786887284
98,3.9888547795478697,-3.9090776839569124,0.0,1.4680780158935265,1.4464258122356353,0.8364078435461006,4.281178523909503,6.710306086858769,,,0.648888643467878,3.923758261646567,inf,,0.7493536342956107
99,4.759407702571409,-4.759407702571409,0.0,1.1675812297125632,1.1642766609343953,0.748957128219016,4.5312893311214415,4.4388608702794885,,,0.6309483474627791,4.669412454716445,inf,,0.674038273520149
100,4.6934247853997295,-3.7547398283197837,0.0,1.3755777340969653,1.283208243422006,0.7766733297198727,3.6772735769116425,3.183634806111497,,,0.6380535849069913,4.748271029628765,inf,,0.5164554829055561
101,4.706988164127744,-2.0378841498311013,-2.669104014296643,1.716893179019179,1.6721914316123017,0.7176058347668453,3.4471248532326104,3.148353269875391,1.9535353317146154,,0.6447042257417027,4.668228321955228,1.7976942047478695,inf,0.7571497531542654
102,5.213665602513355,-3.773939166529861,-0.3622355447974015,1.6215342894630835,1.566019915093122,0.7595847807143341,3.997584132316891,3.7072584557703445,4.2814959233365055,,0.6284777104787076,5.327631754216812,3.1354942159291497,inf,0.8770575601985853
103,5.703782474656203,-0.5703782474656203,0.0,1.4961537891347343,1.498678073813405,0.7600537864044149,3.1749922288542436,5.5454600968107055,,,0.5567373465730988,8.006367567650246,inf,,0.776248844473227
104,,0.0,0.0,1.7707947455550823,1.7621306051292325,0.7562563329491785,2.755960864143004,2.8783463343747306,,,0.5370774965580548,inf,,,0.6800021298527108
105,,0.0,0.0,1.528037411107381,1.5255611974038699,0.7736831143582401,3.1699118310161305,4.353566146394865,,,0.5641709578113449,inf,,,0.8557020387305709
106,,0.0,0.0,1.3707168401152439,1.349676394831375,0.6216099366314726,2.689603466212709,3.0224145876254,,,0.5677978065141052,inf,,,0.8527787643727958
107,,0.0,0.0,1.169995242377154,1.1372614896831779,0.6916948288494266,3.337278386642236,5.3200785133969735,,,0.5713653840954815,inf,,,0.7028182295385395
108,,0.0,0.0,1.72045525159286,1.7047955893478137,0.785960584092908,3.0274204940795153,4.383665443940702,,,0.47824363442641393,inf,,,0.878629973398473
109,,0.0,0.0,1.484156416514216,1.4866834554304797,0.6330186905788068,2.5720438275151367,3.0582344770091874,,,0.4732203808476458,inf,,,0.9005883302102331
110,,0.0,0.0,1.556365816458419,1.5436835563685072,0.9069588015510319,2.8926048895518113,3.2785049715788563,,,0.47824363442641393,inf,,,0.8674529534032104
111,,0.0,0.0,1.6110747983173317,1.6102385681192801,0.8364715813850712,2.867797067596436,6.393567404814427,,,0.4732203808476458,inf,,,0.9146750002669177
112,,0.0,0.0,1.738676916265307,1.727085736481186,0.9028621013752641,3.1787926893884064,3.801414384239103,,,0.41268473150466,inf,,,0.884412250043728
113,,0.0,0.0,1.7012854495323935,1.6820836546304603,0.8632637761286016,3.3026556477195426,5.392048389077405,,,0.468121228110369,inf,,,0.8956661179548782
114,,0.0,0.0,1.7206721535436453,1.7151877821896706,0.906325708082489,2.966678440896326,5.6323090373453955,,,0.38163879478178075,inf,,,0.8367189009645891
115,5.068397559142918,-4.054718047314334,0.0,0.9064091817249327,0.832914785986852,0.8380382628368669,3.3458984590827345,3.5187686371231246,,,0.5068466436745385,5.276338459829262,inf,,0.7364011426532544
116,5.599156485137719,-1.978368624748661,0.0,1.595419213302585,1.5672908703913278,0.8053721778575458,3.721250384033334,5.015757650155178,,,0.6602640781246099,6.603543904579146,inf,,0.6497293880864905
117,5.703782474656201,-0.22815129898624803,0.0,1.0419354804792578,1.041501828419261,0.7011703585108656,2.086728863015056,2.4520400034118732,,,0.541134803179459,8.922658299524402,inf,,0.7398583416508824
118,,0.0,0.0,1.6003543648004452,1.5757151258201159,0.88890726307599,2.039777078703651,1.953889050709555,,,0.524519217297268,inf,,,0.7774074364865879
119,,0.0,0.0,1.7178010035043656,1.7184920989788615,0.8770029990082738,2.1898553350363863,2.763588934580615,,,0.49759852643134905,inf,,,0.7964641644747996
120,,0.0,0.0,1.707533967742301,1.6858987271500605,0.7263067744886146,2.264327949175477,2.29915559767655,,,0.4732203808476458,inf,,,0.8496333252270909
121,,0.0,0.0,1.3572455357550801,1.3742131637697343,0.634796889557634,2.425750671230658,2.846237437162556,,,0.44144624493110796,inf,,,0.7247369850594845
122,,0.0,0.0,1.6456538562187735,1.6202737832134717,0.9434824331153697,2.1500002161973453,3.4677187265088145,,,0.3751344627501719,inf,,,0.7631213253270045
123,,0.0,0.0,1.5992819798559221,1.5797876801588908,0.9737540910206683,2.250825182866675,3.6244428889819837,,,0.3265551233283096,inf,,,0.7653147941026645
124,,0.0,0.0,1.7522008770565147,1.754672534113309,0.9707502997841062,2.446919434766409,2.6745812908563793,,,0.31914402280573173,inf,,,0.7506929568515734
125,5.034358460851116,-4.262423496853945,0.0,1.4506813633661484,1.389595054409232,0.7996110808116759,3.182496637176347,6.277207139547285,,,0.48319206230712763,5.090400262565118,inf,,0.8304598046769232
126,,0.0,0.0,1.4611490458691632,1.417602965611344,0.7793980693930459,4.580973027790736,17.90412185954655,,,0.42445136339222655,inf,,,0.8645857090020199
127,,0.0,0.0,1.639193046766545,1.6132996513093056,0.9658427595147097,4.822221131523937,118.56697373117436,,,0.3943459996787778,inf,,,0.7972165372362815
128,,0.0,0.0,1.7400682931933023,1.7181258456339208,0.957483537313111,4.215362477650707,76.51136108703703,,,0.42445136339222655,inf,,,0.8181262523174803
129,,0.0,0.0,1.661498987481818,1.642372804505152,0.8842233903751918,3.640191194611999,2.7986675612474836,,,0.4576907132971797,inf,,,0.8581810959364632
130,,0.0,0.0,1.6921870617218877,1.6579028086996401,0.7392499319714017,3.528926725023607,10.676981954829149,,,0.40055318934786044,inf,,,0.8703373277935161
131,,0.0,0.0,1.4934943973426122,1.4405958430131882,0.8635352027680445,3.46784978514213,9.17378866735577,,,0.3751344627501719,inf,,,0.863448888816688
132,,0.0,0.0,1.6988649769383874,1.682510167036593,0.9541684957002572,4.260256843185694,37.10965883286803,,,0.36181263880445963,inf,,,0.8380104835254351
133,5.703782474656201,-2.7948534125815385,0.0,1.6599023656452938,1.6512835904288807,0.7331914342760177,3.0376945668118602,3.3367740716741414,,,0.41861278947482794,6.417132362533666,inf,,0.9154786018202765
134,,0.0,0.0,1.5281835695118635,1.500609914888117,0.954228947266392,2.5492756179185876,4.741765673802991,,,0.30393309777884125,inf,,,0.7990203345584082
135,,0.0,0.0,1.5837326163869347,1.5604578511364966,0.9522345563135249,2.471344520909188,2.3727970175541406,,,0.30393309777884125,inf,,,0.7646529358268487
136,,0.0,0.0,1.664729674711851,1.6583520213634062,0.8562654621031073,3.0546481284065377,4.3382376370253475,,,0.2548524784312949,inf,,,0.7857464355548616
137,,0.0,0.0,1.7216912913065425,1.6935376102253261,0.9558007727028348,3.2581258120299066,3.589694867145103,,,0.31914402280573173,inf,,,0.7854291455301358
138,5.382745885765278,-5.113608591477014,0.0,1.47806464349009,1.3221416461733104,0.7569321375704964,4.230709936289673,4.002717658009719,,,0.38163879478178075,5.3744787275136,inf,,0.758496790207039
139,,0.0,0.0,1.3517578132326338,1.3431346926088472,0.9549555830620728,4.6481319822693985,52.0367383906108,,,0.31914402280573173,inf,,,0.8481707966199801
140,,0.0,0.0,1.7258740486777522,1.7102260511575405,0.9735398527025584,3.8968716127083405,17.789780849470763,,,0.3751344627501719,inf,,,0.8250634563505695
141,,0.0,0.0,1.7252744841367353,1.7058376825819792,0.9729084218170081,3.578357510391531,20.71971808320984,,,0.38804190201132227,inf,,,0.8431986931773825
142,,0.0,0.0,1.4094717246626856,1.4125959370641203,0.8763841282304297,4.191437903320979,47.457550483051094,,,0.38163879478178075,inf,,,0.872112375325744
143,,0.0,0.0,1.754504460611182,1.7142350653899816,0.9694146555126553,4.355254880096789,23.588936009110686,,,0.4066654671944331,inf,,,0.807960292537403
144,,0.0,0.0,1.5219835431126292,1.5007258984576048,0.9668402955443992,4.582268276915091,31.518427109863296,,,0.35499006010413947,inf,,,0.8315186794652799
145,,0.0,0.0,1.673146706444512,1.65207244782842,0.9574599043654005,4.620708925409304,215.469920364992,,,0.38804190201132227,inf,,,0.8551715707793051
146,,0.0,0.0,1.5384559060738967,1.5272168496756302,0.9684366278796949,5.231566739096632,117.77095606039614,,,0.3265551233283096,inf,,,0.8227570452532667
147,,0.0,0.0,1.2957640831712773,1.2534326348876923,0.8960507387834911,3.896446035011362,4.417078382180437,,,0.4732203808476458,inf,,,0.9250824199336328
148,,0.0,0.0,1.6184117766545658,1.6018346020987817,0.9600246391822822,4.168149306393647,10.296271194705763,,,0.3265551233283096,inf,,,0.8327974957071446
149,,0.0,0.0,1.6904917620518072,1.6675125350290712,0.9659790344844948,4.954691494172314,26.21098710118833,,,0.3116047106179316,inf,,,0.8027198115563133
150,,0.0,0.0,1.6572441933658466,1.635091957127817,0.9626039095151123,3.3286977005225626,50.064898517914635,,,0.30393309777884125,inf,,,0.7971188686199523
151,,0.0,0.0,1.6701357561588668,1.6413976660064429,0.9653687670278822,4.84204882662383,57.91269147012387,,,0.30393309777884125,inf,,,0.8511418859283539
152,,0.0,0.0,1.5573681743512242,1.5365862575427434,0.7104752794660135,3.7569293544314526,35.95330463539849,,,0.38804190201132227,inf,,,0.9214714490560879
153,,0.0,0.0,1.5826506143745183,1.5077054014402507,0.9097639930486987,2.598945519887742,3.801571668595241,,,0.40055318934786044,inf,,,0.8465225454373784
154,,0.0,0.0,1.6800185091684703,1.6481853825967654,0.9540164638244997,3.569280416456931,18.0140284179185,,,0.3685265678147087,inf,,,0.8272565657905044
155,,0.0,0.0,1.5361191417909423,1.5027963224560272,0.8222541851587384,2.9160510779126394,5.116902901394543,,,0.42445136339222655,inf,,,0.7929972046891025
156,,0.0,0.0,1.575620704963361,1.5640381126860539,0.827992781898651,2.825418671800785,3.166178434048217,,,0.45235697871908603,inf,,,0.8882923973395119
157,,0.0,0.0,1.6423434771019607,1.63562609639879,0.6804552883531109,3.4633304636423703,5.7937809835746155,,,0.44144624493110796,inf,,,0.8582984835238188
158,,0.0,0.0,1.6158470615837928,1.5920816105680617,0.9505097087217121,3.596492800216996,8.398613085347042,,,0.40055318934786044,inf,,,0.8940146097826277
159,,0.0,0.0,1.592900663085966,1.5107698752214034,0.7296098208969645,3.4536659704116666,3.710576130946019,,,0.49759852643134905,inf,,,0.934566936332165
160,,0.0,0.0,1.7393495523123077,1.7484692268457533,0.9047528147555998,2.887001275746953,4.093417430418407,,,0.41268473150466,inf,,,0.8911772510334101
161,,0.0,0.0,1.6539737790805,1.6257413241154561,0.5769147479532298,2.9308110488393346,3.0806884615140535,,,0.49759852643134905,inf,,,0.8881971596377384
162,,0.0,0.0,1.4948843793625357,1.4723362234221262,0.9307212837616298,2.8613569432558394,3.3506822341955096,,,0.30393309777884125,inf,,,0.8673912551023604
163,,0.0,0.0,1.5937893215486423,1.5493524680243627,0.6854407538006425,3.020638034492613,3.779885041828774,,,0.585052858160615,inf,,,0.8057712601794463
164,,0.0,0.0,1.4294528025745845,1.4032734708608614,0.8131008335568244,3.85811454768559,8.736529042364818,,,0.5490601803369085,inf,,,0.5801641577090663
165,,0.0,0.0,1.214065251802188,1.1944933806074638,0.6539266706627848,2.7742742793656756,2.915109534814993,,,0.3943459996787778,inf,,,0.7199980221991628
166,,0.0,0.0,1.553232696214685,1.5375456727064123,0.9360983449070828,2.2318738542821337,3.046005273915288,,,0.38163879478178075,inf,,,0.8077426953532062
167,,0.0,0.0,1.7628127589085165,1.7540704764259987,0.9052361035694169,3.203302024845164,2.8658943528626275,,,0.42445136339222655,inf,,,0.8495249598804663
168,5.703782474656199,-1.311869969170926,0.0,1.2603172902777957,1.2636259763468167,0.6081929862155644,3.1500232583090235,3.297334398228645,,,0.4629450596409901,7.173458444715143,inf,,0.8676662207784844
169,,0.0,0.0,1.3331006836664274,1.3394905600245413,0.9443372583997324,2.6680480573215615,2.972719511218154,,,0.38163879478178075,inf,,,0.8271812474413516
170,,0.0,0.0,1.7001144601431142,1.6577601172141359,0.9477074803705773,2.757297283900975,3.6679134498398778,,,0.3685265678147087,inf,,,0.790804029008198
171,,0.0,0.0,1.7418215122364586,1.7216348387460152,0.9639386799750187,3.0958032769630774,6.5825812480441614,,,0.3943459996787778,inf,,,0.8717144679839992
172,,0.0,0.0,1.4108913525087456,1.3817739044717163,0.9593787505370316,3.418137303510584,3.9081903546195744,,,0.30393309777884125,inf,,,0.8174092073834593
173,,0.0,0.0,1.3544619017273165,1.3374662582753771,0.903023194150075,3.3762908733798573,8.460227196769262,,,0.4066654671944331,inf,,,0.8470222498725453
174,,0.0,0.0,1.7500030748929118,1.746353223260608,0.6381260845803837,2.7156832272486753,3.809443390707911,,,0.5022576003740722,inf,,,0.9138029956341129
175,5.7037824746562,-2.6237399383418523,0.0,1.6567623740727304,1.6287438755748305,0.7991334391145655,2.8977354531552137,3.4791716191027295,,,0.5329562494928909,6.480311264155198,inf,,0.6723597856567655
176,,0.0,0.0,1.3893732810340693,1.3885899090800118,0.4823024055353592,2.168483758630439,2.099920928706495,,,0.5713653840954815,inf,,,0.801146318805793
177,,0.0,0.0,1.7708933643586806,1.7336627120460117,0.7407161551183317,2.4091595815536198,2.277018811763536,,,0.4880666971167561,inf,,,0.918714061956712
178,,0.0,0.0,1.6018093974779772,1.5997548768445162,0.8342402467107523,2.27432311192445,2.01666956008115,,,0.47824363442641393,inf,,,0.6202192727763198
179,,0.0,0.0,1.77089357602032,1.726137034296479,0.9559990753349719,2.578704603664331,3.6964185403579477,,,0.38804190201132227,inf,,,0.8351348784171604
180,5.703782474656201,-3.5363451342868446,0.0,1.5758038320402252,1.5600099554740225,0.8473540915152229,3.1108380592113076,4.106008063506697,,,0.41268473150466,6.181818275599201,inf,,0.872409054505438
181,,0.0,0.0,1.7391357898394275,1.7203462370014673,0.8252042626477762,6.297617379525494,7.580590557998487,,,0.44144624493110796,inf,,,0.9007514780492736
182,,0.0,0.0,1.7165411543174893,1.714535606289471,0.8294014834725665,3.7551989793963045,4.367301630191615,,,0.4629450596409901,inf,,,0.8335818133635781
183,,0.0,0.0,1.5477608043658313,1.542358998298048,0.8416918095904953,2.918022593111562,2.051377014574378,,,0.4629450596409901,inf,,,0.6463758155765364
184,5.703782474656201,-0.3232143402305181,0.0,1.3941515135737146,1.3050132932830807,0.6765675406740942,3.7122041270677664,5.74476899640287,,,0.5329562494928909,8.574351605256187,inf,,0.6964358409199062
185,4.601657576242143,-0.9030420135739385,-3.6986155626682047,1.638510342586425,1.607361065290133,0.7761417071550963,3.3164927164855187,2.7426714468547053,1.7132879746782825,,0.6207552362147116,4.575611383746547,1.564095406502527,inf,0.732452136011855
186,5.626766121260651,-2.869650721842932,0.0,1.7488833493437028,1.732934011275181,0.7840814758995884,3.829408386091535,3.7358735899476416,,,0.648888643467878,6.271766512262141,inf,,0.6357186311939083
187,4.4955368900309995,-3.6413848809251097,0.0,1.5635760536302505,1.578155375900329,0.6427100609136539,4.442817083430423,1.947579765203752,,,0.648888643467878,4.502814179350564,inf,,0.8753439853391833
188,5.703782474656201,-0.30420173198166406,0.0,1.6062896636260187,1.5656848771878262,0.7177584427322455,3.7873270158992023,10.591995373638895,,,0.6425374456860184,8.63497622707262,inf,,0.7023667870267946
189,5.7037824746562,-2.680777763088414,0.0,1.7047680875933764,1.686697612574109,0.7393265641849022,3.6259772472551894,3.6262478156645273,,,0.6425374456860184,6.458805058934233,inf,,0.8642468142482992
190,5.522083699169615,-1.8959154033815677,0.0,1.6516381126340742,1.5922123169612,0.7501982462071404,3.943295305651338,3.6369037998755758,,,0.6233814453054027,6.54003049885682,inf,,0.6379785625569948
191,5.703782474656203,-1.939286041383109,0.0,1.5270583882208857,1.5069890774022476,0.7795775781171531,3.3577192189690384,4.542434383786864,,,0.6008849035917525,6.782592136028131,inf,,0.6319906349699017
192,5.7037824746562,-1.1027312784335321,0.0,1.722054260656597,1.7223453282845653,0.7593982875578311,4.061206327249297,6.2458398445142285,,,0.6509067234006624,7.347121938765983,inf,,0.7385053537480372
193,5.703782474656201,-0.8555673711984302,0.0,1.730997167452884,1.721414579683624,0.7423565662933456,2.9889177886171097,2.580955453655843,,,0.6566669596287297,7.600902459542082,inf,,0.7070917119177241
194,,0.0,0.0,1.6077935846787397,1.5215191062757092,0.7793790109673606,3.088749868318889,3.486866802203523,,,0.6309483474627791,inf,,,0.848468721010534
195,,0.0,0.0,1.71195736012415,1.6867767445522486,0.7727089766313123,2.616025541094184,2.812037129579272,,,0.5490601803369085,inf,,,0.8131268087333917
196,5.703782474656202,-3.973635124010487,0.0,1.7159097495551328,1.7011769727430301,0.6220617213646167,3.143505830541435,5.528772681290677,,,0.6038851895711802,6.065230697347591,inf,,0.7299070658419813
197,5.447806959843608,-4.376404924407699,0.0,1.404083668558097,1.3775540027420323,0.7712347123224321,4.414247542269579,2.862500550280621,,,0.6566669596287297,5.608472294851876,inf,,0.6741917653443111
198,,0.0,0.0,1.5546352017654168,1.5584415333300017,0.7759282949867398,3.5592224707846865,6.222556035711326,,,0.6468212168108125,inf,,,0.9094725856987688
199,5.445296809451362,-5.009673064695253,0.0,1.39091267715307,1.3692779476830452,0.6254358872708683,3.3533616390554957,2.2195903122864347,,,0.6284777104787076,5.464765574185701,inf,,0.7238296055689529
200,,0.0,0.0,1.426965958740129,1.4308645633030033,0.7522052969405966,3.339290286583981,4.102150093069381,,,0.6584896970785714,inf,,,0.7137853166010799
201,5.562986953604963,-2.3735411002047844,0.0,1.7402861404287016,1.741550291990804,0.7139946783045512,3.519514359053718,2.9988027773640606,,,0.6602640781246099,6.370612346898773,inf,,0.6597581103844303
202,,0.0,0.0,1.7071551012236166,1.7208617885376534,0.6306448479279461,3.7852239075878042,5.275173214843012,,,0.6207552362147116,inf,,,0.6747544104234493
203,4.557302534647851,-1.3975727772920077,0.0,1.4688663586958142,1.4521929049267088,0.7313617866952995,4.480040513539702,4.921619591602218,,,0.6509067234006624,5.667772037133168,inf,,0.8104190613455614
204,5.495869497270599,-2.1433891039355335,0.0,1.6324389981324599,1.6067225372329224,0.8050703400166624,5.057507065634369,8.594831888645283,,,0.6727386042041725,6.364139832393156,inf,,0.756713432187983
205,5.289323335764687,-5.130643635691746,0.0,1.6584133276680695,1.6475740402751498,0.8176214957418589,3.5090922970123746,2.5929235959807655,,,0.6357360191111145,5.265527543725046,inf,,0.5436867563734689
206,5.638081320100757,-3.9654505284708654,0.0,1.6454897345326798,1.6332665468084964,0.6647648136199572,3.1728401590426856,2.8154084671204336,,,0.6207552362147116,5.965147238790609,inf,,0.7932937202809631
207,5.0445716668838765,-3.447123972370649,0.0,1.7185945689940076,1.666153414122387,0.7682561029121864,4.905833991473098,28.35211255252521,,,0.6425374456860184,5.094016903035307,inf,,0.7833510536953507
208,,0.0,0.0,1.0775218831623998,1.0135749313516926,0.7639005572411954,2.626370688806867,2.475720155390542,,,0.5329562494928909,inf,,,0.9138284696337681
209,5.269850106527453,-1.8620137043063665,0.0,1.6356139609380511,1.6476234744260632,0.8102255775060633,4.392720660741123,11.514417624018925,,,0.648888643467878,6.220179143471647,inf,,0.8297929626539933
210,5.703782474656201,-0.20913869073739402,0.0,1.4135856499564334,1.3564465222454312,0.7218597474861225,3.4150346268444247,2.8258119445481333,,,0.6403206450210053,9.009669676514031,inf,,0.6927624951474577
211,5.662808257086156,-3.831833587294965,0.0,1.7517094021703008,1.7191626408885925,0.6737284506763651,3.2389984386429043,2.9853059501988444,,,0.6468212168108125,6.036926921184739,inf,,0.5501739009924554
212,5.703782474656202,-1.7301473506457143,0.0,1.7596450271392963,1.7250846382353908,0.7844109709683014,4.865618570285228,18.384412097260935,,,0.6509067234006624,6.896705442795552,inf,,0.8507269730861761
213,4.954394255489815,-4.244264412202941,0.0,1.4833007714472741,1.4550566806721745,0.6515044251323339,3.5140977799290356,6.644579915353082,,,0.6380535849069913,5.027442412412637,inf,,0.7965042468298681
214,5.703782474656201,-3.688446000277677,0.0,1.628621770881282,1.562090543875642,0.6034875994862099,2.6604879891901017,3.309095643814085,,,0.6447042257417027,6.139706790249074,inf,,0.7126320393117495
215,,0.0,0.0,1.186319385819789,1.1106475855709568,0.7481357747525336,3.0729329986023095,5.037646783676656,,,0.5783247308855777,inf,,,0.80784829018236
216,,0.0,0.0,1.7278487156540927,1.7161645675127633,0.9021886810353941,4.172300027085265,13.668184233082608,,,0.5604843169999094,inf,,,0.9116997857133625
217,5.7037824746562,-2.832878629079246,0.0,1.584780571345708,1.5941471006454564,0.701602850358963,3.883790298526323,9.74667415851139,,,0.6097226960127671,6.403618643366943,inf,,0.8293151767574797
218,,0.0,0.0,1.5192897663527374,1.5132209742508977,0.6255560993323491,3.474002591599026,16.034653198930204,,,0.6008849035917525,inf,,,0.7371986914529546
219,5.703782474656202,-3.7454838250242393,0.0,1.74055414694533,1.673251285605105,0.8142382008757234,2.983408467839807,2.7785324544751218,,,0.6068309995095971,6.124361220574413,inf,,0.9329258414699337
220,,0.0,0.0,1.2393065190263854,1.2222007398720998,0.8085529439659378,3.661698668736065,7.25850245011415,,,0.541134803179459,inf,,,0.9042912089518119
221,5.7037824746562,-0.9506304124427,0.0,1.454259660268049,1.3961358591426505,0.5233270799204404,2.9021555799465526,3.7259690485224026,,,0.62595550513784,7.495541943884256,inf,,0.8454423676856971
222,5.1753228813091665,-2.5014060592994305,0.0,1.7057085206558906,1.6923229898699532,0.7981436395992304,3.767285144459116,2.3164472548377986,,,0.648888643467878,5.816577968801545,inf,,0.6153900477010426
223,5.7037824746562,-2.832878629079246,0.0,1.6951364495756684,1.6821216712098,0.6687853592135127,4.406483065018497,23.16267106712111,,,0.6528756675646988,6.403618643366943,inf,,0.8562020680515667
224,5.703782474656201,-0.874579979447284,0.0,1.7314071823801014,1.747093452887518,0.7978096392882098,3.5242337747847063,17.371581831801016,,,0.5947193981915972,7.578923552823307,inf,,0.7784846364559876
225,5.703782474656203,-4.391912505485276,0.0,1.718673888594949,1.7048507871563767,0.6812423006241765,4.261095484003424,3.0561853203345963,,,0.6097226960127671,5.965147238790609,inf,,0.7140542550724903
226,,0.0,0.0,1.1835547899088783,1.1580534896903192,0.8029031185836164,3.932503126735728,2.218557114767863,,,0.6233814453054027,inf,,,0.931701274585201
227,5.011149493666396,-1.252787373416599,0.0,1.3002814994359764,1.239841514575708,0.766334647679653,4.903711016546244,4.6923297723353485,,,0.62595550513784,6.351319143964094,inf,,0.7405558715694035
228,5.7037824746562,-2.9849794950700783,0.0,1.4809759256280597,1.4549581921163703,0.7516425526734638,4.296552159338678,5.494821887999063,,,0.6447042257417027,6.351319143964094,inf,,0.5507792123620626
229,,0.0,0.0,1.6767506455719379,1.6337596408788,0.8549783825366838,4.425860937744917,8.794147464135898,,,0.6403206450210053,inf,,,0.7988812812732174
230,5.703782474656204,-2.3575634228578974,0.0,1.6373351560566836,1.606887020261675,0.8303093521017891,3.9318123401697616,23.637887598428065,,,0.6068309995095971,6.587283383707366,inf,,0.8525076831782034
231,,0.0,0.0,1.4498092198698955,1.4027213546207762,0.783794435551133,3.714412352930285,4.2797956586194115,,,0.6309483474627791,inf,,,0.8758567420804482
232,5.703782474656202,-4.296849464241006,0.0,1.7694062574023386,1.724517511735219,0.6876829403031621,3.7654334374208926,46.758239838848375,,,0.6068309995095971,5.9870299500401165,inf,,0.8196614001235615
233,5.703782474656201,-3.0420173198166407,0.0,1.44669788082195,1.4328226552244436,0.7578047358293971,4.288226029606989,18.092715373247685,,,0.5748741956352443,6.332391134078575,inf,,0.8165683350918952
234,5.703782474656202,-3.6314081755311154,0.0,1.2790083958946141,1.2832162069371635,0.7270624933711466,3.6121399150247018,4.7319705037935424,,,0.5677978065141052,6.155291521265772,inf,,0.7296382792510285
235,,0.0,0.0,1.6777149762234944,1.6464840759111112,0.7573855082145262,3.706333111979154,7.676064935235767,,,0.6038851895711802,inf,,,0.824402081219149
236,4.951076738017869,-4.951076738017869,0.0,1.6354651287882387,1.6554239428990463,0.7151854819856698,4.417794683843519,14.3981813100535,,,0.6380535849069913,4.924457597855203,inf,,0.7380696223195736
237,5.703782474656202,-3.954622515761633,0.0,1.5414337612281896,1.5268423430547025,0.7844930558015265,4.012439308048153,4.9998152559321,,,0.5883313578629602,6.070026869611084,inf,,0.6915540492676582
238,5.703782474656201,-2.775840804332684,0.0,1.3631251458847036,1.3537665809516244,0.7622313838602153,3.575002555019309,5.267202036453793,,,0.6008849035917525,6.4239583276040655,inf,,0.9092090690150513
239,5.045089179567779,-3.6829151010844785,0.0,1.5782048408683185,1.557996759029702,0.7738044366472202,3.6442238589290845,2.321643560319425,,,0.552929491858785,5.179053945721219,inf,,0.8242061269720264
240,,0.0,0.0,1.70726199062196,1.6890879465162334,0.7593366501823524,3.2854960201594623,4.355631795872584,,,0.5883313578629602,inf,,,0.7276285057129869
241,5.02057787064296,-3.2299050967803042,0.0,1.7800117484877551,1.7535493622084273,0.7575909304309535,3.5311299241411174,8.327950022303984,,,0.6403206450210053,5.357831494080444,inf,,0.6938847616255772
242,5.703782474656201,-5.1714294436882895,0.0,1.5559128129863133,1.5593503696551025,0.7225209458334775,3.382613926125252,4.789928408955452,,,0.524519217297268,5.801762883016405,inf,,0.7974940714015144
243,5.703782474656203,-4.467962938480692,0.0,1.6530950716175892,1.6346657304240653,0.7390047229621082,3.5009032541407548,3.2265031095629113,,,0.6008849035917525,5.947979435168243,inf,,0.706493822161777
244,5.703782474656203,-2.0723742991250873,0.0,1.6063471141809154,1.579179648952084,0.684026869819422,3.008509489304287,3.8509731536048015,,,0.6125606311107803,6.716217067083258,inf,,0.7427118027217889
245,5.703782474656202,-3.612395567282261,0.0,1.6270392028967298,1.622666854886594,0.7238806136011446,3.1001164414672986,9.713492294143673,,,0.6233814453054027,6.160540877151916,inf,,0.6718857985036552
246,4.896545298716699,-4.178385321571583,0.0,1.7347690126203401,1.7119495643244511,0.7610383893581506,3.8784037808211336,2.0843620418298046,,,0.6509067234006624,5.019003543766773,inf,,0.6113365174522972
247,4.070636626372257,-4.070636626372257,0.0,1.6059514716785046,1.5985793958401235,0.8325742755145806,4.253448371329825,30.032726340553424,,,0.6509067234006624,4.044285362349363,inf,,0.6145090940187471
248,4.976786565883009,-3.0187626875911553,-0.5147557741857811,1.696830209111365,1.678290937390706,0.7270905489097232,3.962976367070594,1.5284481216779384,2.860800135499283,,0.6468212168108125,5.244250145277761,2.867477938030312,inf,0.5134129583376821
249,5.703782474656201,-0.7985295464518681,0.0,1.6721304927787164,1.5981055197979015,0.7094581501908528,3.2111041210715183,2.4333649591559903,,,0.6566669596287297,7.669895331029034,inf,,0.6416777547637413
250,5.703782474656202,-2.015336474378525,0.0,1.5280421983568757,1.5025086195089967,0.6963802086875702,3.4004651527188288,3.050569756754057,,,0.6153451465759925,6.744125855200335,inf,,0.7757273599390482
251,,0.0,0.0,1.2081333566043504,1.201720317881667,0.819676411457228,3.181094599525584,5.083484244851093,,,0.6180765742263259,inf,,,0.7653600908164179
252,,0.0,0.0,1.4112654966517104,1.4057961500667049,0.7490409765974115,2.9645366801854203,3.600141772870508,,,0.6180765742263259,inf,,,0.6551043844352245
253,,0.0,0.0,1.451693796606462,1.3937732973488162,0.7192061477584792,2.990110642696658,2.4193819469654536,,,0.6038851895711802,inf,,,0.6422506476875914
254,5.651271324613782,-4.973118765660128,0.0,1.4582057991575708,1.4496404039318889,0.717360806202273,4.016238591437625,11.201752922986321,,,0.6125606311107803,5.7585907111511965,inf,,0.6297845940224877
255,4.886777071626079,-2.850619958448546,0.0,1.5683732390132816,1.543871595354752,0.7568635972584027,4.154410314490547,5.875924002422727,,,0.6233814453054027,5.346108030384385,inf,,0.777072270516766
256,5.7037824746562,-1.292857360922072,0.0,1.7155315899741501,1.682565487267708,0.8112251143249022,3.1434581997029944,2.6715449661156065,,,0.6333676938231112,7.188057244136296,inf,,0.8308530855422409
257,5.235908127778237,-1.39624216740753,0.0,1.7604783846302876,1.7200947024965574,0.7240704548468799,3.839722568751557,4.999034522813451,,,0.6468212168108125,6.509725149361491,inf,,0.6895045327755516
258,5.703782474656201,-1.0647060619358242,0.0,1.7000925639953515,1.6680282657147512,0.6784699172178086,4.32213120313418,5.1334709554978435,,,0.6380535849069913,7.382213258577253,inf,,0.5812608478815917
259,5.088262739390907,-4.782966975027453,0.0,1.7324122578340277,1.7108637617281928,0.7262244513289439,4.484273033721171,7.199516584509971,,,0.6468212168108125,5.090400262565118,inf,,0.5816290662052136
260,5.703782474656202,-0.6654412887098902,0.0,1.7040439817734083,1.7045497457144962,0.7892066826825506,3.5207310024404137,2.2641361658830483,,,0.6425374456860184,7.852216887822989,inf,,0.6761777600039187
261,5.518909135856875,-4.87503640334024,0.0,1.3877229439722334,1.3683705582235095,0.8118448373437936,4.764553894136612,19.69389968712918,,,0.6125606311107803,5.5270319629117015,inf,,0.4978106502975516
262,5.703782474656202,-0.5513656392167662,0.0,1.3681833493100057,1.3186130082846041,0.7245768425005085,3.5853017602344854,12.047385044969072,,,0.5915533975974677,8.040269119325927,inf,,0.8717264734459224
263,,0.0,0.0,1.7222550479999845,1.7230111403747215,0.7926236552373309,4.383381668959124,9.240619722798556,,,0.648888643467878,inf,,,0.764700333336795
264,,0.0,0.0,1.3467247456567364,1.3506501852543153,0.7291280666946718,3.4974576249205196,13.304091650490253,,,0.5748741956352443,inf,,,0.8191045117064047
265,5.703782474656204,-2.3765760311067514,0.0,1.3663715193268167,1.3517519141892522,0.7903761207253225,3.8653485046777427,9.565825157761768,,,0.6309483474627791,6.579251212010101,inf,,0.9227047372131296
266,5.328358760289853,-3.978507874349757,0.0,1.6290258012506382,1.6325313801309058,0.7688360821226022,3.6622743001839035,3.8193570352235304,,,0.5915533975974677,5.443985605693956,inf,,0.82937193193201
267,5.112106975323961,-4.566815564622739,0.0,1.647091194146878,1.6197984697872465,0.826068402491446,4.789062089446759,5.626125360778042,,,0.6619902821573977,5.024058314428396,inf,,0.8212938186401562
268,5.127526692613614,-4.888242113624979,0.0,1.407244175010674,1.374404935822874,0.7206976965707226,3.537253634197613,2.905462196834143,,,0.6566669596287297,4.9810764918547115,inf,,0.7491964969750456
269,5.303120572485111,-1.3081030745463273,0.0,1.5790791434931986,1.5518245986837764,0.7535169191630642,4.357311849402028,6.871085469238887,,,0.6528756675646988,6.595380593939985,inf,,0.7457276145299341
270,,0.0,0.0,1.7144636138041438,1.7095447130496266,0.7308123290502139,3.7251878121936857,7.411773282387939,,,0.6284777104787076,inf,,,0.9032437970850938
271,4.783950519038655,-4.528806491356593,0.0,1.7260937614421696,1.701149158917737,0.7491288840967627,4.611196863824783,7.829487380355283,,,0.648888643467878,4.6529608498244395,inf,,0.7810538423130243
272,4.195418615989019,-2.02200534720461,-2.173413268784409,1.6245085644604988,1.6355366089730294,0.7956909529714647,4.212748233484354,22.3801039489971,2.7846299688099982,,0.6468212168108125,4.161909881717866,2.50945661920004,inf,0.8429219905750611
273,5.547824359030213,-1.4794198290747234,0.0,1.675011994645839,1.6714505855549093,0.7686358102664042,3.7626358471440997,4.105499600127729,,,0.6468212168108125,6.82259747064183,inf,,0.7069775791040924
274,,0.0,0.0,1.7354849250189572,1.7454615969239984,0.7198476666948327,2.979180542111672,2.1014191216860834,,,0.6403206450210053,inf,,,0.7857420727727203
275,5.542581271554284,-4.49794021880192,-0.3241054874503066,1.5712111407030775,1.5205232022829807,0.7516954436819733,4.437499940372719,2.230932239340108,3.0873903717438234,,0.648888643467878,5.605446573935339,2.9689050313208467,inf,0.6758643057242194
276,5.3769843096203855,-2.921494808227076,0.0,1.5638907022833355,1.525171642022404,0.7712538297544883,4.698152975061373,8.434155255538002,,,0.6425374456860184,5.910396724019201,inf,,0.6011928745199782
277,5.4000959172871275,-5.382095597562837,0.0,1.7075573230367997,1.6595401009266084,0.6994641440969691,4.854104621930621,24.95427666216579,,,0.6584896970785714,5.343779740624794,inf,,0.6845110947249012
278,5.104701777986359,-5.104701777986359,0.0,1.7880373290158844,1.733484939632367,0.7516549542559812,5.688519039893434,12.914565775692141,,,0.6403206450210053,5.005647752585217,inf,,0.5983982558261907
279,5.221190220064939,-3.654833154045457,0.0,1.6208273236114379,1.600589350890241,0.7801874379550989,3.9254759741439154,3.051499185090502,,,0.6547956803312163,5.502203101257832,inf,,0.8858608747083025
280,4.8202043355387545,-4.324513590026521,-0.49569074551223363,1.7548923324010013,1.7574671038098804,0.8249125345173526,4.570520904908809,5.89559525238985,4.211603660921833,,0.6425374456860184,4.704376836071539,3.4450915752193807,inf,0.7321710150738039
281,5.235422830489117,-4.816589004049988,0.0,1.7326187292068136,1.7066741763178779,0.761054789756481,3.9295774763354268,3.3807381421665355,,,0.6333676938231112,5.217249543459255,inf,,0.7634549618602101
282,4.797882389066838,-2.3829482532365294,0.0,1.5317423985402745,1.4904935979953162,0.6916941378929732,3.689542868059171,4.855486478077173,,,0.6284777104787076,5.413603522005833,inf,,0.5875446144392215
283,5.703782474656199,-1.3308825774197799,0.0,1.4925332778431193,1.4274417259984324,0.807037221186677,2.591942586291174,1.394128112517842,,,0.648888643467878,7.159069707263043,inf,,0.8949978536732325
284,5.066182860434066,-2.718851468432949,0.0,1.6756152057301623,1.6603640206115877,0.7086081745078837,4.317094629426859,7.238588345992465,,,0.6509067234006624,5.596423956335702,inf,,0.715071889998705
285,5.423106679711152,-5.1338743234598905,0.0,1.2534034268763188,1.2228912081184249,0.760535774053035,4.2612065207590435,54.2075087785335,,,0.6180765742263259,5.418603532422539,inf,,0.6056062166923212
286,5.692034217358578,-2.2388667921610406,0.0,1.6312101056226984,1.6310804295263273,0.7132347841742946,3.6458420008920456,2.52135628900012,,,0.6509067234006624,6.620073206530356,inf,,0.574378992025108
287,4.501837176841703,-4.426806557227675,0.0,1.710108469003899,1.667615551172958,0.78852669837939,3.953542164174911,15.630374536179405,,,0.6447042257417027,4.419151767312811,inf,,0.8189513473481882
288,5.478300861702964,-1.5156632384044868,0.0,1.6736588673900323,1.6917908068883283,0.8454647919053317,3.2316779858823734,4.040486081529329,,,0.6309483474627791,6.707084583519986,inf,,0.8153409849677243
289,5.703782474656201,-2.9469542785723704,0.0,1.709375136992744,1.676994035501805,0.7147633057594454,3.928217728666399,10.273327134945287,,,0.6584896970785714,6.364139832393156,inf,,0.5988906237019551
290,5.579371442248005,-2.175954862476722,0.0,1.6829865962804238,1.6629624431638435,0.7874616985665421,3.6288422472827953,3.189928434047209,,,0.6619902821573977,6.480311264155198,inf,,0.5757923830919047
291,5.4148280047041055,-3.8445278833399152,0.0,1.6104278936643275,1.6010312915633564,0.808822630684947,4.554802304565822,14.25229791203316,,,0.6425374456860184,5.661361758772249,inf,,0.5735917281005538
292,5.278333515553888,-2.5511945325177128,0.0,1.3889933144986701,1.3660104723070963,0.7883421765355467,4.040662011494449,20.40285898507353,,,0.6333676938231112,5.952243833954701,inf,,0.8317646149241061
293,5.117273321874707,-1.5522395743019946,0.0,1.47549300355176,1.4341246796886447,0.8390913466015406,3.5385478609177428,1.9136211639168152,,,0.6380535849069913,6.283600969909143,inf,,0.8336371087222103
294,,0.0,0.0,1.767268762098157,1.7386676085673962,0.7838405976707853,4.575406726361069,12.57519389220202,,,0.6547956803312163,inf,,,0.8880758312182053
295,,0.0,0.0,0.7503580607333333,0.7191295832461939,0.7130292277687625,4.04900948524184,12.029575266076364,,,0.6125606311107803,inf,,,0.8637291126654864
296,,0.0,0.0,1.5351319489611384,1.5085502906864319,0.7701266858113165,3.7869308120151293,5.304513148284716,,,0.6097226960127671,inf,,,0.9434600944289926
297,,0.0,0.0,1.4285933725194861,1.3838511596530194,0.6362621351885014,3.5946381220955486,4.2183399187973905,,,0.5677978065141052,inf,,,0.9369281326168616
298,5.703782474656203,-0.5893908557144742,0.0,1.571838170044723,1.4982707384258949,0.784517702623312,3.996424686223239,4.834256305065615,,,0.6233814453054027,7.973577744827256,inf,,0.6826858483833712
299,5.703782474656202,-0.6654412887098902,0.0,1.691599623016149,1.6382414398777518,0.8323487069729222,3.8913739797575517,9.950786306204247,,,0.6068309995095971,7.852216887822989,inf,,0.6986298627689915
300,5.212098087072314,-4.499778015172431,0.0,1.6906624090299294,1.6869792021016585,0.7497935788495109,4.435768370838248,11.838073768934594,,,0.6447042257417027,5.237954216820946,inf,,0.8358037655043931
301,4.671427882653976,-3.737142306123181,0.0,1.5213472313253114,1.5169900586358613,0.8145445197141744,4.138534213387272,71.93836440891275,,,0.6528756675646988,4.7821725813044464,inf,,0.7513623204513803
302,5.334650840038478,-3.0051866398883424,0.0,1.3042273852174087,1.258454460885419,0.7639064041235782,3.2464960672836707,2.161221007584535,,,0.6333676938231112,5.8507368876128645,inf,,0.6829052577877462
303,,0.0,0.0,1.6400085075235764,1.5710747344343163,0.6009873926417273,0.9181494327349313,0.6817255621613402,,,0.6425374456860184,inf,,,0.8742830872168177
304,,0.0,0.0,1.521848377449741,1.5008176653058223,0.7584595673781053,2.4583495252234537,1.0584130764776751,,,0.6740851607140061,inf,,,0.6530034575189927
305,,0.0,0.0,1.7051034382969343,1.7138115000892387,0.8808756185517722,4.0549446165945735,12.098929808967833,,,0.6284777104787076,inf,,,0.9492137075706716
306,5.703782474656201,-5.342542917927974,0.0,1.7537103401598357,1.7097632243431204,0.7498256880260342,3.719970236032563,7.560625065179385,,,0.6233814453054027,5.769210279978656,inf,,0.6504995744965125
307,,0.0,0.0,1.650723130618823,1.6331377978288015,0.7690060649916596,3.790989756149802,2.1575485539542782,,,0.6284777104787076,inf,,,0.79473523485528
308,,0.0,0.0,1.6437696426589483,1.5964311399397833,0.6342898538161227,3.2102604250329665,2.5949479414023666,,,0.6566669596287297,inf,,,0.7013626836331681
309,,0.0,0.0,1.1060545574968859,1.095315548650892,0.8249304764804429,3.938579643702901,1.8510744020874021,,,0.5713653840954815,inf,,,0.9113421925130204
310,,0.0,0.0,1.6482168814962983,1.6131653789930849,0.7887744130619885,3.5801883812429587,28.69524679956838,,,0.6153451465759925,inf,,,0.9162515596926885
311,5.061149896558489,-5.061149896558489,0.0,1.7600018951163874,1.7568290268420566,0.6351705555777067,4.067368037405784,12.448955017993233,,,0.6309483474627791,4.98920001337619,inf,,0.7377749865078517
312,5.703782474656202,-5.019328577697458,0.0,1.4254139303781441,1.2998481120194119,0.6863701149726532,4.804902923455455,9.408648815625089,,,0.6180765742263259,5.831615846166086,inf,,0.8959331834987949
313,5.247319697214284,-2.868534767810475,0.0,1.7808762966727716,1.771795960350133,0.750532402473268,4.136021603735306,5.683866868083689,,,0.6207552362147116,5.801762883016405,inf,,0.6721816350133327
314,5.538747431665739,-1.9385616010830085,0.0,1.5791754801186562,1.5442181119152614,0.732308242663934,4.092945088756879,7.943394025827556,,,0.6309483474627791,6.54003049885682,inf,,0.7227009484024236
315,5.703782474656201,-0.9126051959449921,0.0,1.5470169928039457,1.531959263911254,0.714812108207589,3.4781402144709377,5.744226507874359,,,0.6357360191111145,7.536363938404511,inf,,0.8712254150773752
316,,0.0,0.0,1.575891876779572,1.5619452048612759,0.8161157596391843,3.1262234320297013,2.113954713892823,,,0.6447042257417027,inf,,,0.9557838897029692
317,5.703782474656202,-3.308193835300597,0.0,1.495072296949749,1.4444912114668804,0.7558417043164858,3.3394140242329597,2.9909846378884053,,,0.62595550513784,6.248509650097873,inf,,0.7396765206559083
318,5.703782474656201,-0.22815129898624803,0.0,1.6912304890012373,1.677739246175208,0.8220989975133081,4.933355867326848,15.976220250303317,,,0.6468212168108125,8.922658299524402,inf,,0.8392384760052402
319,,0.0,0.0,1.5372056961037055,1.5336841974613142,0.7475719271087268,3.124946022117121,1.4168869664679438,,,0.648888643467878,inf,,,0.7407892934589967
320,,0.0,0.0,1.417068176010652,1.4054706332908797,0.7366859137664081,3.9038038694253974,7.530971577195023,,,0.6584896970785714,inf,,,0.9021585169549609
321,5.703782474656202,-0.8365547629495762,0.0,1.716908592398668,1.707134196041894,0.6845426858372334,4.314923044318924,14.342853420021154,,,0.6509067234006624,7.623375315394141,inf,,0.6557669797196738
322,,0.0,0.0,1.1989655783397763,1.1275729937913999,0.6351684747788546,2.4856916853525695,1.1946445933760415,,,0.6468212168108125,inf,,,0.889593125906237
323,,0.0,0.0,1.6962737840251518,1.647340340766201,0.7578441776086208,3.0415796968931583,1.6787475709300685,,,0.6547956803312163,inf,,,0.7152341145362673
324,,0.0,0.0,1.6263081619580027,1.5687515265422687,0.579520832693414,1.5641407908180567,0.7986875354934553,,,0.6619902821573977,inf,,,0.7823249638671692
325,5.703782474656201,-1.2358195361755102,0.0,1.6530368570228302,1.6528964453697614,0.8263523719795968,3.027822914148746,1.4191725620695639,,,0.6403206450210053,7.233177679416765,inf,,0.7534895266556486
326,5.703782474656203,-0.38025216497708014,0.0,1.727956939554131,1.6984545728758338,0.7338672673865857,3.3090788434443996,2.8449574952663705,,,0.6584896970785714,8.411832675758411,inf,,0.8519496969659339
327,,0.0,0.0,1.7582019985115929,1.7367898852383064,0.8180755506309373,3.885824145285438,4.866731489394482,,,0.6403206450210053,inf,,,0.8687766292597039
328,5.64161680823827,-4.1936018274571145,0.0,1.647564477879732,1.6070468065812364,0.6752770709042545,3.901433569859854,8.66329869523679,,,0.6284777104787076,5.914503505971854,inf,,0.8271251754518888
329,5.582808674275457,-3.9451847964879896,0.0,1.7585813205332366,1.750423681838395,0.7353054632005283,4.087824697643459,6.177861822891081,,,0.6547956803312163,5.8901120528476945,inf,,0.7386044467405923
330,,0.0,0.0,1.7827778152429712,1.7687568700695127,0.7849935969013091,3.7897771425969204,3.509158571626006,,,0.6309483474627791,inf,,,0.7933048473569472
331,5.7037824746562,-1.273844752673218,0.0,1.5943793583728794,1.5926824394822154,0.6687066093114427,4.1238853390111325,4.155536838179999,,,0.6566669596287297,7.202872329921436,inf,,0.7017290343654113
332,5.6766002322813005,-2.8950661184634634,0.0,1.465578149356374,1.442234376242233,0.7424769895111152,4.4906931835394355,10.086921302428328,,,0.6309483474627791,6.33866074709217,inf,,0.8900487665559844
333,,0.0,0.0,1.718735578713468,1.6502858129927376,0.7002802604724475,4.049447501566627,9.469132359652146,,,0.6284777104787076,inf,,,0.6442659068557335
334,,0.0,0.0,1.734205962525372,1.7329000252207616,0.8424697605210394,4.685673150721782,12.370544326897331,,,0.6125606311107803,inf,,,0.8788641370308977
335,,0.0,0.0,1.7066974783994258,1.6867580512613634,0.7770621890152901,3.9636875015028474,7.848365034893172,,,0.6038851895711802,inf,,,0.9035480651438658
336,,0.0,0.0,1.7281889597144264,1.7208541103103807,0.7034545505696113,3.8518383158519653,4.056109159215413,,,0.6038851895711802,inf,,,0.7908957978049287
337,,0.0,0.0,1.6754246802230037,1.6309188603089642,0.8066631368925917,3.590339223100222,14.388579457868348,,,0.6180765742263259,inf,,,0.9017705619078116
338,,0.0,0.0,1.4551827703007043,1.439324055524305,0.7400323983246887,3.8204733048344477,13.48912501281741,,,0.5748741956352443,inf,,,0.9198293785237296
339,,0.0,0.0,1.6357533463154765,1.5864993764376119,0.8106554499276191,3.901334671755648,4.807840281523255,,,0.62595550513784,inf,,,0.936271063043143
340,,0.0,0.0,1.6042760949688155,1.5253484507893305,0.6221993693323644,4.189582850771054,181.3342352016414,,,0.6233814453054027,inf,,,0.9361516216295619
341,,0.0,0.0,1.619988888403957,1.5941631042678506,0.7986635847301782,5.098086313014215,7.995785638207011,,,0.6468212168108125,inf,,,0.9106997425086486
342,,0.0,0.0,1.6264331633778064,1.6114812757130361,0.7482952817549986,3.840996033229118,17.44513908458326,,,0.6380535849069913,inf,,,0.8554261244913859
343,5.703782474656201,-1.8252103918899842,0.0,1.7088078960136284,1.695568628754977,0.7447745549057914,3.9844568893879675,5.762148069706949,,,0.648888643467878,6.843216757844566,inf,,0.7521073144143593
344,5.540418533771906,-4.173781962108169,0.0,1.6907960999650058,1.653170564419509,0.7377795837428539,3.362514073972807,3.1157156249340394,,,0.6509067234006624,5.762118051669164,inf,,0.7168949316443426
345,5.125038226810032,-1.7595964578714443,0.0,1.703705610450063,1.6853336158330858,0.8823261931997313,3.728793331349106,3.5116750600936784,,,0.6309483474627791,6.16581793425276,inf,,0.6271643368255512
346,5.319040774218888,-3.9006299010938514,0.0,1.5641451087773626,1.5364234909000045,0.793600086445971,4.1994202152376845,3.901504735767233,,,0.6038851895711802,5.549631794828943,inf,,0.644295537843454
347,5.1193642635958545,-0.8702919248112952,0.0,1.1531045375867994,1.1163015286948479,0.6638246023237814,4.444997703841218,10.548260534282557,,,0.6468212168108125,6.864270167042398,inf,,0.668206136329526
348,,0.0,0.0,1.741343834510684,1.6977382636284766,0.7688609154105432,4.079111622547633,18.61833927637741,,,0.6233814453054027,inf,,,0.9173324878663439
349,5.38386839132084,-5.3659221633497705,0.0,1.5266061992628954,1.486544469047505,0.7286899441328796,3.513473588856979,7.824740100930997,,,0.5883313578629602,5.327631754216812,inf,,0.645757490852013
350,4.735375895196452,-4.056638683551628,0.0,1.6183476110984705,1.5066672836519217,0.6680242579106135,1.958986733061786,1.7282775773777628,,,0.6284777104787076,4.770306918027945,inf,,0.7193282464481324
351,5.6471990313451865,-4.611879208931903,0.0,1.5527076306145564,1.4821803713199215,0.6266955518285399,2.2139413087487463,1.3728027027773013,,,0.6447042257417027,5.82783512332618,inf,,0.6721842179886233
352,4.482150414664199,-4.482150414664199,0.0,1.704307421907461,1.5956633078347515,0.794402235933724,4.029986947498302,1.9736648323226866,,,0.6509067234006624,4.394549159672772,inf,,0.7740077111914253
353,5.244116449653288,-3.321273751447082,0.0,1.6064054548627462,1.6154492961152374,0.7870853862132003,4.140359413149085,6.036036853109044,,,0.5883313578629602,5.65182273572549,inf,,0.8069639952780774
354,,0.0,0.0,1.7643283927334081,1.755346797374769,0.9394907914933506,6.17637184244888,121.41834021594617,,,0.49759852643134905,inf,,,0.913177923950773
355,5.7037824746562,-5.7037824746562,0.0,1.6241253614014626,1.590546278329197,0.8379657459193457,3.896994540792093,4.374021046690258,,,0.5370774965580548,5.703782474656201,inf,,0.745493001666435
356,5.703782474656199,-1.463970835161758,0.0,1.7496323490221553,1.7257177611431551,0.8255655558938187,3.746996613741556,3.715008009177466,,,0.5202020156036558,7.063759527458719,inf,,0.8805777309287445
357,,0.0,0.0,1.3720449210726935,1.3412688632198009,0.8236895933787326,3.5365205733175373,6.804114741626421,,,0.541134803179459,inf,,,0.9147263015544339
358,5.703782474656203,-3.9356099075127795,0.0,1.5091291759578715,1.475914552756464,0.5610291428728473,3.4210163809207277,4.301444779157508,,,0.5915533975974677,6.074846156047033,inf,,0.6202292978262717
359,,0.0,0.0,1.7133202225071802,1.705306832859385,0.6044187404922764,3.0323462313127596,6.626207473115519,,,0.5287703885177266,inf,,,0.8467681583501749
360,4.959404930295089,-4.959404930295089,0.0,1.655184191579937,1.630559009419633,0.7596904931845524,3.8174284404116325,4.363752303525282,,,0.6153451465759925,4.938314632516629,inf,,0.7834602286067142
361,5.703782474656201,-3.669433392028823,0.0,1.1411768138758667,1.0676964366279549,0.6764535679676046,3.216703496757091,2.67712068395014,,,0.5370774965580548,6.144874760407516,inf,,0.7990538545982074
362,5.703782474656203,-2.1674373403693568,0.0,1.6586741869877084,1.6363002798753177,0.8751915500620099,3.075563549296157,2.888135521710762,,,0.524519217297268,6.671366500917907,inf,,0.915206167142488
363,,0.0,0.0,1.7591728329712044,1.7316358757938635,0.8134297572759998,2.9493724425341385,2.688054809627246,,,0.4880666971167561,inf,,,0.9085973951886546
364,,0.0,0.0,1.6574762792993818,1.6264420696804356,0.9599285212003196,3.0211091681509648,3.2847647704142013,,,0.3685265678147087,inf,,,0.7841336343132062
365,,0.0,0.0,1.7126118791016132,1.6982467856750827,0.9732866596510878,3.347810282636107,2.8213575780742848,,,0.3116047106179316,inf,,,0.824191752194137
366,,0.0,0.0,1.5990123392764992,1.5699705899558898,0.9735853425710336,3.9875196768654315,16.200587016217394,,,0.3116047106179316,inf,,,0.8095454619107136
367,,0.0,0.0,1.6311985512184537,1.5947693788872463,0.9602965007400687,3.281555126959364,2.5450267717345016,,,0.38804190201132227,inf,,,0.8349579176240455
368,,0.0,0.0,1.2946831052306713,1.2986825244889202,0.8794500070291459,3.1749993157429275,3.6036222019529,,,0.40055318934786044,inf,,,0.8708145119684639
369,,0.0,0.0,1.2798008398698644,1.2121402348848087,0.9013885187714696,2.488675536746102,2.316141641352771,,,0.44144624493110796,inf,,,0.8108992081585417
370,,0.0,0.0,1.6547949684884533,1.6269593865344958,0.9551876222393313,3.053751920151529,5.213827770172239,,,0.3338418249889409,inf,,,0.8315497242555665
371,,0.0,0.0,1.525982495812118,1.5234602497750043,0.9286236723164029,2.5097452030064424,2.612642924993328,,,0.3943459996787778,inf,,,0.8582604339021019
372,4.691658734071772,-4.644742146731054,0.0,0.6963628921465722,0.5677875485484479,0.6011521422225207,3.2342044732610424,3.477833596701424,,,0.44144624493110796,4.675354242845196,inf,,0.7158285926168189
373,5.697565908014409,-4.235190658290711,0.0,1.1951838358815647,1.1016030806042405,0.6356304624241617,2.0150940423906736,1.7138865427299121,,,0.5677978065141052,5.991464547107982,inf,,0.7214437211121839
374,,0.0,0.0,1.6913079961990904,1.6183086650196246,0.886484545822977,1.8158558256929382,2.3146830094244937,,,0.4732203808476458,inf,,,0.815863879768436
375,,0.0,0.0,1.648928440930415,1.6378253220622823,0.8779557080462145,1.7726709933199356,2.1209708849320625,,,0.4928685327679205,inf,,,0.882048768528172
376,,0.0,0.0,1.6595414687624708,1.642497293784415,0.7697813717366856,1.848356429420293,2.229591138295402,,,0.468121228110369,inf,,,0.8540329011934864
377,,0.0,0.0,1.6368314299063018,1.6144940397387768,0.7397716524736083,2.0901166464318894,3.211099861338118,,,0.41268473150466,inf,,,0.8685762295847506
378,,0.0,0.0,1.6448346702745114,1.6144916119735326,0.6960213909150517,1.7656152252362902,1.717642911778954,,,0.5490601803369085,inf,,,0.8826188577156369
379,,0.0,0.0,1.3003347094973174,1.280895336424933,0.9048910082904923,1.8944218092457097,1.9328748941267915,,,0.4576907132971797,inf,,,0.8255667984216667
380,,0.0,0.0,1.7320860682888586,1.6758953885338004,0.9446403293419279,1.7591903558872373,2.499160944926708,,,0.34100769111774265,inf,,,0.788273966333436
381,,0.0,0.0,1.4816643174534825,1.4595023770460898,0.9354999014707438,1.7607219041076483,2.3730515746305656,,,0.3480560589391537,inf,,,0.7958761068932694
382,5.253236807292237,-0.7004315743056315,0.0,1.1837974368198203,1.1347793309510268,0.6524117655164833,1.8206397643224508,1.7635265796003683,,,0.4880666971167561,7.217910207285977,inf,,0.8925439931133723
383,5.703782474656201,-0.7985295464518681,0.0,1.0969195912005079,1.0236016093513625,0.6061550203317994,2.1799852607719634,2.303569085485478,,,0.4732203808476458,7.669895331029034,inf,,0.7591234780030222
384,,0.0,0.0,1.6401560210394104,1.6180955266758024,0.9697343151205955,2.31398081967444,3.6933570671100298,,,0.35499006010413947,inf,,,0.8309989082226524
385,,0.0,0.0,1.7169678868796983,1.6965929592999074,0.9531259534962288,2.5407258222631763,3.1518286542208416,,,0.30393309777884125,inf,,,0.8236359790076991
386,,0.0,0.0,1.498797250942918,1.4852867368925746,0.967269793041971,2.4842565556475216,2.93185442735423,,,0.3685265678147087,inf,,,0.8429435403012243
387,,0.0,0.0,1.6924809668304264,1.6869165939333273,0.5210982230755076,3.233251281286669,10.892078424027913,,,0.3751344627501719,inf,,,0.9068622206868938
388,5.18323716119221,-4.37119667260543,0.0,1.5907354527175575,1.5772315806127342,0.6881250147561638,3.7483651985474116,5.308555399020323,,,0.5677978065141052,5.313995179267266,inf,,0.7574078073479434
389,,0.0,0.0,1.318278529625698,1.302571686480622,0.9435509642524533,4.4260983028895815,21.556138754342935,,,0.42445136339222655,inf,,,0.8700972909076937
390,,0.0,0.0,1.7457466770770906,1.7172290228425853,0.979096814750711,3.8646120609756407,4.335461007662682,,,0.38804190201132227,inf,,,0.8273964220780831
391,,0.0,0.0,1.7381042206484536,1.7152226815958844,0.9591841177813274,3.8939679160931613,33.383874404421334,,,0.38804190201132227,inf,,,0.8751950916884236
392,,0.0,0.0,1.703095431243828,1.676291427248062,0.9711852435082092,4.740294017293083,30.98570634080528,,,0.3943459996787778,inf,,,0.8696621348113799
393,,0.0,0.0,1.7643156084109357,1.7407891534303213,0.9560600260285799,4.070695753217619,65.4373486573142,,,0.3943459996787778,inf,,,0.8715496463983919
394,,0.0,0.0,1.7472816820220098,1.7252044822203034,0.9509939667692742,4.319622938105802,46.57030047926962,,,0.43586655696697996,inf,,,0.8460492971309337
395,,0.0,0.0,1.2932566435151673,1.2372302446061438,0.7524792049858305,2.836829342417461,2.90592283118692,,,0.5329562494928909,inf,,,0.908650417428579
396,,0.0,0.0,1.6400792255472596,1.6273952304269248,0.8412293967970808,2.6131994570393005,2.9242364965561354,,,0.5022576003740722,inf,,,0.8343147859918304
397,5.703782474656201,-2.8899164538258084,0.0,1.1852678189720818,1.1591562236001767,0.7091770550712847,2.808686237189725,4.212616097447037,,,0.524519217297268,6.383684428466125,inf,,0.7608960918968642
398,,0.0,0.0,1.6520065225022256,1.626209204463586,0.9350424303399139,2.995487571718741,2.850765113603117,,,0.3265551233283096,inf,,,0.8282478768630528
399,,0.0,0.0,1.470115626745429,1.452790898352057,0.666508886522951,3.566887388725153,21.931334740216194,,,0.44694259446804574,inf,,,0.8274254345048427
400,,0.0,0.0,1.570046496268582,1.5512248532009842,0.7111979248311115,3.9444529159024038,7.971146790961891,,,0.48319206230712763,inf,,,0.9298215768922706
401,,0.0,0.0,1.5837837701422346,1.5313274782945343,0.650979038439693,3.0778155364350166,2.1848364839062997,,,0.4576907132971797,inf,,,0.9365751820888105
402,,0.0,0.0,1.664013295948497,1.625099065383049,0.6544038356585717,3.7398839316377646,3.291609399534097,,,0.468121228110369,inf,,,0.8763917250403983
403,,0.0,0.0,1.599815210926609,1.5851641183208676,0.8958745621620341,3.41722220289468,5.249321010212819,,,0.43586655696697996,inf,,,0.8894734939246732
404,,0.0,0.0,1.7363450625447698,1.7077814131343136,0.945206871541541,4.172695629991467,13.695475665919027,,,0.3943459996787778,inf,,,0.8101727324004213
405,,0.0,0.0,1.5651583328061667,1.5558787202674011,0.8216264573153684,3.2377631456315203,2.1247436832555286,,,0.47824363442641393,inf,,,0.7785620183652152
406,,0.0,0.0,1.4551197212554015,1.4695178410891954,0.9229412233923414,3.442315667365237,4.917579576575613,,,0.43586655696697996,inf,,,0.8738922101493095
407,5.703782474656201,-0.09506304124427002,0.0,1.656441480659009,1.6429583224722288,0.5311655828494015,2.8635263627125838,3.30782348321598,,,0.47824363442641393,9.798127036878302,inf,,0.9271437970080786
408,,0.0,0.0,1.5330659552133006,1.5142286919889207,0.9171909194481062,2.9753206590206585,4.153212993283246,,,0.42445136339222655,inf,,,0.8789351011374062
409,,0.0,0.0,1.2777036699744637,1.2575790598056502,0.820623430540334,3.199742598865324,3.162931064315402,,,0.45235697871908603,inf,,,0.9005507927829293
410,,0.0,0.0,1.6862083317579395,1.6656723827686157,0.9524227822652561,3.072162340442878,5.10295422533274,,,0.3943459996787778,inf,,,0.871886010554376
411,,0.0,0.0,1.4529649031011418,1.4453931942119638,0.9495532853441009,3.1500056975146746,5.704972350198419,,,0.28007874463063287,inf,,,0.8331049529379736
412,,0.0,0.0,1.7633806947210025,1.7569176039708878,0.9468688902201168,3.036332589248074,6.319616589525726,,,0.31914402280573173,inf,,,0.8521920200718336
413,,0.0,0.0,1.7241106244168298,1.69957307692752,0.9487154135481938,2.557559483013095,3.9712287927697143,,,0.31914402280573173,inf,,,0.8200978706708715
414,,0.0,0.0,1.6541716206706052,1.6285657331653907,0.9630840426797795,2.503433944293525,3.343871254608074,,,0.3480560589391537,inf,,,0.8386488219575664
415,,0.0,0.0,1.6884855109450145,1.6690316794847906,0.9135494683358262,2.7684737985152297,2.550996509197177,,,0.38804190201132227,inf,,,0.8403589801895319
416,,0.0,0.0,1.6488505106270228,1.6299111745956845,0.9722565153794698,2.3583862176810304,2.5522888111478217,,,0.3685265678147087,inf,,,0.8197959889045496
417,,0.0,0.0,0.6865494309355229,0.6626358930887343,0.666696781747744,2.8080037143419894,2.8477826634347476,,,0.3943459996787778,inf,,,0.9064167457077125
418,,0.0,0.0,1.5115434559708767,1.4720664732487825,0.7801831885867834,2.961927519223151,3.1113513399561175,,,0.5068466436745385,inf,,,0.8440257890975044
419,,0.0,0.0,1.500099724930203,1.474322279633276,0.9156534322117432,2.6474628009468817,2.5477540590780534,,,0.3685265678147087,inf,,,0.8204887188652705
420,,0.0,0.0,1.5454065419038183,1.5310058529429973,0.737406274991236,2.1819867473984322,2.5503119918013937,,,0.45235697871908603,inf,,,0.8359306500195222
421,,0.0,0.0,1.584707531835665,1.5900022662646234,0.8450084661712708,1.7518789929082803,1.664386933129507,,,0.4880666971167561,inf,,,0.8348515527510908
422,5.431788011398498,-1.4303708430016044,0.0,1.270557826996068,1.2458603364773941,0.6035440471194132,1.9958769896939839,2.5086297625292335,,,0.5068466436745385,6.707084583519986,inf,,0.8976401680090909
423,,0.0,0.0,1.2249346661034437,1.1728910120869416,0.7322566318487086,2.344286314843922,2.687740178557703,,,0.4629450596409901,inf,,,0.8705200967697474
424,,0.0,0.0,1.3025569731485662,1.2425833247562805,0.6451453278842929,2.6768620034776145,3.015674014750657,,,0.4928685327679205,inf,,,0.8510157140373465
425,,0.0,0.0,1.4413905283853023,1.4386079693571643,0.7683936205879195,2.0034032540407543,2.2853766006255793,,,0.43586655696697996,inf,,,0.8433775549284062
426,,0.0,0.0,1.6018722592219676,1.5707114630458725,0.869775035048904,2.2432894644597985,2.1678264350259644,,,0.4629450596409901,inf,,,0.8417117296600759
427,,0.0,0.0,1.6216855785981166,1.6038423856989852,0.6346426804222707,2.421611678649876,2.58607997173933,,,0.5490601803369085,inf,,,0.8288964110333333
428,,0.0,0.0,1.7409231821014186,1.7141330201822471,0.937493755239012,2.706142182944125,2.1094881583648615,,,0.44144624493110796,inf,,,0.8259716393386553
429,,0.0,0.0,1.6348350212950815,1.5295282006691207,0.7748830151854119,2.2828609369779564,2.122960082033773,,,0.4732203808476458,inf,,,0.8943468788398643
430,5.703782474656199,-1.311869969170926,0.0,1.2408059373315068,1.1968047125370525,0.6096314460472056,2.3431698068771785,2.2171211602211036,,,0.4880666971167561,7.173458444715143,inf,,0.7206516235482755
431,5.703782474656202,-0.49432781447020413,0.0,1.0775496790865016,1.0624736181216554,0.8572395299033397,3.591698056229118,3.6673403116491987,,,0.42445136339222655,8.14946841129092,inf,,0.7587373650392049
432,5.703782474656202,-0.2661765154839561,0.0,1.6790516382855443,1.6858830822816215,0.7510469909193144,3.3294531537658205,4.65651922483855,,,0.585052858160615,8.768507619697143,inf,,0.9225254433428142
433,4.443909646294822,-4.443909646294822,0.0,1.746263982575821,1.720884419544951,0.8421290382761211,4.342316364094682,2.719657595797334,,,0.6509067234006624,4.249829465062495,inf,,0.7130650837229217
434,5.091135280937337,-4.480199047224857,0.0,1.4142038559399641,1.3897665228236113,0.758316857161948,4.714398880675046,59.90695903174275,,,0.6447042257417027,5.194958853560883,inf,,0.7874410451342253
435,4.69303158887799,-4.583527518470837,0.0,1.6279572602038574,1.5999955093852078,0.7492443581513052,4.57838833368877,7.0502152297991305,,,0.648888643467878,4.677740878822926,inf,,0.5817449186002123
436,5.703782474656201,-0.4753152062213501,0.0,1.5898728745499144,1.5058068007878584,0.7307949595809135,3.2817581445265707,4.022751038992734,,,0.6357360191111145,8.1886891244442,inf,,0.8292766507563261
437,5.703782474656203,-4.2398116394944445,0.0,1.278497861452686,1.211390500859051,0.6228700519583384,3.2605372313050798,3.827831412791164,,,0.5748741956352443,6.000393177852283,inf,,0.7560424588323843
438,4.298350077779724,-3.596286231742369,0.0,1.4576192447260816,1.421725321219131,0.7786900394688308,4.024698110533082,2.1137637298772685,,,0.6547956803312163,4.367904599450327,inf,,0.7225425312827342
439,4.7237741330124035,-4.519077253915199,0.0,1.5873763046325922,1.5706132371279897,0.7507806343579861,4.179474108144158,16.915921535986428,,,0.6357360191111145,4.62537289330561,inf,,0.6155959162052823
440,4.321068411961724,-3.327222677210527,0.0,1.4923502119288559,1.486693277076539,0.7198639106924445,4.210970713250404,22.40582032452656,,,0.6447042257417027,4.56594947283481,inf,,0.6959654771754392
441,5.337159172541849,-2.152654199591879,0.0,1.613915335371388,1.5819660933858664,0.7810912317053966,3.65671692127965,5.433048239623131,,,0.6068309995095971,6.187209124234077,inf,,0.8798041771037282
442,,0.0,0.0,1.6525948403599036,1.6379354735834903,0.7583640071065011,2.8477947853868555,3.1738792419855537,,,0.5451288209179292,inf,,,0.7155733391499312
443,,0.0,0.0,1.711070787654415,1.7052755825659693,0.7395801097843892,3.0539644447882064,2.969118628343786,,,0.5883313578629602,inf,,,0.9398547447095471
444,5.268286402407155,-3.354142342865889,0.0,1.472125886199729,1.4430557085697635,0.7341472257781183,3.3843435938202475,6.103624648102075,,,0.5713653840954815,5.590453789349198,inf,,0.66960524455562
445,5.572854673883766,-3.3437128043302597,0.0,1.6423415009702271,1.6086398326251197,0.8213490110658759,4.1394680154322945,18.608264252588654,,,0.62595550513784,6.041588934290551,inf,,0.8783815982329687
446,,0.0,0.0,1.5623153295365806,1.485705591298353,0.6144865474505384,2.89261126504581,3.8845051320750685,,,0.5022576003740722,inf,,,0.7831579105797581
447,5.703782474656202,-3.479307309540283,0.0,1.5795406619375996,1.5666776168416467,0.5254521360131976,2.8437022581430895,2.4295624226494517,,,0.5451288209179292,6.198078796470981,inf,,0.8930084832199383
448,5.221298878150122,-4.629551671959775,0.0,1.5888151656530198,1.5495786162422165,0.8024899685215966,3.635301425347,10.335129344989447,,,0.62595550513784,5.2111208215178815,inf,,0.6756088679330668
449,5.235805618909674,-3.926854214182255,0.0,1.7535472220279988,1.7549006817720563,0.746743324026395,4.172339513194202,12.51221037664388,,,0.6333676938231112,5.426150738057921,inf,,0.673808683177549
450,5.449156979756629,-1.7800579467204989,0.0,1.64854427325517,1.6108792053386967,0.7858114101414325,4.115760324268524,35.32032791484607,,,0.6447042257417027,6.509725149361491,inf,,0.8201713497473728
451,5.2479500915083035,-5.1604842566498315,0.0,1.5959868039612277,1.610563682333316,0.7335290877770162,4.090335327017178,5.5744292496059815,,,0.6509067234006624,5.21520245983753,inf,,0.8715996579881676
452,5.065239976651323,-3.1555013786381716,-1.639592465925081,1.7225286422176336,1.661925543271444,0.7217244694194123,3.5799889287640263,3.6914480258068543,2.1333883609652413,,0.663668482632973,5.047991080640025,1.9052265724188697,inf,0.6578990084193036
453,5.618008408834402,-5.599281714138287,0.0,1.6671650494612784,1.6674838782316164,0.6819446457839003,4.019371371453573,6.4559838954083535,,,0.6468212168108125,5.590453789349198,inf,,0.5690307278331962
454,5.025869298064605,-4.573541061238791,0.0,1.738110692937664,1.7054376953021264,0.7660433478754748,4.184310628861333,17.878260094474534,,,0.6380535849069913,5.115995809754082,inf,,0.6571999223602646
455,5.3234955001077475,-4.560461145092304,0.0,1.6084463030602756,1.6099648535623974,0.7236339074871497,5.173071793853799,12.437003668550773,,,0.648888643467878,5.421112944027964,inf,,0.644272505272069
456,5.703782474656203,-4.658089020969232,0.0,1.651938684333102,1.6544332296544657,0.7397125978276403,3.6123901642787564,3.5082020921832244,,,0.6207552362147116,5.906306738767675,inf,,0.5324750213552879
457,5.680522502154188,-2.8213261760699138,0.0,1.71823830273411,1.7012312730935433,0.8265632927904505,4.907837643896396,38.07383977391876,,,0.6425374456860184,6.370612346898773,inf,,0.7418431155169608
458,5.122017329663308,-5.087870547465553,0.0,1.491948887337271,1.487921498204062,0.7946660751890454,4.659120914041864,4.624789541518836,,,0.648888643467878,5.065443530591251,inf,,0.8358727436963205
459,5.118328454631665,-3.8387463409737483,0.0,1.5151495747706176,1.4828207003385776,0.6882730924197455,3.829028463175942,11.731414664501814,,,0.6097226960127671,5.3050063546988335,inf,,0.6880677669533305
460,5.250321702327263,-1.8726147404967237,0.0,1.513482470402554,1.488261976006968,0.7686711124762592,4.369003534895875,2.1787313870703047,,,0.6380535849069913,6.231415216738573,inf,,0.5674484476214904
461,4.888228841562213,-2.916643208798787,0.0,1.7140667003312702,1.699246887595652,0.7755307027073212,4.431008595324458,20.757562823293604,,,0.6068309995095971,5.32306553623723,inf,,0.8646792365544604
462,5.703782474656203,-4.486975546729546,0.0,1.4832376715591564,1.4591917985773346,0.7881722121589286,4.485660239489426,5.48653449967439,,,0.6068309995095971,5.943733144286792,inf,,0.8665290874284315
463,4.945369041120801,-4.7640388429463725,0.0,1.0887912389230352,1.093050045892321,0.7919788110340503,3.438019742336223,10.389225429512777,,,0.6403206450210053,4.949226665967612,inf,,0.6683687349063792
464,5.703782474656202,-5.1904420519371435,0.0,1.3162588955505776,1.293466140730826,0.6938683576198882,3.839945449599633,6.0206789003137615,,,0.6333676938231112,5.798093154127442,inf,,0.9005063914718553
465,5.1893373015843665,-2.2141172486759966,0.0,1.675553512992669,1.6091138279283754,0.7383317778332389,3.315869757410748,7.51921028320349,,,0.5713653840954815,6.000393177852283,inf,,0.6776881431450308
466,5.289711054433339,-1.9219283497774464,0.0,1.6047192915245638,1.583246331606762,0.8162754734834053,3.357442302124716,3.664812124208586,,,0.6468212168108125,6.176456332457816,inf,,0.6095180120758549
467,5.565153038544212,-3.6173494750537376,0.0,1.5368451343053637,1.5012753820700295,0.7437284342796677,4.6112582037536605,18.73770810407567,,,0.6547956803312163,5.952243833954701,inf,,0.825626967230592
468,5.7037824746562,-1.42594561866405,0.0,1.716228450345091,1.691635594993735,0.7585640324985994,3.917023965408098,2.61215868641354,,,0.6547956803312163,7.090076835776092,inf,,0.7632392786814907
469,5.5717544402638275,-1.1700684324554038,0.0,1.6254860889626934,1.610989688114426,0.6922085958159758,4.135418840012028,5.947846489990967,,,0.6447042257417027,7.090076835776092,inf,,0.8778697333189002
470,5.023539018409829,-1.3228652748479215,0.0,1.6845629770110597,1.688915946219539,0.7080945814589981,4.25453771080576,16.207470164359894,,,0.6547956803312163,6.307698521488204,inf,,0.6230357271076306
471,4.979884478719768,-3.9507083531176828,0.0,1.7403740894702897,1.7305737930028227,0.720352273637157,4.118389757850759,27.141082658409903,,,0.6447042257417027,5.081415476157303,inf,,0.7955454469399226
472,5.68747312923126,-1.611450719948857,0.0,1.583012726417791,1.5666248515801329,0.7585838731951723,3.381500654821266,3.964021029867933,,,0.6284777104787076,6.941656830657818,inf,,0.8542234842242207
473,5.661675402939944,-4.0386617874304935,0.0,1.605935535855775,1.5791203980920014,0.7467583808467797,3.209914935815227,4.453078797456923,,,0.6008849035917525,5.982614931831,inf,,0.7313205718820686
474,5.703782474656202,-3.9926477322593414,0.0,1.6010028581299571,1.563586379244025,0.7462556305525366,3.3858213142790032,2.2060855307874916,,,0.6125606311107803,6.060457418594933,inf,,0.887378697891348
475,5.703782474656201,-1.7111347423968604,0.0,1.5279801559521249,1.4911052715442064,0.8047091045413428,3.8499547389317126,4.454664658129523,,,0.5915533975974677,6.907755278982137,inf,,0.8258955086050973
476,,0.0,0.0,1.7140285496413663,1.6903257694857803,0.5739970496268606,3.2137795684414243,3.4514805548322878,,,0.6097226960127671,inf,,,0.6445572113652047
477,5.703782474656201,-4.772164670462355,0.0,1.4187620474202045,1.3780910866627467,0.6771248872064325,3.692223996973368,6.265139182071661,,,0.5883313578629602,5.882112010180618,inf,,0.6997222671892988
478,5.421018462370013,-2.831993778137236,-2.173413268784409,1.5219757818974458,1.4774282046261185,0.6906756876961634,3.404375196498401,1.849714329063246,1.2499387352803288,,0.5915533975974677,5.44141821018871,1.2299482907291965,inf,0.6189906797221708
479,,0.0,0.0,1.7054163361386092,1.7072029712267498,0.5788731380000157,4.833666002608575,37.768759793929085,,,0.5567373465730988,inf,,,0.8289641978855615
480,5.703782474656201,-1.540021268157174,0.0,1.5773689447251322,1.551022157302746,0.8382076974834431,3.343778599151689,3.2332761053243617,,,0.6233814453054027,7.013115794639964,inf,,0.8320677288768074
481,,0.0,0.0,1.5509488878330218,1.5434606988624056,0.8370109884028066,3.9176114460367466,34.244809398152455,,,0.5947193981915972,inf,,,0.8402724074944119
482,,0.0,0.0,1.6424190831866725,1.620807244173241,0.6897314955250374,3.6601567576318654,2.067464649601493,,,0.5748741956352443,inf,,,0.8084289973885527
483,,0.0,0.0,1.4845822457163547,1.461780656358671,0.8100782594435462,3.8662697055020714,17.91542199999219,,,0.5158180382284114,inf,,,0.9235360269895503
484,,0.0,0.0,1.7100564194009853,1.7070416811436964,0.7390867086368077,3.3118444411441166,7.226183039001221,,,0.5287703885177266,inf,,,0.7699247855821855
485,,0.0,0.0,1.6551822457190157,1.6164240716467524,0.6623296049578816,3.039160958093754,2.6045208794991592,,,0.5567373465730988,inf,,,0.822441579794205
486,4.993769686933626,-0.5999434377695244,-0.7816661756154454,1.6103551777357674,1.5770331264503359,0.6838336100604915,2.318218188533755,0.8562383804755562,1.6127104407562391,,0.6233814453054027,6.099297251911198,1.594695630696897,inf,0.781253311231064
487,5.556371083315399,-4.093193364709011,0.0,1.5528607991497771,1.5031643286970349,0.6995237074196642,2.3162142159747585,1.24911554607271,,,0.6403206450210053,5.816577968801545,inf,,0.7704794041264572
488,5.226560742824178,-3.989608033689123,0.0,1.7121184183218825,1.667325378603441,0.7719360154010411,2.949878754978297,1.5300946019146644,,,0.6357360191111145,5.3768796890511386,inf,,0.7821732289698111
489,5.539074233731066,-3.7296433173789176,0.0,1.66741175985785,1.6564060654656516,0.7756116682776026,4.534127721085603,17.637350693605722,,,0.6357360191111145,5.886104031450156,inf,,0.7377689542046464
490,5.601186682587761,-5.171762370256032,0.0,1.7163889776244614,1.6694045012631222,0.7034590795485643,4.629507554532331,6.369516757017645,,,0.648888643467878,5.645513566532225,inf,,0.6931351946022669
491,5.703782474656202,-3.707458608526531,0.0,1.6835743003297,1.690938285784483,0.7186085821297871,4.5997021161333524,18.352508090501416,,,0.5978297680564633,6.134565390748655,inf,,0.8065775812190059
492,4.574949659401564,-4.574949659401564,0.0,1.5717345140319625,1.565469318385513,0.7621029573761183,4.128121371615274,15.593282087971673,,,0.6153451465759925,4.485906765161274,inf,,0.6897789227557525
493,,0.0,0.0,1.6538164882494613,1.6182269554789588,0.697294383227963,3.9998900099865393,29.559539931273743,,,0.6038851895711802,inf,,,0.6647832008759865
494,5.7037824746562,-0.9506304124427,0.0,1.6661548580003225,1.6620930194902324,0.7053117003139088,3.971001469048573,4.708573279371346,,,0.6468212168108125,7.495541943884256,inf,,0.6321918115022558
495,5.133787289614731,-2.378654777521492,0.0,1.5474997882019323,1.5038763485137792,0.7135337390135786,3.549545006021757,2.5757680542979142,,,0.6425374456860184,5.820316290912153,inf,,0.6716423101362511
496,5.703782474656204,-2.395588639355606,0.0,1.6512212150460934,1.632606042780439,0.7459984889467557,3.8066492057433,1.7156120575379998,,,0.6425374456860184,6.571283042360924,inf,,0.8096257254785189
497,5.526380547009861,-1.8605481174933198,0.0,1.5431295599296335,1.4453920123417394,0.6762635538574311,3.0140364066630547,2.968044717056607,,,0.648888643467878,6.532367626111251,inf,,0.7601605138080566
498,,0.0,0.0,1.6335474088410658,1.568683929908131,0.7147572396487423,1.5294469368727994,0.9564995147035649,,,0.6333676938231112,inf,,,0.9505368972832979
499,5.703782474656198,-1.1977943196778016,0.0,1.717851274533197,1.717683395066422,0.7139473736469905,3.866323802226101,5.294143952471355,,,0.6380535849069913,7.264430222920869,inf,,0.7595174606945844
500,5.593631178520706,-4.8105228135278075,0.0,1.4366585571593813,1.3966396279568958,0.7822123268024493,4.246285988326111,9.863912262076118,,,0.6233814453054027,5.707121375921716,inf,,0.6188586441022249
501,5.703782474656201,-0.30420173198166406,0.0,1.7460354687554718,1.7339259663684579,0.7476146889173835,4.376907589451769,3.7554025344013713,,,0.6180765742263259,8.63497622707262,inf,,0.9287259989875226
502,5.132273134634668,-3.2333320748198413,0.0,1.6168753434737795,1.56903834925097,0.6847571447525888,6.202865482223221,33.46578354482308,,,0.6357360191111145,5.504931615911036,inf,,0.7276444621511138
503,,0.0,0.0,1.6651903305574454,1.655209277897777,0.6634296386328784,3.309707741503831,4.289501938374286,,,0.6425374456860184,inf,,,0.8815980623843895
504,5.062942959559491,-3.493430642096049,0.0,1.6850529459349923,1.6531549622203132,0.7149472367634654,4.877750520580788,42.35435745327359,,,0.6566669596287297,5.391407789614049,inf,,0.6362156243898764
505,5.703782474656201,-3.4032568765448663,0.0,1.3049634878050367,1.297046634403362,0.7910002919746836,4.749649578352271,36.458424850508145,,,0.6097226960127671,6.220179143471647,inf,,0.8422634552523197
506,5.449066601047724,-2.633715523839733,0.0,1.444223179185728,1.3459462676875036,0.6548249698976278,4.262777444804877,34.203055305069995,,,0.6008849035917525,6.074846156047033,inf,,0.8185423616335439
507,,0.0,0.0,1.722550761005365,1.6913112616670707,0.7968680893087394,4.092697793057103,5.331365021147338,,,0.6097226960127671,inf,,,0.5884291081419057
508,5.125847382708523,-4.322797959417521,0.0,1.505430919978743,1.4693933800573855,0.7872992087912579,4.07043767384922,13.474522322269742,,,0.6547956803312163,5.207055775269712,inf,,0.7117097188341854
509,,0.0,0.0,1.339795082339693,1.22964013474262,0.6320399836103159,2.591192201654877,1.8243235271307983,,,0.6468212168108125,inf,,,0.773282010669499
510,5.7037824746562,-5.2664924849325585,0.0,0.9352556541721533,0.9246302309299117,0.7053987615423256,3.906240819259849,14.10076508597389,,,0.541134803179459,5.783547443125063,inf,,0.7611077723176659
511,4.15713756105289,-4.15713756105289,0.0,1.7045089072784316,1.6572288255673902,0.6603479588858729,3.6767762787871505,18.33634099016631,,,0.6528756675646988,4.130317222680918,inf,,0.7183420590138005
512,5.604415221499005,-5.342875844495719,0.0,1.2487647155350778,1.2072304798376225,0.8541541466942146,4.460387729971282,27.354563909328824,,,0.5641709578113449,5.617604778415148,inf,,0.8461994780332953
513,,0.0,0.0,1.4671093525947998,1.4276129170176743,0.7692411119029845,4.4150848831020095,115.03241341168207,,,0.5068466436745385,inf,,,0.909980159157321
514,,0.0,0.0,1.731459131375704,1.7280397708933042,0.883019102811076,4.745712144513696,72.88328804042587,,,0.5158180382284114,inf,,,0.9276847129573758
515,,0.0,0.0,1.6216870385140914,1.5361835555088355,0.7115895447301213,3.77886191974271,35.918387518054224,,,0.6008849035917525,inf,,,0.9315092432479115
516,,0.0,0.0,1.6979643907350555,1.6808886833455272,0.7353907057546837,4.10845780969407,55.686107417570206,,,0.541134803179459,inf,,,0.8114331173673689
517,4.1260461758137605,-2.929876847814438,-0.5910158888799709,1.4879504494550218,1.4322165644779474,0.7531949342944859,4.802037475980833,91.28417092464456,3.8106555201998114,,0.6333676938231112,4.222935796595087,3.7506419482321682,inf,0.7485347421383979
518,4.624807718911245,-4.378151307235979,0.0,1.6785495054816741,1.65377390800906,0.7931336438987937,4.247676703722183,6.410591963099584,,,0.6547956803312163,4.415468521896514,inf,,0.7080572903439706
519,5.5418099376181384,-5.375555639489594,0.0,1.642874995767295,1.6235768358116025,0.8171354488118342,4.5884821946242855,6.436054990336335,,,0.6425374456860184,5.524242560824123,inf,,0.6574823779164342
520,5.197266605608459,-2.3041215284864167,0.0,1.4282542546905523,1.426980304066282,0.751664719038076,4.560264608410028,2.547213563935558,,,0.6468212168108125,5.943733144286792,inf,,0.6853173004256244
521,5.550832592118472,-3.7560633873334996,0.0,1.5301629859350192,1.4816157838333945,0.8208533598781843,4.362384413398009,12.336635585528164,,,0.6333676938231112,5.8507368876128645,inf,,0.8456459816686285
522,5.053256837274012,-4.935347511070952,0.0,1.7329900725524114,1.7064134501839066,0.7516567867262389,4.012964870995867,2.6100799867872464,,,0.6447042257417027,4.98757002116526,inf,,0.8065667641153892
523,5.066866476090187,-4.205499175154855,0.0,1.4078995502775535,1.3573808694687595,0.7892149589766111,4.2974674356408356,11.593589653134654,,,0.5947193981915972,5.129043525146558,inf,,0.9209430733291429
524,,0.0,0.0,1.7143850242899967,1.6591752735732894,0.7830279369257438,3.664269078769949,6.677553792411324,,,0.5748741956352443,inf,,,0.8034084255253995
525,,0.0,0.0,1.6882448062528486,1.6860845227855734,0.7804803950618298,3.624591512078757,5.4840543369573,,,0.4732203808476458,inf,,,0.9250305903614782
526,,0.0,0.0,1.6623319751849353,1.641158805576174,0.8463251974042093,3.590499612605876,19.526983926680575,,,0.5068466436745385,inf,,,0.9189676325856044
527,,0.0,0.0,1.6600275852712345,1.6322038363043971,0.8550940815303065,3.768476057533104,4.231375565167629,,,0.541134803179459,inf,,,0.9026096153683624
528,,0.0,0.0,1.6462729655607906,1.6469192314406946,0.6437232416880656,3.305000683726258,11.730990438502369,,,0.49759852643134905,inf,,,0.9420179390402839
529,5.339660854488633,-2.8122213833640135,0.0,1.7069368846142778,1.6843573087351718,0.7596977209277791,3.9257789462162416,2.702689146425485,,,0.6038851895711802,5.922768015821747,inf,,0.7181527756838617
530,5.158680412619506,-5.158680412619506,0.0,1.6564039960528814,1.6512004771789766,0.7455151212692259,4.159524394142829,9.636873286153739,,,0.6153451465759925,5.119706389150617,inf,,0.8378792112506722
531,5.703782474656199,-1.3498951856686336,0.0,1.5099778952017728,1.440233521131761,0.7368213946288067,4.039988747722911,5.362327500731716,,,0.6333676938231112,7.144885072271086,inf,,0.8246871609794335
532,5.700646062074483,-4.199475932394869,0.0,1.5636793585961952,1.50797827068575,0.7469452477894271,3.6772843051022512,5.441374365085243,,,0.6468212168108125,6.0048875674401225,inf,,0.750381293237199
533,5.452381942846893,-3.1454635051007664,-0.3622355447974015,1.7706381063046601,1.7519012067116495,0.6563152908285633,3.9487555982058713,3.324831067484986,5.565476229646736,,0.6584896970785714,5.835410917134637,2.627715053011324,inf,0.867221171529604
534,5.6976754510389345,-4.311241091286127,0.0,1.6529427059056876,1.6576875783159686,0.7496159510836136,4.286188625306242,27.86540568767466,,,0.648888643467878,5.973842945758163,inf,,0.6879530169793896
535,5.041441835454476,-0.7562162753181714,0.0,1.6881083611094567,1.6820380244904418,0.8090987983440273,4.3638768746179695,4.083677848016154,,,0.6284777104787076,6.930228134834196,inf,,0.6446293436144244
536,5.374780450640949,-4.353572165019169,0.0,1.7511850187819529,1.752634549170592,0.7065765186104414,5.108667893050973,33.49024693456644,,,0.6602640781246099,5.521460917862246,inf,,0.7692241271083313
537,5.703782474656202,-1.8632356083876926,0.0,1.6433178014049714,1.656685171934914,0.7686211455754117,3.5462759213822252,2.207294463534054,,,0.6403206450210053,6.82259747064183,inf,,0.8041593538893392
538,,0.0,0.0,1.6380786843698676,1.6068403342360793,0.6775040524434186,3.359000017553619,4.877287007383134,,,0.5677978065141052,inf,,,0.7243790769991778
539,,0.0,0.0,1.7181053540396634,1.6265258132953413,0.7042154778974873,1.9452063256324363,1.2830877610266858,,,0.6284777104787076,inf,,,0.8422222935006303
540,5.59357497314458,-4.4562147286051825,0.0,1.7709255118897802,1.720965802142046,0.6934348699658068,4.3540114819927105,7.801853740243632,,,0.6333676938231112,5.783547443125063,inf,,0.5698395388536069
541,,0.0,0.0,1.6612541654359176,1.6516854878816176,0.7214990982054073,4.434014565062584,3.7409391561924794,,,0.6153451465759925,inf,,,0.7071844888464945
542,,0.0,0.0,1.7484262043088195,1.7420022800968213,0.6818578195401873,3.548977190372047,3.533576964136597,,,0.5978297680564633,inf,,,0.7799952413935299
543,5.7037824746562,-2.75682819608383,0.0,1.777060055067148,1.7730135292662872,0.745203698943647,4.029052451138682,9.865785264452867,,,0.585052858160615,6.430831206891828,inf,,0.7199846040937877
544,5.703782474656202,-0.7224791134564522,0.0,1.308814469941903,1.3106647461140248,0.6640236971410014,4.584312637403855,24.14443067483027,,,0.6528756675646988,7.769978789586016,inf,,0.8707926101023492
545,,0.0,0.0,1.4879919204302354,1.4716672008521707,0.798439146687812,3.4150402172653953,2.702541422106775,,,0.6207552362147116,inf,,,0.7509599449999839
546,,0.0,0.0,1.5737405873645118,1.5128572564082228,0.7237861587809167,4.259537275123584,8.36366320739527,,,0.6207552362147116,inf,,,0.8783234679483267
547,,0.0,0.0,1.469352196698412,1.4123481626464707,0.8463943862734228,3.1660632585384074,3.4625762409094523,,,0.6425374456860184,inf,,,0.8803567767494463
548,5.031038116356772,-2.481978804069341,0.0,1.71142758223028,1.7084469238878164,0.7107547811320583,4.286993733191934,11.114935249362343,,,0.6584896970785714,5.680717201725205,inf,,0.5946718712098794
549,5.7037824746562,-2.6237399383418523,0.0,1.434854860232122,1.4228462542065337,0.6254663630022269,3.7876949683145535,19.896768874553928,,,0.6468212168108125,6.480311264155198,inf,,0.6919420326872706
550,5.562699420205947,-2.0952834482775735,0.0,1.6578022423719652,1.6547617406274915,0.7748421490132136,3.1540234675445107,3.009364952317801,,,0.6509067234006624,6.49491006357635,inf,,0.6130238239511235
551,,0.0,0.0,1.2140969739125986,1.203303472528031,0.7321640401459265,3.4102390743705695,2.8332013551590447,,,0.6528756675646988,inf,,,0.8096009882068785
552,,0.0,0.0,1.5105330305377038,1.4573435109302504,0.7144108886609918,3.4849595721169604,4.865589482137397,,,0.6425374456860184,inf,,,0.8716398206718118
553,5.703782474656203,-2.319538206360189,0.0,1.2692673878798204,1.2664295841904254,0.8374866767475996,3.383188528372497,2.7306416615329945,,,0.6547956803312163,6.603543904579146,inf,,0.8459767169735394
554,5.703782474656199,-1.1407564949312399,0.0,1.4371476797543092,1.4152542907055594,0.7259737122516429,3.7666364258930423,4.833628621200974,,,0.648888643467878,7.313220387090301,inf,,0.6419735244185351
555,5.498760921200764,-1.86957871320826,0.0,1.6039195626774314,1.5877650387522506,0.7007072875476399,2.956125950552826,1.99618116520042,,,0.6357360191111145,6.517215821090648,inf,,0.8616151004817477
556,5.703782474656199,-1.0076682371892618,0.0,1.6766204526107178,1.650856826329555,0.7193160758944321,4.517405836335262,10.3370909493877,,,0.648888643467878,7.43727303576028,inf,,0.8291992510604258
557,,0.0,0.0,1.6790072507318288,1.6596847114844875,0.7725650317315382,3.4984779849957404,4.695239318416421,,,0.6380535849069913,inf,,,0.9099637848060215
558,5.703782474656199,-1.0076682371892618,0.0,1.719485280912547,1.7067201033134898,0.7769435140603943,3.495428375125629,4.5716243062323105,,,0.663668482632973,7.43727303576028,inf,,0.7545720879671093
559,5.143248664516158,-1.5772629237849551,0.0,1.6789465399961374,1.6797857103652982,0.7661066630688445,3.6977322880588948,10.207655071574186,,,0.6566669596287297,6.198078796470981,inf,,0.7007261061095023
560,,0.0,0.0,1.6325620878070823,1.6095273709502302,0.7907359550243641,3.682881627042117,2.971922032287884,,,0.6566669596287297,inf,,,0.7440978492842606
561,,0.0,0.0,1.6213763207769656,1.5309365175279217,0.5612251366148967,4.351226928785733,4.658553689086953,,,0.663668482632973,inf,,,0.9059512196237259
562,5.703782474656201,-0.7795169382030142,0.0,1.5070865507505484,1.4942041085741442,0.6601784095054255,4.412858662825365,21.77472676391292,,,0.6528756675646988,7.693992882608094,inf,,0.7406354548146913
563,5.703782474656199,-1.1787817114289478,0.0,1.7238813512164743,1.6991402344804507,0.8152559863100473,3.7596831961591155,2.3331782805016728,,,0.648888643467878,7.280430564267311,inf,,0.8263357072229327
564,5.703782474656202,-3.3272064435494513,0.0,1.611102080611474,1.6017166309435449,0.7033354091733116,4.354065047458745,2.4239252820373514,,,0.6528756675646988,6.242778975388888,inf,,0.8374716981439706
565,5.277992063740804,-1.2315314815395209,0.0,1.647211545253415,1.627585827608822,0.8521462376054437,4.454784708800035,4.940221812152499,,,0.648888643467878,6.680177130600062,inf,,0.9074964205137815
566,5.572027225458857,-4.494768628536812,0.0,1.740617661389138,1.712110195643537,0.7181742613591735,3.3131582667356803,4.180197551821319,,,0.6425374456860184,5.744604469176456,inf,,0.6878828818707656
567,4.636098592912271,-0.1718413050349028,-0.724471089594803,1.7531109027612855,1.702501292088111,0.7179342810784956,3.626396158550406,4.001884401885786,1.8922263041483536,,0.6566669596287297,6.176456332457816,1.5935224571282007,inf,0.6846232836827618
568,5.703782474656204,-2.2625003816136275,0.0,1.7473618168350291,1.7422898525720598,0.695117523237524,3.4611650950015758,6.377446795374016,,,0.6547956803312163,6.628441456200873,inf,,0.6221073694047901
569,,0.0,0.0,1.6938539117621085,1.6556443360899964,0.6223095943082415,3.2953482907585245,2.561817858925691,,,0.6584896970785714,inf,,,0.6546199743235085
570,5.703782474656203,-0.38025216497708014,0.0,1.760979028614147,1.7411770083237712,0.6073664603878888,3.58878019057189,7.489411595252321,,,0.6447042257417027,8.411832675758411,inf,,0.7337719142626598
571,,0.0,0.0,1.6640358107617728,1.6039935125319462,0.5835462072540127,3.894722573484647,10.125522141253883,,,0.6468212168108125,inf,,,0.7674481925931261
572,,0.0,0.0,1.7618166872080638,1.758626395941581,0.7186138346236468,3.5321057159374702,3.78269326749525,,,0.6180765742263259,inf,,,0.8654504179109135
573,,0.0,0.0,1.3443462590432897,1.29730691559264,0.8433225443723009,3.444816257462839,2.995411094788931,,,0.6380535849069913,inf,,,0.9228892159790589
574,5.703782474656199,-1.1597691031800939,0.0,1.1651271677810384,1.1455013320070202,0.6895747511976804,3.3651879291627713,4.073560474797672,,,0.5978297680564633,7.2966910851390905,inf,,0.8226489561999162
575,,0.0,0.0,1.6876518485950869,1.6227724826830712,0.7447649473746714,4.354862104340859,11.436907009232955,,,0.6357360191111145,inf,,,0.8013669021060401
576,5.703782474656203,-0.3992647732259342,0.0,1.7558590809775374,1.722271499528558,0.7663629106020439,4.089884777932615,5.264074714669679,,,0.6180765742263259,8.36304251158898,inf,,0.776572723673889
577,5.395391060794597,-4.065226300466865,-0.30504045877675917,1.7562431916503733,1.6956623535318742,0.7289653617001471,4.744414372948194,11.99105941808476,3.405569415317711,,0.6547956803312163,5.510411081675661,3.1245651453969594,inf,0.5553728320480847
578,5.7037824746562,-2.9849794950700783,0.0,1.444407292048623,1.3952417998901012,0.7447845992295106,4.287155172988144,2.313516407400428,,,0.6180765742263259,6.351319143964094,inf,,0.7360034472725014
579,,0.0,0.0,1.6767709128962287,1.6686770281364434,0.7165525076080186,4.051475795099092,13.639427429241433,,,0.6153451465759925,inf,,,0.9302371090532324
580,,0.0,0.0,1.1706412572104838,1.1804813057872283,0.7505853452275407,3.6171650113037486,2.2877255624169623,,,0.6125606311107803,inf,,,0.7179129770318152
581,5.703782474656202,-2.129412123871649,0.0,1.7013483879939941,1.6718381102216395,0.7688871684958782,4.186780794906968,1.6630966710528599,,,0.6566669596287297,6.689066078017308,inf,,0.8107536302149335
582,5.220973318647379,-3.9436163975196994,-1.2773569211276792,1.6475546892627824,1.5968045684193088,0.7031676815676433,4.731261166826245,61.60673808648976,2.0443796198313717,,0.6668815377411301,5.151814907559035,2.0510574223624007,inf,0.6826327526809518
583,5.165643111884633,-5.045111439273992,0.0,1.665244588660157,1.6620976145539768,0.6649211151164071,4.086938117042776,2.271844664678216,,,0.6547956803312163,5.0849997093851185,inf,,0.7785994242815037
584,5.703782474656203,-2.4336138558533134,0.0,1.6658236531982435,1.592494734751431,0.7355172050544163,3.3539099819978775,3.891718855392362,,,0.581717464821069,6.555534685392785,inf,,0.8699096888538455
585,,0.0,0.0,1.705618390944363,1.6816744214519999,0.8210823849580361,3.4350942660431554,3.1859803675030993,,,0.6566669596287297,inf,,,0.9421723348415214
586,,0.0,0.0,1.553740881714364,1.5281620517575814,0.7892564109584638,3.322939298612617,3.6554606294344443,,,0.6180765742263259,inf,,,0.9478147112169091
587,5.703782474656204,-2.2625003816136275,0.0,1.6665170738664985,1.585406541910124,0.7387337058624226,3.601262943625072,5.022846196026753,,,0.6068309995095971,6.628441456200873,inf,,0.8868910508030607
588,5.337214254167767,-1.8502342747781593,0.0,1.752629748373793,1.764402278268027,0.6973697639942611,2.9866655205135166,2.9225227243374463,,,0.648888643467878,6.33866074709217,inf,,0.770621594020953
589,,0.0,0.0,1.6173888119148114,1.560820447912923,0.7537872258919923,3.4505642878770475,3.3504953064922276,,,0.648888643467878,inf,,,0.8579710532260244
590,5.299901440314188,-2.2436249430663393,0.0,1.7558451616192472,1.7064233935952948,0.7918189759587398,3.5379849295552237,2.409140887446523,,,0.6403206450210053,6.104260041253326,inf,,0.6407279603281165
591,5.539247537856618,-3.655903374985368,0.0,1.4271509894871466,1.3995748633460139,0.7882173907229518,3.2507040458470606,2.6763002248930308,,,0.6403206450210053,5.906306738767675,inf,,0.7522809471767805
592,,0.0,0.0,1.3116560246278568,1.2293005785967162,0.9030765432506531,4.830035013765126,93.30060831969523,,,0.6097226960127671,inf,,,0.921974393346866
593,5.7037824746562,-5.7037824746562,0.0,1.7412764388495787,1.763668181814463,0.8169369552763346,4.424580408767239,5.680682718992482,,,0.552929491858785,5.703782474656201,inf,,0.8345812407976412
594,,0.0,0.0,1.5574189213490186,1.5321025611597756,0.8728592534153552,3.7352756372169167,5.38316490055019,,,0.6309483474627791,inf,,,0.8894172726911309
595,5.41679868968338,-5.41679868968338,0.0,1.618879086129855,1.6232543981049732,0.7518948650041606,3.7996993455288424,6.308553704690347,,,0.62595550513784,5.332218918223718,inf,,0.7492985592974406
596,5.0929548502693835,-4.37994117123167,0.0,1.441701204738281,1.4095419504365618,0.6983681589046287,4.082727295473779,9.750687721544184,,,0.581717464821069,5.209086232820094,inf,,0.5299033091182053
597,5.703782474656201,-0.6464286804610362,0.0,1.3348756863702969,1.2890908523888087,0.7610429316002634,3.592982196371937,2.776334952771807,,,0.6068309995095971,7.881204424696241,inf,,0.7729421761452516
598,5.703782474656201,-5.361555526176829,0.0,1.6261278576486937,1.6433372274865126,0.7691383153828065,4.401452633000159,2.586962841127753,,,0.6233814453054027,5.765657878374289,inf,,0.5125514516437658
599,,0.0,0.0,1.6566678088116729,1.640907437851615,0.7498689146384737,2.8337159852877725,3.4195085791327187,,,0.6357360191111145,inf,,,0.7031221549623411
600,5.635492112039458,-3.813349662480033,0.0,1.747996157753493,1.7453317344508004,0.6816019378222143,3.5045014891610204,3.959430757335598,,,0.6528756675646988,6.000393177852283,inf,,0.5277984817432511
601,5.364582790552399,-4.202256519266046,0.0,1.6398304941878745,1.5692184086888326,0.7806358004793962,4.068298666128095,3.8777462378758507,,,0.6333676938231112,5.549631794828943,inf,,0.7426071174225437
602,5.703782474656202,-1.9963238661296707,0.0,1.613782737708744,1.5924791845556696,0.7085983881425809,4.489032422056265,4.841094364045971,,,0.6547956803312163,6.753604599154879,inf,,0.5482893546971443
603,5.354418443152401,-5.354418443152401,0.0,1.4391946644334483,1.4208749094404114,0.7726776013712267,4.910430127051453,17.456000000194326,,,0.6284777104787076,5.242147095080982,inf,,0.6098670579529196
604,4.503103057761692,-3.272254888640163,0.0,1.5987024991122185,1.5923188869018634,0.7390304293138946,3.850803282929709,3.96211306027839,,,0.6357360191111145,4.741881231529994,inf,,0.8377373408768144
605,5.040772128033646,-0.38645919648257954,0.0,1.760484939604068,1.7611278571030262,0.7601871962798022,4.448843485216623,15.53919019981205,,,0.648888643467878,7.600902459542082,inf,,0.7463029918123476
606,5.703782474656201,-3.3462190517983044,0.0,1.7021479447215786,1.662282290372869,0.7472539606077069,4.028556748571375,8.907479866861754,,,0.6619902821573977,6.2370809542742505,inf,,0.8560973813306287
607,5.6067418693778075,-2.8033709346889037,0.0,1.676473828026678,1.654599687428522,0.6678709851073308,4.153777246162141,3.7645371814521518,,,0.6528756675646988,6.2659013928097425,inf,,0.7905228815061066
608,4.801009477906587,-4.801009477906587,0.0,1.4549041818951896,1.3895752679016558,0.7879776565750976,4.520039873004536,5.361772405367534,,,0.6333676938231112,4.761174434464673,inf,,0.6710568814736192
609,5.7037824746562,-1.121743886682386,0.0,1.653512521812756,1.6066592056186404,0.6982414765921179,3.605923048998629,2.874304374657594,,,0.6528756675646988,7.330027505406683,inf,,0.7430763077877984
610,5.703782474656202,-0.34222694847937213,0.0,1.5862837813714314,1.534041120800933,0.7314314413925956,2.2379225036974018,1.4041037484240877,,,0.6233814453054027,8.517193191416238,inf,,0.7455376794452121
611,4.95100400572239,-4.719957152122012,0.0,1.6657273906213224,1.6594622038655886,0.7816736027529126,4.158792560087758,5.299344080555084,,,0.6380535849069913,4.960259086771189,inf,,0.5518435814043522
612,5.6140810748190315,-3.181312609064118,0.0,1.7129396340988485,1.7297639128076774,0.8070585933189367,4.258053707954145,20.00071934658081,,,0.6468212168108125,6.15006957728462,inf,,0.7378374523747059
613,5.7037824746562,-1.42594561866405,0.0,1.7239226208943652,1.6959475340116432,0.8145983347954011,3.4690346343376097,7.811302033177279,,,0.6357360191111145,7.090076835776092,inf,,0.8075218990554883
614,5.418368929719753,-1.842245436104716,0.0,1.6154891370962323,1.6167344958228909,0.5761027086961532,3.2679671488173394,2.3900868014424854,,,0.6528756675646988,6.437751649736401,inf,,0.7074243986969668
615,5.546249024528941,-3.2537994277236453,0.0,1.7390341284784459,1.7587660264086453,0.7521756071937092,4.021585540989527,11.17710964584993,,,0.663668482632973,6.032286541628237,inf,,0.818913074662999
616,5.442832947857161,-1.5421360018928623,0.0,1.7366952348156814,1.7355412950290634,0.8169639306176073,3.5732770528155293,4.224657408284141,,,0.6357360191111145,6.645391014514646,inf,,0.9336509927068598
617,5.703782474656202,-0.2661765154839561,0.0,1.6466003620660439,1.6257249607650295,0.7304826528918896,4.023980295056497,5.922356125459589,,,0.6447042257417027,8.768507619697143,inf,,0.8096997422184924
618,,0.0,0.0,1.2086872868808747,1.2167981405532424,0.8313088183099067,4.089559479724035,18.617751313228116,,,0.5677978065141052,inf,,,0.9400431564888474
619,,0.0,0.0,1.61695714398115,1.6205651576168483,0.7186701214029078,3.6536677596525555,5.592249402663025,,,0.6180765742263259,inf,,,0.8647411536423368
620,5.703782474656203,-2.4336138558533134,0.0,1.6063771811873795,1.6061700060595747,0.7358861790332544,3.5396882054552066,14.689487758062446,,,0.6038851895711802,6.555534685392785,inf,,0.7010663993443768
621,,0.0,0.0,1.6720806440690947,1.6364528061512624,0.7481519557802723,3.3010653611172036,1.879769308125896,,,0.5783247308855777,inf,,,0.8346227588786932
622,,0.0,0.0,0.890495436134998,0.8482788837107452,0.6898749057706876,3.6932018805437847,10.954452088084418,,,0.6008849035917525,inf,,,0.6837647342693102
623,5.7037824746562,-2.6427525465907062,0.0,1.751625429161542,1.7259021777393189,0.7284101138764568,3.7899292110464224,22.970867201064507,,,0.6584896970785714,6.47309101618171,inf,,0.7083504957274244
624,5.7037824746562,-1.578046484654882,0.0,1.6590729517702338,1.6232050620916343,0.7242394209597456,3.3531821630863536,6.250426346465478,,,0.6380535849069913,6.9887243415158045,inf,,0.6065104153960748
625,5.0855701244270595,-2.508881261384016,0.0,1.5769449003561076,1.5697181357569918,0.748434264131206,3.7064768155406242,12.842801275765416,,,0.6468212168108125,5.772775346143153,inf,,0.8763946066188253
626,,0.0,0.0,1.3979624627180995,1.3712464540969065,0.8232781254187803,3.5867538833476336,8.200214588114873,,,0.6097226960127671,inf,,,0.9406678524891776
627,5.703782474656201,-0.15210086599083203,0.0,1.6709254769375994,1.6316454046071827,0.7300511820796713,3.4967136983660043,2.8786670663018286,,,0.6547956803312163,9.328123407632566,inf,,0.6191675894438268
628,5.703782474656202,-3.7264712167753853,0.0,1.5592537698374347,1.5644378502996061,0.6760744869871372,3.977656113329791,16.48570413015668,,,0.6357360191111145,6.129450290081885,inf,,0.8112299758245706
629,,0.0,0.0,1.6437102505685268,1.6287936986372236,0.826794588747839,3.540489673028697,21.597368867661025,,,0.585052858160615,inf,,,0.9250245506297194
630,5.7037824746562,-0.9506304124427,0.0,1.7012902527694418,1.6865279262673791,0.7631705660466607,4.379969131984782,14.937359086076315,,,0.6180765742263259,7.495541943884256,inf,,0.7062860268549412
631,5.703782474656202,-0.5513656392167662,0.0,1.37826063691797,1.2790996146501383,0.6305840139307052,2.9240577213102723,2.0131777768336394,,,0.648888643467878,8.040269119325927,inf,,0.6054925396291428
632,5.703782474656202,-0.6844538969587443,0.0,1.5605955990694023,1.5050814092615286,0.6716312666974169,3.0050629738984407,1.497762242529026,,,0.6380535849069913,7.824046010856292,inf,,0.7439986845370733
633,,0.0,0.0,1.4785070180328204,1.4536431548113735,0.786760520481636,3.541002909707751,7.383437444441029,,,0.6468212168108125,inf,,,0.9404800757531945
634,5.703782474656201,-1.0837186701846782,0.0,1.5653966184684602,1.4544775516263817,0.8102084364714166,3.14370481981795,5.277244561070928,,,0.5641709578113449,7.3645136814778525,inf,,0.7999256118621829
635,,0.0,0.0,1.7095366494582107,1.7195292748296,0.7533084648765683,2.681006624824207,2.6798838238767537,,,0.5202020156036558,inf,,,0.7902046152352847
636,,0.0,0.0,1.4735920233926938,1.4622543703448732,0.8625464831635961,2.9826844561619543,5.81463808586742,,,0.468121228110369,inf,,,0.8432373585570319
637,,0.0,0.0,0.8383641667531987,0.8263336523434793,0.8172580395851796,2.259373642725023,2.3701753139984003,,,0.541134803179459,inf,,,0.7460411350421924
638,5.1916526687654585,-3.1669081279469293,0.0,1.699291968749113,1.675202136793696,0.7974843498457771,3.154229688018347,7.1472793682637,,,0.5713653840954815,5.61150719854703,inf,,0.7681304671229665
639,,0.0,0.0,1.5595214408183458,1.5310187812076255,0.9290012745451364,3.0606294795965483,2.354577977087876,,,0.43586655696697996,inf,,,0.9114063169153055
640,,0.0,0.0,1.1357239903084226,1.110123936439082,0.8814960400273948,2.970511626279694,5.533291112445884,,,0.4066654671944331,inf,,,0.8261531725269037
641,,0.0,0.0,1.7210179892588007,1.6979145470519559,0.9512741943042144,3.3194051160211657,5.780479315039208,,,0.5113665138247345,inf,,,0.828906550598037
642,,0.0,0.0,1.6221614863504095,1.629457935214232,0.8166945073830287,3.1473855091562624,5.585704121048783,,,0.47824363442641393,inf,,,0.9003775768589304
643,,0.0,0.0,1.7822235705997596,1.7632188517746648,0.9556408920973319,3.6309926028131456,47.78211481495789,,,0.41861278947482794,inf,,,0.8725303563053943
644,,0.0,0.0,1.547213577664456,1.5418454373539523,0.8750889376212833,4.0442560735313755,9.441890402672112,,,0.5604843169999094,inf,,,0.7567131829499276
645,,0.0,0.0,1.7032830473656573,1.6788461035017568,0.8413292783690499,3.7576590715673377,6.267658880548739,,,0.5202020156036558,inf,,,0.8984734965863219
646,,0.0,0.0,1.6858497987257066,1.6494626999861417,0.767651617561892,3.9176331897834302,8.054001925460465,,,0.47824363442641393,inf,,,0.8637712060601883
647,,0.0,0.0,1.4099435307321042,1.3336254677220203,0.6868441584173954,2.7437639538452947,3.301365255141914,,,0.4732203808476458,inf,,,0.7550533359201191
648,,0.0,0.0,1.6647758948904468,1.6300738108409336,0.9466917126721442,3.0004801972802273,3.0775514613876966,,,0.38163879478178075,inf,,,0.8620211617756788
649,,0.0,0.0,1.5604098157895305,1.5480167723052558,0.9394692158793618,3.1195456461203483,4.562740246247587,,,0.41268473150466,inf,,,0.8192007944222638
650,,0.0,0.0,1.6762101841367305,1.6553376451176967,0.9534885345767293,3.0807541882092746,10.338690798874595,,,0.3751344627501719,inf,,,0.860124781486788
651,5.369440893444931,-0.7587404395341659,-0.7626011469418978,1.4792294752183657,1.4435912259825308,0.6489223292087538,3.355422530827111,3.3760254918263453,1.2186861917762242,,0.5490601803369085,6.571283042360924,1.1474024528375417,inf,0.6902743436605655
652,,0.0,0.0,1.1178419054612077,1.124940421030313,0.7787922994606843,2.598581025512669,5.094655322490501,,,0.4576907132971797,inf,,,0.8915052644970521
