,bvp+hr_XAp0,bvp+hr_XAp1,bvp+hr_XAp2,bvp+hr_XCond1,bvp+hr_XCond2,bvp+hr_XDist,bvp+hr_XFuzz1,bvp+hr_XFuzz2,bvp+hr_XK2_1,bvp+hr_XK2_2,bvp+hr_XPermEn,bvp+hr_XSamp0,bvp+hr_XSamp1,bvp+hr_XSamp2,bvp+hr_XSpec
0,,0.0,0.0,1.6187140171303,1.5616279614839519,0.8279364969994474,2.1009632221817913,1.0763717640796115,,,0.5113665138247345,inf,,,0.881594316069181
1,,0.0,0.0,1.2326262976198135,1.209904864481557,0.6611132602355091,2.6129206153880618,1.5403151797974166,,,0.6097226960127671,inf,,,0.9498449878975532
2,,0.0,0.0,1.7413816073550556,1.733776036120861,0.63477068495527,2.6032600431271984,2.3624633819364576,,,0.6425374456860184,inf,,,0.9081372287684119
3,,0.0,0.0,1.5921750054196426,1.5723007733315153,0.6901588637557173,2.534035623152399,1.1620185431243115,,,0.5978297680564633,inf,,,0.8437143038401611
4,,0.0,0.0,1.3968094598567218,1.393229404920724,0.47948083017926796,2.5416708717826952,3.5044368654531177,,,0.5978297680564633,inf,,,0.9320464394455483
5,,0.0,0.0,1.4973131847785193,1.4887809213607457,0.7054027818728577,2.5470617608193775,3.777418463898457,,,0.62595550513784,inf,,,0.8914057879534534
6,,0.0,0.0,1.5695517918845128,1.5549687518533346,0.6902596892015532,2.3201678965377415,2.8458997975954747,,,0.5915533975974677,inf,,,0.9051508902947262
7,5.703782474656201,-0.7605043299541602,0.0,1.7001035706868775,1.6934808778388406,0.6046385826262138,1.8861122957668195,1.4372773439206588,,,0.6357360191111145,7.718685495198466,inf,,0.6526933573459465
8,,0.0,0.0,1.4778826268949958,1.3649587277359791,0.7039196271554898,2.1620188035512,1.6048227533436448,,,0.6284777104787076,inf,,,0.9167179204469441
9,,0.0,0.0,1.6870659457712442,1.6978218409139543,0.7678314684513541,2.5542239069076786,2.5417433706554107,,,0.5978297680564633,inf,,,0.8983348763528699
10,,0.0,0.0,1.7284697280174968,1.7306181660201791,0.6675598708639128,2.2542160330045236,2.062065312455188,,,0.6403206450210053,inf,,,0.9356654117135748
11,,0.0,0.0,1.68752585576549,1.627779647865163,0.5491499025766372,2.060016764660505,1.8071564986493778,,,0.6153451465759925,inf,,,0.9055411096470669
12,,0.0,0.0,1.601399464935604,1.6072194565135445,0.7526941630944309,2.018316569251411,1.5962284650653538,,,0.6528756675646988,inf,,,0.7984817903188104
13,,0.0,0.0,1.3179621453994745,1.3264131837794713,0.7467822403502261,2.6774503625599793,1.9812887035940006,,,0.6425374456860184,inf,,,0.9477038431508584
14,,0.0,0.0,1.5925283300141926,1.5833362857198905,0.7005609431446961,2.1163627894422654,1.2330841391160008,,,0.6509067234006624,inf,,,0.9533494763489931
15,5.703782474656201,-2.775840804332684,0.0,1.7114902712652271,1.6800498606224372,0.44139910383651754,2.9937729431140165,2.073724926170422,,,0.6509067234006624,6.4239583276040655,inf,,0.6383920741736462
16,,0.0,0.0,1.6022752157392581,1.590638448149066,0.7597069711757577,2.8992578928147315,2.9675913735537782,,,0.648888643467878,inf,,,0.9333933170235797
17,,0.0,0.0,1.6874487562494416,1.6180202234558998,0.7296527945498454,2.6299973415870226,3.6069456108450453,,,0.6284777104787076,inf,,,0.9242844221219223
18,,0.0,0.0,1.7380172972980947,1.7592741904492557,0.8146871659357591,2.8006243465781773,2.7707793463726387,,,0.6547956803312163,inf,,,0.9444858550329176
19,5.579265017070581,-3.1057908595026236,0.0,1.6987485985350828,1.6449548664637945,0.8297542510742307,1.8950440575500493,1.4654528971935235,,,0.6547956803312163,6.124361220574413,inf,,0.7028809376226199
20,,0.0,0.0,1.7042494916644313,1.6579455290857774,0.8362624143374034,2.6623924827681824,1.6282671352665545,,,0.6403206450210053,inf,,,0.8884162597910815
21,,0.0,0.0,1.7508153690762585,1.7022580603082886,0.7153428541953339,2.4319552634443493,1.9975440788034677,,,0.6380535849069913,inf,,,0.9493377181187004
22,,0.0,0.0,1.7057243006891214,1.6904926143507453,0.8300856289056538,1.7960967923909243,1.5167647409352771,,,0.62595550513784,inf,,,0.9296573086060463
23,,0.0,0.0,1.7386526940232645,1.7097842413152964,0.8841282934273471,1.75748391185206,1.587792211534838,,,0.62595550513784,inf,,,0.8971257108309407
24,,0.0,0.0,1.6559266312552656,1.644543200902415,0.6597513878203396,1.9329717793895862,2.5291593570503657,,,0.6425374456860184,inf,,,0.9549926668998416
25,,0.0,0.0,1.6553337244997426,1.6167524144985463,0.6696058082800863,2.1384148104787557,1.7936974737331695,,,0.6357360191111145,inf,,,0.9447986196032786
26,,0.0,0.0,1.5638513803873693,1.5361065922642412,0.7834610446592772,2.9987579781666325,3.2881282925187243,,,0.6233814453054027,inf,,,0.931359931564033
27,,0.0,0.0,1.6911774373279918,1.6847992568955188,0.7132026443406771,3.4067333825259913,17.281113299456006,,,0.5978297680564633,inf,,,0.878424457561341
28,,0.0,0.0,1.5162967057762118,1.4510086636606525,0.8022135453941022,2.8605966844191872,3.066674062231521,,,0.6038851895711802,inf,,,0.9351410990171308
29,,0.0,0.0,1.6712484621361774,1.6295326555312917,0.6038951898134639,2.573501964651178,5.0749431983910815,,,0.6284777104787076,inf,,,0.9371280396361494
30,,0.0,0.0,1.661347711307741,1.6248722615753368,0.6118453801138981,2.3931270505324176,5.422202323662221,,,0.5915533975974677,inf,,,0.9271858207209822
31,,0.0,0.0,1.6934885415571466,1.6225941235207064,0.5080475676923232,2.3274423487086,3.521077494688604,,,0.6284777104787076,inf,,,0.946719557566277
32,,0.0,0.0,1.5071732118193157,1.4598663407639014,0.9285832645936911,2.9175144954789443,3.882012087275005,,,0.5567373465730988,inf,,,0.8813140437860733
33,,0.0,0.0,1.3235687074316356,1.2710238252233095,0.6405191039196027,2.619668108518915,2.8881553218868468,,,0.6038851895711802,inf,,,0.7391511516843541
34,,0.0,0.0,1.7286961274647334,1.648735443049266,0.8126597053000307,2.714368770810851,2.1984196305512587,,,0.6468212168108125,inf,,,0.957842316814299
35,,0.0,0.0,1.6917885006311661,1.6435311011570364,0.8536952818414922,2.63788675865083,1.546035224649199,,,0.6309483474627791,inf,,,0.9490642009218616
36,,0.0,0.0,1.396135652982599,1.3778496885966192,0.702342817066872,2.036192819783693,1.8588107732150476,,,0.6602640781246099,inf,,,0.7874945327695854
37,,0.0,0.0,1.6812500740125256,1.642717862239464,0.7433553845554006,2.2844978020813222,1.8062262953476593,,,0.6528756675646988,inf,,,0.952544058882354
38,,0.0,0.0,1.3891851148552028,1.3559390611560773,0.7901209201160756,2.067975029742325,1.5496633383148835,,,0.6547956803312163,inf,,,0.9464595468375946
39,,0.0,0.0,1.6718234720071754,1.662266356492227,0.7547957201961247,2.4842768851369965,2.6823955106019186,,,0.6447042257417027,inf,,,0.9507792528287277
40,,0.0,0.0,1.5521377028677201,1.527959853269846,0.6594075203224626,2.8727200433725564,2.6205641408372014,,,0.6125606311107803,inf,,,0.9404346746633004
41,,0.0,0.0,1.7421199714814883,1.747075300667533,0.7887764117722807,2.5815644021357587,3.4122840627233733,,,0.6309483474627791,inf,,,0.9462330787965961
42,,0.0,0.0,1.5888989061155863,1.564961617920002,0.726742177716695,2.940057304178221,3.7219133387520875,,,0.6425374456860184,inf,,,0.9348574383752993
43,,0.0,0.0,1.515510291084849,1.490955638994824,0.668858160580178,3.30479527072472,3.206418305471423,,,0.648888643467878,inf,,,0.9466701302238567
44,,0.0,0.0,1.2047447670535991,1.1824452841637125,0.6655951250473765,3.4353820927145167,4.740354943037862,,,0.6284777104787076,inf,,,0.9485379211680058
45,,0.0,0.0,1.644546783042202,1.6255026377207493,0.6750126817820349,2.8202551247028893,4.1480173807581515,,,0.6284777104787076,inf,,,0.683437651995776
46,,0.0,0.0,1.7220281808799665,1.7023468335659078,0.6685928781565348,2.5750313264043343,2.301899615469045,,,0.6425374456860184,inf,,,0.6356553366046528
47,,0.0,0.0,1.694978105083471,1.6850640301175763,0.6480917939900706,2.6428356679369496,2.03113779792705,,,0.6528756675646988,inf,,,0.7429923084236589
48,,0.0,0.0,1.2430935508747218,1.2044904374769634,0.38202851658627357,3.1347358551259994,3.3828396229070092,,,0.6125606311107803,inf,,,0.5997488684260647
49,5.7037824746562,-2.6237399383418523,0.0,1.6387120338496142,1.5852579010828143,0.6137542024250298,3.3755562348058676,3.239438126462606,,,0.6528756675646988,6.480311264155198,inf,,0.8675485384988222
50,,0.0,0.0,1.7070083762283719,1.618770590166407,0.6610267652455339,2.6858218314587465,2.264506977394918,,,0.62595550513784,inf,,,0.9084324406236856
51,,0.0,0.0,1.602909396165733,1.5658772619957606,0.7911640463418462,2.898448919723214,3.1572351806768895,,,0.62595550513784,inf,,,0.923052875662438
52,,0.0,0.0,1.7150227991444116,1.6671233759222845,0.6977207399183308,2.6018883439374085,2.304114898905356,,,0.6380535849069913,inf,,,0.8605097449496037
53,,0.0,0.0,1.6698478366576963,1.6765679509821882,0.6870789192569904,2.4427994113430462,1.7513422903755869,,,0.6425374456860184,inf,,,0.7447852438442606
54,,0.0,0.0,1.5030424020405766,1.5126515094289656,0.7769291381535325,3.0832270106563326,2.25510694497354,,,0.648888643467878,inf,,,0.8175291440189568
55,,0.0,0.0,1.5447108010834523,1.5134787842667743,0.7924250543380541,2.7769291720727702,3.169785413319758,,,0.6447042257417027,inf,,,0.9285609385766401
56,,0.0,0.0,1.3996003422489396,1.3377243986867928,0.7745894599691454,2.9350166339908674,3.3383051945729467,,,0.6207552362147116,inf,,,0.9337999354316402
57,,0.0,0.0,1.6471746234703772,1.614309056290026,0.8193860802388823,3.568935130252497,2.775677391899921,,,0.6602640781246099,inf,,,0.9062213858341807
58,,0.0,0.0,1.6884692794851008,1.679463845356358,0.7327882962922093,2.9050391826913313,2.9589659804141903,,,0.6233814453054027,inf,,,0.946943807498204
59,,0.0,0.0,1.3660682102247337,1.3519598427220285,0.6375011578447141,3.1507607409471015,3.090673900635169,,,0.6425374456860184,inf,,,0.7165453182419754
60,,0.0,0.0,1.6314956365456657,1.6125466370035169,0.5279941403970517,2.906407938748245,3.0739218160971133,,,0.6509067234006624,inf,,,0.9515439000595448
61,,0.0,0.0,1.6109407490279632,1.6087985562226415,0.5749526711341246,2.7846394615026377,4.508706594634058,,,0.6380535849069913,inf,,,0.930897878185559
62,,0.0,0.0,1.7272801062568934,1.7306848757425841,0.5399057889237117,3.2947685458282923,3.7295821494848425,,,0.6619902821573977,inf,,,0.8534953143549774
63,,0.0,0.0,1.5043906321424052,1.4464363403337848,0.7662717564364462,2.2708457063515337,1.545379642890913,,,0.6699045166045591,inf,,,0.9340260629751562
64,,0.0,0.0,1.3314295843767352,1.3367920823534944,0.6515587885500621,2.1961891003578127,2.048445778590837,,,0.6509067234006624,inf,,,0.9336843154969173
65,,0.0,0.0,1.6394282145720265,1.6372234838682589,0.7766340784914681,2.049116254545836,1.954026954365916,,,0.6333676938231112,inf,,,0.9348229862289994
66,,0.0,0.0,1.5581838281947364,1.5271903145943453,0.7768634971092162,2.588463073936015,3.269019885065389,,,0.648888643467878,inf,,,0.9465344561416128
67,,0.0,0.0,1.4940984628977585,1.424833643584678,0.6214075253910197,2.349813752863918,2.721591042522892,,,0.6207552362147116,inf,,,0.9553432691377696
68,,0.0,0.0,1.594976764574176,1.584003158498251,0.6470877636445967,2.155522384201317,1.9924162902247082,,,0.6233814453054027,inf,,,0.9497998782885165
69,,0.0,0.0,1.7694665714369757,1.7605743811365213,0.7607776290398495,3.073749883437431,4.089245981013709,,,0.6008849035917525,inf,,,0.9489270392575907
70,,0.0,0.0,1.5658109868675925,1.5688932434814593,0.6648317335302949,2.362423481000928,2.158659648251756,,,0.6233814453054027,inf,,,0.9316334351197338
71,,0.0,0.0,1.5304007756200142,1.5061543432335966,0.8200626161458465,2.5473358240542225,2.9670666945454984,,,0.6125606311107803,inf,,,0.872895753876116
72,,0.0,0.0,1.6884460091449387,1.668851035182496,0.7094812105634467,2.308314698113225,2.324410601537187,,,0.581717464821069,inf,,,0.9360187055758086
73,,0.0,0.0,1.5119529785476706,1.5100494582718795,0.7174249319613686,2.1981014766700793,2.425418742192483,,,0.6125606311107803,inf,,,0.8971853909756113
74,,0.0,0.0,1.7245111512755442,1.703567444294928,0.7467258517767772,2.4266816740202253,2.519296108786579,,,0.5947193981915972,inf,,,0.9111268251449813
75,,0.0,0.0,1.7487179878503152,1.7262461220290406,0.7552215377125597,2.6198924300021966,4.027439234912533,,,0.6584896970785714,inf,,,0.9340535934454371
76,,0.0,0.0,1.6411843520161522,1.623316269974757,0.8107209776337488,1.5425927143322284,0.8931593143193846,,,0.6509067234006624,inf,,,0.9365251080324741
77,,0.0,0.0,1.5511379026614724,1.531499894776675,0.5945651066045572,1.5499333175880843,1.042363248313626,,,0.6528756675646988,inf,,,0.9471484850977355
78,,0.0,0.0,1.5070458592098006,1.4906302037537726,0.733509116590428,2.541782170497441,3.016207899603952,,,0.6333676938231112,inf,,,0.9454378104367531
79,,0.0,0.0,1.66813628831907,1.6371301907070765,0.7114593684795856,2.649262560506346,3.0118451564754496,,,0.5713653840954815,inf,,,0.9348300659467409
80,,0.0,0.0,1.6781506866180662,1.636703419941895,0.7801648240122624,1.8991175856052356,1.2074234645410509,,,0.6566669596287297,inf,,,0.9266447992784594
81,,0.0,0.0,1.4826509697325632,1.4395382520827658,0.6446291041717305,1.9489052840683256,1.861963149665079,,,0.6380535849069913,inf,,,0.915260598260491
82,,0.0,0.0,1.704850312144859,1.694310091651123,0.7054283945084734,1.7324801622256123,2.655885796363963,,,0.5567373465730988,inf,,,0.9341294679670908
83,,0.0,0.0,1.5390783566363029,1.5391629611972855,0.8145440825922523,1.6398884250654497,2.3288164134098457,,,0.5451288209179292,inf,,,0.8891406132814709
84,,0.0,0.0,1.0884449650062615,1.0742057218715717,0.6289355790223417,1.9137542260208684,1.936673667747957,,,0.6380535849069913,inf,,,0.9561553099684628
85,,0.0,0.0,1.4422912081191477,1.3824691868949937,0.7497549133691273,2.117686200628924,1.906413420006979,,,0.6357360191111145,inf,,,0.9542304737561376
86,,0.0,0.0,1.5351772124947791,1.5100329453217514,0.6554502395051874,2.243310829289016,2.0778978229365612,,,0.6528756675646988,inf,,,0.9551016316121521
87,,0.0,0.0,1.3574224059706228,1.2821187211156515,0.7552014044166837,2.247425418389339,1.4226988734222195,,,0.648888643467878,inf,,,0.9367166149801524
88,,0.0,0.0,1.4423665567022215,1.3905766800029198,0.7011354794704641,2.1998933800025777,1.7521255600677557,,,0.6380535849069913,inf,,,0.9536857959463777
89,,0.0,0.0,1.509108384079626,1.4996129392205952,0.6556236411431823,2.438479940357697,2.079025572436142,,,0.6153451465759925,inf,,,0.8976185784873859
90,,0.0,0.0,1.6910952284557137,1.67142714517767,0.7106058143511733,2.5387439858600303,2.7065675777330904,,,0.6528756675646988,inf,,,0.8530040076244068
91,,0.0,0.0,1.659043466542328,1.6435066673168375,0.9008431822227824,2.5692035404107947,10.700656121815072,,,0.5915533975974677,inf,,,0.8809778669652286
92,,0.0,0.0,1.5442690950820845,1.5339893351797924,0.789284152048872,2.5206734865881875,4.120918324441512,,,0.6207552362147116,inf,,,0.9197438726223134
93,,0.0,0.0,1.5608013833023753,1.5374905845165658,0.8424683379252148,2.499040747031991,3.2821263120417896,,,0.5883313578629602,inf,,,0.9192598493036396
94,,0.0,0.0,1.6151566718390844,1.5858627215328809,0.7375747895966356,2.718856607903102,5.309619667540165,,,0.6068309995095971,inf,,,0.9088042438061722
95,,0.0,0.0,1.6228402384036646,1.6207927427817634,0.8589952910673568,2.3091494876839356,2.1701488761672936,,,0.6284777104787076,inf,,,0.9117766826001196
96,,0.0,0.0,1.5620752605334474,1.5334279498598933,0.8418472632132215,2.3245053877424615,2.4124025116835037,,,0.5567373465730988,inf,,,0.930676729665551
97,,0.0,0.0,1.5377166602343815,1.531775285561505,0.818352345453542,2.514589483046896,2.6771255820741695,,,0.6207552362147116,inf,,,0.9256752717429803
98,,0.0,0.0,1.6195961417184428,1.584840202762465,0.8424894701784803,2.65598393527129,2.8222239346471683,,,0.6153451465759925,inf,,,0.9250294657034273
99,,0.0,0.0,1.6937981890630565,1.69879238701295,0.7773708283003387,2.830743156064292,3.158213161605315,,,0.5915533975974677,inf,,,0.863972470432617
100,,0.0,0.0,1.4898006728795883,1.4601830168650354,0.8573034914044685,3.1010376410244778,5.035870589207638,,,0.6309483474627791,inf,,,0.8962193042157175
101,,0.0,0.0,1.7011350721044605,1.7007610744741424,0.7749321249501613,2.508960249820298,2.5012911329309557,,,0.6180765742263259,inf,,,0.8915872312529114
102,,0.0,0.0,1.6885992231482816,1.6857210730274848,0.7421192467801835,2.8369013460662096,2.3804108391722996,,,0.648888643467878,inf,,,0.9127390838557969
103,5.5184059031110975,-1.5819430255585145,0.0,1.755906132678764,1.645163007621726,0.723869881537238,2.9445697018787365,2.571971329467678,,,0.6509067234006624,6.716217067083258,inf,,0.7060942435356573
104,,0.0,0.0,1.645992248917179,1.6471520603216387,0.7881541755779197,2.564132502476824,1.9859517796779111,,,0.6068309995095971,inf,,,0.7550608165486964
105,,0.0,0.0,1.6859143163614347,1.6889818067242017,0.4610883023816046,2.881544140315755,3.614876880311524,,,0.5947193981915972,inf,,,0.7160295614736406
106,,0.0,0.0,1.4411364417067414,1.3999244300922669,0.5615854689501565,2.6190982975678616,6.22321298512808,,,0.5677978065141052,inf,,,0.9441122845188232
107,,0.0,0.0,1.7768313349279028,1.741528901239086,0.5354872814931535,2.8085775825578385,4.401770356875691,,,0.6038851895711802,inf,,,0.9266883766755739
108,,0.0,0.0,1.7094841458235315,1.6933391767631973,0.6204799614509692,2.800002553960688,3.1024221802439054,,,0.6380535849069913,inf,,,0.7277181881014892
109,,0.0,0.0,1.7074016611463854,1.7176002386219265,0.4689986460982007,2.8001663156447045,1.3722002799534128,,,0.648888643467878,inf,,,0.9442635962932888
110,,0.0,0.0,1.5343880534561172,1.5013504539513138,0.7900199254322607,2.634863047187978,3.2640455828951698,,,0.6125606311107803,inf,,,0.94130190232636
111,,0.0,0.0,1.396563780083957,1.3305115512104395,0.8434179667414254,2.1403050605985037,2.490311886592932,,,0.6153451465759925,inf,,,0.953449843466927
112,,0.0,0.0,1.553068685105502,1.5249939832996773,0.7023159195602675,2.3839579801238875,2.5659328033951376,,,0.5947193981915972,inf,,,0.9407158489269797
113,,0.0,0.0,1.3886025779071407,1.3740835740073996,0.7299485714496218,2.3376275083529614,3.2589454977212293,,,0.5978297680564633,inf,,,0.9293810276652766
114,,0.0,0.0,1.7335262992499922,1.7157084944905243,0.8859411091611199,2.337570434812449,4.570061106323525,,,0.5915533975974677,inf,,,0.9240741094475646
115,,0.0,0.0,1.7051521364208058,1.6883763831781935,0.8974049760566456,2.5351951070364787,5.645061500076825,,,0.5748741956352443,inf,,,0.8904484333955112
116,,0.0,0.0,1.686361969886247,1.6379366072531525,0.8611287935054646,2.502279799962854,3.2504442283537207,,,0.552929491858785,inf,,,0.8804631041603092
117,,0.0,0.0,1.7079031850064774,1.6822667890679008,0.8268367923131174,2.69427177366695,3.7133881188009097,,,0.6284777104787076,inf,,,0.9082457601710697
118,,0.0,0.0,1.6947593592674381,1.6885718795214861,0.813724232456441,2.9320259398426862,4.763610531706512,,,0.5947193981915972,inf,,,0.9032915893117617
119,,0.0,0.0,1.5378101028526514,1.5438944401719912,0.8539566710067976,2.302454467399639,3.8410399113651774,,,0.585052858160615,inf,,,0.9078199552785626
120,,0.0,0.0,1.604427844448001,1.5899299207883337,0.69319320079433,2.337439091729482,2.6574931152288905,,,0.5604843169999094,inf,,,0.9233826054246919
121,,0.0,0.0,1.7391611881196738,1.7377836198514638,0.8602014265732187,2.376173720312985,6.4207011541982775,,,0.5783247308855777,inf,,,0.9027441406527419
122,,0.0,0.0,1.64319086659106,1.6283685559125027,0.8472912616273095,2.684519002740302,6.177357610865865,,,0.5947193981915972,inf,,,0.9079706680347656
123,,0.0,0.0,1.6269424239685581,1.5945227872870125,0.6599568903623192,2.624892247095525,1.9791601693322867,,,0.6447042257417027,inf,,,0.9139186569598137
124,5.703782474656199,-1.3498951856686336,0.0,1.5007586621872835,1.4252525636397808,0.6968306329895321,2.837279908942126,2.7575000305435537,,,0.6153451465759925,7.144885072271086,inf,,0.9257124396482268
125,,0.0,0.0,1.7092547648279084,1.682466588326056,0.7017628050083166,2.51639743790016,2.2857390176814496,,,0.5287703885177266,inf,,,0.8995087052821188
126,,0.0,0.0,1.616476631637989,1.6114538544212786,0.7373894515013486,2.635379828839473,3.320537450630238,,,0.541134803179459,inf,,,0.9085192253980318
127,,0.0,0.0,1.7598994230231997,1.7234432384769132,0.9122240241587881,2.6161462506174407,3.0350763271891,,,0.552929491858785,inf,,,0.8814098157482104
128,,0.0,0.0,1.6524105045963573,1.642394887829921,0.9486840402216846,2.459975781811276,3.057192005942619,,,0.5158180382284114,inf,,,0.8903260005760988
129,,0.0,0.0,1.7106335046098269,1.6944733284803948,0.7884927490190894,2.912705160218659,4.379523912133784,,,0.5677978065141052,inf,,,0.9293415236980483
130,,0.0,0.0,1.5947231086376796,1.5958545369579944,0.7206264668434313,2.55720074747065,2.7305159396839724,,,0.5490601803369085,inf,,,0.9248865496945687
131,,0.0,0.0,1.7057128697170938,1.6689294505147994,0.9154830438460686,2.0872959525528767,2.7059683951383553,,,0.524519217297268,inf,,,0.9289752172593488
132,,0.0,0.0,1.6985291045182285,1.6644971270608369,0.9212031909831284,1.7881277391463324,1.9178523863358667,,,0.5113665138247345,inf,,,0.9168355051964505
133,,0.0,0.0,1.649665546709489,1.6309084302294803,0.920349024038751,1.8212535469623128,2.189702676265232,,,0.43586655696697996,inf,,,0.9229736976229715
134,,0.0,0.0,1.7160258130520971,1.6708371918383662,0.9101236042324814,1.6140880729224927,1.569289350374037,,,0.5567373465730988,inf,,,0.9242047637812706
135,,0.0,0.0,1.6318359938079936,1.6127214987218452,0.9198710226908762,1.618785362755612,1.6894318617801842,,,0.49759852643134905,inf,,,0.9155160857372349
136,,0.0,0.0,1.4864407672533235,1.4614542585155155,0.8830402836153016,1.672167244288019,1.5216824345538058,,,0.5641709578113449,inf,,,0.9180826837363305
137,,0.0,0.0,1.5432672386193775,1.496013363765116,0.8629469277560737,1.7574426659839817,1.5748608440695393,,,0.5947193981915972,inf,,,0.9129328370756886
138,,0.0,0.0,1.7769454080835199,1.7504977037635534,0.8915988154181075,1.663390468497645,1.6029629470983542,,,0.5677978065141052,inf,,,0.9075103188066491
139,,0.0,0.0,1.4052990277587094,1.4101147127782716,0.6937855969306356,2.264037231038565,2.159066797118999,,,0.5748741956352443,inf,,,0.9468506506298255
140,,0.0,0.0,1.72737882115071,1.7055731725735728,0.9019793047730741,2.337699104142354,2.673730572531594,,,0.5641709578113449,inf,,,0.9319087569328538
141,,0.0,0.0,1.6654556436287424,1.6581123815128629,0.9387889826873023,2.1725280819303823,2.1267694447089998,,,0.5202020156036558,inf,,,0.9024731613944674
142,,0.0,0.0,1.706630171277839,1.6770200014245888,0.9330891657357612,2.2913446126502186,2.5545326860600643,,,0.5022576003740722,inf,,,0.89469940263294
143,,0.0,0.0,1.6451099568938476,1.634017945506192,0.6604272964777459,2.086370963961073,2.2319252153292752,,,0.48319206230712763,inf,,,0.9006845942411285
144,,0.0,0.0,1.722418305051417,1.696224621346246,0.9384621418769042,2.07859190642891,2.9528124203038377,,,0.4880666971167561,inf,,,0.905883068042538
145,,0.0,0.0,1.6630140919248022,1.6364211243214632,0.9116029768503042,1.925463452333067,2.331410827493978,,,0.468121228110369,inf,,,0.8986306308776608
146,,0.0,0.0,1.7135890703572583,1.6731908328182838,0.9289468096274099,1.6543139952113362,2.038589759540197,,,0.42445136339222655,inf,,,0.9067565001037113
147,,0.0,0.0,1.6857711648709848,1.6742191125006354,0.9216891000990177,1.4353124551939853,1.9276777204416051,,,0.4302020962658841,inf,,,0.8576950879999163
148,,0.0,0.0,1.7179420629695454,1.6831792275135897,0.9218037735133402,1.5981028901364334,1.7481999245911555,,,0.45235697871908603,inf,,,0.8611381804106027
149,,0.0,0.0,1.6137471333221027,1.611815542214897,0.9312610386565641,1.5760430377812646,2.057023619303316,,,0.4732203808476458,inf,,,0.8950988809303868
150,,0.0,0.0,1.6627717787160523,1.617567442652759,0.9514944923989014,1.8415080620700448,2.1008197444695913,,,0.4629450596409901,inf,,,0.9006501976025754
151,,0.0,0.0,1.7421980646087294,1.7093273454642737,0.9266003373299211,1.894407607040877,2.458576572891789,,,0.5329562494928909,inf,,,0.9018788040230945
152,,0.0,0.0,1.2310053879074974,1.2334454942562898,0.8106433204748573,1.3884329239954278,1.5312516218410408,,,0.5202020156036558,inf,,,0.920310800742691
153,,0.0,0.0,1.6839684997403688,1.6389620678204193,0.8925324198322151,1.0468619353393915,1.1756821660071617,,,0.49759852643134905,inf,,,0.8715875559964842
154,,0.0,0.0,1.7724654637063335,1.7319155561031538,0.9069103465982701,0.7654074141434171,0.7993405549381025,,,0.5068466436745385,inf,,,0.8840155642722967
155,,0.0,0.0,1.5879588719209115,1.5599135035615659,0.878268853464328,1.2674823049791784,1.1191652141060027,,,0.5370774965580548,inf,,,0.9126268819461938
156,,0.0,0.0,1.6956518550192528,1.6791240990017842,0.5237922499359414,0.9933172996977476,1.048794228435649,,,0.5158180382284114,inf,,,0.9192647216759229
157,,0.0,0.0,1.306366386476387,1.2596291835788307,0.5452594530916316,1.2937247293266467,1.3531464642572484,,,0.5158180382284114,inf,,,0.8970396888064104
158,,0.0,0.0,1.418340464023096,1.419971288342342,0.8540015857213473,1.1151156626044527,1.3012353120361404,,,0.44144624493110796,inf,,,0.843085999536376
159,,0.0,0.0,1.5241356500444918,1.5293967630876215,0.8839241408632508,1.2718420961520158,1.3663989233943605,,,0.4576907132971797,inf,,,0.856731184047215
160,,0.0,0.0,1.6895418124832013,1.6652798818336159,0.9151326503133563,1.4220710938989438,1.559259898424356,,,0.45235697871908603,inf,,,0.8667913758179284
161,,0.0,0.0,1.7025188528859885,1.6774359408178265,0.937748569197496,1.3308078701520591,1.5088022110693478,,,0.44144624493110796,inf,,,0.8762971232599842
162,,0.0,0.0,1.6810502200380342,1.6736743082999663,0.914787952577186,1.6580203327291605,1.8955872215878298,,,0.40055318934786044,inf,,,0.902736886277202
163,,0.0,0.0,1.726134109898639,1.7174458821140484,0.8909353356938954,1.4339642360091756,1.7171921222355822,,,0.41268473150466,inf,,,0.8743773588782154
164,,0.0,0.0,1.5741549566623347,1.5485048431077775,0.9346158797993387,1.4292932865625891,1.659488713805336,,,0.4066654671944331,inf,,,0.8732637470391655
165,,0.0,0.0,1.5954779071643153,1.6028314314882874,0.7349942413626512,1.3076964116623748,1.381336018594227,,,0.48319206230712763,inf,,,0.9137650127525022
166,,0.0,0.0,1.7135977017013122,1.6790448865768732,0.8959853446193085,1.407339926811313,1.3486083559346316,,,0.468121228110369,inf,,,0.8992941348653887
167,,0.0,0.0,1.7045457662641725,1.6868459314907849,0.9024872658604197,1.6314784061487342,1.7690863172020477,,,0.44144624493110796,inf,,,0.8722977307639814
168,,0.0,0.0,1.5045572349806795,1.4654959631481406,0.9226253502553666,1.6432512884882509,1.867565488106982,,,0.4629450596409901,inf,,,0.8964932775739767
169,,0.0,0.0,1.5790831176892177,1.56419866560195,0.7914522520240649,1.544373529739989,1.2514878115716581,,,0.4928685327679205,inf,,,0.8283516865178384
170,,0.0,0.0,1.7831262556392855,1.7750136351069261,0.8486100882445115,1.4644432655857815,1.3596445181188828,,,0.48319206230712763,inf,,,0.8314534535184913
171,,0.0,0.0,1.4486536171646844,1.450134906775728,0.8026594296012568,1.473336497670918,1.6374723810390712,,,0.468121228110369,inf,,,0.9176480509840251
172,,0.0,0.0,1.6093429045668248,1.5973761767791652,0.8872840275668751,1.1907079768731628,1.1586055880469206,,,0.5158180382284114,inf,,,0.8879382444303154
173,,0.0,0.0,1.665901284017449,1.6173154030024925,0.8782710085656267,1.1170255938098541,1.2786918357698107,,,0.5202020156036558,inf,,,0.8668520723708126
174,,0.0,0.0,1.6293676286077052,1.5982371590206075,0.7468431460110635,1.262925013256467,1.6319605790688008,,,0.5451288209179292,inf,,,0.8564070643996341
175,,0.0,0.0,1.6228445026179297,1.5845456016139787,0.8790350929086719,1.162082468971062,1.4169690089038895,,,0.47824363442641393,inf,,,0.8579243441009402
176,,0.0,0.0,1.6601632017578942,1.6370887588518206,0.9046608432486136,1.3736786617353844,1.4889172418669328,,,0.44694259446804574,inf,,,0.8541325630816655
177,,0.0,0.0,1.4996658803082954,1.481937825096949,0.8825256068256951,1.491103891878215,1.449206323543813,,,0.468121228110369,inf,,,0.9000959410610783
178,,0.0,0.0,1.6266202296851093,1.6016759812547834,0.9256421792447713,2.0173115686962535,1.8522110678490589,,,0.5068466436745385,inf,,,0.9150189237671593
179,,0.0,0.0,1.6354955144466263,1.6044358198122597,0.9408863113037942,2.1836667867483035,2.0213157566113615,,,0.45235697871908603,inf,,,0.8785551730393909
180,,0.0,0.0,1.6529744067780023,1.6192373608573398,0.7968734517425694,1.778487306514201,1.796373543365922,,,0.5158180382284114,inf,,,0.8890092343852299
181,,0.0,0.0,1.6644411096654563,1.6297251887352173,0.9274550372802147,1.900887672808908,2.0182586569431065,,,0.4928685327679205,inf,,,0.8710490021260645
182,,0.0,0.0,1.5821429879534628,1.5652212891438768,0.9243311665013565,1.7070250693952589,2.1489316303620782,,,0.4928685327679205,inf,,,0.894802133374045
183,,0.0,0.0,1.68377218653831,1.61916359471855,0.9209065598785862,1.9010893182347781,1.7835210825294898,,,0.4629450596409901,inf,,,0.8986083359155218
184,,0.0,0.0,1.727874765804005,1.6929888372283335,0.9203597405219784,1.9190094839515524,2.2702617954839317,,,0.45235697871908603,inf,,,0.8834234491896299
185,,0.0,0.0,1.6630767746719506,1.6100630044849595,0.8928520001739224,1.6492151132092174,1.8258058342912045,,,0.4732203808476458,inf,,,0.8799251739842939
186,,0.0,0.0,1.7019182957385204,1.7041009629169706,0.653013554696059,1.6600634715486857,1.58948831646726,,,0.4880666971167561,inf,,,0.9275851358992842
187,,0.0,0.0,1.6273842493271744,1.6233597273882454,0.8345110725394506,1.9133324277724395,2.196827581108588,,,0.5287703885177266,inf,,,0.917200357298323
188,,0.0,0.0,1.3531529833851035,1.3438415331109612,0.8880407314824241,1.5232378045375874,1.6578465047849456,,,0.48319206230712763,inf,,,0.9172244015706597
189,,0.0,0.0,1.7340797383424609,1.7041040525570756,0.8934262488331322,1.6538477086014611,1.622647059617195,,,0.581717464821069,inf,,,0.9301798002829986
190,,0.0,0.0,1.6685427723747903,1.6179237247307101,0.841980090583864,1.2939201964154925,1.5286617112203496,,,0.5641709578113449,inf,,,0.9140580580845299
191,,0.0,0.0,1.3892407900696848,1.3377172488477749,0.914375568384415,1.4064196546122136,1.60936533222759,,,0.3685265678147087,inf,,,0.8467295693310354
192,,0.0,0.0,1.7366927405318886,1.6991604808949128,0.8831868595112444,1.9791050899034732,1.8828344277765472,,,0.6008849035917525,inf,,,0.9199889233753521
193,,0.0,0.0,1.734041146682202,1.7010540057719619,0.9014860340396524,2.2736460904183065,2.0901554004199845,,,0.5641709578113449,inf,,,0.9049711516435658
194,,0.0,0.0,1.7149627764982895,1.6872113228730783,0.8555697711908695,2.09151556150384,1.3171435747941969,,,0.5490601803369085,inf,,,0.9312231014741185
195,,0.0,0.0,1.6484973151275781,1.6329623437394918,0.8741128033550031,2.259582118103791,2.1900019070838557,,,0.5604843169999094,inf,,,0.9244671092342162
196,,0.0,0.0,1.728244000573456,1.6930995672931488,0.8294507114864708,1.9855737071934894,2.463344505631029,,,0.5713653840954815,inf,,,0.9192407241930206
197,,0.0,0.0,1.451202468508355,1.438397061418619,0.8790068495915535,2.5298674374591648,2.556420980052096,,,0.524519217297268,inf,,,0.9051950644118452
198,,0.0,0.0,1.5213649590715037,1.4985960093046666,0.9068815478230583,2.4222569178983777,4.11423808265562,,,0.4880666971167561,inf,,,0.8872337064015261
199,,0.0,0.0,1.7675155256935708,1.7448029088470036,0.8300797385067206,1.77434049060825,1.846078987012549,,,0.552929491858785,inf,,,0.9059579447086499
200,,0.0,0.0,1.680621346609976,1.6280715409022304,0.8978112446255817,1.3200679518810607,1.4147517427092537,,,0.48319206230712763,inf,,,0.8701291608120711
201,,0.0,0.0,1.7574244207915573,1.732109398856294,0.8987255753644271,1.625939322792794,1.7029160075809469,,,0.4732203808476458,inf,,,0.8747968666589494
202,,0.0,0.0,1.697687647180533,1.6486990889483324,0.9105465772018465,1.5069931723581265,1.5964422544040457,,,0.49759852643134905,inf,,,0.8820001816997447
203,,0.0,0.0,1.6532456899780317,1.6198687054313667,0.9080474272027901,1.6092439136212024,1.6086371960753094,,,0.4629450596409901,inf,,,0.8869432315300314
204,,0.0,0.0,1.6493428506423555,1.637393550901236,0.8962020178894605,1.5830988998167732,1.633172790679721,,,0.44144624493110796,inf,,,0.8890437210138129
205,,0.0,0.0,1.6132463507132084,1.5701345024428601,0.9242598854951796,1.5992808105316094,1.7701373532817768,,,0.43586655696697996,inf,,,0.9098187698681347
206,,0.0,0.0,1.6114781120189803,1.5894908311846516,0.9261836022222676,1.7064735675068687,1.75102463901783,,,0.4732203808476458,inf,,,0.8857159268706183
207,,0.0,0.0,1.7086848821580616,1.6786151840341628,0.9096842995163483,1.6977946812736624,1.3575103238130783,,,0.5329562494928909,inf,,,0.8832111272227141
208,,0.0,0.0,1.5314646589126988,1.4897463430070776,0.9104497894753634,1.6514126562626992,1.6355872776942304,,,0.4732203808476458,inf,,,0.9106104321469225
209,,0.0,0.0,1.7266346347048454,1.660958324081802,0.8780143565768209,1.2955067445380422,1.1999299289220242,,,0.5567373465730988,inf,,,0.9151023206354602
210,,0.0,0.0,1.5923397110847608,1.5510798675790944,0.8067923280742189,1.1599315330552433,1.149688533735848,,,0.5604843169999094,inf,,,0.8942147116240616
211,,0.0,0.0,1.6836243075071515,1.6389750119283535,0.8249667857540167,1.0644475336313104,0.9925825369700916,,,0.5567373465730988,inf,,,0.873006763490501
212,,0.0,0.0,1.6376332733498233,1.6298227722363015,0.79804296815051,0.7766097179403428,0.88902896970046,,,0.5068466436745385,inf,,,0.8498749162603101
213,,0.0,0.0,1.6285714975259282,1.6223325220175304,0.8751655294333724,1.0474777366422154,0.9398709282780242,,,0.5068466436745385,inf,,,0.8756127087804704
214,,0.0,0.0,1.7260632938715095,1.71453030898063,0.8599760580564723,1.2766051099918567,1.4062099608172982,,,0.5370774965580548,inf,,,0.8950843524088711
215,,0.0,0.0,1.3968532486832965,1.3538636650135274,0.8243045990115735,1.3843939977439377,1.3087800453514238,,,0.5068466436745385,inf,,,0.8969027823958432
216,,0.0,0.0,1.6379821991668864,1.5276912295102436,0.9121340301118388,1.3115476212395403,1.0773187069519046,,,0.552929491858785,inf,,,0.8940059862100598
217,,0.0,0.0,1.7397117542712015,1.7060205279465106,0.8480579981439423,1.2911216258451232,1.648859357369451,,,0.468121228110369,inf,,,0.8440993778874925
218,,0.0,0.0,1.6222451971613692,1.56119671560059,0.8854186649894478,1.9177209273299556,1.7500044159938606,,,0.5783247308855777,inf,,,0.9122814345351666
219,,0.0,0.0,1.7006948889023572,1.6446863890618053,0.8754345230175595,2.689514672788069,2.688718873683409,,,0.6153451465759925,inf,,,0.9256019010745965
220,,0.0,0.0,1.724827943198738,1.6450821699279574,0.780389609776436,1.71370633248038,1.4335022994200777,,,0.6468212168108125,inf,,,0.9030028817649169
221,,0.0,0.0,1.5962894986217433,1.5918152326847639,0.7711509016062015,1.9458004264470006,1.2428453737655745,,,0.6425374456860184,inf,,,0.9387829817946776
222,,0.0,0.0,1.580292773791682,1.5302010546340055,0.8833400405924635,1.6676906438141303,1.0668917674406124,,,0.6425374456860184,inf,,,0.9519064638631736
223,,0.0,0.0,1.718633420247717,1.6985081455876803,0.8041455199982591,1.7422643409295901,1.1788214928574023,,,0.6425374456860184,inf,,,0.9533162912928878
224,,0.0,0.0,1.6607358896463196,1.6791607419448438,0.7933467035920398,1.491735747062329,1.265316340591947,,,0.6380535849069913,inf,,,0.9501054685429432
225,,0.0,0.0,1.5712079964926058,1.5382138146938082,0.8785389404906092,2.2439042032271406,2.294914154327911,,,0.6425374456860184,inf,,,0.9323579608819038
226,5.7037824746562,-1.559033876406028,0.0,1.578995717195669,1.5642521995719605,0.7566045537786913,1.9288752984185227,1.6294241626983288,,,0.6309483474627791,7.000845702048149,inf,,0.7015904789503828
227,,0.0,0.0,1.630058039458836,1.6295396911453888,0.8069764217470434,1.8215315067813223,1.4246486992655332,,,0.6566669596287297,inf,,,0.9549883472335394
228,,0.0,0.0,1.4759590821417057,1.4453745217564609,0.7288725163510898,1.0390629266581837,0.9295443305077482,,,0.6207552362147116,inf,,,0.8395051827901301
229,,0.0,0.0,1.5825992073307207,1.5760987122992491,0.603508976180042,1.4657577102929913,1.075836348343932,,,0.6584896970785714,inf,,,0.9081716295556184
230,,0.0,0.0,1.5900210360015432,1.587472296990041,0.7517938503508729,1.0421693834751982,0.9405520506977774,,,0.6233814453054027,inf,,,0.9513894049830297
231,,0.0,0.0,1.1922278164768205,1.1944666489615057,0.3551404680786371,0.7943231326895854,0.938069380925627,,,0.5783247308855777,inf,,,0.9631651849327061
232,,0.0,0.0,1.4686383093518707,1.4184864360279925,0.7997504086227734,0.7471616458585161,0.7202340156155762,,,0.6008849035917525,inf,,,0.9521008092150954
233,,0.0,0.0,1.6598631792567362,1.6243933221475746,0.6677146913416137,1.2625724485532726,1.2672676685712891,,,0.6357360191111145,inf,,,0.9544741549809924
234,,0.0,0.0,1.3878037764979676,1.4036921025499352,0.8542393962187156,0.7728827774570846,0.8969659148376216,,,0.6233814453054027,inf,,,0.9450606946196873
235,,0.0,0.0,0.9310642640419284,0.8859267026099127,0.5942719622394006,0.8566563979127498,0.8232606721891798,,,0.6180765742263259,inf,,,0.9535106285213109
236,,0.0,0.0,1.6742353933428034,1.6576225830209483,0.8758043769865678,2.329952030955203,1.8658994703150098,,,0.6547956803312163,inf,,,0.9374584707581307
237,,0.0,0.0,1.7328497858626122,1.6821591845984936,0.855356116643415,2.491971271411356,2.401083818027578,,,0.6403206450210053,inf,,,0.9368361527866254
238,,0.0,0.0,1.6210810058970642,1.5914177040340955,0.8788580519250334,1.9084950534332912,1.4052226174095466,,,0.648888643467878,inf,,,0.9396818379430649
239,,0.0,0.0,1.709470516615493,1.7020532391705532,0.810759071489814,1.8173432209159726,1.1963005356738339,,,0.6509067234006624,inf,,,0.9355586147908489
240,,0.0,0.0,1.75260222102215,1.7423322105341592,0.8832517221489786,1.7549225486313638,1.669100506463866,,,0.6528756675646988,inf,,,0.9345671801767484
241,,0.0,0.0,1.7280273203097913,1.7433224886176815,0.819813750080772,2.148216623029827,2.0484869003283213,,,0.6309483474627791,inf,,,0.950482684322242
242,,0.0,0.0,1.5985751065921148,1.6041467898783324,0.870890531310965,2.3691024222981336,2.4405339395599372,,,0.6509067234006624,inf,,,0.9478005239124093
243,,0.0,0.0,1.731509783169118,1.7087801182398032,0.8244534629985767,2.009619817386903,1.4468899813079865,,,0.6425374456860184,inf,,,0.9243969976109717
244,,0.0,0.0,1.7747264888428058,1.7688819486367142,0.9059737864027876,2.4942976794733873,2.416051845601069,,,0.6425374456860184,inf,,,0.9090304097153526
245,,0.0,0.0,1.6847230759508287,1.6315663956291062,0.8421522092524155,2.453008315394119,2.312618466172419,,,0.648888643467878,inf,,,0.9056819608003651
246,,0.0,0.0,1.7282205440121863,1.7075986447053844,0.7203787067101072,2.284729096459275,2.3811346197232166,,,0.648888643467878,inf,,,0.9086941855475917
247,,0.0,0.0,1.5938456014336153,1.5609756442745855,0.7221559737777972,2.3990128524290695,2.408910859851718,,,0.62595550513784,inf,,,0.9319525883543056
248,,0.0,0.0,1.6272569342637588,1.601264255190985,0.846615988819076,2.151104115967664,2.7481481469116216,,,0.6180765742263259,inf,,,0.9287201893704823
249,,0.0,0.0,1.7349713222524286,1.6748881126945,0.9053733891242103,1.5957970240914834,1.1592579676757113,,,0.6509067234006624,inf,,,0.833834903752142
250,,0.0,0.0,1.3939574641193213,1.3679488662475963,0.8504874926424179,2.459247474615029,2.5430461887775744,,,0.6528756675646988,inf,,,0.9133312816456276
251,,0.0,0.0,1.678114371523051,1.6623574620647248,0.9239273016018252,2.089093044894879,2.1984119523380214,,,0.6468212168108125,inf,,,0.9613577822583456
252,,0.0,0.0,1.6608206112783641,1.682529233688906,0.7812325738713105,2.1636670219381293,2.1097906982465657,,,0.6528756675646988,inf,,,0.9078988594300939
253,,0.0,0.0,1.283458861534673,1.2577180640413999,0.7545556700167017,2.428372848649967,2.4800909689899133,,,0.6380535849069913,inf,,,0.9516180489018302
254,,0.0,0.0,1.59786615347541,1.5660627909724718,0.8622903510118086,1.916925752405908,1.716690280339477,,,0.6357360191111145,inf,,,0.9450540149985122
255,,0.0,0.0,1.4418801959466578,1.4015196590244168,0.7871379207175573,1.9243793954784778,1.891466485976305,,,0.6207552362147116,inf,,,0.9436299909144007
256,,0.0,0.0,1.689235757997214,1.6428495656550428,0.8525796431230095,2.1529601523845896,1.9138255110816855,,,0.6547956803312163,inf,,,0.9355656667781324
257,,0.0,0.0,1.7181995341928593,1.685460990230298,0.9147900542521704,1.9630856047677994,1.4228781849370087,,,0.6468212168108125,inf,,,0.933751462745742
258,,0.0,0.0,1.7820524052702316,1.7558202125332334,0.842165064505962,2.58345961498045,2.223595231693368,,,0.6284777104787076,inf,,,0.9340834577525612
259,,0.0,0.0,1.6896755475488425,1.702281073075134,0.7556583671363561,1.812095173710656,1.5168225297387876,,,0.6447042257417027,inf,,,0.9523961767007347
260,,0.0,0.0,1.5177248023282934,1.5098414283858843,0.7312943085560065,1.6903276009668036,1.4300590336121657,,,0.6233814453054027,inf,,,0.9412155292518583
261,,0.0,0.0,1.6627097700877762,1.6373354442695796,0.6426028197220387,1.7975750763992668,1.5864392666713854,,,0.6180765742263259,inf,,,0.9371234961812632
262,,0.0,0.0,1.7092159155575193,1.7063157307046246,0.8760263311906465,2.690567351968746,2.3313343502413244,,,0.6528756675646988,inf,,,0.9278307873982846
263,,0.0,0.0,1.6775575695022145,1.6680571043365615,0.8580422115579324,2.410233795348649,2.311915776117054,,,0.6425374456860184,inf,,,0.8771471432225659
264,,0.0,0.0,1.5870449327331106,1.5642758816789113,0.7935490016681866,1.7184945877231992,1.0723797150685512,,,0.6284777104787076,inf,,,0.8427837497055518
265,,0.0,0.0,1.5909996789767942,1.5626710136385518,0.754610684559058,1.9325709754675942,1.453873236787794,,,0.5883313578629602,inf,,,0.9497914397532279
266,,0.0,0.0,1.5584917667681655,1.553005545322762,0.8552075802955914,2.401064877008315,2.320650992328861,,,0.6468212168108125,inf,,,0.9535006414086581
267,,0.0,0.0,1.3817421662309135,1.372321757149533,0.7589165940831564,2.3816458792686035,3.2824600677123468,,,0.6233814453054027,inf,,,0.9238441167742629
268,,0.0,0.0,1.6778658448371089,1.6685717862605414,0.7531882264938926,2.295002633693844,2.0325438174747754,,,0.6447042257417027,inf,,,0.9182222032092652
269,,0.0,0.0,1.7425054906944304,1.7362728001309216,0.8757919436781664,2.2607501178073988,2.1097005015051904,,,0.6357360191111145,inf,,,0.9286072651465468
270,,0.0,0.0,1.2979051574673395,1.2977893081537237,0.5881121948175484,1.8330215485105708,1.8885841465039044,,,0.6153451465759925,inf,,,0.923934543501525
271,,0.0,0.0,1.6724699639236769,1.6718698534038603,0.7433667149430517,2.2053959278429716,1.825193754856865,,,0.6153451465759925,inf,,,0.9256589918794808
272,,0.0,0.0,1.7271047760488094,1.6990756334497747,0.6997561371646043,2.4012352451082504,2.1068481987566963,,,0.6180765742263259,inf,,,0.931247324343167
273,,0.0,0.0,1.6907965582734938,1.6763899649840353,0.6790113293738171,2.5286877133763337,4.0819515880579775,,,0.49759852643134905,inf,,,0.9400463604185574
274,,0.0,0.0,1.7146299922392487,1.72408796186602,0.7381521759552739,2.655787536659694,2.6220924298386907,,,0.62595550513784,inf,,,0.9030175722743365
275,,0.0,0.0,1.6733177259249026,1.6777790903996646,0.8458961372760626,2.2703598367482,2.240207555217845,,,0.5783247308855777,inf,,,0.9488020281429482
276,,0.0,0.0,1.7480208822023158,1.7443882980498782,0.8379063179929598,2.9848261725423026,4.866502507313021,,,0.6125606311107803,inf,,,0.9166853970835149
277,,0.0,0.0,1.6524914985893056,1.6363751828426942,0.7865740781707528,2.3401468395544116,2.388474774688668,,,0.6284777104787076,inf,,,0.940215302589147
278,,0.0,0.0,1.417783003675107,1.3945154005819673,0.6715559672107145,1.2302611664066896,1.4274628766239283,,,0.5641709578113449,inf,,,0.9321764574576965
279,,0.0,0.0,1.4383445582810317,1.379948301992245,0.7089141417152063,1.7693657574966852,2.1841635063238023,,,0.5604843169999094,inf,,,0.9446814762423155
280,,0.0,0.0,1.2577090617524516,1.2481783982171424,0.5420313410400789,1.8565479835622845,1.8441133337400615,,,0.6333676938231112,inf,,,0.9111095462342993
281,,0.0,0.0,1.770570582298188,1.7738258110287364,0.7006251239501029,2.0939221692582186,1.905972273336416,,,0.5947193981915972,inf,,,0.9541745800415756
282,,0.0,0.0,1.328129102567579,1.2774897483848222,0.8452001299203998,2.4993896715204045,2.6263337445500343,,,0.6566669596287297,inf,,,0.951181641236661
283,,0.0,0.0,1.7093746790785083,1.6929352936761732,0.8422831899749706,2.321870099550551,2.09984396418932,,,0.6333676938231112,inf,,,0.9542714165565135
284,,0.0,0.0,1.6090841045961697,1.6051018010941978,0.7904821283087876,2.5357668108063125,2.0571271880619855,,,0.6233814453054027,inf,,,0.912458165299588
285,,0.0,0.0,1.4382315240649408,1.3967744022609456,0.8037981279486098,2.484678999843359,2.0783266304495296,,,0.6333676938231112,inf,,,0.8959985192089981
286,,0.0,0.0,1.6583921277214415,1.621293329994714,0.7207494840645988,3.765793962786285,3.4048232445946134,,,0.6207552362147116,inf,,,0.9508371787453949
287,,0.0,0.0,1.6955710312026726,1.6772579948551476,0.8447175553620165,2.452033218480538,1.5262192708817226,,,0.6547956803312163,inf,,,0.9453683495023566
288,,0.0,0.0,1.7201560639788935,1.7214515334864835,0.6342381099665897,1.937693826405554,1.4641313653635097,,,0.6425374456860184,inf,,,0.9096314012129897
289,,0.0,0.0,1.513748565964542,1.5203193614232962,0.7334806363793478,2.5706829471049026,1.5856915414021295,,,0.6357360191111145,inf,,,0.947338675606481
290,5.703782474656201,-0.11407564949312402,0.0,1.4300262056590392,1.4071004779219145,0.8028625059547733,3.0512453029767377,4.893280116376446,,,0.6357360191111145,9.615805480084347,inf,,0.732202471988697
291,,0.0,0.0,1.770030085809589,1.7818370103695882,0.8918808836548334,2.279136027449528,1.4736361980152939,,,0.6468212168108125,inf,,,0.957898763385089
292,,0.0,0.0,1.1854290373456335,1.1658460586033161,0.47891900990783914,1.4249104367266707,1.9371587381102489,,,0.5329562494928909,inf,,,0.9462306545860136
293,,0.0,0.0,1.465314433070782,1.4554620461248633,0.7060703710118558,1.3340181765075454,1.6407439912252362,,,0.4928685327679205,inf,,,0.8868672520582958
294,,0.0,0.0,1.6979318544038244,1.700175713136488,0.8120488600614301,1.1507645294568023,1.4723201945646633,,,0.5567373465730988,inf,,,0.9110358813283181
295,,0.0,0.0,1.5716919893780175,1.5281831654700733,0.7836151088291652,1.3836123582620967,1.995091747445273,,,0.4629450596409901,inf,,,0.8620802158668717
296,,0.0,0.0,1.654183710151203,1.665633177675317,0.7993848118317697,1.8316695314304576,3.550618231539797,,,0.4880666971167561,inf,,,0.9104413372481391
297,,0.0,0.0,1.568843006767978,1.5512812681762367,0.7297689161357448,2.05051256553019,2.8614084645871363,,,0.41268473150466,inf,,,0.8925214243253791
298,,0.0,0.0,1.4481765812382599,1.457471408767142,0.6856134074638167,1.4988873144076509,2.223758621523247,,,0.5022576003740722,inf,,,0.9170990413092742
299,,0.0,0.0,1.6059002947385033,1.5606260204939613,0.7786886050125789,1.7752669727528125,2.5270252962798665,,,0.47824363442641393,inf,,,0.9309796321264959
300,,0.0,0.0,1.240207078520284,1.2116190272567209,0.45210605576110185,1.6875553363750317,2.5011220749659637,,,0.5567373465730988,inf,,,0.9466759104313355
301,,0.0,0.0,1.7552554884606084,1.7534011824725775,0.7312490769020216,2.171090581688231,1.9041025398470128,,,0.6357360191111145,inf,,,0.7872102130898094
302,,0.0,0.0,1.6686678736842924,1.6606538878578831,0.7743956537316302,1.9588760422329488,1.9358490869961444,,,0.6233814453054027,inf,,,0.9227384231303196
303,,0.0,0.0,1.7396940622920458,1.737195643473654,0.6810264498928996,1.884372405803077,1.9445987675144354,,,0.5329562494928909,inf,,,0.9447930093234438
304,,0.0,0.0,1.6411046316286337,1.6187408105861794,0.7630799341671423,2.039754903359231,2.412767681985568,,,0.5113665138247345,inf,,,0.9332703612084069
305,,0.0,0.0,1.4265081292570732,1.4105593469733873,0.8318953565982581,1.9503074846810426,2.126714178424961,,,0.5113665138247345,inf,,,0.9295803223818002
306,,0.0,0.0,1.626486939836482,1.5859415236828356,0.7518090044934136,2.4161372724221857,1.8133816647108314,,,0.6380535849069913,inf,,,0.945309691939956
307,,0.0,0.0,1.394252722966558,1.3825437061909147,0.6753944705035579,2.55669733444154,2.916393498032376,,,0.5677978065141052,inf,,,0.9291097316083592
308,,0.0,0.0,1.7249181549987107,1.6678254681083244,0.7954271770440718,2.121611293341131,1.0390426254583898,,,0.6357360191111145,inf,,,0.9332446103809049
309,,0.0,0.0,1.5266357413771312,1.4601587312462219,0.8145939586272419,2.199878209638336,1.640612536879972,,,0.6333676938231112,inf,,,0.94623643106827
310,,0.0,0.0,1.6805606715751227,1.669808015324502,0.65863697284904,2.456096485655906,1.8452375003099242,,,0.6425374456860184,inf,,,0.9224579499875868
311,,0.0,0.0,1.5252697655732563,1.4948203545308583,0.795453594369984,2.34644577334866,1.3241804073722125,,,0.6566669596287297,inf,,,0.9554787179174605
312,,0.0,0.0,1.6287196662991614,1.5624968020245635,0.792512088673122,1.5647593308986414,0.849324746831611,,,0.6380535849069913,inf,,,0.8606037807059888
313,,0.0,0.0,1.6802248569900293,1.6672661109450355,0.7801685685366877,2.781947677535008,2.3413257549236257,,,0.6333676938231112,inf,,,0.8535910880392507
314,,0.0,0.0,1.6671865846169596,1.6451765502768898,0.7990143702742871,2.7043660608073337,2.108780396127408,,,0.6207552362147116,inf,,,0.9429119053179512
315,,0.0,0.0,1.702817231221588,1.6772813259155284,0.773579951797576,2.068181284854326,1.6521072113801387,,,0.6403206450210053,inf,,,0.927447523599339
316,,0.0,0.0,1.64946231734478,1.6460453380971487,0.8149876257556661,2.73882182257304,1.9520855133788708,,,0.6602640781246099,inf,,,0.9408111942400483
317,,0.0,0.0,1.4704652917870276,1.4097085193884102,0.8262009619596363,2.1722621593857374,2.1895922142696413,,,0.6068309995095971,inf,,,0.9419516917081023
318,,0.0,0.0,1.6633599160604469,1.6000284292555325,0.7751988545158917,2.0035898531715577,1.2142735896490033,,,0.5883313578629602,inf,,,0.9341845090301191
319,,0.0,0.0,1.7555424868289933,1.6813257970075193,0.8820109345481927,2.5203944558714735,1.5673741634054124,,,0.6528756675646988,inf,,,0.9513075995995908
320,,0.0,0.0,1.6378509454022234,1.6342116186599904,0.7664629892380781,2.3427750847323283,1.813608359568835,,,0.6509067234006624,inf,,,0.9561234517351297
321,,0.0,0.0,1.5857142828748554,1.5686452590400597,0.8452520578153314,1.6254055379766412,1.4548376855555831,,,0.648888643467878,inf,,,0.951174765052362
322,,0.0,0.0,1.3579231921035144,1.339631046778131,0.6254488005761212,2.179266786113785,1.7832739877131907,,,0.6233814453054027,inf,,,0.7340292594452866
323,,0.0,0.0,0.8944570962579376,0.8582870938765861,0.6949365840000388,2.082705326120171,2.302706473587361,,,0.5370774965580548,inf,,,0.9355376680960461
324,,0.0,0.0,1.7706911275603079,1.763359705143623,0.7725999036530604,2.4557218159786998,3.415438524573637,,,0.5490601803369085,inf,,,0.927233350160834
325,,0.0,0.0,1.6297949128485159,1.6134021316755789,0.6633342681811785,1.942055055709658,2.6033851964646644,,,0.541134803179459,inf,,,0.9346532774912847
326,,0.0,0.0,1.6353664844108158,1.6026577427637079,0.6499838398933373,2.056719547819085,3.3103439233705623,,,0.5022576003740722,inf,,,0.9295584279378374
327,,0.0,0.0,1.1016502776508732,1.081597163198964,0.7235990789280473,2.323398995277162,2.829969654545292,,,0.5915533975974677,inf,,,0.9448410344837757
328,,0.0,0.0,1.728472940031223,1.6926759985247168,0.8099150504030806,2.5814644258211477,3.0980645799556545,,,0.6380535849069913,inf,,,0.9422768317561864
329,,0.0,0.0,0.8675021215988626,0.8224209449435373,0.7662112264360021,1.8677059007692216,1.4443258113516346,,,0.6207552362147116,inf,,,0.9511841643760167
330,,0.0,0.0,1.722539898720675,1.70473280070982,0.8318996886795926,2.3903626104277595,1.9369332384745008,,,0.6284777104787076,inf,,,0.9476656281973582
331,,0.0,0.0,1.4642119589886315,1.43451911967918,0.7483580767133888,2.1310751651876583,2.393849740789338,,,0.6038851895711802,inf,,,0.9451696293782712
332,,0.0,0.0,1.7298145700779468,1.7090853375186752,0.7650210521425223,2.823997131614619,3.9458745725624627,,,0.6233814453054027,inf,,,0.9462711708505211
333,,0.0,0.0,1.6953808301016853,1.659985682653004,0.7789042845090544,3.018517305424464,3.3424639080495875,,,0.6425374456860184,inf,,,0.9402011101082288
334,,0.0,0.0,1.6168763239345196,1.6301125706940436,0.6469297375059803,3.6406143188398956,4.521188526910702,,,0.6403206450210053,inf,,,0.9392261435785588
335,,0.0,0.0,1.6591180421244085,1.6768676297567517,0.7811496407005375,2.695587898927491,1.9390145548906452,,,0.6468212168108125,inf,,,0.9212135037972613
336,,0.0,0.0,1.4407921977947358,1.4510232901283875,0.6714020354360437,3.057169261712838,2.9982893426270487,,,0.62595550513784,inf,,,0.9353517182148307
337,,0.0,0.0,1.6832008168108796,1.67955981021606,0.8077638202123967,2.812221286832871,2.726573626403989,,,0.6699045166045591,inf,,,0.9003395849012494
338,,0.0,0.0,1.7298156823688609,1.7066716100452322,0.6864426551922188,2.422184803733225,1.8172740442845936,,,0.6357360191111145,inf,,,0.9311895343304393
339,,0.0,0.0,1.3392234819007638,1.2852183783111515,0.8102971752122355,2.6673347014034996,1.7376021112422433,,,0.6380535849069913,inf,,,0.9439859485213716
340,,0.0,0.0,1.3955603849631402,1.361096997666403,0.7279998621967523,3.0539524604801738,6.657480051104331,,,0.6233814453054027,inf,,,0.9480782055136587
341,,0.0,0.0,1.5235367803402113,1.5188940447592514,0.6686935002123295,2.7661591285416622,1.5071189199697792,,,0.6425374456860184,inf,,,0.931463248957118
342,,0.0,0.0,1.745791638968769,1.725698194311352,0.7003237523122152,2.605703541837385,2.415981386004953,,,0.6584896970785714,inf,,,0.9263624011862114
343,,0.0,0.0,1.4294254292385968,1.418696157936881,0.8643394972567726,2.9039817410881805,1.9309551080096972,,,0.6207552362147116,inf,,,0.8443360534994037
344,,0.0,0.0,1.6845228481896208,1.68347027619863,0.6731308207342677,2.992648666256403,4.131402447853584,,,0.648888643467878,inf,,,0.9269433151165778
345,,0.0,0.0,1.6308082112445177,1.6133279298526662,0.7546261116122849,2.854221489352839,2.494409258321094,,,0.6309483474627791,inf,,,0.9406157590117102
346,,0.0,0.0,1.7401155353070161,1.711240433328866,0.7658538241477028,2.7595927968026746,3.0110825726328483,,,0.6468212168108125,inf,,,0.8728177938750198
347,,0.0,0.0,1.7296093410523614,1.7400726161456608,0.8336127924350561,2.8330655895125156,3.2946809432650617,,,0.6309483474627791,inf,,,0.86986723136176
348,,0.0,0.0,1.4889166643112948,1.4717762780488695,0.7569857923584198,3.1004528721465436,5.616224339882159,,,0.6380535849069913,inf,,,0.9101360250697322
349,,0.0,0.0,1.00463313361185,0.9913517529242252,0.7982721278248306,2.672100371361356,5.367463851162459,,,0.552929491858785,inf,,,0.8953843465510268
350,,0.0,0.0,1.6726304309359679,1.6317035193001788,0.859491914633593,3.0532526032031084,2.591458551662256,,,0.62595550513784,inf,,,0.92468010043859
351,,0.0,0.0,1.6059531235731703,1.5847541681794683,0.787764417130088,3.2024548302329743,2.632370683928427,,,0.6284777104787076,inf,,,0.9398275521885269
352,,0.0,0.0,1.563540951448108,1.5663745935951017,0.7854885963153776,1.803073015190566,1.2577598919317794,,,0.6547956803312163,inf,,,0.8915607200173086
353,,0.0,0.0,1.4358468315789283,1.4407266282589992,0.7580702960777717,2.428181489225447,1.6413559612179944,,,0.6284777104787076,inf,,,0.927573805828808
354,,0.0,0.0,1.6894291709160336,1.6986744490988999,0.7407509501936825,2.238634584560551,1.2823052566401345,,,0.648888643467878,inf,,,0.9313732856372577
355,,0.0,0.0,1.160525007610904,1.1405731356621605,0.8060649997311122,2.635383263071712,1.931027239114119,,,0.6068309995095971,inf,,,0.8880461736109304
356,,0.0,0.0,1.4478023993837135,1.425683981465385,0.7609497501873459,2.576972893482599,2.3915350634088774,,,0.62595550513784,inf,,,0.9221149987668356
357,,0.0,0.0,1.7628131542608545,1.7646079650549487,0.6939095405701263,2.557935551606611,2.1357159576061147,,,0.6584896970785714,inf,,,0.9500638725748989
358,,0.0,0.0,1.7018819268493424,1.6750672371087927,0.7055439241549992,2.5741941000883624,2.561473774825469,,,0.62595550513784,inf,,,0.9352993112309648
359,,0.0,0.0,1.6576812579035818,1.6658284623257313,0.7576905778898444,3.103400601853634,3.5189748717747142,,,0.6284777104787076,inf,,,0.9197844460971308
360,,0.0,0.0,1.5150759497288353,1.4888561139169547,0.7984657298448812,2.6861207071328828,2.9299151365723826,,,0.6403206450210053,inf,,,0.8909873816878585
361,,0.0,0.0,1.7381612880836066,1.6974574844162997,0.7707800892743821,3.0922874583989484,3.1371724371993617,,,0.6468212168108125,inf,,,0.8993710603661624
362,,0.0,0.0,1.5790879117736727,1.5661724537942503,0.700538330153678,3.111739277688483,2.3092634528634877,,,0.6584896970785714,inf,,,0.9248232809743788
363,,0.0,0.0,1.6991607319946538,1.6506740131575126,0.7712643049443197,2.6516203779126215,2.2513365995043166,,,0.62595550513784,inf,,,0.9132062229120347
364,,0.0,0.0,1.330346528183821,1.2699814435135959,0.6986144288387122,1.8667195516785726,0.7811557605703552,,,0.5604843169999094,inf,,,0.9122269649709089
365,,0.0,0.0,1.5499109909928337,1.5382459814807958,0.6779937561396925,3.0158996922902976,2.00653197992435,,,0.6097226960127671,inf,,,0.9101802620579129
366,,0.0,0.0,1.5509850750547263,1.5064077111983094,0.8708553442556063,3.7419150188029433,2.5444085174296656,,,0.585052858160615,inf,,,0.8565758077264133
367,,0.0,0.0,1.4309774031285654,1.4107234160172144,0.7605104495692209,2.6213820866744713,2.668946477495172,,,0.6180765742263259,inf,,,0.9492840305148419
368,,0.0,0.0,1.5543787027451184,1.5214297194341821,0.7737559388291702,2.802857982006711,4.406211177887073,,,0.6528756675646988,inf,,,0.9484545247826599
369,,0.0,0.0,1.1467481497124135,1.1347482958818562,0.5785729985438899,2.6825762247931637,2.400644011884786,,,0.6547956803312163,inf,,,0.9473330506902453
370,5.703782474656201,-0.3232143402305181,0.0,1.3399187744101222,1.2994147171869905,0.6143407454780673,2.5766854415907847,1.6339175024228734,,,0.6619902821573977,8.574351605256187,inf,,0.6449434613788975
371,,0.0,0.0,1.2263297880821014,1.2237678981984503,0.8875416639647509,2.463772562547075,3.2324535056370034,,,0.6125606311107803,inf,,,0.849606161417635
372,,0.0,0.0,1.522637272147656,1.5082610993832546,0.8172804196462509,2.4507606275651237,2.539843852314126,,,0.585052858160615,inf,,,0.919661274253832
373,,0.0,0.0,1.7291709994393392,1.7135232286167574,0.79998387830147,2.5563461378983847,2.732780499508518,,,0.6425374456860184,inf,,,0.9360746970386954
374,,0.0,0.0,1.5950123897350366,1.5824981032485221,0.8691366897109528,2.1077171407151094,2.0082312917426273,,,0.6233814453054027,inf,,,0.9259216089681865
375,,0.0,0.0,1.4235791063948617,1.4196204255961415,0.7418495028955622,2.1090006872582494,2.138926624233138,,,0.6153451465759925,inf,,,0.9395911845503444
376,,0.0,0.0,1.7790751266724332,1.741802029133339,0.841226174424681,1.8444667214707895,1.7265597363634282,,,0.6207552362147116,inf,,,0.9334254280939811
377,,0.0,0.0,1.524561155953915,1.5021093760186384,0.8212863080757424,2.4593449169035124,3.137151850606307,,,0.6125606311107803,inf,,,0.9268816324288593
378,,0.0,0.0,1.4611272548189844,1.4336693931568065,0.5296638678584094,2.7293384718536613,4.262997759179135,,,0.6309483474627791,inf,,,0.9354119890740207
379,,0.0,0.0,1.7300654522239407,1.7050325520819791,0.757064121941307,2.857493050141839,3.258384601879342,,,0.6038851895711802,inf,,,0.9073962220227597
380,,0.0,0.0,1.5837162821720356,1.5666181177344651,0.8912156882162708,3.300652961203968,13.898055612567612,,,0.581717464821069,inf,,,0.8925972348057772
381,,0.0,0.0,1.7450625998471494,1.7125176097815422,0.9068433119402003,2.605566608607416,16.307506826495224,,,0.5947193981915972,inf,,,0.9057913581243473
382,,0.0,0.0,1.7530402682290236,1.7484953445587612,0.7939609706323436,2.8737308257754886,16.451031809079183,,,0.62595550513784,inf,,,0.9146044821478921
383,,0.0,0.0,1.6540703962866194,1.5988529140101941,0.7368012598702133,3.0876653089869013,5.326650425222592,,,0.6038851895711802,inf,,,0.9011828609713504
384,,0.0,0.0,1.6386123230795917,1.6095612800332904,0.6799592823586419,2.236034288253401,1.3709160217365794,,,0.62595550513784,inf,,,0.9391548558625163
385,,0.0,0.0,1.2847722755041229,1.2875680283097914,0.7258339341751929,2.136371396211721,1.4349211324170872,,,0.6380535849069913,inf,,,0.9262259954425168
386,,0.0,0.0,1.3479947548383677,1.341237331971493,0.8471638670655889,2.233176818280472,1.9274191539021581,,,0.5978297680564633,inf,,,0.9460109928923459
387,,0.0,0.0,1.4872302891451257,1.447514468115255,0.7954400570641056,2.0079498225706267,1.1977352330332036,,,0.6097226960127671,inf,,,0.9397447064747432
388,,0.0,0.0,1.4344256013158563,1.4218751087686485,0.8193986181431068,2.2921091483805713,2.1643030399704157,,,0.6284777104787076,inf,,,0.9507249500225367
389,,0.0,0.0,1.7010531165708644,1.69088088019443,0.830404046763602,2.0545563315820674,2.657996716030222,,,0.6068309995095971,inf,,,0.88173924065728
390,,0.0,0.0,1.530496708734312,1.5140870866318876,0.791807975839314,2.478477962147764,2.2882325142203337,,,0.6333676938231112,inf,,,0.9053926204030704
391,,0.0,0.0,1.5795388028652768,1.5356764887928303,0.8248336022288553,2.645835232961034,2.768391503956538,,,0.5883313578629602,inf,,,0.9424006261642951
392,,0.0,0.0,1.6355372782517943,1.6026865156935088,0.749457560353265,2.201362129301087,2.853607444139176,,,0.5883313578629602,inf,,,0.9261066352994978
393,,0.0,0.0,1.1441252438850271,1.0662746367046876,0.744018394734943,2.338642945765365,2.502847689215113,,,0.6068309995095971,inf,,,0.9523816837703154
394,5.703782474656201,-0.03802521649770801,0.0,1.4776910722898529,1.4585366800060653,0.7087920307814691,3.1127999326829308,2.381843230137636,,,0.4928685327679205,10.714417768752456,inf,,0.9395930825295398
395,,0.0,0.0,1.6959356995526806,1.6900798513721547,0.6457767914006457,3.135664697458035,6.734142947889688,,,0.5915533975974677,inf,,,0.9055269310023526
396,,0.0,0.0,0.9065167231650386,0.8369137013666369,0.7163332053984919,1.7085608493334448,0.41982056851643157,,,0.6233814453054027,inf,,,0.9617151935295012
397,,0.0,0.0,1.6255316185591762,1.57701069867135,0.9152859902028004,0.8874212286219958,0.6651626779612335,,,0.6068309995095971,inf,,,0.9420624761539595
398,,0.0,0.0,1.621199263704916,1.6403240332965319,0.5010083967612234,0.9334816562485957,0.6914925151889358,,,0.552929491858785,inf,,,0.7224119989765408
399,5.558705157794815,-1.593495478567847,0.0,1.1443945875606172,0.9915401933130824,0.7135797982116746,1.3059862319386466,1.0279298231688663,,,0.5947193981915972,6.763174050171029,inf,,0.6820781204341272
400,,0.0,0.0,1.577915183191572,1.583998291839516,0.669751224482988,0.9274802975956307,1.0042510298319756,,,0.5158180382284114,inf,,,0.9472738028836868
401,,0.0,0.0,1.6276932882272008,1.6185495266172436,0.8461902545590925,0.9653103697337102,1.2184114684500356,,,0.5202020156036558,inf,,,0.9135135200599036
402,,0.0,0.0,1.5555535354777659,1.5298542512675541,0.8773684018599546,0.857563972549714,1.0454238623960839,,,0.541134803179459,inf,,,0.8867293421248955
403,,0.0,0.0,1.5572250927399958,1.519105991318095,0.7701933951474326,0.8903501983435581,1.0346825378631568,,,0.5022576003740722,inf,,,0.8979034772016332
404,,0.0,0.0,1.6215063725462557,1.5824626251460312,0.8683668744388234,0.7900284054686249,0.9336555669861079,,,0.4732203808476458,inf,,,0.8867807553436989
405,,0.0,0.0,1.6278433598813815,1.5869151215409927,0.8867416333588911,0.7420030839668066,0.9227115075698482,,,0.45235697871908603,inf,,,0.871502076330779
406,,0.0,0.0,1.6160227235466575,1.5898102116758077,0.867314398528828,0.6894318405885106,0.8644952594025149,,,0.4928685327679205,inf,,,0.8824593087534667
407,,0.0,0.0,1.6263863425663632,1.6117323131036534,0.8640719394277805,0.513109514887234,0.7261703767063116,,,0.5022576003740722,inf,,,0.8711697837656556
408,,0.0,0.0,1.7299928037446834,1.700758815969868,0.8649015518724419,0.5379872561141357,0.6938833378250471,,,0.49759852643134905,inf,,,0.8668530271958836
409,,0.0,0.0,1.5734804817059116,1.5664693011427282,0.6645378635103827,0.5706930295024323,0.5607072323344011,,,0.5287703885177266,inf,,,0.9111296578926382
410,,0.0,0.0,1.7397462736311176,1.7303933621076926,0.7087387672217155,0.5626641113389417,0.6336460160967583,,,0.541134803179459,inf,,,0.9180954607671894
411,,0.0,0.0,1.7150207287700694,1.6976795996151093,0.8109422677271818,0.6532107504517117,0.6690158020416428,,,0.5641709578113449,inf,,,0.9003906554479167
412,,0.0,0.0,1.611574484306596,1.5889027824369737,0.8723371922966846,0.5490983588811574,0.6025962573980487,,,0.5641709578113449,inf,,,0.9105872740295112
413,,0.0,0.0,1.6684102275900405,1.6434130993873197,0.8478184993254748,0.520213323853817,0.6032087401766228,,,0.5783247308855777,inf,,,0.9100947521832722
414,,0.0,0.0,1.5694474615992589,1.492141316402381,0.6114491142711981,1.2915332517748026,1.073351866211553,,,0.581717464821069,inf,,,0.7054885478835473
415,,0.0,0.0,1.5981296145721031,1.5757754016607428,0.8686457284454739,1.5037432662305197,1.9426594967439978,,,0.5113665138247345,inf,,,0.8817884750746088
416,,0.0,0.0,1.672098702035314,1.6623503901319074,0.8730294939882277,1.5422451531349435,1.9837551152811728,,,0.49759852643134905,inf,,,0.9133026405625201
417,,0.0,0.0,1.482246616536489,1.474450921744073,0.8917853238587051,1.2965218544676718,1.7330040798835717,,,0.5022576003740722,inf,,,0.8838864001648786
418,,0.0,0.0,1.7096384669704956,1.6952026142621912,0.8580944330495537,1.388302757306257,1.4152079287608375,,,0.4732203808476458,inf,,,0.845447156121696
419,,0.0,0.0,1.7330862063788373,1.7231445573731594,0.7769909573937548,1.2478054673690364,1.6168763761132319,,,0.5451288209179292,inf,,,0.8488962500909004
420,,0.0,0.0,1.7272111295231725,1.6898568814018615,0.8959082890887813,1.3292325767989834,1.4727940208058588,,,0.5370774965580548,inf,,,0.8541804914365198
421,,0.0,0.0,1.7320119886852496,1.704618130926224,0.8634698773956155,1.196787330028255,1.3586934499816183,,,0.524519217297268,inf,,,0.8382485961367422
422,,0.0,0.0,1.5452621793874877,1.5134891552626661,0.8547731490566303,1.4966448030499955,1.799247609006511,,,0.5329562494928909,inf,,,0.8724294194573067
423,,0.0,0.0,1.7506201745997307,1.7527117627611182,0.832299431995585,1.3837193642699857,1.8007335695123308,,,0.541134803179459,inf,,,0.8750205774257915
424,,0.0,0.0,1.6175244593434135,1.5868752881824553,0.8610249732843398,1.2816528576320263,1.3230876540258334,,,0.5451288209179292,inf,,,0.8906117666186794
425,,0.0,0.0,1.6771797556385288,1.6334725392564526,0.88165206303248,1.3805889445980335,1.6708536755897783,,,0.5490601803369085,inf,,,0.9111624243442172
426,,0.0,0.0,1.7072002578801464,1.6932119324264157,0.7867291600933008,1.1554290041640223,1.1739178749403951,,,0.5641709578113449,inf,,,0.900988725413229
427,,0.0,0.0,1.6863890433134732,1.6752943685944626,0.8607329549927549,1.0795806729947832,1.0980534782661509,,,0.524519217297268,inf,,,0.8857918224959656
428,,0.0,0.0,1.7686607830056666,1.7414603709344574,0.8775389264491662,1.219130276903954,1.2799703581180397,,,0.5567373465730988,inf,,,0.9300638105046675
429,,0.0,0.0,1.5837354789593365,1.5700079246350178,0.8287289795896924,1.1160682681140421,1.1261936711119866,,,0.5783247308855777,inf,,,0.8613970510832023
430,,0.0,0.0,1.6749017861972575,1.662340064041672,0.767072345947384,1.1848039145095226,1.2999762913106658,,,0.5978297680564633,inf,,,0.8687595512328159
431,,0.0,0.0,1.6913076584920528,1.6786879455863215,0.7450833312917753,1.6518317854733426,1.3994628057008318,,,0.585052858160615,inf,,,0.9358779915277302
432,,0.0,0.0,1.635061934322528,1.6301144437477413,0.41821706560911903,1.648407258444643,1.5817916269399932,,,0.5113665138247345,inf,,,0.915561808651209
433,,0.0,0.0,1.6991522777478547,1.675537607950173,0.9143841660804927,1.603430133855331,1.938223236362224,,,0.49759852643134905,inf,,,0.8771567871150105
434,,0.0,0.0,1.4009059560340424,1.3499704661107483,0.8400521585445138,2.341862381477913,2.8983254407241295,,,0.468121228110369,inf,,,0.8887618263704457
435,,0.0,0.0,1.736323387024901,1.7095869992032737,0.9490660522372932,2.8701555626595128,6.083938208289058,,,0.5068466436745385,inf,,,0.8818510441106672
436,,0.0,0.0,1.7292517154536655,1.7031566322079672,0.9349515086666609,2.4857692255203077,3.1773105122141208,,,0.4880666971167561,inf,,,0.8956004607263875
437,,0.0,0.0,1.7310429938989258,1.6858199325397305,0.9324811760303431,2.5603645531681045,2.501564564205374,,,0.48319206230712763,inf,,,0.8907962270823548
438,,0.0,0.0,1.5659058524960483,1.563271130675566,0.9474095524344941,2.584852147134027,3.771626931616457,,,0.47824363442641393,inf,,,0.8942698794302616
439,,0.0,0.0,1.7789273164478652,1.7542962157429058,0.9528806234563106,2.1753260526610574,2.2662548357599097,,,0.5370774965580548,inf,,,0.8484534769133634
440,5.703782474656201,-0.3232143402305181,0.0,1.6943548343058668,1.6855344653525763,0.5200092741886626,1.9091156010055654,1.72385938626762,,,0.4732203808476458,8.574351605256187,inf,,0.6106008666471893
441,,0.0,0.0,1.5180583343950993,1.501957415994677,0.609241906271454,1.71925977221434,1.5775801285054103,,,0.5604843169999094,inf,,,0.8660186187121672
442,,0.0,0.0,1.4431069754633998,1.4077468761476155,0.825160320943139,1.3984816383748655,1.7763376966357434,,,0.43586655696697996,inf,,,0.8289019606866108
443,,0.0,0.0,1.2666798799496914,1.258874184192447,0.5731134760178346,1.0701340663358025,1.3881373409952644,,,0.4928685327679205,inf,,,0.8841486743122736
444,,0.0,0.0,1.6533807580901643,1.6609093896880247,0.594390533202075,1.2990511722917928,1.454751607792535,,,0.4302020962658841,inf,,,0.8965706352725009
445,,0.0,0.0,1.6424542693122022,1.6283043087524904,0.9147921992704034,1.1987706750027134,1.3392509095250522,,,0.4732203808476458,inf,,,0.845647072440033
446,,0.0,0.0,1.595144585439476,1.5914212292840793,0.6341300244526197,1.1655016144540213,1.1279409577897246,,,0.5158180382284114,inf,,,0.8983277623024611
447,,0.0,0.0,1.6426577670513691,1.6463811581168102,0.732093706141713,1.3539686443579504,1.606067734212319,,,0.4880666971167561,inf,,,0.8797041049698346
448,,0.0,0.0,1.678540151696049,1.6574791301923775,0.7807628292737623,1.259256310077869,1.4127701389095366,,,0.4880666971167561,inf,,,0.9215480473099904
449,,0.0,0.0,1.6178445336502487,1.5426093751782362,0.5676864546588345,1.6058240092618146,1.3045845944851233,,,0.4880666971167561,inf,,,0.8228662245479429
450,,0.0,0.0,1.5413552785771203,1.522812416157526,0.8638474718162651,1.4168643282457285,1.6323010582269546,,,0.5022576003740722,inf,,,0.8896756788598064
451,,0.0,0.0,1.7494849843163367,1.7019423769340498,0.7893328515104268,1.3246009125242493,1.7813891354716351,,,0.4880666971167561,inf,,,0.9028415466920117
452,,0.0,0.0,1.594852002309852,1.5534480395803134,0.7838317098958599,1.035508945668922,1.1556939845011691,,,0.5451288209179292,inf,,,0.9341603984332739
453,,0.0,0.0,1.6288100750093162,1.592162835887435,0.7988002997756946,1.0577906857655268,1.3195862207213547,,,0.5451288209179292,inf,,,0.9300139437861719
454,,0.0,0.0,1.6600291008940675,1.6194523120624944,0.7450050702752813,1.240219922694482,1.1725841077919164,,,0.5883313578629602,inf,,,0.887779056811743
455,,0.0,0.0,1.7130237079547923,1.6970358569893296,0.7786257528636288,1.2247611501356859,1.3270813356825188,,,0.5567373465730988,inf,,,0.8944962453788757
456,,0.0,0.0,1.650499983109778,1.6116655792888244,0.8525014364936446,1.4392760569179348,1.6569336370401972,,,0.5713653840954815,inf,,,0.9171388468849373
457,,0.0,0.0,1.3710032901568132,1.3405267643194108,0.8282487152861916,1.4523302950653059,1.6105550257554024,,,0.5490601803369085,inf,,,0.8910742192475837
458,,0.0,0.0,1.5985113591278448,1.5513329074656323,0.8390677901701705,1.1823322124063074,1.2690376765009492,,,0.6068309995095971,inf,,,0.9093984443412071
459,,0.0,0.0,1.7091988211369886,1.6496377084549554,0.8707151185161109,1.2468447477322295,1.3954211902866862,,,0.585052858160615,inf,,,0.8885863971918534
460,,0.0,0.0,1.7357720052032428,1.7177737712981902,0.8197150861284366,1.6618213285249837,1.9859439442140834,,,0.5748741956352443,inf,,,0.9014801985600235
461,,0.0,0.0,1.5440913542715355,1.4992826220431446,0.8583036655579201,1.7365666763209202,2.2139047996992893,,,0.5370774965580548,inf,,,0.8598178705041504
462,,0.0,0.0,1.7491551444058855,1.7267467741553626,0.8883887783319017,1.8112591830971445,1.9434978731029167,,,0.5202020156036558,inf,,,0.8281732755000243
463,,0.0,0.0,1.5968327701615128,1.5667129301470346,0.6024578676941164,1.6297064708274576,1.6379685841800427,,,0.541134803179459,inf,,,0.6538998885093589
464,,0.0,0.0,1.6990250092629187,1.6671999620865665,0.8249151790982188,1.7548836606489429,1.84337867452149,,,0.49759852643134905,inf,,,0.9118146762088611
465,,0.0,0.0,1.6249645503114443,1.6106822356227872,0.4211577805888689,1.492976824467671,1.844052225276519,,,0.4928685327679205,inf,,,0.6259668031423483
466,,0.0,0.0,1.5904586617341654,1.5713137127559285,0.8470418868924553,1.6761750531806494,2.099256921233007,,,0.43586655696697996,inf,,,0.8783005811533355
467,,0.0,0.0,1.7002831957465667,1.6866806472673102,0.9084559739626752,1.6766700287144074,2.380345067146628,,,0.4928685327679205,inf,,,0.8411678624223052
468,,0.0,0.0,1.474788614825803,1.4681524968451822,0.685039996558358,1.7128780286329186,2.1714988723835207,,,0.4629450596409901,inf,,,0.8674482796461193
469,,0.0,0.0,1.5199717763235745,1.5015475402224003,0.6609855003414093,1.4395931484352291,1.6704714586023024,,,0.5158180382284114,inf,,,0.7285934846448161
470,5.703782474656202,-2.015336474378525,0.0,1.6249610570843918,1.5599110438081076,0.7340623748959041,1.4725466407127863,1.4495090346623214,,,0.5567373465730988,6.744125855200335,inf,,0.8012922230166687
471,,0.0,0.0,1.621798661807096,1.5922848767023536,0.8409334453283623,1.0291464979005616,1.3039599152222163,,,0.4629450596409901,inf,,,0.8322875185222406
472,,0.0,0.0,1.6355435558435885,1.630976985887441,0.510307806685897,1.0521945088061417,1.1952649448721808,,,0.541134803179459,inf,,,0.8991813091893734
473,,0.0,0.0,1.7190428633541583,1.7095487534771494,0.8018002737850236,1.3235899380253644,1.3771404556710514,,,0.5451288209179292,inf,,,0.8749336072857608
474,,0.0,0.0,1.1971906600614408,1.1772575035773045,0.7837230334198831,1.4085761585205685,1.6689094988706623,,,0.5370774965580548,inf,,,0.8996235107805177
475,,0.0,0.0,1.755464743171833,1.739710170824711,0.6776692037143779,1.419072165283399,1.5031815396289294,,,0.5713653840954815,inf,,,0.871801948375315
476,,0.0,0.0,1.6772099854524067,1.6568832984696797,0.6469102536533841,1.946199219398967,1.6542000395412895,,,0.5451288209179292,inf,,,0.8191425218450946
477,,0.0,0.0,1.7469906350232147,1.7317305011264537,0.8251242405788676,1.2089678178683951,1.6647509556237827,,,0.5158180382284114,inf,,,0.861854575985672
478,,0.0,0.0,1.530936075082479,1.4916531198318623,0.6485138080250958,1.2395925129321428,1.2899377217757828,,,0.5158180382284114,inf,,,0.6002337883046054
479,,0.0,0.0,1.6534087544229417,1.6183123267185358,0.7477899063749976,1.7410938478902611,1.9146086131772075,,,0.5068466436745385,inf,,,0.9048945497435628
480,,0.0,0.0,1.7708210537619942,1.75735624388009,0.8236648522221709,1.6400437318665235,1.8988291423860295,,,0.4928685327679205,inf,,,0.8887685269702763
481,,0.0,0.0,1.6106201325674352,1.5935517482626882,0.8573554852341849,1.7148604684762794,1.7212577852920883,,,0.468121228110369,inf,,,0.8888226080252664
482,,0.0,0.0,1.699144873524108,1.6791061096932356,0.8637082455083169,1.6225900162344906,2.022357983825337,,,0.48319206230712763,inf,,,0.8742921900841765
483,,0.0,0.0,1.5989208823138599,1.6046157060775017,0.5235221963620444,1.3861263797721044,1.2960465445419107,,,0.5202020156036558,inf,,,0.7222245375255394
484,,0.0,0.0,1.6915306204506957,1.6871755777077058,0.6675188259016492,1.2791279819725165,1.3389648592708137,,,0.5567373465730988,inf,,,0.9046075568675928
485,,0.0,0.0,1.7192855849538677,1.70820487236596,0.8015427457927395,1.0346511255768938,1.2697505685149069,,,0.5287703885177266,inf,,,0.8534818415095353
486,,0.0,0.0,1.7098202378123786,1.704067789578947,0.8523268272690837,1.046483489751296,1.4653797134388469,,,0.5158180382284114,inf,,,0.8627501171672378
487,,0.0,0.0,1.516584134951005,1.5056757455266483,0.48611910791670704,1.1021458564837499,1.225432502812843,,,0.552929491858785,inf,,,0.9465628817191963
488,,0.0,0.0,1.557008115690327,1.5563836368929087,0.8349738842444469,1.2002730143439622,1.4183527764730637,,,0.5158180382284114,inf,,,0.9098697097093853
489,,0.0,0.0,1.6065244940733345,1.5936844068299405,0.8203755496175809,1.1725433696390275,1.2095175418610609,,,0.5287703885177266,inf,,,0.9087631262362611
490,,0.0,0.0,1.7237885477209989,1.705540618458346,0.769705083811234,1.6345974521979725,1.9824280297134973,,,0.5451288209179292,inf,,,0.6417103420873511
491,5.703782474656201,-0.15210086599083203,0.0,1.508989846907346,1.4846868632809953,0.5435372653035192,1.6637199434383931,1.5719874733549026,,,0.552929491858785,9.328123407632566,inf,,0.8634051148126793
492,,0.0,0.0,1.7101441881877277,1.696141440368237,0.6534696845647807,1.0399051830709614,1.2554481383671068,,,0.5202020156036558,inf,,,0.87976497297026
493,,0.0,0.0,1.609914993429053,1.5795731967109898,0.8421122586611967,0.8475609011005922,0.8961538135728634,,,0.552929491858785,inf,,,0.8955907482784803
494,,0.0,0.0,1.7037489817185871,1.666679359247092,0.7899111717559778,0.5727193803678995,0.6871610800536683,,,0.5677978065141052,inf,,,0.8993241717818903
495,,0.0,0.0,1.6721645816578732,1.6693396821116548,0.6803478176919086,0.8976921043167698,1.0186564183172888,,,0.5604843169999094,inf,,,0.9282268691593293
496,,0.0,0.0,1.7387233205059955,1.7372538178906978,0.8420734756336133,0.7719965162531185,0.9034428760135556,,,0.48319206230712763,inf,,,0.8929285187362707
497,,0.0,0.0,1.3769354612244162,1.3842181883090945,0.5875431942607212,1.540808068893909,1.3185723501673028,,,0.5329562494928909,inf,,,0.7698563103585272
498,5.703782474656201,-0.019012608248854004,0.0,1.4547844423643297,1.398372742544793,0.7662727183153849,1.999878644414585,1.53007411474112,,,0.6284777104787076,11.407564949312402,inf,,0.8441731648589603
499,,0.0,0.0,1.7507647294418762,1.7468772497977436,0.7596394337472304,1.6272188130354994,1.927933869230774,,,0.552929491858785,inf,,,0.9275324914670683
500,,0.0,0.0,1.522836398104743,1.4930021019136681,0.8487783160310681,2.102237610733744,2.4165425581395623,,,0.5883313578629602,inf,,,0.9404621256144556
501,,0.0,0.0,1.5900821343754772,1.5463268524396392,0.8653327049446355,2.1297767919343604,2.3266573902697063,,,0.5748741956352443,inf,,,0.9156155428798602
502,,0.0,0.0,1.7471809865975547,1.7362323893413114,0.5081891398759987,1.6564127354441938,1.7552883891210993,,,0.5915533975974677,inf,,,0.9318758824860797
503,,0.0,0.0,1.6763999348826113,1.6454301901036186,0.8825570670564461,1.2352442112093482,1.4454709400243813,,,0.5068466436745385,inf,,,0.8691185142374296
504,,0.0,0.0,1.5400106478966862,1.5215357396895162,0.6399687473806034,1.2197251937119826,1.3223923792563799,,,0.5329562494928909,inf,,,0.8702767575733733
505,,0.0,0.0,1.6234648671765597,1.5683052820901044,0.8353718551019935,1.3986107893552449,1.4867118239626735,,,0.541134803179459,inf,,,0.8566428934795265
506,,0.0,0.0,1.7572832921369024,1.7436887783618564,0.8392286062994972,1.5013184585498909,1.8126238371251242,,,0.48319206230712763,inf,,,0.8664548299882955
507,,0.0,0.0,1.7106393144924306,1.6881828263932719,0.6802478834320974,1.8318901519557822,1.967144217651536,,,0.5748741956352443,inf,,,0.8791693243920323
508,,0.0,0.0,1.5028792569869087,1.4589848981760434,0.8884905748181015,1.40786985613683,2.000772870562656,,,0.48319206230712763,inf,,,0.8534066755984869
509,,0.0,0.0,1.6629548139234402,1.6416316093636045,0.7982933621240395,1.0615669745270102,1.4790493485185736,,,0.5022576003740722,inf,,,0.8365686987929151
510,,0.0,0.0,1.7055594961095708,1.7131293620645873,0.8076526774737041,1.1155474886365424,1.364728682378048,,,0.5202020156036558,inf,,,0.8800254322480269
511,,0.0,0.0,1.7182844240839648,1.7188207502549238,0.8341478418452482,1.1601015351530943,1.5311050895135352,,,0.47824363442641393,inf,,,0.8163611143416322
512,,0.0,0.0,1.5786110528980568,1.5352668161199734,0.8770117240800134,0.9801502932026128,1.2684640049455114,,,0.4629450596409901,inf,,,0.8543632254144222
513,,0.0,0.0,1.6593152094101409,1.6113713438395498,0.8549972960383131,0.8809384214380545,1.023945178267331,,,0.5567373465730988,inf,,,0.8944324159818884
514,,0.0,0.0,1.5757384075198175,1.5294969169293389,0.8558206379960501,0.9180329362259493,1.1056987504107403,,,0.5641709578113449,inf,,,0.8854595410156643
515,,0.0,0.0,1.4881309500225435,1.4612025566180418,0.8362159135671183,0.919527132349012,0.9925534308770858,,,0.541134803179459,inf,,,0.900292481036094
516,,0.0,0.0,1.763074724526008,1.7457966452101676,0.7014672146684843,1.0087031777415503,1.1465661975734431,,,0.5567373465730988,inf,,,0.900492358968997
517,,0.0,0.0,1.3585711534684415,1.309274218606684,0.852646891955309,0.8622919323859223,1.0637469832186541,,,0.468121228110369,inf,,,0.8383907862612633
518,,0.0,0.0,1.7375440421269763,1.71661954643266,0.6682946590275707,1.0247151257276237,0.9445089035246137,,,0.5202020156036558,inf,,,0.9004716977613523
519,5.703782474656201,-0.9126051959449921,0.0,1.6491845616181817,1.6165080568900247,0.4673989487769258,1.22444739215661,1.0938973684587308,,,0.4928685327679205,7.536363938404511,inf,,0.5720634534743166
520,,0.0,0.0,1.7337410357513876,1.7342837045614055,0.46948848970361795,1.0266575215209555,1.100230148777511,,,0.4880666971167561,inf,,,0.8934107462947439
521,,0.0,0.0,1.4928273696168657,1.4833966796204037,0.8330254350677051,1.016887110288652,1.0391244549022922,,,0.41268473150466,inf,,,0.8628773360345047
522,,0.0,0.0,1.6992710461344593,1.677878612619429,0.7204349875455569,0.897740861388788,1.0719211564863684,,,0.44144624493110796,inf,,,0.8611240120992524
523,,0.0,0.0,1.6492575082978926,1.644479419818674,0.8593913285726028,1.306717335201899,1.468448314342785,,,0.524519217297268,inf,,,0.8533827476601206
524,,0.0,0.0,1.7391365154315088,1.7343327223867764,0.7116454314847704,1.1121169157749817,1.2339763944558393,,,0.4880666971167561,inf,,,0.8409145563239863
525,,0.0,0.0,1.6441487592115553,1.6107497248765779,0.7014055597950944,1.217683507100194,1.5313465664760484,,,0.5202020156036558,inf,,,0.8923864100132027
526,,0.0,0.0,1.6116253477420277,1.5997847719267033,0.6942161639081197,0.9663309069615529,1.0961354102396055,,,0.48319206230712763,inf,,,0.9124141992656845
527,,0.0,0.0,1.5942358528695806,1.5769246983773832,0.6406781416814615,0.9595931239006013,0.9401964823441085,,,0.5158180382284114,inf,,,0.8674934644976391
528,,0.0,0.0,1.6768463147961954,1.6337574211091,0.8462525817858927,0.9487787823470331,1.3116918273339915,,,0.47824363442641393,inf,,,0.7968074129683637
529,,0.0,0.0,1.6651496122250125,1.6477476565956688,0.8425979112385314,0.967794633052285,1.2707677627704075,,,0.524519217297268,inf,,,0.8464641393656602
530,,0.0,0.0,1.5527054711292347,1.5157794727780014,0.7978949105788955,0.8040995888545511,1.0721242727137112,,,0.4880666971167561,inf,,,0.8232962087887005
531,,0.0,0.0,1.5956057904130525,1.571743162248733,0.43013771457069927,1.0214486314061666,0.9727012123651151,,,0.581717464821069,inf,,,0.6862840248839085
532,,0.0,0.0,1.653744807771626,1.6006952933035101,0.7803290166111218,1.6125963082524308,1.1069734936067117,,,0.6380535849069913,inf,,,0.9291770178974658
533,,0.0,0.0,1.6576141879806001,1.628239089927003,0.6526869392947794,2.2380542120053426,1.4967781041816481,,,0.6425374456860184,inf,,,0.8720442595106903
534,,0.0,0.0,1.6283058363468403,1.5320956000495425,0.7763891825487993,1.4852322086147314,1.1181318356003616,,,0.6509067234006624,inf,,,0.8384814314504018
535,,0.0,0.0,1.6984764473582095,1.6455480561829696,0.8441045267331827,0.8971412151098684,0.7210439769463054,,,0.6380535849069913,inf,,,0.9511121178224351
536,,0.0,0.0,1.718875852512272,1.7281477684000923,0.7996717454376264,2.2362389781879286,2.0480563503928053,,,0.6425374456860184,inf,,,0.9172332520241736
537,,0.0,0.0,1.6553841161335683,1.6581009257779031,0.808379922423151,3.507136157017833,2.6493234716573792,,,0.6566669596287297,inf,,,0.935649499063466
538,,0.0,0.0,1.5548354661741772,1.5132728832844604,0.8422688429539865,1.9334357545405956,1.4267333064023726,,,0.6509067234006624,inf,,,0.9488408107077719
539,,0.0,0.0,1.6646311755805143,1.6679004047132067,0.7897998663577095,2.488558082493836,1.5274005343445056,,,0.6380535849069913,inf,,,0.8012893966597556
540,,0.0,0.0,1.6830226968240511,1.689827816855677,0.8110617482569659,2.640158140163181,2.0108429069312144,,,0.6547956803312163,inf,,,0.7960725423568099
541,,0.0,0.0,1.558249429190354,1.5422360630002727,0.8506131007406313,2.326802538589067,1.9780469219571142,,,0.6153451465759925,inf,,,0.9480415438985751
542,,0.0,0.0,1.5148729700749435,1.469580789824505,0.5966377241862001,1.763809797504077,1.3575579503445265,,,0.6528756675646988,inf,,,0.7782916590941762
543,,0.0,0.0,1.1164882038732509,1.039858668405704,0.7288039265912704,1.8089028516327257,1.0966637143924807,,,0.6380535849069913,inf,,,0.9439404773920783
544,,0.0,0.0,1.6105037519207293,1.5774025224518509,0.7806580076385479,2.132214651418645,1.69493433741054,,,0.6566669596287297,inf,,,0.9447907359132917
545,,0.0,0.0,1.6253641845944689,1.6382031523430203,0.7304331212696016,1.7815714535451612,1.0732957089056758,,,0.6309483474627791,inf,,,0.9475749568520432
546,,0.0,0.0,1.6519261353547898,1.6633879986193962,0.7373006011178865,2.0310388547024054,1.5322513649984968,,,0.6619902821573977,inf,,,0.9442526441966378
547,,0.0,0.0,1.6412861775989132,1.67436258847571,0.8197223506996117,2.6809703350750356,3.604705566146541,,,0.6468212168108125,inf,,,0.9284880654753592
548,,0.0,0.0,1.3618927361336746,1.3499934038770929,0.39135563289305125,1.902660952234778,2.293791866086721,,,0.6097226960127671,inf,,,0.9234443495114288
549,,0.0,0.0,1.3815516296529124,1.2553682878169228,0.6658921334644217,1.8595957869237105,1.4174277927896097,,,0.6468212168108125,inf,,,0.8145278448902119
550,,0.0,0.0,1.6239085324452238,1.646083053979385,0.7132070150216843,2.448094034409893,2.3361431651447915,,,0.6509067234006624,inf,,,0.8907476446031902
551,5.703782474656202,-0.3612395567282261,0.0,1.2884919949603533,1.296322881519144,0.5205269983104047,2.1426665160083083,1.677356176936177,,,0.6447042257417027,8.463125970145962,inf,,0.7661769894953754
552,,0.0,0.0,1.531298659512198,1.5234785841010163,0.663120069196482,3.056262402582223,2.877187320818515,,,0.6309483474627791,inf,,,0.9480666898784879
553,,0.0,0.0,1.7235719354379795,1.6118001692541575,0.7800783085962961,2.978085475544617,1.631774520181846,,,0.6180765742263259,inf,,,0.891824324601283
554,,0.0,0.0,1.5307201652903617,1.5007039125925266,0.8929106517242235,3.568137611738465,2.918241059686615,,,0.5748741956352443,inf,,,0.8555667160326804
555,,0.0,0.0,1.6633421649610605,1.6516472263600177,0.739488489878423,3.1374872072853943,2.0300679633085417,,,0.6447042257417027,inf,,,0.8806290638512961
556,,0.0,0.0,1.4943283821408686,1.464792122507349,0.8459856772968236,3.0967292934742967,1.9121611026018694,,,0.6619902821573977,inf,,,0.8844963002628545
557,,0.0,0.0,1.660992841801699,1.638103700495999,0.7801600946437178,2.225207502067158,1.4012335823100455,,,0.6097226960127671,inf,,,0.9194790629761301
558,,0.0,0.0,1.719055061839096,1.6801928040821772,0.7847858484884875,2.140436887742685,1.3703679936317048,,,0.6602640781246099,inf,,,0.9233461543794685
559,,0.0,0.0,1.7686878952491598,1.773441436247992,0.8187214483144182,2.499209362465211,1.8134008722260937,,,0.6180765742263259,inf,,,0.9334963804088009
560,,0.0,0.0,1.6533602736673263,1.6089182533827169,0.8862766121626289,2.9638393916921175,3.5684369991291884,,,0.6619902821573977,inf,,,0.8786033056949569
561,,0.0,0.0,1.4940842650603707,1.4733877356540515,0.6213342387652137,2.2257954057511387,1.6639651650788982,,,0.6380535849069913,inf,,,0.9140678299084455
562,,0.0,0.0,1.472598547837692,1.4033325290908696,0.6683567542304534,2.1892003907223794,1.6649136799391688,,,0.6180765742263259,inf,,,0.9349353308319378
563,5.703782474656203,-0.43728998972364225,0.0,1.7346361924945883,1.7352713098995554,0.7930402655641332,3.293998919663145,2.596276062854559,,,0.6547956803312163,8.272070733383252,inf,,0.6940867559772342
564,,0.0,0.0,1.6179726868437274,1.6066375710356675,0.808410807950414,3.391053387135827,3.6488103565349914,,,0.6425374456860184,inf,,,0.8982675834419775
565,5.3197414692108245,-2.62440579147734,0.0,1.7023335657123557,1.6872796514412285,0.6684805010660779,3.126943215642739,1.9998736488455142,,,0.6566669596287297,5.969485640389206,inf,,0.5257800720976461
566,,0.0,0.0,1.5695830392799492,1.5043596990028303,0.6480691850999851,3.117831767019927,2.581461943269125,,,0.62595550513784,inf,,,0.776235860540102
567,,0.0,0.0,1.599046541360972,1.5558638999291072,0.7419738893988467,2.6103053160572656,1.567093505402867,,,0.6447042257417027,inf,,,0.7636817814936575
568,,0.0,0.0,1.4115262654335716,1.3946163186399185,0.7445872241079153,2.669503143174857,2.3773944548630763,,,0.648888643467878,inf,,,0.9477547352189871
569,5.7037824746562,-1.597059092903736,0.0,1.7329787424736907,1.7589040748439866,0.62527907084343,2.878538791016138,2.5727037735670795,,,0.6602640781246099,6.9767481504690885,inf,,0.6386688981673654
570,5.6087542321600825,-2.318285082626167,0.0,1.58675723727724,1.591864052292291,0.7104953395034272,2.766639155532293,1.527005300207231,,,0.6468212168108125,6.458805058934233,inf,,0.5791313596792286
571,5.697334593906808,-4.083089792299879,0.0,1.6631645044289531,1.5920707278788522,0.5126808531603575,2.164770914379199,1.3464966878610842,,,0.6528756675646988,6.027667595771942,inf,,0.5401383315654135
572,5.703782474656202,-0.3612395567282261,0.0,1.6514726134382633,1.578079229849385,0.5735794965131601,2.05926159517012,1.6408862338406554,,,0.6566669596287297,8.463125970145962,inf,,0.6649091807781172
573,,0.0,0.0,1.5732424529607385,1.5355367655878505,0.5770481646899696,2.266270718340001,1.1681374696209854,,,0.6207552362147116,inf,,,0.6684753046713459
574,,0.0,0.0,1.409877170894329,1.4061002089350338,0.6755792868966566,3.1369128312473102,2.6813982282685696,,,0.6811855325194978,inf,,,0.9347364124111639
575,,0.0,0.0,1.6960251408984275,1.6961166258776506,0.7755497622110438,2.459468978315209,2.190800271740341,,,0.6333676938231112,inf,,,0.9410348388365172
576,,0.0,0.0,1.6441033233672973,1.6313428712728852,0.7876286147333279,2.009969369331605,1.582532283125384,,,0.6547956803312163,inf,,,0.9452514686849245
577,,0.0,0.0,1.7280127350979415,1.650979261105696,0.7073183023703165,2.217650397713661,2.063217270323866,,,0.648888643467878,inf,,,0.9244296816591892
578,,0.0,0.0,1.7008654753785621,1.6554195085207262,0.7250850558286829,3.121435415358066,5.115447173472198,,,0.6425374456860184,inf,,,0.9336511919957152
579,4.586921174514196,-4.586921174514196,0.0,1.6629204111739897,1.6473476123313981,0.6393980333185864,3.866398169588974,8.0634132410737,,,0.6468212168108125,4.545853608831671,inf,,0.8702660609489452
580,5.703782474656201,-0.7795169382030142,0.0,1.3215904793522912,1.2383940130032907,0.58825939786171,2.4260044366408926,1.5072610941330908,,,0.6403206450210053,7.693992882608094,inf,,0.8271388759462339
581,5.703782474656201,-1.0837186701846782,0.0,1.6755439421431662,1.6079512367459678,0.7485087426408016,3.1757928288585746,2.757995469828351,,,0.6425374456860184,7.3645136814778525,inf,,0.6221264880598728
582,5.703782474656201,-0.15210086599083203,0.0,1.3036832361126816,1.3013935847301075,0.5040320622534279,3.0229046537389594,2.5232578136824846,,,0.6309483474627791,9.328123407632566,inf,,0.6880186061416186
583,,0.0,0.0,1.6967984980835955,1.6785541785067184,0.7544542741677329,1.8891723768506279,1.7177337704421403,,,0.6403206450210053,inf,,,0.9432938327227742
584,,0.0,0.0,1.452031314983739,1.4119322371151724,0.5702650933895745,2.2808055252324935,1.8559444011792094,,,0.6125606311107803,inf,,,0.6767288481178126
585,,0.0,0.0,1.7389174581011,1.734119656688598,0.7165568718389832,2.0953569040039124,1.4092572199712037,,,0.6333676938231112,inf,,,0.9509859271495338
586,,0.0,0.0,1.6011549709246415,1.5172543952801505,0.7157421249838927,1.8571420241726766,1.310034705777237,,,0.6547956803312163,inf,,,0.8656258998793669
587,,0.0,0.0,1.723018967648964,1.7205804860755698,0.7968460712121652,2.1414558970250446,2.0056301034616366,,,0.6425374456860184,inf,,,0.8777296148679422
588,,0.0,0.0,1.4365323546264661,1.4283979608231732,0.7969448209819842,2.0673525034606746,1.4409252342909977,,,0.6403206450210053,inf,,,0.9357892373437419
589,,0.0,0.0,0.7431423674472726,0.7103855801042627,0.6291614407409151,2.2088815285404904,1.713183478828829,,,0.6447042257417027,inf,,,0.9601169278898212
590,,0.0,0.0,1.517866529988497,1.4765092142261176,0.7737268196469894,2.9558626978164253,2.4046808663070176,,,0.6566669596287297,inf,,,0.8307803057605222
591,,0.0,0.0,1.5776967529358648,1.5030444130075655,0.6668214882061462,2.1210608970382525,1.449031007802542,,,0.6509067234006624,inf,,,0.9390544947370204
592,,0.0,0.0,1.5977219381984349,1.6072414909545958,0.5151518961565043,2.767789560020901,1.8540027046757919,,,0.6566669596287297,inf,,,0.8043728465830882
593,5.703782474656201,-0.03802521649770801,0.0,1.2850705802259654,1.1414491770839164,0.5476961987589193,1.9353194449216273,1.512438083137483,,,0.6357360191111145,10.714417768752456,inf,,0.8945649459357118
594,,0.0,0.0,1.5602345638614166,1.5180189074032966,0.6873695566385175,3.0216533967901054,1.4819181307579594,,,0.6619902821573977,inf,,,0.950443292125239
595,,0.0,0.0,1.581876822649875,1.5452544584712677,0.5918686785630105,2.1370133322930713,1.7779366998339499,,,0.6447042257417027,inf,,,0.9476328630185882
596,,0.0,0.0,1.5292597302299553,1.5291386948362298,0.8173879180156859,2.6632162469494323,2.3720426935751298,,,0.6425374456860184,inf,,,0.9509990342806275
597,5.703782474656204,-2.224475165115919,0.0,1.6618217120840453,1.6633062298967896,0.5631348425148263,2.560537711797987,2.03043520978823,,,0.6380535849069913,6.645391014514646,inf,,0.74871420824356
598,,0.0,0.0,1.753039640950129,1.7461554105183272,0.7606444778682737,2.8615287699130874,3.3694886907263655,,,0.62595550513784,inf,,,0.9491755750965876
599,,0.0,0.0,1.608696087283118,1.599951646245443,0.6629681328749069,2.9067844167806154,2.0957791692327055,,,0.6284777104787076,inf,,,0.9467816702932308
600,5.703782474656201,-0.13308825774197802,0.0,1.6547723495324083,1.662230382693657,0.33480913641983445,3.1381542372208786,2.10080093527085,,,0.6528756675646988,9.461654800257088,inf,,0.6862586897844231
601,,0.0,0.0,1.597856233889337,1.5942018324364573,0.6500917448120541,3.3743956031008,3.582237071499109,,,0.6713451011121618,inf,,,0.9354468841855549
602,,0.0,0.0,1.2336365492284185,1.2338348933162016,0.6756378046498444,3.10555455920448,7.572729920769972,,,0.6284777104787076,inf,,,0.9328036912534645
603,,0.0,0.0,1.7627825902450311,1.769240756736791,0.6880501445773148,2.7322182479508186,2.953129128692687,,,0.6566669596287297,inf,,,0.8689309045560228
604,,0.0,0.0,1.722209952608504,1.6880089671697884,0.6541778592870976,3.4753276525290526,5.562969896279519,,,0.6309483474627791,inf,,,0.6187678264902503
605,5.703782474656202,-0.5323530309679122,0.0,1.6167444109367646,1.590190519635514,0.7251200190385374,3.039040374869664,2.535160316737468,,,0.6602640781246099,8.075360439137198,inf,,0.7587488162282819
606,5.703782474656202,-0.2661765154839561,0.0,1.442526915148415,1.4334832993844053,0.5019665118883033,2.693656939972631,2.917370332322915,,,0.6699045166045591,8.768507619697143,inf,,0.7068047181326519
607,,0.0,0.0,1.7039273979305425,1.71161210378757,0.680867511726237,2.3918683525048676,2.1328177673951725,,,0.6233814453054027,inf,,,0.9327931394107752
608,,0.0,0.0,1.5149119344167132,1.5081180168803237,0.8375837292725902,2.4465266186663066,2.4787197583710383,,,0.62595550513784,inf,,,0.840811181722146
609,,0.0,0.0,1.521688529345618,1.5175838388208702,0.8499686304450529,2.4636991741856376,2.350579042151137,,,0.6509067234006624,inf,,,0.9059521813938636
610,,0.0,0.0,1.594566759997019,1.5864933420664933,0.7788511517614124,2.494466276335946,2.5476762561053934,,,0.6207552362147116,inf,,,0.9435079299884486
611,,0.0,0.0,1.5134015182646814,1.4772771655971795,0.7781473800408124,2.274513079202996,3.162441740049364,,,0.5978297680564633,inf,,,0.9082651568315532
612,,0.0,0.0,1.6950382465579577,1.6879784224802308,0.818594589398618,2.1763377203684313,2.2620540341236492,,,0.6038851895711802,inf,,,0.9232845403194404
613,,0.0,0.0,1.7604023847105614,1.7550555210287637,0.6997127513449249,2.30276755203744,1.881853568347522,,,0.6233814453054027,inf,,,0.9327959135857506
614,,0.0,0.0,1.745410616924522,1.721721242293581,0.7814781226792742,2.552248251144581,3.1382974730573197,,,0.5947193981915972,inf,,,0.9373713793626238
615,,0.0,0.0,1.6459087972094324,1.630545761352248,0.8034620518215768,2.251710587498083,2.8156890308892804,,,0.6233814453054027,inf,,,0.8207751908205241
616,,0.0,0.0,1.669940383961696,1.6486016059143123,0.6367260047352775,2.5776599458882425,3.892294789664883,,,0.6180765742263259,inf,,,0.9351239455692008
617,,0.0,0.0,1.6029911874515566,1.5723121773218327,0.8352918829040825,2.27829145812133,2.071860164515242,,,0.6068309995095971,inf,,,0.9309652409020203
618,,0.0,0.0,1.2856389491937652,1.261301732467172,0.8378798144134673,2.281796380561315,3.5096259544303066,,,0.5783247308855777,inf,,,0.9031221421449755
619,,0.0,0.0,1.5363607347663542,1.5034678000911033,0.8360871173283774,2.5436082471699435,2.9941883063034385,,,0.5947193981915972,inf,,,0.9387521353229276
620,,0.0,0.0,1.7298213433732788,1.693481642050906,0.7730414499136569,2.912915376374504,4.567241945727513,,,0.581717464821069,inf,,,0.9143833879725334
621,,0.0,0.0,1.5429113711606828,1.539904734995314,0.7703603443714149,3.269396990438049,3.6634558986979973,,,0.5915533975974677,inf,,,0.9211057041567786
622,,0.0,0.0,1.612632248237924,1.5577679205766015,0.7960889980649867,3.0575717127572655,6.085967146886626,,,0.6180765742263259,inf,,,0.8998974818625901
623,,0.0,0.0,1.7213861033097992,1.7091546491075225,0.7504800026611045,2.8334586415950964,4.25765763558333,,,0.6207552362147116,inf,,,0.9247576049825462
624,,0.0,0.0,1.7766726674830018,1.768278215210133,0.7456746701100676,2.4022419753788746,2.47678750280825,,,0.62595550513784,inf,,,0.9392908845803908
625,,0.0,0.0,1.7327953813407453,1.7276075935403727,0.6921251350452798,2.554450096111998,2.611562066017768,,,0.6097226960127671,inf,,,0.9226774402525286
626,,0.0,0.0,1.4468691463762682,1.413904442053931,0.7690572345505585,2.609985339552061,3.6736327393290202,,,0.62595550513784,inf,,,0.9253469476407176
627,,0.0,0.0,1.6433318321744683,1.6248503911021588,0.8189380242533688,2.5881412025287456,3.158616546801762,,,0.6425374456860184,inf,,,0.9194535788682676
628,,0.0,0.0,1.6288072366556188,1.5981773589261523,0.8866619761538044,2.938064518427744,4.89881664776183,,,0.5748741956352443,inf,,,0.8725347241375057
629,,0.0,0.0,1.7030514950222764,1.698796791984403,0.8941998273568699,2.568186314951112,5.083223046161612,,,0.5883313578629602,inf,,,0.9229728324237112
630,,0.0,0.0,1.5724906465640796,1.5666845154404674,0.8576482844604487,2.7166897783063875,5.121049599761375,,,0.5947193981915972,inf,,,0.9104303533210099
631,5.7037824746562,-1.292857360922072,0.0,1.5106989589959054,1.4992011780990855,0.3838849748889983,2.832591276507903,3.4865388463350424,,,0.6097226960127671,7.188057244136296,inf,,0.5714576356511327
632,,0.0,0.0,1.720514282788877,1.6934753555536548,0.8069390607443073,2.9201590851841535,3.4709500533811606,,,0.5713653840954815,inf,,,0.9113481337785302
633,,0.0,0.0,1.3247751929101477,1.3017334657477158,0.5156552956909495,3.1435253261236746,3.6262569164231384,,,0.6207552362147116,inf,,,0.9445105755455545
634,5.703782474656203,-1.7871851753922767,0.0,1.705671055686776,1.657175876691704,0.7740482716535821,2.4335339766679502,2.052699381691084,,,0.6468212168108125,6.864270167042398,inf,,0.6243785121249019
635,5.41167044856308,-2.5254462093294374,0.0,1.4132018816518563,1.3714871243218245,0.8530525761201846,3.256396614365731,3.455701483720175,,,0.6403206450210053,6.11426012458791,inf,,0.8558029713893761
636,5.703782474656201,-0.3232143402305181,0.0,1.5353911942248815,1.448744889984678,0.7819302640758666,3.417941637141804,3.214373619850485,,,0.6333676938231112,8.574351605256187,inf,,0.7442441119802264
637,,0.0,0.0,1.6811416846311031,1.6954918694571464,0.854532088716606,2.8192256684271095,3.0620512606991306,,,0.62595550513784,inf,,,0.9428902887078128
638,,0.0,0.0,1.6533095195851746,1.6511180868962052,0.8277907105830179,2.8445821568744893,4.672492035407117,,,0.6509067234006624,inf,,,0.8409861341579745
639,,0.0,0.0,1.6272883783325411,1.6050746540176286,0.8216238316186376,2.376385500092032,1.238662552688842,,,0.6447042257417027,inf,,,0.9524543324955839
640,,0.0,0.0,1.7538195216253487,1.7555213077159952,0.7791377548024464,3.2288522230766663,2.3088009523985864,,,0.6333676938231112,inf,,,0.8147782605785425
641,,0.0,0.0,1.6353177459942017,1.6393684347542448,0.7737902302521313,2.6708528322660325,2.6436357597614264,,,0.6309483474627791,inf,,,0.8744587855835589
642,,0.0,0.0,1.5992221838221032,1.5872518400848767,0.731850870593674,2.3664559097117595,1.7230656824739796,,,0.6403206450210053,inf,,,0.823672555530951
643,,0.0,0.0,1.6034951769177856,1.5831945323712313,0.7611872874617929,2.132799619250213,1.320990850972437,,,0.6547956803312163,inf,,,0.954034907850333
644,,0.0,0.0,1.5224000339128412,1.4930925078199846,0.7977006048356325,2.459733893106267,1.8355875668771442,,,0.6528756675646988,inf,,,0.9565812079244255
645,,0.0,0.0,1.7118920585001427,1.7099125556718053,0.7004906950381691,2.78583606761568,2.8558066244021787,,,0.6333676938231112,inf,,,0.94364589455795
646,,0.0,0.0,1.6320349481690082,1.6321560765758407,0.5895061030162165,2.4632512615559223,2.0849745367295904,,,0.648888643467878,inf,,,0.9370134456809607
647,,0.0,0.0,1.4316237184461005,1.4248887494818137,0.8271028991470419,2.2357355134922527,1.6817977518700693,,,0.6468212168108125,inf,,,0.9395211591077277
648,,0.0,0.0,1.1714285521529093,1.1547691817032595,0.6957943590828148,2.5738265676232834,2.2258834687661393,,,0.6528756675646988,inf,,,0.9520272168198557
649,,0.0,0.0,1.5725255148266895,1.566914093703935,0.8629104708970564,2.6074743394904654,2.767892066293958,,,0.6068309995095971,inf,,,0.9403669352908139
650,,0.0,0.0,1.56342270650648,1.4467211528373103,0.7120106165017585,2.1706119005375215,1.3541627978037551,,,0.6468212168108125,inf,,,0.9472639098416393
651,,0.0,0.0,1.687310837229675,1.6015321093201385,0.5132216139489423,2.7411773047627404,2.2121223996507053,,,0.6425374456860184,inf,,,0.7026444642657151
652,,0.0,0.0,1.6361082136159055,1.6179909209538905,0.4379543631781419,2.0917640960925117,1.4810366414805882,,,0.6333676938231112,inf,,,0.949585661137162
653,,0.0,0.0,1.4338482406511173,1.4151285846461579,0.7262714157958778,1.52750876680713,1.1528725841752039,,,0.6125606311107803,inf,,,0.925814994312135
654,,0.0,0.0,1.577812749191049,1.5523524040476087,0.5449907822272314,1.973272596133367,1.5456851753086855,,,0.6068309995095971,inf,,,0.9520745063667099
655,,0.0,0.0,1.5503870520522134,1.5299266958614544,0.6699970047025497,2.2339973113110054,2.0226769649431513,,,0.6584896970785714,inf,,,0.8367790240216205
656,,0.0,0.0,1.7076203134314247,1.693153107465017,0.6009890798375954,1.7310680175627295,1.5896905207157186,,,0.6547956803312163,inf,,,0.9507061974838685
657,,0.0,0.0,1.5453266949591233,1.528277796937411,0.5375052425471227,2.0124313704471057,1.7247464248759279,,,0.6008849035917525,inf,,,0.9376582849900007
658,,0.0,0.0,1.6993341284343955,1.6591458415869051,0.7494145366024346,2.391308622163571,1.7578766255352236,,,0.6509067234006624,inf,,,0.9375310114449575
659,,0.0,0.0,1.6850467136102814,1.6664735061999107,0.7442880358560667,2.044804120071398,2.0825171529896216,,,0.6447042257417027,inf,,,0.9186212569068677
660,,0.0,0.0,1.668266073085232,1.6264508592924445,0.8549520980532745,1.9198329761637098,2.128660259107282,,,0.6038851895711802,inf,,,0.9214198431183567
661,,0.0,0.0,1.2674802077065679,1.2545592246825135,0.8310418781180017,2.2510606384301424,2.2848207147116937,,,0.6207552362147116,inf,,,0.922199800806404
662,,0.0,0.0,1.5215891086963858,1.527256937459319,0.5075684347998833,2.4158208650974955,2.489736383975583,,,0.6333676938231112,inf,,,0.920927657998151
663,,0.0,0.0,1.6969113865705399,1.660198321393247,0.49115623954913323,2.320336195332082,2.1518846509377383,,,0.6509067234006624,inf,,,0.6811218353256208
664,,0.0,0.0,1.3257547207772353,1.2800492408641833,0.5667798631399344,2.391870138142543,2.5487999290785623,,,0.6528756675646988,inf,,,0.9449752391142353
665,,0.0,0.0,1.5759729184242643,1.5666751937108319,0.5783790632170006,2.8320077237634327,4.475189288584353,,,0.6380535849069913,inf,,,0.9484792989040541
666,5.703782474656203,-0.38025216497708014,0.0,1.4329941272091402,1.4054493881679218,0.4513794628063256,2.680063545045723,2.045151994706489,,,0.524519217297268,8.411832675758411,inf,,0.6011520903000401
667,,0.0,0.0,1.1640651578253687,1.168798315871818,0.5354822789091206,3.020320330593595,2.3897166587937955,,,0.5604843169999094,inf,,,0.6010908397082674
668,,0.0,0.0,1.7224729077064378,1.6962287640051015,0.8426730659978523,3.841800975661274,2.5468035884402234,,,0.6447042257417027,inf,,,0.8925428104930049
669,,0.0,0.0,1.6632724367921554,1.6496407888209639,0.8893600433164669,3.2701787539403524,2.639116782591993,,,0.6180765742263259,inf,,,0.8946945438348337
670,,0.0,0.0,1.5673011205494367,1.541359866754913,0.7673241156616198,3.467511658386048,7.430922973130076,,,0.5947193981915972,inf,,,0.9107802738440295
671,,0.0,0.0,1.4273988647016331,1.401696979940229,0.86603837382396,3.472617844158207,9.152762111531482,,,0.6038851895711802,inf,,,0.9105405593376468
672,,0.0,0.0,1.60077223987443,1.5859025198749368,0.8915912946130897,3.3438276859660747,3.5021970583213298,,,0.5915533975974677,inf,,,0.8686867044438226
673,,0.0,0.0,1.0885943364853907,1.035179159260646,0.7434032378820252,2.7203887671075275,2.7019417417652174,,,0.6038851895711802,inf,,,0.8538571609718065
674,,0.0,0.0,0.835791009271799,0.8324583767699777,0.835215831219171,3.109477689977254,2.800441410171745,,,0.62595550513784,inf,,,0.9409485884665489
675,,0.0,0.0,1.7001400556308475,1.6584608526043063,0.7716795326939241,2.9182458628449632,5.11717696144304,,,0.6284777104787076,inf,,,0.9372837539447264
676,,0.0,0.0,1.4827683933788764,1.4643633074388505,0.8527511440541137,3.2720150588531114,17.393759326149233,,,0.5604843169999094,inf,,,0.8795423857211864
677,,0.0,0.0,1.5312251591402442,1.5018152634378432,0.8717251759380079,3.093458201445204,10.14490280405375,,,0.5915533975974677,inf,,,0.8695845024138383
678,,0.0,0.0,1.7248267480437454,1.70183309141661,0.8112119081600137,2.9316565587275156,3.300239602081105,,,0.6207552362147116,inf,,,0.9235539242500754
679,,0.0,0.0,1.6316232850515853,1.6179382811322096,0.6413345692563045,3.1465656778712687,3.652297209901518,,,0.6309483474627791,inf,,,0.9202421694858033
680,,0.0,0.0,1.5698650758617743,1.5301533702550434,0.8034679622000432,3.0189010017982145,4.624540406751594,,,0.6547956803312163,inf,,,0.9132267626835245
681,,0.0,0.0,1.6869358643392038,1.6823280004474752,0.7207047013411394,3.137512812823153,2.6812034008279455,,,0.648888643467878,inf,,,0.9288950968651603
682,,0.0,0.0,1.7727269080176427,1.7451106023253369,0.8383528662631677,3.0571617559162987,2.655618218828546,,,0.6125606311107803,inf,,,0.9263905935010793
683,,0.0,0.0,1.6191959545265733,1.5730388579405146,0.7933563046727231,3.058552549931203,3.695416031072835,,,0.5978297680564633,inf,,,0.9198967563060328
684,,0.0,0.0,1.6768531854311628,1.6756371126643632,0.7583542823547726,3.0287595531582223,4.5103081169001165,,,0.62595550513784,inf,,,0.9372447945568246
685,,0.0,0.0,1.7173285748589429,1.745082669856928,0.6540046604350713,3.0261853054751398,5.268135766442967,,,0.6008849035917525,inf,,,0.9338587935383748
686,,0.0,0.0,1.6887135715855959,1.6737794944598943,0.8146345688646103,3.0821311843805534,4.47773797873425,,,0.5915533975974677,inf,,,0.9104936814680662
687,,0.0,0.0,1.6588562426933,1.6316027070009154,0.6746652994907362,2.3249874444051564,2.0245436327580184,,,0.5947193981915972,inf,,,0.9338622386877184
688,,0.0,0.0,1.6128902092123887,1.6108526833963381,0.521251794275604,2.1917852162726907,3.6625097616528044,,,0.541134803179459,inf,,,0.9557211049562471
689,,0.0,0.0,1.6487207110460698,1.63434126782602,0.9080447480367586,2.2887312093140455,4.187860030377587,,,0.552929491858785,inf,,,0.8753083338756747
690,,0.0,0.0,1.592560972555776,1.5638861741614467,0.6890206712262902,2.2122230793792013,3.102970150847009,,,0.6038851895711802,inf,,,0.9243706374367398
691,,0.0,0.0,1.6251910383211288,1.5839948573703002,0.8478111895779241,2.251847512759132,2.9114789898318283,,,0.5567373465730988,inf,,,0.9088474434114586
692,,0.0,0.0,1.6616931901200425,1.6326869567759403,0.8841776074773446,2.916999400946225,4.214920974850056,,,0.5490601803369085,inf,,,0.886353493833193
693,,0.0,0.0,1.673366690500266,1.6427609111177328,0.8645858357913112,2.3870087907524007,4.024241687578301,,,0.5567373465730988,inf,,,0.8864820557606163
694,,0.0,0.0,1.7224520509462016,1.7051652972367137,0.9058226675176823,2.7958854497333774,3.986103431469075,,,0.5677978065141052,inf,,,0.8930817829233086
695,,0.0,0.0,1.7090710883742148,1.7045866060107049,0.8665803518493519,2.6775451148438107,6.109396070358244,,,0.552929491858785,inf,,,0.9258324178067465
696,,0.0,0.0,1.7371188613795163,1.6744167408719064,0.6354515003476995,2.4829877166189696,3.3731594387817867,,,0.6038851895711802,inf,,,0.7293345168083082
697,,0.0,0.0,1.537319891149277,1.487674946673345,0.7557012316018338,2.9718582944034133,3.79674128717495,,,0.6233814453054027,inf,,,0.954197501032134
698,,0.0,0.0,1.5645730153504016,1.556107737808513,0.8110485726014096,2.1253023694906275,2.627456757995778,,,0.5329562494928909,inf,,,0.9186413528478526
699,,0.0,0.0,1.5996619724286931,1.5961319669882652,0.7770301292924701,2.15604881069411,3.6564896892117664,,,0.47824363442641393,inf,,,0.9091134668909882
700,,0.0,0.0,1.6544759634554569,1.6469163011750698,0.8508820208056044,2.3684844378096437,4.830263437486318,,,0.5158180382284114,inf,,,0.9093096769664307
701,,0.0,0.0,1.7809230485245078,1.7435647027448884,0.6722835383001335,2.3675684877650163,3.703906730224998,,,0.5202020156036558,inf,,,0.9150337311706049
702,,0.0,0.0,1.731021340877374,1.7351582657178735,0.8974020468678278,2.941937802576645,4.237632551888452,,,0.524519217297268,inf,,,0.87321670082187
703,,0.0,0.0,1.4526071281609905,1.4382972347593932,0.7190996563103577,2.9088598363460174,3.0762822354702157,,,0.5677978065141052,inf,,,0.9197398726685859
704,,0.0,0.0,1.620375727377648,1.6048145945911283,0.8378774985119413,2.9127678904465903,3.5393489595440952,,,0.5567373465730988,inf,,,0.9242400616501725
705,,0.0,0.0,1.762127611153674,1.7082876608602775,0.8103170319802472,2.9299652678600747,3.164594764907331,,,0.5287703885177266,inf,,,0.919096643734629
706,,0.0,0.0,1.5452314146210047,1.5140424319090213,0.7851743568281498,2.3063346406896326,1.5128997847322965,,,0.6509067234006624,inf,,,0.9443124070652622
707,,0.0,0.0,1.5967195200100808,1.5731102270547905,0.8280889989685234,2.3893561810886346,2.3350081482316503,,,0.6207552362147116,inf,,,0.9386928487454888
708,,0.0,0.0,1.4676904320819206,1.4626636535937223,0.7104579414812445,2.9269191756921784,2.3162872064993647,,,0.585052858160615,inf,,,0.9393817646719028
709,,0.0,0.0,1.6471683401230375,1.595174208195997,0.7883691911885443,2.679736027111078,2.4560198446852284,,,0.6097226960127671,inf,,,0.8682908410023236
710,,0.0,0.0,1.409758412065735,1.3907906096022284,0.7551545189954635,2.0690296904289025,1.8994535494095475,,,0.6468212168108125,inf,,,0.7457769323399362
711,5.703782474656202,-1.7491599588945685,0.0,1.5797854870136883,1.4683114487334628,0.7852556422245662,2.6822684966013193,2.2668786164741226,,,0.6180765742263259,6.885776372263361,inf,,0.8229118288735016
712,,0.0,0.0,1.7340190455824092,1.7223095134557,0.7814778078637106,1.9341557057877645,2.162355277042842,,,0.468121228110369,inf,,,0.9053926793290393
713,,0.0,0.0,1.7311578352799193,1.7209995413223114,0.6376619784317026,1.612104221721939,1.6641733918839714,,,0.5022576003740722,inf,,,0.927178665035079
714,,0.0,0.0,1.7354486722157418,1.680240654619714,0.6399015840890667,1.799431636550261,2.0027408181665387,,,0.5022576003740722,inf,,,0.8351056335526517
715,,0.0,0.0,1.5640465918101203,1.5380470395591388,0.8474851941395285,1.9208731770460425,1.8671821125194683,,,0.5158180382284114,inf,,,0.930904657513205
716,,0.0,0.0,1.4802032628192143,1.4323905812717754,0.9138591792626721,2.007701208766347,1.933547520548998,,,0.49759852643134905,inf,,,0.9070381776967659
717,,0.0,0.0,1.7251004865730961,1.687448602601359,0.9248433144319895,1.715701742346506,2.0810611482411483,,,0.49759852643134905,inf,,,0.8910795008346243
718,,0.0,0.0,1.4983960000458854,1.4664104837456078,0.9278151987576552,1.637888214983129,1.5799824752946499,,,0.524519217297268,inf,,,0.9232417943009162
719,,0.0,0.0,1.6308021324810564,1.6141252100282355,0.9115542873524335,1.6687750296765378,1.4869718195707629,,,0.49759852643134905,inf,,,0.8746576858546894
720,,0.0,0.0,1.5472387552173326,1.5153898076289054,0.8651975022207766,1.589613980142707,1.933102410418523,,,0.4576907132971797,inf,,,0.9091643948672382
721,,0.0,0.0,1.726779124772503,1.6644092325456081,0.9186905762457076,1.5984972117781886,1.6663885093936852,,,0.4880666971167561,inf,,,0.8824724690896995
722,,0.0,0.0,1.3982043740470738,1.3357945430190765,0.9290085892838719,1.6204693528336376,1.69701872421883,,,0.4576907132971797,inf,,,0.9271930605116542
723,,0.0,0.0,1.371224554259097,1.3606034006912167,0.8703404637029333,1.5760129858465257,1.221036800677305,,,0.5158180382284114,inf,,,0.9158670455550492
724,,0.0,0.0,1.7265928459067132,1.683874136764491,0.8982518099021307,1.85441017698223,1.4510664847378154,,,0.5783247308855777,inf,,,0.8950423119307955
725,,0.0,0.0,1.7092496650055853,1.6480277589554702,0.8895587232326956,1.6218005744371624,1.3213872174287002,,,0.5947193981915972,inf,,,0.9094254237616458
726,,0.0,0.0,1.6464264527855472,1.59086939730849,0.8551741655849361,1.8013068639668675,2.298948519042976,,,0.5451288209179292,inf,,,0.9197022195111386
727,,0.0,0.0,1.6401808132000941,1.5732417180575302,0.9159076569951464,1.9830223555503246,1.7884000363963648,,,0.5748741956352443,inf,,,0.8692542769711885
728,,0.0,0.0,1.7454272422338273,1.7233252021883116,0.8715251925595391,1.5479642828632514,1.4325197981859554,,,0.5748741956352443,inf,,,0.8601833776735814
729,,0.0,0.0,1.7794648905462216,1.7556890590020267,0.7674570271823483,1.5112350313169698,1.1084393340772682,,,0.585052858160615,inf,,,0.919355238104218
730,,0.0,0.0,1.6582996596141908,1.6676929295532108,0.7294626327422863,1.4618169914671157,1.2077708376246443,,,0.524519217297268,inf,,,0.887510242170893
731,,0.0,0.0,1.7240546142772017,1.7067990736684566,0.901904839752217,1.3029041502394028,1.2939429941246483,,,0.4302020962658841,inf,,,0.8757063713557449
732,,0.0,0.0,1.6822139922500081,1.6428494732940084,0.6398177257431735,1.0577710562692992,1.057642643889459,,,0.48319206230712763,inf,,,0.9105301169349396
733,,0.0,0.0,1.5800842761299818,1.552506452573143,0.9085927612920667,0.9575895908536275,1.1702602019811161,,,0.42445136339222655,inf,,,0.8495860899721147
734,,0.0,0.0,1.3340894712649605,1.3164025863668207,0.693906104701654,1.039910147336943,1.1902934471557374,,,0.5022576003740722,inf,,,0.8785370874059558
735,,0.0,0.0,1.6535419037098182,1.6057617254483263,0.8776709983625437,1.0939901557933136,1.3829071591321973,,,0.44144624493110796,inf,,,0.8483483502756236
736,,0.0,0.0,1.6702914102196986,1.6478243721507362,0.8614912189170205,1.051940350573899,1.1446727740823932,,,0.3943459996787778,inf,,,0.8381445051253965
737,,0.0,0.0,1.7368823125287953,1.7209751899322867,0.8768812967359214,1.0314976735240808,1.2835054237740007,,,0.42445136339222655,inf,,,0.8200241936713653
738,,0.0,0.0,1.5947413650941704,1.5807115667081888,0.8612146689316096,0.9692349958884193,1.2630955395147785,,,0.41861278947482794,inf,,,0.8066803012132086
739,,0.0,0.0,1.7146722037461597,1.6799805087638544,0.8185319891686503,0.9988102277448837,1.2211131998814975,,,0.48319206230712763,inf,,,0.8054848395795575
740,,0.0,0.0,1.646150536548574,1.6291406119152092,0.8580097778393605,0.9775844138995903,1.2723231717425492,,,0.4066654671944331,inf,,,0.8074453960060048
741,,0.0,0.0,1.6213870934607082,1.609965025408534,0.8413225594163185,0.9738765240282652,1.2169779180564002,,,0.4732203808476458,inf,,,0.7859797231468333
742,,0.0,0.0,1.4139331350468105,1.36893721345785,0.8408599381606551,0.9875184062595715,1.2153946720195736,,,0.44694259446804574,inf,,,0.8024713662916408
743,,0.0,0.0,1.4844019130622823,1.426617363084068,0.8017757592950688,1.0766185181355374,1.2521135523691256,,,0.49759852643134905,inf,,,0.8510058701098834
744,,0.0,0.0,1.7045002055558092,1.6649750427769376,0.8142328940880893,1.0112689237371717,1.1625541194516942,,,0.5370774965580548,inf,,,0.858047382632031
745,,0.0,0.0,1.7004768994198167,1.705992613915199,0.855877358282533,1.4333863617664737,1.589394934551674,,,0.5022576003740722,inf,,,0.8581432841409695
746,,0.0,0.0,1.737766467874342,1.7088031689598708,0.7203169332359487,1.249978283279879,1.2399239760246064,,,0.5022576003740722,inf,,,0.8591150153676581
747,,0.0,0.0,1.4614510407877557,1.4207411015110065,0.7326500820731052,1.711735574075425,1.7009620963743157,,,0.468121228110369,inf,,,0.90456891529022
748,,0.0,0.0,1.7825109644601225,1.766782702834597,0.8692608660888826,1.8896938718376262,1.9909763763258697,,,0.468121228110369,inf,,,0.8900910749916038
749,,0.0,0.0,1.614966388721719,1.5895822365014922,0.8109209346888705,1.6452659068005058,1.474926667697339,,,0.44144624493110796,inf,,,0.8891148170521013
750,,0.0,0.0,1.6177016088230456,1.5992326132375425,0.46871746084392235,1.9685176219665785,1.7587709898717228,,,0.5604843169999094,inf,,,0.7268604827949733
751,,0.0,0.0,1.6643643719878556,1.6541155316170177,0.9059086079383903,1.8324588767340015,1.5105418089130405,,,0.5068466436745385,inf,,,0.8719141988594458
752,,0.0,0.0,1.7775119378184376,1.723188311937865,0.9379783877956497,1.9896790406715854,1.5764580594772999,,,0.49759852643134905,inf,,,0.8985038078402869
753,,0.0,0.0,1.7035995096565768,1.6719205965387196,0.9231313191335387,2.5960737232934568,2.647314609832884,,,0.5202020156036558,inf,,,0.8913116274223034
754,,0.0,0.0,1.614711094368225,1.5915467703888837,0.9287758331560326,2.4530222468417584,3.185563447052079,,,0.48319206230712763,inf,,,0.8940182996998032
755,,0.0,0.0,1.5797968789700902,1.5735724919713272,0.9473109658044572,2.0570958928921517,2.5092856906281957,,,0.45235697871908603,inf,,,0.8818130819783253
756,,0.0,0.0,1.7660904158220203,1.745578347618487,0.9351565736156933,2.431862694644883,2.3804059038244656,,,0.4928685327679205,inf,,,0.8929924460035481
757,,0.0,0.0,1.7365134817915346,1.7177587086699924,0.9298869958857522,2.442748555858348,2.3831101381374804,,,0.468121228110369,inf,,,0.9033127483698603
758,,0.0,0.0,1.6439973181881458,1.638166283522031,0.9006263007584825,2.0477407514166748,2.045769467036984,,,0.48319206230712763,inf,,,0.8712827470815498
759,,0.0,0.0,1.6831581343345667,1.6381459219830117,0.9116329256842285,1.623592200747853,1.4846755878597353,,,0.4732203808476458,inf,,,0.8838663399035318
760,,0.0,0.0,1.6272742538754796,1.6043103090848274,0.9205467276521809,1.4822242853645036,1.4184278958656562,,,0.4880666971167561,inf,,,0.867989740054863
761,,0.0,0.0,1.5263253905803944,1.4607870986113907,0.8445601791835239,1.5477940059162743,1.5530267916509295,,,0.5567373465730988,inf,,,0.8847777078191628
762,,0.0,0.0,1.6635323274632976,1.649015438919963,0.8058319990195713,1.5293639378296797,2.081230299229931,,,0.5641709578113449,inf,,,0.8912578878119886
763,,0.0,0.0,1.4917307124351753,1.455717038321306,0.7407100279089842,1.5190540409070752,1.4450984429288332,,,0.524519217297268,inf,,,0.9137524755353331
764,,0.0,0.0,1.5859081874181504,1.5420317481037358,0.8528098921023738,1.7880162009087384,1.8657032388556394,,,0.524519217297268,inf,,,0.904275410193736
765,,0.0,0.0,1.593218017297845,1.5459005714903566,0.6040848594133728,1.148822183922673,1.1446034927551163,,,0.5451288209179292,inf,,,0.6600582815506899
766,,0.0,0.0,1.728943727515829,1.6762569338877118,0.8251738930449534,0.7783778620712821,0.9682385697384781,,,0.4732203808476458,inf,,,0.8491973387922536
767,,0.0,0.0,1.7241761074983655,1.7032046087471142,0.8142257719074795,0.7987769640289889,1.0379606852827132,,,0.4880666971167561,inf,,,0.8189606989997238
