,bvp+hr_XAp0,bvp+hr_XAp1,bvp+hr_XAp2,bvp+hr_XCond1,bvp+hr_XCond2,bvp+hr_XDist,bvp+hr_XFuzz1,bvp+hr_XFuzz2,bvp+hr_XK2_1,bvp+hr_XK2_2,bvp+hr_XPermEn,bvp+hr_XSamp0,bvp+hr_XSamp1,bvp+hr_XSamp2,bvp+hr_XSpec
0,,0.0,0.0,1.6519695657682085,1.6460570522323115,0.8937885049435348,1.427265922837795,1.3400468412481126,,,0.6233814453054027,inf,,,0.9522067294124472
1,,0.0,0.0,1.6268243071752244,1.5257331485573626,0.9069022861137107,1.6722621725000373,1.634606695648006,,,0.6233814453054027,inf,,,0.9380952335764381
2,,0.0,0.0,1.5350215597425567,1.4660425050258397,0.9021499645120263,1.8049160195699054,1.7011746561634393,,,0.5978297680564633,inf,,,0.9516901172057105
3,,0.0,0.0,1.7247146148544747,1.70748823840537,0.9148805859497653,2.0912429837515036,2.0394221408743483,,,0.6547956803312163,inf,,,0.9467852418279137
4,,0.0,0.0,1.6140204222612604,1.5882164183251533,0.7752118712027737,1.8095230949962067,1.3640989769383838,,,0.6309483474627791,inf,,,0.9510030484330725
5,,0.0,0.0,1.5495362723434585,1.5331342086331672,0.8096264369035681,1.5605286312970277,1.3707821468595633,,,0.6284777104787076,inf,,,0.9348562981307588
6,,0.0,0.0,1.6782050034301814,1.6478360676865191,0.7744998960179008,1.4254064256088643,1.4638541701992855,,,0.6333676938231112,inf,,,0.916907477540514
7,,0.0,0.0,1.7298472830298242,1.6905071481136682,0.6998290687618601,1.2062287784652777,0.9967283798802651,,,0.6403206450210053,inf,,,0.9503313773821077
8,,0.0,0.0,1.3997192621480106,1.39300505754081,0.6671488910059836,1.3802422105956298,1.0570724884721825,,,0.6357360191111145,inf,,,0.9317995250157076
9,,0.0,0.0,1.732381669713447,1.7178779055324624,0.7191348750005437,1.949585278417303,2.0019927189943,,,0.6180765742263259,inf,,,0.9165167575136701
10,,0.0,0.0,1.5373682489752047,1.5439408025206256,0.8139465074304083,1.873121879526014,1.9373322837191147,,,0.648888643467878,inf,,,0.92686761004231
11,,0.0,0.0,1.6103666012570417,1.5950189446824095,0.7967190537420655,0.9418802720431849,0.6592913526421825,,,0.6403206450210053,inf,,,0.9523659668376745
12,,0.0,0.0,1.724333214794847,1.7254259405298158,0.7805424538175462,1.0754997052159168,1.009061526591187,,,0.6309483474627791,inf,,,0.9461524750294953
13,,0.0,0.0,1.4662032853761438,1.475063845846913,0.6970913748762261,1.345972060880934,1.056867284933885,,,0.5713653840954815,inf,,,0.9461891235590849
14,,0.0,0.0,1.7659330115195244,1.7401566798003565,0.7600301063895738,1.0990480411663266,0.8910641135024142,,,0.6284777104787076,inf,,,0.9483193725028133
15,,0.0,0.0,1.6585810307016489,1.6594060954339507,0.6057662716194018,0.8705482837150438,0.7958055043209282,,,0.585052858160615,inf,,,0.9192740004853202
16,,0.0,0.0,1.3945882872903217,1.3624836380939924,0.801901907465072,1.6551340641370056,1.5156803553613591,,,0.6125606311107803,inf,,,0.9395016097948699
17,,0.0,0.0,1.630082954346389,1.5647585104918362,0.7823669762595146,1.5462478264586048,1.1250068166232554,,,0.6309483474627791,inf,,,0.9524267321608686
18,,0.0,0.0,1.6146239454031288,1.563129083929641,0.8648765252033079,1.0484231950656542,0.8943534416276206,,,0.6403206450210053,inf,,,0.9453457693769073
19,,0.0,0.0,1.4844477685409523,1.4801192004826806,0.8224984197947316,0.9391268152078609,0.8027899266549396,,,0.6038851895711802,inf,,,0.928649791228372
20,,0.0,0.0,1.5214945474107417,1.4810667387220728,0.8291747939910288,1.0717367256629018,1.0727246482223105,,,0.5947193981915972,inf,,,0.9404958932245685
21,,0.0,0.0,1.7189228788972661,1.6821594453280875,0.7981346080496708,1.020960712917177,0.7257049655139451,,,0.6309483474627791,inf,,,0.9258302454276791
22,,0.0,0.0,1.4900152699735663,1.4136251643114184,0.7379621183225356,1.391605261862929,1.5461077796728577,,,0.6038851895711802,inf,,,0.9459821807792452
23,,0.0,0.0,1.712629987844343,1.6831301727895516,0.8592240230961591,1.2763733041330967,1.3477208162843815,,,0.5915533975974677,inf,,,0.9055080589944482
24,,0.0,0.0,1.473775927612014,1.457109233324416,0.8444919255762804,1.2022323257730845,1.475387508340421,,,0.6284777104787076,inf,,,0.9213888674358359
25,,0.0,0.0,1.6205312687145583,1.5948884533798096,0.8383302965808115,1.2739053982106148,0.7323936626727012,,,0.6380535849069913,inf,,,0.9571052965642337
26,,0.0,0.0,1.7132902048597898,1.6856151693632861,0.7331706041223536,0.5092496399529576,0.40052100056976325,,,0.6284777104787076,inf,,,0.9412762110637037
27,,0.0,0.0,1.1593824302179414,1.1424592659375403,0.7490027763812104,1.1802862124680946,0.6183115092125318,,,0.5978297680564633,inf,,,0.9562706916677508
28,,0.0,0.0,1.6738399956125758,1.627130225041633,0.8655543010724994,1.5105530655900947,1.3395211230611976,,,0.6403206450210053,inf,,,0.9462801885596978
29,,0.0,0.0,1.6736246714546452,1.6336462938467005,0.8506890912286049,1.4952616088737685,1.2011645557833872,,,0.6403206450210053,inf,,,0.9485857977508785
30,,0.0,0.0,1.5812171790309608,1.5474048680623125,0.8599605091298982,2.1733022986114054,1.6630309911432146,,,0.648888643467878,inf,,,0.9531886633385669
31,,0.0,0.0,1.6561951468015714,1.6192715978470693,0.8167457290459473,1.9084877607857622,2.1185005138141033,,,0.6333676938231112,inf,,,0.9354873792994413
32,,0.0,0.0,1.7043422828799089,1.706231101166435,0.870076910855362,1.4492583723884747,1.3181393373352903,,,0.6284777104787076,inf,,,0.9442079469691017
33,,0.0,0.0,1.3819872946305543,1.3557291107218523,0.7986268002727397,2.4611009411184215,1.9497477883281156,,,0.6425374456860184,inf,,,0.9436320573932433
34,,0.0,0.0,1.5750486557614025,1.535826297488414,0.7438137940562213,2.347008744830074,1.9551330263273847,,,0.6207552362147116,inf,,,0.9453736524447521
35,,0.0,0.0,1.448171574332245,1.43436890473832,0.8178132276056121,1.8925768366162272,1.4507772663800442,,,0.6403206450210053,inf,,,0.9400371912888908
36,,0.0,0.0,1.434721992617048,1.4491974917293973,0.7375935769173902,2.1387634560371342,1.5080103439325518,,,0.6602640781246099,inf,,,0.901483911842577
37,,0.0,0.0,1.6130657255346155,1.5719508140684006,0.8278535470457187,2.1685907782127445,1.9149491257294327,,,0.6180765742263259,inf,,,0.9057554576834695
38,,0.0,0.0,1.5764227004986306,1.5363856823510353,0.8464541415476152,2.4214490389661867,1.912017636854217,,,0.6380535849069913,inf,,,0.9503737000660685
39,,0.0,0.0,1.5518919914726876,1.5374181353749552,0.7364786115959724,2.2107288647046435,1.8183425604625527,,,0.6125606311107803,inf,,,0.8569029458618505
40,,0.0,0.0,1.414361365667683,1.3954614931090477,0.7124106661229863,1.7495384744720859,1.5066376122841167,,,0.5947193981915972,inf,,,0.9333452336058471
41,,0.0,0.0,1.7390682826030934,1.736376569775264,0.7179738760815827,2.097161513705445,1.7164515885000928,,,0.6380535849069913,inf,,,0.9044793516934129
42,,0.0,0.0,1.6181576499173969,1.632429609080073,0.7734462408742819,1.335531147690082,1.0363862247804436,,,0.6207552362147116,inf,,,0.7684596931537857
43,,0.0,0.0,1.571993044592674,1.5228237757299719,0.7371347044888971,1.6011280793748313,1.2292878516898955,,,0.6547956803312163,inf,,,0.9240389875709295
44,,0.0,0.0,1.6676345049502852,1.6653764053369526,0.8004423546927543,3.245624240291259,3.117035155920892,,,0.6468212168108125,inf,,,0.9315204443927599
45,,0.0,0.0,1.481737051413127,1.464657863869998,0.7459033572885235,1.7024806433604738,1.275117825009113,,,0.5978297680564633,inf,,,0.9417518834922258
46,,0.0,0.0,1.4499635981194092,1.3885263995399142,0.782857884023978,1.312586106063944,1.1934625358670572,,,0.6333676938231112,inf,,,0.9454921262368203
47,,0.0,0.0,1.5335112591671534,1.5501573212763078,0.6033449242804082,1.3071747194597523,0.9903450461894459,,,0.6207552362147116,inf,,,0.9527798905007372
48,,0.0,0.0,1.342675090757008,1.3086633839001647,0.7489856994589963,1.436134228137661,1.0765142849148621,,,0.6008849035917525,inf,,,0.8577939939212451
49,,0.0,0.0,1.7066824964767027,1.6941113800366194,0.7705072022663028,2.0655070712839287,1.4952441697426129,,,0.6447042257417027,inf,,,0.8991533788966554
50,,0.0,0.0,0.8417999510642385,0.8334146388000093,0.5998923688471911,1.465238884020378,1.3034172914452915,,,0.6309483474627791,inf,,,0.8839509505549112
51,,0.0,0.0,1.7242072385852196,1.692059514472585,0.8320772915323286,1.7367124594152432,1.5695570113838142,,,0.585052858160615,inf,,,0.9085408708159778
52,,0.0,0.0,1.6597990616469567,1.587217635541489,0.7794846619579445,1.004200686022288,0.7746816948466457,,,0.6403206450210053,inf,,,0.913345725888209
53,,0.0,0.0,1.659935256401344,1.5961442650873918,0.6961601620031371,1.5041489085369253,1.0922640529851402,,,0.6125606311107803,inf,,,0.9437807717291222
54,,0.0,0.0,1.1876675901478881,1.1692239513822835,0.682932990113215,1.6194275192714294,1.38400357561665,,,0.6125606311107803,inf,,,0.8990569431996633
55,,0.0,0.0,1.4734143319342992,1.4783548355948972,0.6725463562195361,0.9133909385120879,0.651374580922703,,,0.5883313578629602,inf,,,0.9060412989584882
56,,0.0,0.0,1.7383220548757425,1.7033250167982465,0.7794708854509834,1.235185597937393,1.1025522894112767,,,0.6284777104787076,inf,,,0.9380627958134552
57,,0.0,0.0,1.3952229420494013,1.3881056415844648,0.710822123276041,1.488906039384922,1.2419383430202142,,,0.6153451465759925,inf,,,0.9241147779935645
58,,0.0,0.0,1.5270705186229898,1.52063583950314,0.7789715922284318,1.866808381331735,1.7572309816794005,,,0.6068309995095971,inf,,,0.9037015607454215
59,,0.0,0.0,1.6022731717118088,1.5832479729886038,0.6481542199773699,1.8312880028819476,1.5353164124693242,,,0.6038851895711802,inf,,,0.916400486399445
60,,0.0,0.0,1.476482738549922,1.4563947082412696,0.6965789107070881,0.9029200079664848,0.7516277081923,,,0.6097226960127671,inf,,,0.9323720562294304
61,,0.0,0.0,1.5055907882530635,1.5089463817202822,0.7604920533558839,0.9773680541335438,0.907426587777556,,,0.6068309995095971,inf,,,0.935892874485493
62,,0.0,0.0,1.6120272337221342,1.5957906692533965,0.7291014574940307,0.8423305980227705,0.6310487365243707,,,0.5883313578629602,inf,,,0.9182607088592023
63,,0.0,0.0,1.6828592312696036,1.632579188025625,0.6997768341627246,0.8933462286490378,0.6980822176290719,,,0.5748741956352443,inf,,,0.8904374392629478
64,,0.0,0.0,1.6587489174943997,1.6346426757627983,0.8279195141244146,1.405978882980049,1.4455617572781825,,,0.5641709578113449,inf,,,0.8785212894252711
65,,0.0,0.0,1.5652187887834998,1.505518060350943,0.7956161810165358,1.327013542216496,1.6626092906544179,,,0.6038851895711802,inf,,,0.8695886975728537
66,,0.0,0.0,1.6340288197153803,1.6104868095615952,0.7154116061044998,1.5634093341434125,1.0379596418117643,,,0.62595550513784,inf,,,0.649078615661753
67,5.703782474656201,-0.11407564949312402,0.0,0.9952822156264657,0.9521834664184979,0.43478338617638623,1.3677316662794792,0.8845019064740651,,,0.6425374456860184,9.615805480084347,inf,,0.8724189022185331
68,5.703782474656201,-0.7985295464518681,0.0,1.7472204232733342,1.7073149275935104,0.674265859825262,1.6240292272317645,1.3714204673316854,,,0.6425374456860184,7.669895331029034,inf,,0.6790808398524726
69,5.56900385621399,-4.677963239219751,0.0,1.6678858832705536,1.6467287278247558,0.5752229557308144,1.7211849182372665,1.0348208847477514,,,0.62595550513784,5.700454684563526,inf,,0.7178280611542107
70,,0.0,0.0,1.3266424236279384,1.3245895353811281,0.49871964502054833,0.8448344626020889,0.9385459909695585,,,0.581717464821069,inf,,,0.9348993106407298
71,5.6308196135446265,-1.426474302097972,0.0,1.6892359240949637,1.6643832091774968,0.7878145404994195,1.997807172490032,1.031186831100851,,,0.663668482632973,6.9767481504690885,inf,,0.7337042989361987
72,5.703782474656201,-3.4222694847937207,0.0,1.7051097575654488,1.6605274040081706,0.7354787534914311,1.7739591358023523,1.2794490032639885,,,0.6153451465759925,6.214608098422191,inf,,0.8670413746133139
73,,0.0,0.0,1.688146204680891,1.6634513257108705,0.8566981832386555,0.7458994380959347,0.737523202524928,,,0.5370774965580548,inf,,,0.8382213820394517
74,,0.0,0.0,1.6724410511737686,1.6612118880093332,0.6192319834725678,0.9200501513450092,0.8070689360355225,,,0.6180765742263259,inf,,,0.7237724096681273
75,,0.0,0.0,1.7049464402098224,1.697105288333472,0.8098967076147854,0.5138931613898772,0.6799506681918186,,,0.5748741956352443,inf,,,0.8086854910863842
76,,0.0,0.0,1.72402531160689,1.7005550771095885,0.9097349251749163,0.7120328789389891,1.0628442658063357,,,0.4732203808476458,inf,,,0.81598591168189
77,,0.0,0.0,1.6169272000121646,1.5999280341148188,0.8986521139207816,0.7548603690378477,1.1555632233111646,,,0.468121228110369,inf,,,0.8224759439048913
78,,0.0,0.0,1.6926248460588402,1.6692651143746549,0.8724565357972262,0.7918611124370729,1.269990712988716,,,0.5202020156036558,inf,,,0.8056567417427506
79,,0.0,0.0,1.7556374101761778,1.7325755904929645,0.8868486870858588,0.8687876864494842,1.2982609916364192,,,0.49759852643134905,inf,,,0.7866715733133427
80,,0.0,0.0,1.610700488876329,1.5727687184874724,0.9202117572442731,0.9864146183439955,1.647479490108568,,,0.4302020962658841,inf,,,0.7752734208960522
81,,0.0,0.0,1.5433694081868476,1.5118709415337042,0.8681446713365664,0.70700002493146,1.044896849543285,,,0.541134803179459,inf,,,0.7998754155883788
82,,0.0,0.0,1.4385671366587647,1.3719329624140062,0.5910783511539464,1.035523122717515,1.066021675767548,,,0.6180765742263259,inf,,,0.7233139237158102
83,,0.0,0.0,1.779687170843293,1.7610110629440305,0.8719509357341713,0.7975857212716908,0.9323080869299298,,,0.6233814453054027,inf,,,0.8405126910653599
84,,0.0,0.0,1.7201395581370078,1.7169586840669862,0.8566327235234559,0.8208107720561499,0.9618788652485739,,,0.5947193981915972,inf,,,0.9004757074971602
85,,0.0,0.0,1.6228522937501126,1.5899556006547684,0.828595993999078,0.7126945850132413,0.8122139939652758,,,0.6038851895711802,inf,,,0.8827245130184243
86,,0.0,0.0,1.7482097752883494,1.7652350259692284,0.6766782212295542,0.8830369741720444,1.0176784907371064,,,0.5713653840954815,inf,,,0.911543714002471
87,,0.0,0.0,1.2621222837224029,1.2447347857132116,0.7526045582981306,0.7606671312958831,0.8998159036443317,,,0.541134803179459,inf,,,0.8953553859171638
88,,0.0,0.0,1.6749932105829781,1.6689301199567923,0.8198556291339664,0.7319788435406803,0.8362395572613412,,,0.5783247308855777,inf,,,0.82922058334207
89,,0.0,0.0,1.369593769586264,1.3685679779165727,0.7172705593514013,1.0145216540124815,0.949475368564993,,,0.6309483474627791,inf,,,0.8615975513276349
90,,0.0,0.0,1.4626676975651791,1.4383774525669093,0.8213954264061347,0.9172245482224007,0.8953559643967206,,,0.6207552362147116,inf,,,0.8552897337980611
91,,0.0,0.0,1.46269112774947,1.4385583923335095,0.8020743454591114,0.9550297755960074,0.9095970527421716,,,0.5915533975974677,inf,,,0.8605735914464425
92,,0.0,0.0,1.6662390332517159,1.6552198864769674,0.8638761911643972,0.9859601067256678,1.0762332069478704,,,0.5947193981915972,inf,,,0.844240066537821
93,,0.0,0.0,1.7090981794071674,1.681264544992804,0.8507730250493903,0.8749657169902775,0.9903069410011347,,,0.585052858160615,inf,,,0.8486042999157204
94,,0.0,0.0,1.6666986822096883,1.672118780911475,0.8734538074537341,0.9085109803748951,1.2081044670793877,,,0.6125606311107803,inf,,,0.8557169333802694
95,,0.0,0.0,1.6826494657294866,1.6570768038602866,0.8450684938324805,0.6979306091278861,0.7820219379503471,,,0.6038851895711802,inf,,,0.8607719403553488
96,,0.0,0.0,1.3802363496001249,1.3372642880363408,0.2915356563801543,0.5947463576599936,0.7287527039912874,,,0.5947193981915972,inf,,,0.9599411713856315
97,,0.0,0.0,1.7043799610024957,1.668908369138479,0.9055780886204862,0.3687426991457236,0.43912538059584544,,,0.5370774965580548,inf,,,0.8286231358600266
98,,0.0,0.0,1.764812638379098,1.746173826407491,0.882550729598345,0.1654461423995065,0.2742595603425373,,,0.552929491858785,inf,,,0.7590522324790987
99,,0.0,0.0,1.6582704970173325,1.6466942166261371,0.5749923130536981,0.2519319346619124,0.3158775655434967,,,0.5713653840954815,inf,,,0.9096121712255091
100,,0.0,0.0,1.1321963362486975,1.1143912911582694,0.3991118670974007,0.21238943863937956,0.2913978809676805,,,0.47824363442641393,inf,,,0.947125981434471
101,,0.0,0.0,1.5555659865694944,1.5489913709472327,0.6885407156500378,0.5903338070269988,0.6695400293094601,,,0.6068309995095971,inf,,,0.9428129917095894
102,,0.0,0.0,1.6934932404832852,1.686706697679366,0.48148339503075527,0.4277689637445156,0.41808389461763856,,,0.541134803179459,inf,,,0.946954774729954
103,,0.0,0.0,1.7316150319597117,1.7128489406492278,0.8189354374045266,0.1296903946905047,0.2037979704778088,,,0.5490601803369085,inf,,,0.7874683497356157
104,,0.0,0.0,1.5028633372594828,1.4788565003290512,0.788285616512229,0.23219172717190958,0.32549121599629005,,,0.5947193981915972,inf,,,0.8333998483243736
105,,0.0,0.0,1.4778102895396723,1.4579397627113746,0.7830327004406228,0.1348057196900202,0.20181263604910338,,,0.5329562494928909,inf,,,0.7905552766143056
106,,0.0,0.0,1.6254998214155774,1.594967890703539,0.8315373519253283,0.1505451621382323,0.22547788649062228,,,0.5604843169999094,inf,,,0.7851469211633354
107,,0.0,0.0,1.7045260849526183,1.6892676510753144,0.3642878741026596,0.2602547030650875,0.3060315585866059,,,0.5641709578113449,inf,,,0.6944836405114843
108,,0.0,0.0,1.659507045435536,1.6322377462053737,0.8601840601586741,0.7078161089501067,0.8500464786316692,,,0.6153451465759925,inf,,,0.7587436916522878
109,,0.0,0.0,1.723231665981221,1.7242962676430704,0.8880349297248308,0.7660218983785995,1.1171005270265224,,,0.541134803179459,inf,,,0.8602909074330151
110,,0.0,0.0,1.6962541662263764,1.6871547491996985,0.8597771003238277,0.5794906912326616,0.8220335429770591,,,0.5370774965580548,inf,,,0.7943007874108843
111,,0.0,0.0,1.5879954929226305,1.5951511482136638,0.34877459072557926,0.37287412720720586,0.3721515251886789,,,0.581717464821069,inf,,,0.9229443681033727
112,,0.0,0.0,1.1880241646653933,1.160485878851616,0.7886064903772984,0.14722344113487099,0.2444222303993355,,,0.5604843169999094,inf,,,0.8017960715890028
113,,0.0,0.0,1.6978854151079747,1.6610831137697453,0.7975685553335599,0.24107965375729312,0.31068186957266347,,,0.552929491858785,inf,,,0.9240872626307096
114,,0.0,0.0,1.708995696054831,1.7406312008657085,0.709751416805651,1.872229505622885,1.1212668861000081,,,0.5915533975974677,inf,,,0.9282701371973572
115,,0.0,0.0,1.7528999266328653,1.6493783821426367,0.7382538415817584,1.6333476691178437,1.5935100625976957,,,0.5641709578113449,inf,,,0.8699986909405817
116,,0.0,0.0,1.4840487052285412,1.4717168940904104,0.6892307011468349,0.6665750900760494,0.5855078741919986,,,0.6008849035917525,inf,,,0.9531591675124398
117,,0.0,0.0,1.474786179066897,1.465710595605416,0.8345633168703037,0.566621046553872,0.5998035483252778,,,0.5978297680564633,inf,,,0.7354321848184533
118,,0.0,0.0,1.2887016835639813,1.2374961838666352,0.7285425805759196,1.0691470373923346,1.230940003096765,,,0.5713653840954815,inf,,,0.9178420444027782
119,,0.0,0.0,0.8571700933200881,0.8399334229545281,0.7138853823217503,0.5911083125286642,0.482862435439123,,,0.5490601803369085,inf,,,0.9359177821503064
120,,0.0,0.0,1.5582644933086498,1.5404694292580707,0.6708744561639769,0.6259193037794878,0.8406613227917225,,,0.5713653840954815,inf,,,0.9167892802199434
121,,0.0,0.0,1.0687717650495037,1.034593442313881,0.5966276541184673,0.7105588489556526,0.8766994324168363,,,0.5287703885177266,inf,,,0.9029843686968672
122,,0.0,0.0,1.2176352827431254,1.2192383994818483,0.7926621290475704,0.28454640440191525,0.4139698569442814,,,0.5783247308855777,inf,,,0.761781979085642
123,,0.0,0.0,1.5737140741628524,1.5458664014752779,0.8745723271667541,0.18691638766000365,0.3375616902964718,,,0.5022576003740722,inf,,,0.8127132788940791
124,,0.0,0.0,1.7168689152816567,1.67784662362474,0.8846154189221707,0.20991020225937349,0.33168798935602783,,,0.49759852643134905,inf,,,0.8398233501124731
125,,0.0,0.0,1.4429588171953445,1.4294614533489503,0.8339172569178416,0.2284152490351195,0.35638210488490996,,,0.5451288209179292,inf,,,0.8271625684823076
126,,0.0,0.0,1.6659061492408065,1.6327356961230595,0.832996529526934,0.12675641268469073,0.21455233591782694,,,0.4928685327679205,inf,,,0.7389451245170876
127,,0.0,0.0,1.6295357669027322,1.5917120064004664,0.8680823406697924,0.14424486431929778,0.23499511998819614,,,0.5567373465730988,inf,,,0.7604415821867959
128,,0.0,0.0,1.5278423697547707,1.4807127692022741,0.6646407479030809,0.7000346810308247,0.5722430011293796,,,0.541134803179459,inf,,,0.8887599291064281
129,4.150525215410676,-4.150525215410676,0.0,1.426522344427908,1.2320418110333715,0.7594033922818388,1.8457248921814997,1.3342036299688507,,,0.581717464821069,4.126179285742119,inf,,0.6543698081739149
130,2.878303442353674,-1.2577760051021405,-1.6205274372515335,1.7323779390697063,1.7216241428636436,0.8813960204930439,4.668740694530904,14.04808434158793,4.107548130244901,,0.6425374456860184,2.8744984087398744,4.090415284082211,inf,0.6738275082273709
131,3.641543463073482,-3.641543463073482,0.0,1.6326328838961075,1.6251180630998205,0.7702820451389731,4.442933695719685,8.52213652304929,,,0.6333676938231112,3.633970481952208,inf,,0.9367018006059966
132,3.118585430278768,-3.118585430278768,0.0,1.6942939580631453,1.6818089110955026,0.8512671973342558,5.183294755224406,7.006111773873147,,,0.6528756675646988,3.103812533748989,inf,,0.9113413072311759
133,3.5102732791320856,-3.5102732791320856,0.0,1.7365493437173154,1.6977415680521972,0.8808259960066187,4.528180893825945,6.666144577499742,,,0.663668482632973,3.4914868530096164,inf,,0.8646673058996645
134,5.703782474656202,-4.410925113734129,0.0,1.7447968932792208,1.7089396695550574,0.6072117883144525,0.8372577403393793,0.7311966130276473,,,0.581717464821069,5.960827577646092,inf,,0.8626757039179448
135,,0.0,0.0,1.4838104360755842,1.3909996716656001,0.43302512360475687,0.6192388203602268,0.5337818669817267,,,0.6207552362147116,inf,,,0.9394228457227232
136,,0.0,0.0,1.5603186353922673,1.5321660284815644,0.7512240458175081,0.43647316918011736,0.5589190240751819,,,0.5748741956352443,inf,,,0.8848872719959163
137,,0.0,0.0,1.597032615379181,1.605218509403918,0.5187183820349481,0.47807655476719824,0.5446214691864899,,,0.5748741956352443,inf,,,0.9052946411464258
138,,0.0,0.0,1.7300355096794133,1.7173316801776974,0.893358115857507,0.3584596199961895,0.4816652509878206,,,0.5113665138247345,inf,,,0.773474510750023
139,,0.0,0.0,1.7182555282833307,1.7207533504712251,0.9003533884242402,0.38647988768259633,0.5124909644370567,,,0.5677978065141052,inf,,,0.8410775438407111
140,,0.0,0.0,1.2169233103119599,1.1739674780180185,0.7366472662944923,0.8184624450372989,0.7340421671882662,,,0.6068309995095971,inf,,,0.9463404386334683
141,,0.0,0.0,1.6665263102947265,1.6343062117066915,0.8367036213222044,1.7268916368741298,1.5383615255820644,,,0.5748741956352443,inf,,,0.9453171605722217
142,,0.0,0.0,1.7169834435930482,1.675207913190787,0.717163432356722,0.5949078693788927,0.45311626889615864,,,0.5783247308855777,inf,,,0.944816951921688
143,5.703782474656201,-0.30420173198166406,0.0,1.5848348312155789,1.5677810816266553,0.725581333181198,2.2266598867618503,1.6152159438384075,,,0.6097226960127671,8.63497622707262,inf,,0.817033939395656
144,,0.0,0.0,1.5853864191572855,1.5209713102494304,0.5221006815469014,0.43815046796627066,0.3143208740852822,,,0.5604843169999094,inf,,,0.910841898305003
145,,0.0,0.0,1.706798582151384,1.6437852550178018,0.9274656464880688,0.2639527107142951,0.3934368127586707,,,0.541134803179459,inf,,,0.8331306873062488
146,,0.0,0.0,1.6930110177592752,1.6772889193919354,0.8645822235204413,0.4117368465182936,0.5621448982679407,,,0.5370774965580548,inf,,,0.8401622340760903
147,,0.0,0.0,1.3112578252295861,1.287283578231677,0.7989768562210987,0.3405401389813269,0.512360463927104,,,0.48319206230712763,inf,,,0.8052040069231479
148,,0.0,0.0,0.874452536567442,0.848198514483337,0.7268300151681769,0.3201391797438068,0.4977247095485379,,,0.4629450596409901,inf,,,0.8441863994197825
149,,0.0,0.0,1.5733633234620372,1.4889494265091248,0.5626609810266519,0.6987794370965627,0.6271335538355829,,,0.6008849035917525,inf,,,0.9376925252355044
150,,0.0,0.0,1.4476823975039286,1.4254844528738606,0.675952844402332,0.5515174196605687,0.6235001596005832,,,0.5329562494928909,inf,,,0.9529370736430287
151,,0.0,0.0,1.574394958008214,1.557548498365813,0.6592368178070412,0.5553061442095053,0.5609297296987542,,,0.6008849035917525,inf,,,0.9530768824630266
152,,0.0,0.0,1.4521405156747962,1.3462456269290923,0.6088778735345037,1.0008098787160535,0.6093452751759125,,,0.6068309995095971,inf,,,0.9549092704940737
153,,0.0,0.0,0.891160362536401,0.7412276788038755,0.6736937568708026,0.9266105372861373,1.01552014595089,,,0.6125606311107803,inf,,,0.8990360706285485
154,,0.0,0.0,1.331728170267104,1.2871812788548411,0.656711471209581,1.39723871653963,1.2729884683386097,,,0.6309483474627791,inf,,,0.9398715946648902
155,,0.0,0.0,1.1754661449665746,1.1695369034423464,0.7632505458560593,1.8954846651569637,1.6495121090198643,,,0.6309483474627791,inf,,,0.7076580679276333
156,,0.0,0.0,1.6433700944909788,1.6280667579438557,0.6193303847583603,2.415970713208627,1.903135485424869,,,0.6207552362147116,inf,,,0.9571006861396889
157,,0.0,0.0,1.266139643092816,1.1896019065681775,0.6508247601962501,1.4703642360380558,1.3331996525436434,,,0.6038851895711802,inf,,,0.7521505367766398
158,,0.0,0.0,0.8487714862780047,0.8204090539556711,0.658514387611987,2.1913860749575744,1.9440159618307726,,,0.6380535849069913,inf,,,0.9506929949326631
159,,0.0,0.0,1.7626491815564056,1.7570280608225044,0.8236601997160069,2.1398787028236423,1.9231815746105285,,,0.6309483474627791,inf,,,0.9533449303781196
160,,0.0,0.0,1.634787925279976,1.6127876744900338,0.7776631430324449,1.1186200799023005,0.8437427590085531,,,0.6284777104787076,inf,,,0.9474632126331396
161,,0.0,0.0,1.5639664019956687,1.5058825746355777,0.8152846478982386,2.6103548135047423,2.359279190409536,,,0.6602640781246099,inf,,,0.9360002309963256
162,,0.0,0.0,1.444544403748988,1.4137739450971814,0.7386592426395895,2.4070380594627796,2.074772640666897,,,0.6097226960127671,inf,,,0.9330364706754934
163,,0.0,0.0,1.3779092934300703,1.3239326087788148,0.7588035078382457,2.102055890324112,1.3951563713662103,,,0.6425374456860184,inf,,,0.9307807090341225
164,,0.0,0.0,1.3889510969263288,1.384029932673003,0.7233461957633907,2.297507818771511,2.034189730430889,,,0.6380535849069913,inf,,,0.9531317008156758
165,,0.0,0.0,1.6908707635095936,1.67973673995744,0.8920003987171026,2.132385540084807,1.8171596718510354,,,0.6403206450210053,inf,,,0.9468760033665637
166,,0.0,0.0,1.7317815232976872,1.7354985979498816,0.8277299974409874,2.115584233768718,1.692308477649342,,,0.6425374456860184,inf,,,0.9437405869141056
167,,0.0,0.0,1.5703664098804815,1.5506997521241026,0.7993348693205962,2.0209598919522223,1.545736822783104,,,0.6207552362147116,inf,,,0.9438091059166781
168,,0.0,0.0,1.7309745021540714,1.711456336469137,0.8071402117798651,1.6664470402752547,1.1223861804665327,,,0.62595550513784,inf,,,0.9453005302292444
169,,0.0,0.0,1.6597208103736187,1.6447052159866578,0.8403273516456651,2.2543917532936435,2.087569648153555,,,0.6509067234006624,inf,,,0.9484526660068855
170,,0.0,0.0,1.3492698384379567,1.3280139819258505,0.7267184307814731,1.7080754741236979,1.4253957639981956,,,0.6447042257417027,inf,,,0.9543644746495974
171,,0.0,0.0,1.7199211637939413,1.7100830667721036,0.7769603068346591,1.7582324162202445,1.3965662054723957,,,0.6380535849069913,inf,,,0.952964542944234
172,,0.0,0.0,1.1606890433830004,1.1405165633005316,0.6778773380690902,1.557388305557436,1.5153994366430055,,,0.6509067234006624,inf,,,0.949750856863332
173,,0.0,0.0,1.5044469312679734,1.44698575101139,0.8019559955918824,1.179527874264698,1.1545277157151033,,,0.6509067234006624,inf,,,0.9434450074800603
174,,0.0,0.0,1.737584838279222,1.7224414848065632,0.8940231833239636,1.6463944518887998,1.55612036812672,,,0.6284777104787076,inf,,,0.9493476440722943
175,,0.0,0.0,1.7379438002233403,1.7266321789753731,0.8000042254751148,1.4161375035970196,1.134177912840906,,,0.6125606311107803,inf,,,0.9219861537251924
176,,0.0,0.0,1.552200729436627,1.5064382782281764,0.8265066905719382,1.2954356000280642,1.1517506453149335,,,0.6566669596287297,inf,,,0.9166029494609805
177,,0.0,0.0,1.553030500260503,1.5395309452469017,0.7319483158643528,1.2249822722817316,0.8317968395811612,,,0.6207552362147116,inf,,,0.945948997479408
178,,0.0,0.0,1.3758417172535506,1.343281296406481,0.7927551559079947,0.830514540232837,0.72214381357469,,,0.5604843169999094,inf,,,0.9268900325557223
179,,0.0,0.0,1.428812624557518,1.4217376634806185,0.796173839816726,0.656268574476479,0.4948845219777108,,,0.5883313578629602,inf,,,0.9471567613236651
180,,0.0,0.0,1.420622506419936,1.3926328434969055,0.6602844107591881,1.3888548758202155,1.0313429874281304,,,0.6584896970785714,inf,,,0.9451594695852006
181,,0.0,0.0,1.391370717698705,1.338063593291262,0.7046370610709057,0.5105140859649885,0.4636491010799013,,,0.6357360191111145,inf,,,0.8729922670135368
182,,0.0,0.0,1.711147574805558,1.682026289924189,0.6711261705630296,0.7964658476539067,0.4893558778741942,,,0.6309483474627791,inf,,,0.8460222720248569
183,,0.0,0.0,1.6687485213270812,1.615878229367673,0.7694221555970993,0.6263849231790933,0.4185538525739747,,,0.5567373465730988,inf,,,0.8463068988130097
184,,0.0,0.0,1.5170079317942111,1.47113912674622,0.8120323000227262,1.4058232284632062,1.1936518092938135,,,0.6125606311107803,inf,,,0.9426778929273488
185,,0.0,0.0,1.4809089018206179,1.4536424607967942,0.8079880641114198,1.2008437532326317,1.0102984059259226,,,0.6425374456860184,inf,,,0.9492207965418198
186,,0.0,0.0,1.2613534776174546,1.2421703838974092,0.7207951907092832,1.526995613404001,1.5430425787814144,,,0.6068309995095971,inf,,,0.9299703939271584
187,,0.0,0.0,1.6757240487874865,1.6475354345079118,0.7574452014387301,2.008210583299113,1.7007185055635916,,,0.6038851895711802,inf,,,0.9363425230637837
188,,0.0,0.0,1.652316848603553,1.633525458301373,0.7806730216753489,1.227387716652133,0.9133249479219285,,,0.62595550513784,inf,,,0.951597880936373
189,,0.0,0.0,1.4389063580033206,1.4318656600384079,0.6344558411470775,1.0466661240661366,0.6793917283225241,,,0.6068309995095971,inf,,,0.9466171438178435
190,,0.0,0.0,1.6146164940283163,1.5447501975372413,0.7846264243997463,1.1143049301932857,0.698032499638521,,,0.6403206450210053,inf,,,0.9548127894822742
191,,0.0,0.0,1.3153944880678332,1.2813443148421422,0.8354075170339222,1.7645136047518062,1.1457323410089102,,,0.6380535849069913,inf,,,0.9488590117851705
192,,0.0,0.0,1.6075375502967766,1.573749904635663,0.7628070903292535,1.9228485411374412,1.2540339740934747,,,0.6380535849069913,inf,,,0.9402074169547056
193,,0.0,0.0,1.7155478724561057,1.684549853928301,0.6756931174398368,1.4419919764268836,0.9681631616441295,,,0.6357360191111145,inf,,,0.9518639737780269
194,,0.0,0.0,1.6788044598011491,1.6692822149469861,0.6756683856842621,1.9644268020540274,1.4413282949368869,,,0.6403206450210053,inf,,,0.7856011694324746
195,,0.0,0.0,1.7336051664481391,1.7245919268350942,0.8627198706138131,2.482019922079397,1.8172661174402696,,,0.6153451465759925,inf,,,0.9054386184497164
196,,0.0,0.0,1.6634676563250586,1.6484661783591017,0.7857432286349213,2.1153181930396308,1.6995327949727295,,,0.6233814453054027,inf,,,0.9507708223868432
197,,0.0,0.0,1.6189428450658934,1.5576915481135796,0.8294432698115092,1.26700025566748,1.0197748478052824,,,0.62595550513784,inf,,,0.9445375279277192
198,,0.0,0.0,1.5522322453423443,1.4995714407545246,0.7631585506614169,1.8657087263400718,1.4754430662713747,,,0.6357360191111145,inf,,,0.9482270906345558
199,,0.0,0.0,1.5618802891855341,1.5584917398857052,0.8230532182867468,1.5848677821447266,1.2264642133919759,,,0.6509067234006624,inf,,,0.9551106765076235
200,,0.0,0.0,1.6863500498183037,1.6491976867937286,0.906866514151518,2.0898854057674323,1.5780288175218287,,,0.6447042257417027,inf,,,0.9565240417892641
201,,0.0,0.0,1.3187021982108642,1.232295257892006,0.7317000890677091,0.7357516222527487,0.6252310211835094,,,0.6602640781246099,inf,,,0.9531830997456674
202,,0.0,0.0,1.4543312357780878,1.4607626337933166,0.8565124116521954,1.3703308581730818,1.0382918536965349,,,0.6333676938231112,inf,,,0.9450388313524745
203,,0.0,0.0,1.7621532175148154,1.7542322020101915,0.8419727207799539,1.1543976559430569,0.7789496628022023,,,0.6125606311107803,inf,,,0.9518027267423957
204,,0.0,0.0,1.719155262403961,1.6409144531011126,0.7794568239051798,1.6145059094574419,1.2599193858141136,,,0.6403206450210053,inf,,,0.8261209326283828
205,,0.0,0.0,1.7007438439593774,1.6714526681933601,0.7489075028432607,1.3840798160923773,0.8566036383967011,,,0.6425374456860184,inf,,,0.8222485756516876
206,,0.0,0.0,1.611178319968306,1.5631716123454937,0.8608634921113579,1.6281053126813172,1.129278871485743,,,0.6068309995095971,inf,,,0.8934866512227952
207,,0.0,0.0,1.7400612442193226,1.7133527713293848,0.7757129942920792,1.751896392442763,0.9975435764230276,,,0.6509067234006624,inf,,,0.9455069536765311
208,,0.0,0.0,1.6845979170592293,1.690114891705162,0.8079010425727752,1.635291279133764,1.1205634305291752,,,0.6284777104787076,inf,,,0.9478366691584159
209,,0.0,0.0,1.4987921673871147,1.4647817627251416,0.7495232484261926,1.5367401928587239,1.0193327771374827,,,0.6233814453054027,inf,,,0.9526292469249642
210,,0.0,0.0,1.696893899110637,1.6710373031886285,0.7885436361302748,1.997414966083532,1.3628009725820593,,,0.6008849035917525,inf,,,0.932322096630019
211,,0.0,0.0,1.7236218323964874,1.714780861480758,0.8007433454993294,1.543528609655452,1.0533259132629764,,,0.6180765742263259,inf,,,0.9530249647615509
212,,0.0,0.0,1.2661395507765096,1.2448294782355966,0.7508627179131824,1.730442859338503,1.1189806845549433,,,0.6425374456860184,inf,,,0.9260628657350392
213,,0.0,0.0,1.7155268608378884,1.6972839967371487,0.8969685709458026,1.549860535892354,1.2886881547390434,,,0.6309483474627791,inf,,,0.8738140638301595
214,,0.0,0.0,1.4538813018012973,1.36593024283595,0.7682551797539824,1.9227569633971782,1.3787153940540495,,,0.6528756675646988,inf,,,0.6810697307936897
215,,0.0,0.0,1.6571243587835358,1.611236864798724,0.802297297703575,1.2189880486033986,0.7955651421056311,,,0.6509067234006624,inf,,,0.9579648196187585
216,,0.0,0.0,1.7105717775701623,1.698455878684158,0.8153776327966796,1.5409145947686138,0.8803660988355446,,,0.6547956803312163,inf,,,0.9520340328089117
217,,0.0,0.0,1.5918966432391288,1.5341436240954232,0.8052915058713046,1.2690311893327124,0.8777391837839295,,,0.62595550513784,inf,,,0.9540197013248096
218,,0.0,0.0,1.6077040430734502,1.6460787890917554,0.7658654534770507,1.4560373658807289,1.09366757039916,,,0.6584896970785714,inf,,,0.9436856342351485
219,,0.0,0.0,1.645205431766132,1.6332301496080237,0.8851287444558238,1.1611211977099845,0.8627609542841319,,,0.6333676938231112,inf,,,0.9361856491108402
220,,0.0,0.0,1.642211110957091,1.6449545011997628,0.847378077770932,0.7894312560647404,0.6110211225532247,,,0.6233814453054027,inf,,,0.9213318177721854
221,,0.0,0.0,1.4821168379892935,1.401780572880787,0.7524471640634365,1.764476345183758,1.082383358783456,,,0.6284777104787076,inf,,,0.9440524288465891
222,,0.0,0.0,1.5293800619556464,1.5195180602246237,0.8302241536479333,0.7294476152988467,0.5416231206775572,,,0.6207552362147116,inf,,,0.8575522897360206
223,,0.0,0.0,1.6416423998905736,1.603430159090737,0.768849851233239,0.6827688931822933,0.5895827065365951,,,0.6233814453054027,inf,,,0.9503731062745632
224,,0.0,0.0,1.6703586712126604,1.57316514862025,0.8607789087718,0.8372586794537293,0.592375644289533,,,0.6284777104787076,inf,,,0.9556637085652189
225,,0.0,0.0,1.671676534724766,1.6473307054242972,0.8356778686517214,0.4503540959613906,0.3967596032973854,,,0.5713653840954815,inf,,,0.9348721148869787
226,,0.0,0.0,1.3514326208064695,1.300066777176977,0.7414092093449431,1.0223708990478568,0.7077395960866162,,,0.581717464821069,inf,,,0.9494859180213203
227,,0.0,0.0,1.3827109643513493,1.370321568703285,0.8522250912420399,0.5388527418293734,0.558246010557636,,,0.6357360191111145,inf,,,0.8687989241619849
228,,0.0,0.0,1.4048996865590035,1.3576515558748286,0.7676156554688419,1.3806870777506295,0.9726052989244498,,,0.6380535849069913,inf,,,0.956640297446288
229,,0.0,0.0,1.5042040072927918,1.4603235784677895,0.8318809164115895,0.7375332356069042,0.603785426572347,,,0.6403206450210053,inf,,,0.9552774184441759
230,,0.0,0.0,1.574218247541975,1.5410720122388344,0.8713800717031018,0.7029908132868835,0.5979453030863998,,,0.6309483474627791,inf,,,0.9544739330841373
231,,0.0,0.0,1.0887654285226465,1.089672436209884,0.7323257507784056,0.5022887656460637,0.40411916203034737,,,0.6097226960127671,inf,,,0.9556059059172958
232,,0.0,0.0,1.6602926720640556,1.6542836155120886,0.777849230246063,0.6131145885454197,0.561277976634472,,,0.6425374456860184,inf,,,0.9469361247406624
233,,0.0,0.0,1.6272126860455023,1.6460148284710732,0.8140387513058718,0.8695369930051075,0.625224109004614,,,0.6380535849069913,inf,,,0.9467191405001684
234,,0.0,0.0,1.0794556145668914,1.0531165480140643,0.6835179067176783,0.8980260891405911,0.6831826070750201,,,0.6684167106117298,inf,,,0.9593756860227459
235,,0.0,0.0,1.532503193666531,1.5193112408767102,0.8418209084551249,0.9234904646858083,0.7413775308014787,,,0.6447042257417027,inf,,,0.9450760785592941
236,,0.0,0.0,1.201283997493483,1.193799779665754,0.7419359126786139,0.8350858760858804,0.643242689488016,,,0.648888643467878,inf,,,0.9155893130350329
237,,0.0,0.0,1.67162750293347,1.6690912646820746,0.8636802312468909,1.3157814036639777,0.9322096090100673,,,0.6468212168108125,inf,,,0.9128690588887982
238,,0.0,0.0,1.5653217945432323,1.5388470424081064,0.7806090047418913,0.9264353847179846,0.6284159702303009,,,0.5883313578629602,inf,,,0.8765060665767155
239,,0.0,0.0,1.6727581687693964,1.650899944875059,0.8720072319909161,0.741649643708502,0.5801016672628531,,,0.6207552362147116,inf,,,0.9567312466574012
240,,0.0,0.0,1.6659219905255676,1.6842434671277202,0.7757912547133528,0.769283992697563,0.4960219471148922,,,0.6284777104787076,inf,,,0.9547945706216532
241,,0.0,0.0,1.2947195588742455,1.3147351891399088,0.6808584399443351,0.28190249533177114,0.2532750972016015,,,0.6180765742263259,inf,,,0.8641860402607738
242,,0.0,0.0,0.9091151599130617,0.8705991974728351,0.6476080254969891,1.2380990165751606,0.7962552318710088,,,0.6207552362147116,inf,,,0.9541686131847094
243,,0.0,0.0,1.7097629732857116,1.6361179500666623,0.8836270265781054,1.0832008648109126,0.7467736103109288,,,0.6309483474627791,inf,,,0.9392686429266219
244,,0.0,0.0,1.3478504877429798,1.3454037559991017,0.7558397924715704,0.5945239018198374,0.5508724764317877,,,0.6207552362147116,inf,,,0.9528849296663814
245,,0.0,0.0,1.4105356678094614,1.3847783881855935,0.5777200468680528,0.39332852165321425,0.36068418167387994,,,0.62595550513784,inf,,,0.9550943902064762
246,,0.0,0.0,1.5848660728570736,1.556849766206169,0.7663947488302971,0.40568185820276886,0.3563092806983914,,,0.6309483474627791,inf,,,0.9477609341843021
247,,0.0,0.0,1.7248333456127751,1.7143976423602347,0.9254257236720115,0.6295491576329936,0.6045167979796702,,,0.6333676938231112,inf,,,0.9511602630765735
248,,0.0,0.0,1.619445008728781,1.5794069438709772,0.8869844231209862,0.8253337023441287,0.7730167522722238,,,0.6309483474627791,inf,,,0.9482182431551667
249,,0.0,0.0,1.568773023636503,1.5310042897296219,0.8365687965741614,1.130209099441554,0.9178442992725266,,,0.648888643467878,inf,,,0.948631603641962
250,,0.0,0.0,1.5796796553228205,1.5955580997353522,0.8336023388918445,0.794244157520082,0.6241089433832859,,,0.6333676938231112,inf,,,0.9445349971333077
251,,0.0,0.0,1.694758731338319,1.6837006667889018,0.8077391890199969,1.4825232603190226,1.2116431456888186,,,0.6180765742263259,inf,,,0.9576904493960885
252,,0.0,0.0,1.5980360549193326,1.5723499687084548,0.8149838587729668,1.0608055274006873,0.8346563977312988,,,0.6008849035917525,inf,,,0.9547309169620941
253,,0.0,0.0,1.611172433577343,1.5441236268037364,0.8336577733759718,1.5848092895007948,1.0151229788942324,,,0.6125606311107803,inf,,,0.95642044545659
254,,0.0,0.0,1.4028888215323403,1.3199156082678882,0.8110513131676959,0.8789429462339549,0.5993488890970418,,,0.6468212168108125,inf,,,0.949555231745091
255,,0.0,0.0,1.691190111896376,1.6842597138699724,0.8444997315598174,0.9097713507099608,0.7488472899163305,,,0.62595550513784,inf,,,0.9388964776765619
256,,0.0,0.0,1.6141636290453967,1.5698030883534526,0.8181244004701269,0.7206677213350675,0.570809739063069,,,0.6333676938231112,inf,,,0.9279754606362398
257,,0.0,0.0,1.6624421347596094,1.6757217491433953,0.8564397945124248,0.5713050169898123,0.554009550962619,,,0.6652988471865258,inf,,,0.959033750519613
258,,0.0,0.0,1.440117793841538,1.443368895009574,0.8286014994283485,1.2657712700602162,1.0658940591563764,,,0.6403206450210053,inf,,,0.8797026810857119
259,,0.0,0.0,1.6097158434203849,1.5820741128122313,0.8043283662651525,1.3420731372784431,1.0517154569585392,,,0.6180765742263259,inf,,,0.9196147872727339
260,,0.0,0.0,1.6496962324206248,1.595224587610754,0.7242410740191219,1.3795142009348955,0.8695472380155749,,,0.6284777104787076,inf,,,0.9349358790490826
261,,0.0,0.0,1.6748451192623928,1.63667008057752,0.7457599813814664,1.519150518297564,0.8794114378395825,,,0.648888643467878,inf,,,0.9449923420284961
262,,0.0,0.0,1.711979693699628,1.6986958730482227,0.8112426970786493,1.339378447028979,0.9376199397777836,,,0.6509067234006624,inf,,,0.9385586392389137
263,,0.0,0.0,1.6078404650500497,1.5845617074494225,0.7607697909908426,1.3856751842787267,0.8115069034755198,,,0.6447042257417027,inf,,,0.94701220870356
264,,0.0,0.0,1.4136484931438396,1.3785294889681947,0.8032659234665055,1.4118388840148661,0.6944848490071955,,,0.6380535849069913,inf,,,0.9509707824805229
265,,0.0,0.0,1.6760813904346128,1.657416751096479,0.7851057900870575,0.9034563699260154,0.7143769491414055,,,0.648888643467878,inf,,,0.9572500001487966
266,,0.0,0.0,1.6782303705151667,1.627072688629066,0.8748047134971952,1.3327641164654689,0.8269992988900621,,,0.6357360191111145,inf,,,0.9492829393073584
267,,0.0,0.0,1.61188282300598,1.620023465581642,0.7335392831113525,1.5438128701504272,0.9031486526729895,,,0.6068309995095971,inf,,,0.9514182855807317
268,,0.0,0.0,1.5719436919368723,1.5711072604770215,0.8679094661969711,1.4988474160483862,1.2260851286841115,,,0.6380535849069913,inf,,,0.9505676565112853
269,,0.0,0.0,1.7795933769244723,1.7783976642910386,0.8707617841501101,1.3393012069114583,1.1659136151005338,,,0.6380535849069913,inf,,,0.9536576458084468
270,,0.0,0.0,1.6863902736411238,1.6500049951358078,0.8896221668259875,1.7878035258280554,1.192403416895898,,,0.6509067234006624,inf,,,0.9521875528108759
271,,0.0,0.0,1.5104772900343448,1.5237133765027844,0.8190137983888045,0.9072186594866537,0.6753726996292564,,,0.6309483474627791,inf,,,0.9525314139954385
272,,0.0,0.0,1.4229810181232505,1.372730208556229,0.6717235051245177,0.6018121049135869,0.46660645813243373,,,0.6403206450210053,inf,,,0.949290322485175
273,,0.0,0.0,1.6344303592181624,1.587445202410312,0.8686050924319876,1.0994102910426184,0.6866359566721771,,,0.6309483474627791,inf,,,0.9311714707271926
274,,0.0,0.0,1.7084433230642326,1.6464569049463362,0.8713105624904957,1.4834139826679495,1.246615152152392,,,0.6284777104787076,inf,,,0.9297773963333259
275,,0.0,0.0,1.177649691137027,1.1451457934173144,0.7128874936768029,1.5215269966637575,1.0482623854470923,,,0.6309483474627791,inf,,,0.9531487890008328
276,,0.0,0.0,1.6503976899643662,1.6249287124970988,0.8116801820853786,1.6932390227150993,1.0753535118528026,,,0.6447042257417027,inf,,,0.9336584026719302
277,,0.0,0.0,1.641756820780821,1.600799352500786,0.8558733959709893,1.5038706119862535,1.07602340193054,,,0.6333676938231112,inf,,,0.9220131702561852
278,,0.0,0.0,1.7490350499088336,1.7482848345745134,0.8876948391271026,1.7291543555879534,1.7149338544522374,,,0.6425374456860184,inf,,,0.9545257785117403
279,,0.0,0.0,1.780540927259224,1.787627556543936,0.7920715467978848,1.9952310394785828,1.965206339135541,,,0.6447042257417027,inf,,,0.9525448942439615
280,,0.0,0.0,1.745690981708978,1.7177879346433997,0.8334476896720775,1.513715214338122,1.0983688013116606,,,0.6468212168108125,inf,,,0.9462078075350321
281,,0.0,0.0,1.6609435878882661,1.6485430097529605,0.8793058444434335,1.346291835594825,1.172050576433481,,,0.6309483474627791,inf,,,0.927580788334723
282,,0.0,0.0,1.5093120854006952,1.524099877648246,0.8302274536329631,1.3459826740710494,1.2254507847367246,,,0.62595550513784,inf,,,0.914729029144935
283,,0.0,0.0,1.6085802860855603,1.6294300880594228,0.8547188441024576,1.2052793117997054,0.8908870456305276,,,0.6097226960127671,inf,,,0.917870871245155
284,,0.0,0.0,1.6051862663823664,1.5840713145733782,0.7908364256036615,1.3207766500456555,1.0319196229425278,,,0.6547956803312163,inf,,,0.923703354455853
285,,0.0,0.0,1.5013652153946109,1.4799862431786397,0.7154169693532728,1.1110718560646555,0.8617839287835309,,,0.6357360191111145,inf,,,0.954020924448999
286,,0.0,0.0,1.5306867162394462,1.491244332159444,0.7959516791206616,1.6290699120967573,1.38575452015371,,,0.5947193981915972,inf,,,0.8880030711658403
287,,0.0,0.0,1.5444259417813968,1.539626098323265,0.8820810222780671,1.7125573196218336,1.5776963328136975,,,0.6602640781246099,inf,,,0.8814017279073689
288,,0.0,0.0,1.2091623422372497,1.1645187050321684,0.7412258026061866,1.2564157805228715,1.199483068523376,,,0.6207552362147116,inf,,,0.9458276808441438
289,,0.0,0.0,1.3761234570332437,1.3375244547890783,0.7004059738711758,1.1621295451887907,0.9063882070805309,,,0.6447042257417027,inf,,,0.9554599345976953
290,,0.0,0.0,1.6752675925763993,1.667571510876245,0.7161859901342607,0.5550613166844649,0.4573613137966087,,,0.6068309995095971,inf,,,0.9158481729562252
291,,0.0,0.0,1.662989979604161,1.6681153446927133,0.7103389228164159,0.6825326072786229,0.7421386930525171,,,0.6068309995095971,inf,,,0.905779552820438
292,,0.0,0.0,1.6646421173775925,1.6543287170742964,0.6473811182864306,1.2001478552229226,1.0518611614574527,,,0.62595550513784,inf,,,0.7106960820918595
293,,0.0,0.0,1.7164903127572289,1.7109624885076,0.8612155439085671,0.9595451670415444,0.8245301655787548,,,0.6309483474627791,inf,,,0.9311137694478807
294,,0.0,0.0,1.6381467487261332,1.5487018648698696,0.839030109865784,1.4759483170191703,0.9614147389527625,,,0.62595550513784,inf,,,0.9522973525343332
295,,0.0,0.0,1.6546116791413819,1.6465811355885571,0.662455574918459,0.8601605222869398,0.6350509083115462,,,0.6097226960127671,inf,,,0.9367355662303671
296,,0.0,0.0,1.4105129455607837,1.4197547326998792,0.7992443188928149,0.8813473658251646,0.9170795610830738,,,0.62595550513784,inf,,,0.9081723268806309
297,,0.0,0.0,1.6366497476991058,1.608967709587001,0.7784587610379683,1.4719592409826832,1.3259263923480091,,,0.6447042257417027,inf,,,0.9391199586734683
298,,0.0,0.0,1.25193372379811,1.2265125011422031,0.7589649750685221,1.7251345322155462,1.4731272289693769,,,0.6153451465759925,inf,,,0.9443902300832621
299,,0.0,0.0,1.622981555654679,1.6101759600707015,0.5849617930744413,1.843321739586872,1.5742414946761876,,,0.6284777104787076,inf,,,0.8438403784247789
300,,0.0,0.0,1.7173635006682102,1.7126153189951323,0.9069929041843112,1.258676393183615,1.0547562759073372,,,0.6097226960127671,inf,,,0.922602078263023
301,,0.0,0.0,1.747627829719703,1.6411462143732471,0.9249002106997022,1.6127036123509166,1.2153969981612245,,,0.6333676938231112,inf,,,0.924598613532251
302,,0.0,0.0,1.7351961239751181,1.7643475405578932,0.8737396556647362,1.6891323938370102,1.3608409862041868,,,0.6233814453054027,inf,,,0.9419597417642684
303,,0.0,0.0,1.5637576322383895,1.531343941446798,0.8174849802134907,1.519698900618743,1.3541117536690799,,,0.6380535849069913,inf,,,0.9192150070442628
304,,0.0,0.0,1.6462003621901515,1.6549863588070608,0.865889153777574,1.7046702982394728,1.163726306222132,,,0.6233814453054027,inf,,,0.9211055850505481
305,,0.0,0.0,1.4541669978597929,1.4406626550032693,0.8119601619860088,1.9472804789023093,1.8590337824803773,,,0.6284777104787076,inf,,,0.9502249001204683
306,,0.0,0.0,1.724520240258777,1.714882406926607,0.8923670510919153,1.705728179174891,1.524993956124002,,,0.6333676938231112,inf,,,0.9342548956496514
307,,0.0,0.0,1.7749743137448686,1.7403524210464714,0.9076718415796917,1.922990053439434,1.6980744107233088,,,0.6447042257417027,inf,,,0.9317611753503263
308,,0.0,0.0,1.7300338969165052,1.7326014773891376,0.754840191864905,2.048040048481404,1.8184013030683857,,,0.6180765742263259,inf,,,0.9507241278993087
309,,0.0,0.0,1.6858393234043152,1.6735859405690414,0.7620102942811626,1.651492814143896,1.3831676792220569,,,0.6284777104787076,inf,,,0.9526495983789504
310,,0.0,0.0,1.5683130712564315,1.5580205655509816,0.8297995048403671,1.694632833209156,1.3766312344231686,,,0.6233814453054027,inf,,,0.954182905958003
311,,0.0,0.0,1.6669881455232014,1.6219398335879651,0.8234394694609124,1.6317673784164417,1.2604565702812638,,,0.6509067234006624,inf,,,0.9374592047888485
312,,0.0,0.0,1.7073486949740737,1.66511209167782,0.8321172116151132,1.7273458989299433,1.4469376509748548,,,0.6333676938231112,inf,,,0.9302211204864299
313,,0.0,0.0,1.3305610697653019,1.2553552593492276,0.8201376186738547,0.5786306132804867,0.5082644115516427,,,0.6284777104787076,inf,,,0.8946386114832309
314,,0.0,0.0,1.5199264359184217,1.4307322299549958,0.7520713332685631,0.6087273828384459,0.449939055584763,,,0.5978297680564633,inf,,,0.9564823427552179
315,,0.0,0.0,1.4318314379940384,1.4030007176545412,0.7998675322855627,1.0058617113920878,0.687180566976004,,,0.62595550513784,inf,,,0.9450014833157517
316,5.703782474656201,-0.3232143402305181,0.0,1.6214364798279053,1.622508558513141,0.4162793815945903,1.2334899907437067,1.092498187306794,,,0.6380535849069913,8.574351605256187,inf,,0.7283431954878279
317,,0.0,0.0,1.5920410304792267,1.5404390729007524,0.7381836131445801,1.2159688303338398,0.965661966029115,,,0.6153451465759925,inf,,,0.9511106731225077
318,,0.0,0.0,1.7135933180802059,1.683855712195875,0.8422341139038986,0.9841107429128508,0.8883613107531161,,,0.6380535849069913,inf,,,0.9528562888254948
319,,0.0,0.0,1.5498036820670291,1.49901964098745,0.7396626739103209,0.6813734918982586,0.5767809739108647,,,0.6207552362147116,inf,,,0.9567125190619594
320,,0.0,0.0,1.4131535641478596,1.3853225016004393,0.7122535356234329,1.0756401284710764,0.840839881811319,,,0.6068309995095971,inf,,,0.9293590729271999
321,,0.0,0.0,1.7366773973006508,1.7328211766396382,0.8554141034103832,1.4697093608403755,1.319307708727401,,,0.6357360191111145,inf,,,0.9328134568281179
322,,0.0,0.0,1.4177439151070124,1.4241613744612538,0.772715570385548,1.378189557532159,1.3784289180961116,,,0.6284777104787076,inf,,,0.9496001167422659
323,,0.0,0.0,1.4685267847025294,1.45358694803533,0.7990179032446364,1.5313699550505477,1.3565768592927725,,,0.6447042257417027,inf,,,0.9389718949060016
324,,0.0,0.0,1.5694815150932553,1.5447496212601193,0.8218914890996168,1.7316133836826373,1.7836196854600932,,,0.6380535849069913,inf,,,0.9283924217033115
325,,0.0,0.0,1.6543598590108375,1.639208154226737,0.8017175544198423,1.4910203291251842,1.025563539612697,,,0.6619902821573977,inf,,,0.9294704919231311
326,,0.0,0.0,1.4349450683703058,1.405091796764475,0.8560900620562251,1.6002174000015674,1.2348440898598771,,,0.6233814453054027,inf,,,0.9441481582345633
327,,0.0,0.0,1.7016766278186872,1.668230311510075,0.8926995513265473,1.8340367056176594,1.4103657128739342,,,0.6233814453054027,inf,,,0.9226900067503613
328,,0.0,0.0,1.7419099959694284,1.7489969856177163,0.9073970304308852,2.0362287527785865,2.03717670471958,,,0.6284777104787076,inf,,,0.8960011666792063
329,,0.0,0.0,1.7185087160671326,1.6605722068981974,0.9238112402637854,1.828154655727271,1.4270915577323606,,,0.6425374456860184,inf,,,0.9442353149025747
330,,0.0,0.0,1.6594084223503933,1.6166839139341505,0.8799713065734016,2.1511734037524,2.0552532593618844,,,0.6357360191111145,inf,,,0.9281872267686199
331,,0.0,0.0,1.5009849174650753,1.4821353108319968,0.8814339111061836,2.2697450087075297,1.9641759625819577,,,0.6233814453054027,inf,,,0.933824621703911
332,,0.0,0.0,1.4609652762526857,1.4191055100023007,0.7531203707520088,1.9858970417394881,1.7888055195118606,,,0.6309483474627791,inf,,,0.9517130152752674
333,,0.0,0.0,1.61120640369891,1.558800695010331,0.7956722666351062,1.7620686586727026,1.783684387912717,,,0.6684167106117298,inf,,,0.946799622613135
334,,0.0,0.0,1.6229371189457928,1.5989090040488985,0.7457189735669731,0.9232851378989828,1.2804751550060676,,,0.5604843169999094,inf,,,0.9398410250623518
335,,0.0,0.0,1.7234500967282131,1.6977938018674288,0.9436926348694824,0.8319991813007291,1.4323827876947273,,,0.5068466436745385,inf,,,0.8798491649096445
336,,0.0,0.0,1.5735633410603196,1.4988201656226616,0.6204493015709798,1.2260868260155093,1.4193625884692107,,,0.5947193981915972,inf,,,0.7273549963216597
337,,0.0,0.0,1.674356342060218,1.651847588251785,0.8859461566826203,0.8555678103380241,1.6214665490034155,,,0.5641709578113449,inf,,,0.8805969067516854
338,,0.0,0.0,1.1171974909611402,1.094358535750186,0.5483672537337656,1.0899446070647427,1.5150837352621596,,,0.5604843169999094,inf,,,0.9512154696331618
339,5.679880847740342,-0.5299901199413523,-0.019065028673547448,1.2942272071460341,1.228871510493956,0.5206858491934467,1.5078085042609415,1.137359771067564,3.394519579131126,,0.648888643467878,8.006367567650246,3.4011973816621555,inf,0.8216732683643043
340,,0.0,0.0,1.5598990865875269,1.5738813734902688,0.6110693485841855,1.1855877515855957,1.4979840156339024,,,0.5370774965580548,inf,,,0.950192641950223
341,,0.0,0.0,1.4258089050006146,1.3999978176827832,0.9112248592475691,1.1556536456654787,1.6376295975406383,,,0.42445136339222655,inf,,,0.883969366672923
342,,0.0,0.0,1.6453797927435603,1.633697651280255,0.8755529944783642,0.6614822055781081,0.9209071378452164,,,0.4928685327679205,inf,,,0.8579611654737545
343,,0.0,0.0,1.5815988774175376,1.56429368242106,0.9071260558811455,0.910154423552818,1.5353836255762126,,,0.41268473150466,inf,,,0.8003792422336451
344,,0.0,0.0,1.5389919641588192,1.5328771122098896,0.9253412271400046,1.2154495952412097,2.2321451703650528,,,0.4629450596409901,inf,,,0.8572087768111345
345,,0.0,0.0,1.7200344625600594,1.680202448770635,0.9380452228089046,1.7029250709167199,2.808570393132282,,,0.4732203808476458,inf,,,0.8602060240555085
346,,0.0,0.0,1.4532231217191585,1.4418269494943068,0.9216886202527401,1.6784138688937769,3.446543284560702,,,0.43586655696697996,inf,,,0.8641707702933098
347,,0.0,0.0,1.6243100449676413,1.59227372796592,0.9215885952345338,1.5750579022313178,2.434924513882069,,,0.5068466436745385,inf,,,0.8386211109818331
348,,0.0,0.0,1.220891425464332,1.2051807382943793,0.8779635304256821,1.1863696303107352,1.8490078393182847,,,0.44694259446804574,inf,,,0.8231480708505935
349,,0.0,0.0,1.5599514943644075,1.5147674760782337,0.8892922858611918,1.3217389200437326,1.8748060345606046,,,0.5329562494928909,inf,,,0.8734309956458641
350,,0.0,0.0,1.4439741157150852,1.4242149048477817,0.6477676116552255,1.0941923819739374,1.3959903688130677,,,0.5287703885177266,inf,,,0.9031826459394572
351,,0.0,0.0,1.6368212131417397,1.5355928286554676,0.8810179487192903,0.4596131770840537,0.673890680883084,,,0.5604843169999094,inf,,,0.7700919986318894
352,,0.0,0.0,1.5452496167380363,1.5057272411641143,0.8938223736144103,0.6051678178693629,1.0433258893030941,,,0.4576907132971797,inf,,,0.8386449523168777
353,,0.0,0.0,1.7073006602454819,1.6687506056850074,0.9071040421820398,0.5962261933143905,1.0202774698023542,,,0.3943459996787778,inf,,,0.8521825260639835
354,,0.0,0.0,0.870520609439303,0.7676599298547082,0.7385815384626448,0.8547991945078236,1.2075240108889846,,,0.5370774965580548,inf,,,0.8328891160932768
355,,0.0,0.0,1.439997735690626,1.434525438240912,0.8204891596468638,0.9872632652398484,0.9041893288989236,,,0.6068309995095971,inf,,,0.9061744144448656
356,,0.0,0.0,1.610113544342597,1.586012760932251,0.838020851844034,0.3731994239137994,0.5400823499649787,,,0.5022576003740722,inf,,,0.8302552433109748
357,,0.0,0.0,1.6969887938243096,1.6912887548753832,0.8697407334279197,0.3752886622433065,0.5799281196081374,,,0.5748741956352443,inf,,,0.7961361279728624
358,,0.0,0.0,1.1946960262663369,1.1661988388943265,0.784095017961323,0.3536157144415963,0.534394795807542,,,0.5451288209179292,inf,,,0.7981301958671144
359,,0.0,0.0,1.5513466182360751,1.5535240786895093,0.8043838104469863,0.27640797046471066,0.4256838830138603,,,0.5370774965580548,inf,,,0.8179899932036927
360,,0.0,0.0,1.6883145987968107,1.650710944884422,0.9185605171794816,0.2741990586808524,0.39889241560320193,,,0.5567373465730988,inf,,,0.8417504611556154
361,,0.0,0.0,1.6715573869029994,1.6585651221780957,0.8610952289517999,0.15428317209810333,0.24759929438963854,,,0.541134803179459,inf,,,0.797430529826289
362,,0.0,0.0,1.5892257023987373,1.5621637238526038,0.8650816670984927,0.31737417806009205,0.4535501635322625,,,0.5783247308855777,inf,,,0.8559376028018264
363,,0.0,0.0,1.6738350182208572,1.6602991557702813,0.8817744798167101,0.35975877701813463,0.5219119403458077,,,0.5677978065141052,inf,,,0.8548966693036548
364,,0.0,0.0,1.7123650942893722,1.6815434400714155,0.8494479243594927,0.3737507018714038,0.5564406710933756,,,0.5748741956352443,inf,,,0.8536750309408405
365,,0.0,0.0,1.1463064964779464,1.1386459397321855,0.5461574281337324,0.48236740300999176,0.5926039459678618,,,0.5567373465730988,inf,,,0.9405134282425706
366,,0.0,0.0,1.5107574883457993,1.4372161726712818,0.8215477566821655,0.41445787129464634,0.5902659894894876,,,0.5451288209179292,inf,,,0.8744171924421132
367,,0.0,0.0,1.670860201040222,1.6603146474548103,0.8217856313501708,0.22829617842450142,0.3647021370167949,,,0.5490601803369085,inf,,,0.7963757613085121
368,,0.0,0.0,1.6321899257237398,1.6140712794334904,0.8458090561993495,0.19812589683580564,0.31076227205348445,,,0.5287703885177266,inf,,,0.7769364107808263
369,,0.0,0.0,1.5935699727267927,1.5993070094300246,0.8195546627538335,0.18382838519353414,0.27735261587084437,,,0.5287703885177266,inf,,,0.7377884431683978
370,,0.0,0.0,1.6453008441844217,1.6249889079083963,0.8629083475869113,0.21176044541563457,0.3360195463762557,,,0.5748741956352443,inf,,,0.7509679148125186
371,,0.0,0.0,1.7093100089022797,1.6856360458577435,0.8413988702822061,0.1706040165815608,0.2940801543715035,,,0.5451288209179292,inf,,,0.7210577015723435
372,,0.0,0.0,1.475741212499803,1.4340778808109795,0.7811499832924825,0.24331038228112253,0.3808140869079735,,,0.5329562494928909,inf,,,0.7234826999248191
373,,0.0,0.0,1.7234690426692498,1.7276840614284636,0.9107502862082261,0.19420157012958605,0.3002502825017189,,,0.5370774965580548,inf,,,0.7776817762811647
374,,0.0,0.0,1.6789955147013886,1.653961739796218,0.8249080521126413,0.3250830143617148,0.4257351662027323,,,0.5783247308855777,inf,,,0.766264908452321
375,,0.0,0.0,1.674599751853958,1.5989867681837735,0.7072034140148294,0.677439543385129,0.5660252462621188,,,0.5641709578113449,inf,,,0.9155803581136138
376,,0.0,0.0,1.6481741748247871,1.6020510135811334,0.6430644812745144,0.8201060666309921,0.9987303861698146,,,0.6038851895711802,inf,,,0.905452799448859
377,,0.0,0.0,1.4291507428557564,1.4203354951178109,0.7574063577822856,0.6278372506260244,0.779996152743247,,,0.6038851895711802,inf,,,0.8769645045950104
378,,0.0,0.0,1.7613261055709064,1.7267453123120617,0.913667789813105,0.7024943899123243,0.9286889197780381,,,0.5947193981915972,inf,,,0.8687123712344821
379,,0.0,0.0,1.6086596470806025,1.5846203273749395,0.9034850512266513,0.5309064176634425,0.7051751251113407,,,0.5490601803369085,inf,,,0.8630453807136208
380,,0.0,0.0,1.5453261193731018,1.5503268483328392,0.846941512607222,0.4459764045873296,0.6474337609946468,,,0.5202020156036558,inf,,,0.8655055725709861
381,,0.0,0.0,1.7301228297491602,1.7253787465082988,0.8317351240233215,0.44860566284538217,0.5738608753134904,,,0.581717464821069,inf,,,0.8829510090138651
382,,0.0,0.0,1.712917001873428,1.706599496023733,0.8678340240844038,0.3480212556755426,0.4591280815806043,,,0.585052858160615,inf,,,0.7731836284708331
383,,0.0,0.0,1.5316519736754057,1.510707618636262,0.7898736411431961,0.31472328504397135,0.43135091323273783,,,0.6008849035917525,inf,,,0.8006159273230223
384,,0.0,0.0,1.6604333201199972,1.6795694686208595,0.8445084743145288,0.27839797174041525,0.42387086777489824,,,0.5329562494928909,inf,,,0.7371632028628932
385,,0.0,0.0,1.7149022930721678,1.7004672374100025,0.30322905447125764,0.3055087530910891,0.4297325909861483,,,0.5451288209179292,inf,,,0.9330923457922252
386,,0.0,0.0,1.592201553732838,1.5588581053564436,0.7842744904355673,1.007837594267398,1.3420462455287958,,,0.581717464821069,inf,,,0.8418093850060323
387,,0.0,0.0,1.7014991399623645,1.6850227969495155,0.870891695409643,1.0113020935377288,1.3600848099966434,,,0.5883313578629602,inf,,,0.8285576998556191
388,,0.0,0.0,1.689874924498055,1.695955061294468,0.8627893664846358,0.9486859039458905,1.3206726355782954,,,0.541134803179459,inf,,,0.8547517061313411
389,,0.0,0.0,1.5937668599079309,1.5604617359994433,0.8320754120242025,0.9867422875166076,1.4501755855637901,,,0.62595550513784,inf,,,0.8405484744916022
390,,0.0,0.0,1.621913293681053,1.6203257438876497,0.8472838292230552,0.9458971213505694,1.3811577781712399,,,0.5329562494928909,inf,,,0.7914296742860382
391,,0.0,0.0,1.6761018012000557,1.6801550091310986,0.8702558071045995,1.0995448601188231,1.365036711986755,,,0.5783247308855777,inf,,,0.8114475562937236
392,,0.0,0.0,1.5535928724484063,1.529857520550094,0.850681755347846,0.8793922554130461,1.2591020626034592,,,0.5748741956352443,inf,,,0.8350988144990439
393,,0.0,0.0,1.6313207878578204,1.5733846325406942,0.7994310906707147,1.3001983573475684,1.3446032413440114,,,0.5604843169999094,inf,,,0.8927891201046154
394,,0.0,0.0,1.6192443704429846,1.5787665838271379,0.8626290967123027,1.8179588433691298,2.1340070916279643,,,0.5451288209179292,inf,,,0.8683589342829457
395,,0.0,0.0,1.5922824815536194,1.5836721594877003,0.9001413182927955,2.0637643070994485,2.348284941953456,,,0.5202020156036558,inf,,,0.8765403617492324
396,,0.0,0.0,1.2564966577413212,1.2174572207664371,0.7272588134979926,1.8561226802984232,1.9188649537112774,,,0.5287703885177266,inf,,,0.8974076048355752
397,,0.0,0.0,1.6895789756009818,1.6775960107187677,0.8532945903795781,0.8536967413930733,1.152728516892056,,,0.581717464821069,inf,,,0.8899028867923029
398,,0.0,0.0,1.6595397983806057,1.634568706107414,0.8600463149246289,0.6761080495042786,1.0207410734896658,,,0.5748741956352443,inf,,,0.8746262787115231
399,,0.0,0.0,1.4782648676709171,1.4360050843025929,0.7936922150907131,0.7896337446388488,1.062122269260977,,,0.581717464821069,inf,,,0.8615625524951425
400,,0.0,0.0,1.6987582066647349,1.6882406335632467,0.8173204964576272,0.8674539188966922,1.135100859534845,,,0.5748741956352443,inf,,,0.8961705167133714
401,,0.0,0.0,1.648607716831446,1.6209074456593242,0.8643188440038904,0.5835298047783695,0.8092222243172407,,,0.541134803179459,inf,,,0.853837962362215
402,,0.0,0.0,1.4474900473831163,1.3940132401529672,0.8377686650608333,0.8592545707738574,1.07090771520163,,,0.5713653840954815,inf,,,0.894608628490868
403,,0.0,0.0,1.6695592473238503,1.6287918514848423,0.8906110870218861,0.5583906068338743,0.7701319374756846,,,0.585052858160615,inf,,,0.7788950061554465
404,,0.0,0.0,1.6052357477509325,1.560413653910351,0.8891014380875812,0.7550206278097324,0.9817848349328042,,,0.5567373465730988,inf,,,0.8160431793892573
405,,0.0,0.0,1.5904624388836144,1.5567132463480726,0.8813040519267344,0.6398444531563747,0.868808917308632,,,0.585052858160615,inf,,,0.7725794486318541
406,,0.0,0.0,1.6511750557422415,1.647130208670655,0.6642717136793956,0.5851516895770442,0.7922051803653866,,,0.4880666971167561,inf,,,0.9030760995270322
407,,0.0,0.0,1.4333818351289525,1.4178858783879054,0.7142907877617941,0.5139426275346725,0.7411130873886645,,,0.5713653840954815,inf,,,0.8869309289063534
408,,0.0,0.0,1.6508112149286265,1.6174685295557345,0.7983876856786987,0.44569504575611163,0.715357147416894,,,0.5202020156036558,inf,,,0.8153657162376252
409,,0.0,0.0,1.6580349393061975,1.6510051905017271,0.8287326097259294,0.5274427714712694,0.7377779416403166,,,0.4928685327679205,inf,,,0.815892556794701
410,,0.0,0.0,1.3595114464339328,1.3493573501043192,0.7372125503072108,0.6928582442547834,0.8562734073044355,,,0.6038851895711802,inf,,,0.856162667447226
411,,0.0,0.0,1.4501218765418475,1.4395999421176124,0.7735315448166148,0.8544180837768254,1.107422700815726,,,0.5451288209179292,inf,,,0.8478799283323979
412,,0.0,0.0,1.6429279486411095,1.6348220267830023,0.7415747331416173,0.6734232498653506,0.9686446527986392,,,0.4880666971167561,inf,,,0.8161289419230796
413,,0.0,0.0,1.6727200407013942,1.631910291294076,0.8124739108723906,0.8600768617008527,1.2946904359156197,,,0.5370774965580548,inf,,,0.8703453837297743
414,,0.0,0.0,1.57972569212856,1.5348660932562797,0.5141844122364274,0.6774071495480304,0.9158897491292475,,,0.524519217297268,inf,,,0.9103766147360517
415,,0.0,0.0,1.658126032152807,1.6713471180198944,0.8257856190569509,0.7282191860189237,0.9751003406423943,,,0.585052858160615,inf,,,0.8055008250970818
416,,0.0,0.0,1.5549443380987171,1.5319091256460788,0.7770883381991399,0.6612817828498306,0.9185908680172205,,,0.5677978065141052,inf,,,0.8151272672644584
417,,0.0,0.0,1.7254180652394364,1.7311470939592895,0.4902168095866689,0.7426586724918167,1.0137897794541935,,,0.5567373465730988,inf,,,0.6331734722011251
418,,0.0,0.0,1.6411159244710718,1.631536292818016,0.8341207694144975,0.6863751861717512,0.9861522431812336,,,0.5783247308855777,inf,,,0.8424343973564972
419,,0.0,0.0,1.6520613087468463,1.5865898363214872,0.5807888036921368,1.256354858284022,0.9478821602834364,,,0.6284777104787076,inf,,,0.8014916959159448
420,,0.0,0.0,1.669482358676639,1.5912329489178556,0.38490143973267144,0.7788997546975386,0.8341743008121143,,,0.5604843169999094,inf,,,0.7390094059301684
421,,0.0,0.0,0.7604354827794624,0.6535611961954341,0.4735317877749335,0.7580879538314342,0.8028818613812183,,,0.6097226960127671,inf,,,0.9491830767179227
422,,0.0,0.0,1.716459747659049,1.7056341309560066,0.8189171508836535,1.0090755640692681,0.9604089336860242,,,0.6068309995095971,inf,,,0.8668841451619449
423,,0.0,0.0,1.5057144563655047,1.4720478537901907,0.7761718019052188,0.893149124748289,1.1379270575294569,,,0.6038851895711802,inf,,,0.8806659938124161
424,,0.0,0.0,1.5212391186012442,1.5313334081231758,0.7121167057109382,1.0801541935173187,1.2066901578680453,,,0.6180765742263259,inf,,,0.9119778148231802
425,,0.0,0.0,1.5671432990855882,1.5485064744108838,0.8621952321087561,0.7489801205553263,0.9841430369794015,,,0.5370774965580548,inf,,,0.8765027089616343
426,,0.0,0.0,1.605630890289277,1.6039752106171679,0.8853604816346761,0.8419376214971946,1.2425990729029064,,,0.5158180382284114,inf,,,0.8660752130896305
427,,0.0,0.0,1.6303786781409528,1.58610513494404,0.8812369661582312,0.7367348667230249,0.9996722845644626,,,0.45235697871908603,inf,,,0.8468570727827861
428,,0.0,0.0,1.69648216600062,1.6704071602216657,0.8643077850844207,0.6392390412111304,0.9937560725610795,,,0.5451288209179292,inf,,,0.8452083064188094
429,,0.0,0.0,1.6856931315478418,1.6545201069906763,0.8973368818920483,0.8626623408729631,1.1000001688019858,,,0.581717464821069,inf,,,0.8756696979010334
430,,0.0,0.0,1.744093471737319,1.706826126865201,0.887676455213764,1.0550221272577143,1.6144816007686809,,,0.5202020156036558,inf,,,0.7980345125198534
431,5.524565713142603,-4.843202608521682,0.0,1.4015378416588011,1.3258643430275034,0.6809998134368405,1.8719177129519562,1.9780431574942865,,,0.6153451465759925,5.605446573935339,inf,,0.886086738876218
432,4.397868391689966,-4.397868391689966,0.0,1.442511076832208,1.4237689379275478,0.8631049495311011,3.8901943031237454,3.446552818129981,,,0.6097226960127671,4.321663484946791,inf,,0.8819591304674451
433,3.99126992988854,-3.99126992988854,0.0,1.5077642281557133,1.4918356296804043,0.876070740643589,4.295457970833821,4.276170752368967,,,0.6309483474627791,3.968005640179083,inf,,0.9413807190151302
434,4.438352657859143,-4.438352657859143,0.0,1.4914142447571836,1.3996451635882727,0.8228643970686766,1.643421412280336,1.155803517983251,,,0.6284777104787076,4.30836320575931,inf,,0.8839762897570264
435,,0.0,0.0,1.6290495092247674,1.6095488698160363,0.7239951719519372,0.6570547353814326,0.8925745108503207,,,0.5748741956352443,inf,,,0.9057935642295003
436,,0.0,0.0,1.7162461209150779,1.695407785892202,0.622239039018849,0.7263470003098708,0.8968513460402242,,,0.552929491858785,inf,,,0.9242047945780472
437,5.703782474656201,-1.0647060619358242,0.0,1.5582512874683114,1.377985971641632,0.6800566794848505,1.7349898699024984,1.1154682986745692,,,0.6097226960127671,7.382213258577253,inf,,0.7716315911495639
438,,0.0,0.0,1.5968813208091746,1.5682955689446851,0.8735832621984344,1.5585043438112296,1.2817943183388607,,,0.6008849035917525,inf,,,0.9213821077980712
439,,0.0,0.0,1.5884412359300377,1.5798531392294206,0.7077175067407623,0.7582968706299328,0.6476659624281099,,,0.6153451465759925,inf,,,0.9414814379182391
440,,0.0,0.0,1.007064757713235,0.9593524040719815,0.6782526804887609,0.5712919814682194,0.4509854477745283,,,0.47824363442641393,inf,,,0.8306697885430181
441,,0.0,0.0,1.6535761001427913,1.6063825992006608,0.8611454322548756,1.1737809637114607,0.9920708651480963,,,0.6333676938231112,inf,,,0.9207483478006177
442,,0.0,0.0,1.724208717364919,1.723483250039988,0.9097745033210825,1.1998245217746502,0.9218095285996288,,,0.6602640781246099,inf,,,0.9542332429529453
443,,0.0,0.0,1.5745762006465542,1.5366038159793172,0.8204448615207918,1.3931389347883176,1.0746358054184626,,,0.6284777104787076,inf,,,0.914497759089603
444,,0.0,0.0,1.670467081446999,1.6357101754941568,0.866245243036537,1.3913371279859206,1.1779553287166165,,,0.6380535849069913,inf,,,0.8879151037862919
445,,0.0,0.0,1.6717601374482263,1.648130630332619,0.870433794586911,0.7262287439752698,0.5845059557888399,,,0.6333676938231112,inf,,,0.9311768706745746
446,,0.0,0.0,1.7266081949731622,1.683896478983118,0.917463088705968,1.346174441694891,1.1757069390994883,,,0.6652988471865258,inf,,,0.9514893698301775
447,,0.0,0.0,1.6436829888081417,1.6136477418596626,0.8509008192093686,1.2716587534815114,1.119831253023395,,,0.6097226960127671,inf,,,0.9545439632074294
448,,0.0,0.0,1.779794905484497,1.7587184536930933,0.8746211278563615,1.0991946016603789,0.9654763548238767,,,0.6333676938231112,inf,,,0.9394878372478264
449,,0.0,0.0,1.6282767091344685,1.610860997141882,0.795605112746644,1.6702920073579548,1.3421134919034008,,,0.6447042257417027,inf,,,0.9491888950214848
450,,0.0,0.0,1.6149633398210466,1.6218170673227887,0.7260725724078226,1.9821745956695414,1.6715095895035288,,,0.6207552362147116,inf,,,0.9113718191475514
451,,0.0,0.0,1.7460953830614914,1.7195222434296504,0.8678408192363977,1.4913653425094406,1.059079089858107,,,0.6380535849069913,inf,,,0.8803824053044025
452,,0.0,0.0,1.585427748968736,1.5541209824580744,0.8298313486634357,1.175458683150275,0.7898224069582833,,,0.6403206450210053,inf,,,0.9337024336830939
453,,0.0,0.0,1.433373277493512,1.425259091975458,0.793083691481464,2.091037167520879,1.0375327006814357,,,0.6180765742263259,inf,,,0.947749509788199
454,,0.0,0.0,1.5214034299682593,1.5027598872105008,0.8049701641706201,1.9365932854016605,1.299852059803193,,,0.6509067234006624,inf,,,0.9043556923684928
455,,0.0,0.0,1.6162170596987218,1.622735495269216,0.8483298335987604,1.4989692436145654,1.2020954974033655,,,0.6403206450210053,inf,,,0.9441730852265948
456,,0.0,0.0,1.580126567530628,1.5462514145864037,0.8019039738964607,1.5770304985754053,1.2513086073193305,,,0.6333676938231112,inf,,,0.9367304378080364
457,,0.0,0.0,1.6877789689373253,1.6547670877233778,0.8309069491946312,2.0356457655648064,1.7722156172120842,,,0.6180765742263259,inf,,,0.9479368253847882
458,,0.0,0.0,1.6069314934435948,1.595924902900465,0.8734128520486862,1.324006374338488,1.0942040115851326,,,0.6447042257417027,inf,,,0.940681084263651
459,,0.0,0.0,1.7650703969131796,1.702909076354394,0.8267930752018949,1.082476552821277,0.7656112958191361,,,0.6333676938231112,inf,,,0.9124345767111613
460,,0.0,0.0,1.6539403682747722,1.6066080316287379,0.8528037243421324,0.9018996389915408,0.8095238572680509,,,0.6180765742263259,inf,,,0.8521380513110811
461,,0.0,0.0,1.7727020806225096,1.7693611465415768,0.832191750854806,1.4124824972500456,0.9052789432936077,,,0.6125606311107803,inf,,,0.9490513583809425
462,,0.0,0.0,1.6239014166946424,1.6275452791559324,0.6785568119233737,2.2743518721679026,1.6285908942155443,,,0.6403206450210053,inf,,,0.9448397497470634
463,,0.0,0.0,1.7252751751897688,1.7156657860612234,0.6789745637212322,1.9392963953866291,1.5238753681397867,,,0.648888643467878,inf,,,0.9562695066710074
464,,0.0,0.0,1.115330594519832,1.0959003799051152,0.6686540744302444,1.3524326734481864,1.1342997785371134,,,0.62595550513784,inf,,,0.9478545593700307
465,,0.0,0.0,1.3411448324630064,1.308622306329379,0.7994088986434644,1.3701420774616715,1.1894011816750911,,,0.6333676938231112,inf,,,0.947597641207412
466,,0.0,0.0,1.3934434007948509,1.3986862828163567,0.47157710508764833,1.8160093771567005,1.4878081493966928,,,0.6153451465759925,inf,,,0.7223487211808869
467,5.346706654367742,-1.1762754639609034,0.0,1.6813591038786702,1.6271468005878766,0.6515061719982509,2.0554198622825886,1.5927389961666822,,,0.6425374456860184,6.802394763324311,inf,,0.7049978918547609
468,,0.0,0.0,1.1013551286378278,1.0692617264471815,0.6235858983725723,1.6720654539368947,1.099828021037172,,,0.6403206450210053,inf,,,0.9543500148075155
469,,0.0,0.0,1.7131953662784563,1.6801334097673641,0.7547282825913905,1.4831284097532083,1.234373662673845,,,0.6468212168108125,inf,,,0.7574132586745352
470,,0.0,0.0,1.4186018597804468,1.3715060678052584,0.8303006743911056,1.6166397591651893,1.285027474171994,,,0.6233814453054027,inf,,,0.9522950488255725
471,,0.0,0.0,1.7090782788764405,1.7029605345143892,0.904095764163179,1.8005178752284965,1.25410018998147,,,0.6403206450210053,inf,,,0.9449462458790007
472,,0.0,0.0,1.6611356672983726,1.5815577706317192,0.8751011716839215,1.7407692423595054,1.432198315893432,,,0.62595550513784,inf,,,0.9474057235870864
473,,0.0,0.0,1.6847740798032944,1.6409865984275305,0.6261116357506091,1.6728450516914433,1.2934891688158194,,,0.6309483474627791,inf,,,0.6477222521761217
474,,0.0,0.0,1.4198776805024433,1.4007616944114405,0.7704852102711017,1.106182552702158,0.7802249041288432,,,0.6468212168108125,inf,,,0.9488479203334914
475,,0.0,0.0,1.6247167459174126,1.5848175584306055,0.8059743783958381,1.1038468308444007,0.8563588705401664,,,0.6333676938231112,inf,,,0.9427475727797503
476,,0.0,0.0,1.7710639569624045,1.7624241357963237,0.8346838189485926,1.7739692705525452,1.4670769281788587,,,0.5947193981915972,inf,,,0.9481375832801449
477,,0.0,0.0,1.5868688276553657,1.5410601400210624,0.8782999876325298,1.5398281994924814,1.1566707549851651,,,0.663668482632973,inf,,,0.9507194608828597
478,,0.0,0.0,1.6896191005708632,1.6595456704515836,0.7999657680397595,1.7801564990260506,1.2358232497024197,,,0.6380535849069913,inf,,,0.9173639275587769
479,,0.0,0.0,1.0022377551353545,0.9893557199528922,0.6937263815387836,1.902080695389042,1.5384863613498867,,,0.6566669596287297,inf,,,0.9167306534422286
480,,0.0,0.0,1.6497873968433145,1.5977004479826376,0.8448901777798181,1.768671876444443,1.312959742530191,,,0.6425374456860184,inf,,,0.9580584401398169
481,,0.0,0.0,1.618628381373789,1.5890531274683186,0.8719595519417138,0.7277520973213658,0.646920731647217,,,0.6097226960127671,inf,,,0.9441743242850735
482,,0.0,0.0,1.3877254351527586,1.3313727365689307,0.8214860398898696,0.846707427467392,0.6791453626924253,,,0.6309483474627791,inf,,,0.8937885710237939
483,,0.0,0.0,1.735881670813482,1.7083461507798756,0.9194349096292804,1.5735883787690774,1.3336811621147187,,,0.6652988471865258,inf,,,0.9181994948216119
484,,0.0,0.0,1.532937038987729,1.521799742052695,0.780585636216913,1.5832154055704255,1.1764026934545357,,,0.6038851895711802,inf,,,0.9483824778023052
485,,0.0,0.0,1.5270524630961344,1.4308186791342765,0.7874251762827117,1.0804672234526016,0.8002317471699008,,,0.6357360191111145,inf,,,0.9539921673246535
486,,0.0,0.0,1.723179484155306,1.6882716096077324,0.841982115795043,2.420828744114018,2.2629072385202593,,,0.6425374456860184,inf,,,0.9495556735167685
487,,0.0,0.0,1.5373497212884195,1.5459050848163152,0.8047342484923787,1.3050284884088008,1.0319001949898112,,,0.6425374456860184,inf,,,0.954623088784949
488,,0.0,0.0,1.669911584393574,1.635419011686984,0.9084502216662256,1.6401556208036376,1.4021106470959561,,,0.6566669596287297,inf,,,0.9529731534293284
489,,0.0,0.0,1.5945038525634492,1.5936199824884927,0.8938139130335265,2.3286331943290497,1.6547819871063782,,,0.6403206450210053,inf,,,0.9446345856880181
490,,0.0,0.0,1.7090539558848232,1.7028526666648154,0.7569509570971062,1.2386588630264417,0.8631483278678589,,,0.6619902821573977,inf,,,0.9392751088454024
491,,0.0,0.0,1.4022388695183483,1.4076773348155347,0.4495594201420945,0.7661864706773165,0.656677733850001,,,0.6309483474627791,inf,,,0.8951084997197201
492,,0.0,0.0,1.694408439111482,1.6642607736156116,0.8375539669091083,1.9154749742831945,1.5886947646344354,,,0.6584896970785714,inf,,,0.8980105913908958
493,,0.0,0.0,1.7281506319733535,1.6947148121099795,0.8627581098310205,1.3570852813125174,1.160049587750953,,,0.6380535849069913,inf,,,0.9067846625134912
494,,0.0,0.0,1.130517273932364,1.110915462908647,0.7103869463610433,1.6804211641774525,1.2663908014310243,,,0.6602640781246099,inf,,,0.9488280227642335
495,,0.0,0.0,1.3473868687785329,1.3064085423945546,0.7689406239797602,1.9433632399090874,1.5919779698010015,,,0.6284777104787076,inf,,,0.9571673455713536
496,,0.0,0.0,1.7410831944693532,1.7133477357499511,0.7802357411242454,1.0453344536818168,0.7219191378671461,,,0.6380535849069913,inf,,,0.949932144280855
497,,0.0,0.0,1.6493890108478633,1.6214633229294533,0.8512865306610484,1.8272179777218456,1.4152635895155676,,,0.6357360191111145,inf,,,0.9315772394915638
498,,0.0,0.0,1.6852730053425435,1.683154393223942,0.7343159520195568,1.667599464225523,1.2019795234824933,,,0.6403206450210053,inf,,,0.9310795278466844
499,,0.0,0.0,1.6701350231405412,1.6894650216759353,0.7932100564926894,1.9587975535873494,1.312909442706351,,,0.6180765742263259,inf,,,0.9528434568217972
500,,0.0,0.0,1.4915839402757691,1.4668165504285204,0.7930082184570233,0.9587705310020798,0.7997920460479646,,,0.6528756675646988,inf,,,0.954648927037847
501,,0.0,0.0,1.549683705660185,1.469306326577729,0.7833463512140033,1.2968498880281576,0.8065634999050302,,,0.6333676938231112,inf,,,0.9416487194219385
502,,0.0,0.0,1.6988315718042966,1.6457951521302878,0.776620092693213,1.0419319455046259,0.7595348262771322,,,0.6097226960127671,inf,,,0.9363673598746524
503,,0.0,0.0,1.5389535491521398,1.5067961047936327,0.7623145857137333,0.8847404185628037,0.7217486126113586,,,0.6180765742263259,inf,,,0.9528848493787876
504,,0.0,0.0,1.3598563982880318,1.3422731518759707,0.7694421939382714,1.3504698168580873,0.929350941191714,,,0.6713451011121618,inf,,,0.9169579099253305
505,,0.0,0.0,1.0306813807802808,1.0246755886149277,0.6664457298490152,1.2200012913546943,0.8385889014283339,,,0.6180765742263259,inf,,,0.9426519049799805
506,,0.0,0.0,1.2172641582018855,1.179259292872059,0.7413436363474954,1.993001090069271,1.5774549656160446,,,0.6447042257417027,inf,,,0.9596205456222442
507,,0.0,0.0,1.107135403363747,1.1056886769000538,0.6894455257018052,0.7024446528012073,0.6907973093798463,,,0.6357360191111145,inf,,,0.8953151404297616
508,,0.0,0.0,1.2798655276783546,1.2691714051288,0.4772519787226241,0.98595528310639,0.9096754872935217,,,0.5915533975974677,inf,,,0.921721476059844
509,,0.0,0.0,1.6618131720777385,1.6623826488418663,0.8204486883666984,1.8949864610114628,1.7411516318107463,,,0.6233814453054027,inf,,,0.9405298045649789
510,,0.0,0.0,1.467426664078904,1.399932320154192,0.7044349665473062,1.603967942471527,1.3411109897643843,,,0.62595550513784,inf,,,0.958070139065225
511,,0.0,0.0,1.7770671459236547,1.7580561232948555,0.8391507048749406,1.7139431638374634,1.4918924025180436,,,0.6357360191111145,inf,,,0.9256169607169912
512,,0.0,0.0,1.4481460203466496,1.4139219688196083,0.7969322968848875,1.6816609397827011,1.5830383215018777,,,0.6309483474627791,inf,,,0.8817922379831159
513,,0.0,0.0,1.475340824459829,1.4373331787175172,0.6495794243304359,1.751397113565083,1.5851898125170252,,,0.6333676938231112,inf,,,0.8964563857873258
514,,0.0,0.0,1.6679514007203857,1.6313260164405425,0.8457106912599252,1.3277387021689624,1.1080017180756885,,,0.6284777104787076,inf,,,0.9103762172351407
515,,0.0,0.0,1.3815471596861766,1.392333378999873,0.7750712949892586,1.7598957109007374,1.357985610255369,,,0.6425374456860184,inf,,,0.9053359458845084
516,,0.0,0.0,1.6560762871186012,1.6445043817848353,0.8232755872821943,1.4950114618676031,1.1472906252214101,,,0.6207552362147116,inf,,,0.8982556461278187
517,,0.0,0.0,1.484098172362489,1.4719449061056071,0.800051601874398,2.2973029473458038,2.0522882540293668,,,0.648888643467878,inf,,,0.9421415938776927
518,,0.0,0.0,1.7096391476657375,1.6584668165263476,0.8606637025472398,1.542636927485118,1.5111289361010847,,,0.6509067234006624,inf,,,0.9410476063179831
519,,0.0,0.0,1.018911837798118,0.9598447381242599,0.6552204992229166,1.3659928534093029,1.1387967348853572,,,0.6284777104787076,inf,,,0.9489025358649036
520,,0.0,0.0,1.6219130303433222,1.6038864951050442,0.7188267406496879,1.7184974667769881,1.4818300288472137,,,0.6333676938231112,inf,,,0.9361433170749257
521,,0.0,0.0,1.2759540022594988,1.2361963643739278,0.809337873856894,2.0913026668604147,1.7175608159942395,,,0.6153451465759925,inf,,,0.9417301097529632
522,,0.0,0.0,1.7627832711356635,1.759136390803296,0.7785455625704306,1.3462300140867078,1.3144912398319786,,,0.5915533975974677,inf,,,0.9466678190445635
523,,0.0,0.0,1.6467090115514875,1.64849750224375,0.6953223341932253,0.975535394850667,0.7809059534130531,,,0.6425374456860184,inf,,,0.9365921473024182
524,,0.0,0.0,1.5101076361298644,1.42688366436751,0.7791580144910908,1.4928309370605326,1.091227713344912,,,0.6284777104787076,inf,,,0.9596623655543621
525,,0.0,0.0,1.6581111933811061,1.6532831934614036,0.7762509343626955,1.787717276159113,1.4893802183364486,,,0.6566669596287297,inf,,,0.9452811183032281
526,5.703782474656203,-0.38025216497708014,0.0,1.7293128458991756,1.7019295084252861,0.6459367539446891,1.7572268590366589,1.4590786478774638,,,0.6380535849069913,8.411832675758411,inf,,0.6417921550925677
527,,0.0,0.0,0.5200861768711514,0.5032289069215311,0.479546057644312,1.2674081230612522,0.7635904204353317,,,0.48319206230712763,inf,,,0.6420102477362071
528,5.703782474656201,-0.05703782474656201,0.0,0.9935080715610011,0.9853427985342649,0.5592019855797622,1.9703728515540342,1.575188194744593,,,0.47824363442641393,10.308952660644293,inf,,0.8140940586147632
529,,0.0,0.0,1.5603972335633778,1.5477942584699782,0.8505919098181286,1.6390834978506192,1.0453156540628048,,,0.6125606311107803,inf,,,0.8970468382765262
530,,0.0,0.0,1.6910845091144613,1.6405180868973508,0.7547534354721107,1.6343885678532633,1.3131967417078878,,,0.6380535849069913,inf,,,0.9506364287890858
531,,0.0,0.0,1.6361815637615087,1.6129800313292848,0.8151204875884861,1.350529700746473,1.027910303612841,,,0.5978297680564633,inf,,,0.948958525453968
532,,0.0,0.0,1.6236636119252965,1.5955984923690212,0.8360074748185985,1.5571842200600612,1.3027434547174768,,,0.6357360191111145,inf,,,0.9326317301501628
533,5.530495679516212,-0.9586192511161435,0.0,1.2601992431111815,1.2328426730430293,0.6439131658314833,1.3739787126553686,0.9060092163807374,,,0.6403206450210053,7.233177679416765,inf,,0.8044799454245822
534,5.703782474656201,-0.20913869073739402,0.0,0.9864300530432386,0.8526010264731138,0.5001543569223464,0.9801140125703062,0.661630989152835,,,0.6038851895711802,9.009669676514031,inf,,0.8501441346489581
535,5.703782474656201,-0.4753152062213501,0.0,1.5128783960753287,1.3930919993352995,0.637791959129808,1.1510697136354946,0.8126587339206879,,,0.6447042257417027,8.1886891244442,inf,,0.9289480962137022
536,,0.0,0.0,1.7458496511172008,1.6976085446828393,0.8110984111106482,1.660289879915978,1.3037709377137683,,,0.6333676938231112,inf,,,0.9517868356250374
537,,0.0,0.0,1.2925524234446963,1.2919983931372518,0.6957173954068803,1.6471334142126697,1.1106961754857372,,,0.6284777104787076,inf,,,0.9532823427163805
538,,0.0,0.0,1.516584540012575,1.476854050776301,0.7375214584849984,1.355886124532965,0.9072776980045321,,,0.6333676938231112,inf,,,0.933718834464361
539,,0.0,0.0,1.2777507548326417,1.2656666493459277,0.6467369700361791,0.816242649916401,0.6569396519980903,,,0.5978297680564633,inf,,,0.954692900884482
540,,0.0,0.0,1.5353233964537272,1.5337593186910534,0.7538432352208045,0.9635389671551073,0.7289580542867911,,,0.6068309995095971,inf,,,0.9551060994850582
541,,0.0,0.0,1.6408629548257216,1.6301871807875996,0.7412887091772669,1.3969923107818059,1.0281653767670325,,,0.6447042257417027,inf,,,0.9372295906124104
542,,0.0,0.0,1.3489999708390419,1.3290661807606485,0.7321364209076026,0.3863239631484779,0.3653453628645988,,,0.6038851895711802,inf,,,0.9401978186832751
543,,0.0,0.0,0.8212171265500288,0.8025819122306014,0.5440975039258561,0.3886479960607758,0.28856501760756237,,,0.6008849035917525,inf,,,0.9474423158877588
544,5.7037824746562,-1.1027312784335321,0.0,1.6496990482679035,1.6172449984323103,0.4916462434927011,1.6041940385632292,1.1201900507244082,,,0.6425374456860184,7.347121938765983,inf,,0.7035383599181341
545,5.703782474656203,-1.9012608248854008,0.0,1.7008603224528707,1.6699850663935067,0.5833676339758775,1.9050038794740147,1.0771556636110862,,,0.6284777104787076,6.802394763324311,inf,,0.6950514982610062
546,,0.0,0.0,1.6773464972093344,1.6008138161293062,0.5126577764613937,1.2625663303008337,0.7514464507403287,,,0.6008849035917525,inf,,,0.7257782692788995
547,,0.0,0.0,1.5849311204178416,1.4876825964705906,0.7447525432514576,1.7905572416486504,1.2172714169059142,,,0.6309483474627791,inf,,,0.8360210756204367
548,,0.0,0.0,0.8514872632958024,0.8409657979775887,0.6027572528523649,1.36692170718083,0.8662733033789325,,,0.6207552362147116,inf,,,0.8184334790718185
549,5.703782474656202,-3.289181227051743,0.0,1.6080124477476518,1.5323587906932237,0.6473731358633966,1.8899028054831768,1.4165779047084992,,,0.6447042257417027,6.254273354814623,inf,,0.8609829338887917
550,4.8546431057313955,-4.838460962045624,0.0,1.6236891660443606,1.563574579291635,0.6465984981570901,2.616605997893352,1.6161942942839924,,,0.6309483474627791,4.693394419402931,inf,,0.8534803728493613
551,5.526465754047843,-0.7921267580801908,0.0,1.645628013861523,1.6328671679148046,0.7182429926453331,2.323804180123247,1.4855593513960228,,,0.6447042257417027,7.418580902748128,inf,,0.9438143277192231
552,,0.0,0.0,1.6296914032163892,1.5811994634476367,0.8449009445005249,1.8049233752981038,1.2921608770702127,,,0.6233814453054027,inf,,,0.9213219077157803
553,5.0980232680081325,-4.231359312446751,0.0,1.4725835472454418,1.4053662714710002,0.669258829995819,2.5888351353360064,1.7839541326740473,,,0.6447042257417027,5.179053945721219,inf,,0.7619400199015276
554,,0.0,0.0,1.5465758388284185,1.5009409509611087,0.7337540014718461,1.8469869849913814,1.7061995531075778,,,0.6333676938231112,inf,,,0.917335876543949
555,,0.0,0.0,1.6852660789390703,1.670195745613733,0.7595486236005895,1.8315089823478001,1.5517860329271067,,,0.6425374456860184,inf,,,0.6941188598018395
556,,0.0,0.0,1.709655887173585,1.7130568461272082,0.7839869369688914,1.8229995140337516,1.4604124183856568,,,0.6602640781246099,inf,,,0.9597392141545942
557,,0.0,0.0,1.641450387844626,1.610004793918608,0.7758154153159724,1.8284440767744192,1.2506684504415297,,,0.6233814453054027,inf,,,0.7739203963223287
558,,0.0,0.0,1.5137988676662886,1.4671227007316157,0.8474605512674551,1.7226770269377893,1.0620221607095877,,,0.6509067234006624,inf,,,0.9554211767689416
559,,0.0,0.0,1.6203318127699204,1.5967395596890916,0.843310638765251,1.5666611853988075,1.2850984798793992,,,0.6333676938231112,inf,,,0.8895988851351958
560,,0.0,0.0,1.6768947815472672,1.6865387116265251,0.7224614266139314,1.5672905213418202,1.2234169854442292,,,0.648888643467878,inf,,,0.9117930441483544
561,,0.0,0.0,1.7096175240819322,1.6924821441912083,0.8303740539692885,1.2879705509861494,1.1414356994188124,,,0.6180765742263259,inf,,,0.9450259976065192
562,,0.0,0.0,1.6215755743320048,1.6077903331360572,0.8968172475286122,1.4714150692037065,1.5171582414055984,,,0.6207552362147116,inf,,,0.9198234560532409
563,,0.0,0.0,1.3034877226700985,1.2796143058163656,0.7293906044895304,2.588402950992601,2.7022873030199044,,,0.6468212168108125,inf,,,0.9489158463702224
564,,0.0,0.0,1.6174869399414193,1.6261061221124258,0.867184785723159,2.742286826533743,2.697951300401474,,,0.6403206450210053,inf,,,0.7882450395417995
565,,0.0,0.0,1.2661893514623048,1.2573290049566115,0.7522852059929968,2.0186348372855276,1.5925996209688313,,,0.6097226960127671,inf,,,0.9188358255919863
566,,0.0,0.0,1.416200935168839,1.365182717080899,0.8007693040697537,3.0388074645631833,2.540325463532559,,,0.6284777104787076,inf,,,0.9358360286416053
567,,0.0,0.0,1.3738742838153044,1.3515887449099533,0.7460565770998036,2.74762188973131,2.0826936899650854,,,0.6566669596287297,inf,,,0.9328268977567791
568,5.703782474656202,-0.3612395567282261,0.0,1.4426882732122635,1.4170311374687374,0.6701061138196135,2.4585425182235188,1.69637076772397,,,0.648888643467878,8.463125970145962,inf,,0.901261731877081
569,5.703782474656202,-0.7224791134564522,0.0,1.7015196153469039,1.7151875108434922,0.7320339315667092,2.51780631869811,2.299686397257668,,,0.6357360191111145,7.769978789586016,inf,,0.737912419734696
570,5.703782474656201,-0.6084034639633281,0.0,1.6866496987275437,1.6311677343553626,0.5619987166359525,1.5497361614501615,0.8997449877222305,,,0.6309483474627791,7.941829046512676,inf,,0.7324648695875011
571,,0.0,0.0,1.691666196709809,1.681884015443147,0.7530393091877733,0.788029754854706,0.5871656668568778,,,0.581717464821069,inf,,,0.9474685138537741
572,,0.0,0.0,1.5918743635720591,1.5705865717618595,0.8069454237728293,0.8680823355494007,0.6721431736940576,,,0.6447042257417027,inf,,,0.9479219101276897
573,,0.0,0.0,1.7390139735164576,1.7169821365867248,0.6767462968026661,0.9684908116819351,0.6257452797727131,,,0.6097226960127671,inf,,,0.9516477590311239
574,,0.0,0.0,1.6887194440509758,1.6887447200677008,0.6758008741553931,0.7385003496981998,0.7088038204429135,,,0.585052858160615,inf,,,0.9387025396627023
575,,0.0,0.0,1.531378338880635,1.5157608313711304,0.7513132618102425,0.9343292250351801,0.8070943290379733,,,0.6619902821573977,inf,,,0.942595848185424
576,,0.0,0.0,1.5339910265892982,1.5332455613554914,0.7370647166043027,0.7304492111847729,0.5162873674252636,,,0.6284777104787076,inf,,,0.8303278110337109
577,,0.0,0.0,1.6814680929109582,1.6847806059212413,0.7692453996789264,0.8096368547218311,0.785399011269556,,,0.585052858160615,inf,,,0.602883850559185
578,,0.0,0.0,1.613050370076572,1.5676116911378903,0.7678901332018737,1.1040283836251414,0.7768485381593995,,,0.6097226960127671,inf,,,0.7537982501269287
579,,0.0,0.0,1.5381734482283076,1.4592320247514707,0.6720723208316575,1.1118234832501994,0.6806687022409377,,,0.6309483474627791,inf,,,0.7488020833260839
580,,0.0,0.0,0.7662152806756642,0.7558465835997304,0.5118788238138441,1.9609970658805098,1.507483796872705,,,0.6468212168108125,inf,,,0.8142823038899271
581,,0.0,0.0,1.4614365779271732,1.440607069716756,0.6819033934319603,1.7923973341303263,1.294549246061497,,,0.6357360191111145,inf,,,0.9411093107220372
582,,0.0,0.0,1.646142246308097,1.6276453394310189,0.6323798626010211,1.287021037436725,0.8142344221087339,,,0.5978297680564633,inf,,,0.925697416935559
583,,0.0,0.0,1.6454385317447415,1.6449485484123942,0.8242085967917123,1.3129317147586603,0.9292716906699465,,,0.6233814453054027,inf,,,0.9448897861060865
584,,0.0,0.0,1.5652124351214725,1.4725162630861064,0.7858431637075599,0.8363345548252346,0.4981781621396545,,,0.581717464821069,inf,,,0.7019401548317037
585,,0.0,0.0,1.6664809157805447,1.5865844228003505,0.7748637910792474,1.106277443806245,0.7651021717522941,,,0.6380535849069913,inf,,,0.9486331554634582
586,,0.0,0.0,1.5647673736376213,1.5539875527435945,0.6675529329812818,0.7714068724071917,0.6769329261287205,,,0.5713653840954815,inf,,,0.958760109408745
587,,0.0,0.0,0.7521261918146681,0.7138954945377038,0.5116017253944213,0.8781112152871812,0.5840319802307057,,,0.6284777104787076,inf,,,0.8639385859863021
588,5.703782474656201,-2.4526264641021664,0.0,1.5692549673774319,1.5603540861337781,0.7734378999896626,1.7086371055383838,1.2201851613758152,,,0.6380535849069913,6.54775254495073,inf,,0.6303839230802174
589,,0.0,0.0,1.6505299646579752,1.620758808245917,0.655836362199625,1.0067813158644732,0.6932097089098719,,,0.6403206450210053,inf,,,0.9553486878240848
590,,0.0,0.0,1.6858172287378286,1.682030633477577,0.6870498879961912,0.8724132180949948,0.8029714844715327,,,0.5978297680564633,inf,,,0.9389079891155466
591,,0.0,0.0,1.6485860625397046,1.5993906532324473,0.6153419808125794,0.3589997758383862,0.3202313721511031,,,0.6068309995095971,inf,,,0.9401356787405061
592,,0.0,0.0,1.1551764349033333,1.1145931768539497,0.7004171285602621,0.5752960873062171,0.6048363160434802,,,0.5883313578629602,inf,,,0.8709037722831244
593,,0.0,0.0,0.7380286601705088,0.7002679253553634,0.6154682690498806,1.069631574224887,0.9525056496268647,,,0.5451288209179292,inf,,,0.927810908745798
594,,0.0,0.0,1.286990219208332,1.2637448814925651,0.7757278283213905,0.9858297740634244,0.8604771231969919,,,0.6309483474627791,inf,,,0.9432853819953503
595,,0.0,0.0,1.2436547872899146,1.1912960417303355,0.6436711863161765,1.2143884064005754,1.0575515731223586,,,0.62595550513784,inf,,,0.951993850937079
596,,0.0,0.0,1.4146154460007057,1.3652173688549638,0.705815722865843,1.0792982407595835,0.7799756193423542,,,0.581717464821069,inf,,,0.8096646620682998
597,,0.0,0.0,1.622360384601515,1.6260138848928738,0.8063827579256809,1.270522812661652,1.0514436619845882,,,0.6207552362147116,inf,,,0.9443387335424025
598,,0.0,0.0,1.0247160375852076,0.9912206350926263,0.6026738597567611,0.5810154046981942,0.5511222477429861,,,0.581717464821069,inf,,,0.9127178331561994
599,,0.0,0.0,0.8965180082547513,0.8908998577182362,0.6387126801395221,0.5557235104007997,0.4621576701921165,,,0.5068466436745385,inf,,,0.8904762376449579
600,,0.0,0.0,1.5304183053093783,1.4922558178571033,0.8618193063438289,1.693093712479821,1.2755833860851236,,,0.6233814453054027,inf,,,0.9472431910492228
601,,0.0,0.0,0.862878490310925,0.8244285038814538,0.6227154882028534,0.45068843235850486,0.5869827921079189,,,0.5158180382284114,inf,,,0.8459282212827867
602,,0.0,0.0,1.0580836803208706,1.0465947216048632,0.847596284651688,0.8908883328311495,1.3419156076352596,,,0.4880666971167561,inf,,,0.809192736301726
603,,0.0,0.0,1.0197186941813268,1.023513673737447,0.6471951435307999,1.3416464893960363,1.6421004762683022,,,0.5287703885177266,inf,,,0.759292003401548
604,,0.0,0.0,1.6602215611275444,1.6266911468867438,0.9091178822726912,1.1867475038592845,1.761495536900783,,,0.48319206230712763,inf,,,0.8106635550655689
605,,0.0,0.0,1.0755923351928216,1.0542536199991115,0.7971115484529134,1.2788595949357642,1.7911203865557188,,,0.5748741956352443,inf,,,0.8335958504036409
606,,0.0,0.0,1.7342761063599341,1.7105529614138781,0.6773180916324958,1.3650516927543443,1.5295814579223068,,,0.5677978065141052,inf,,,0.9069401949503453
607,,0.0,0.0,1.6307036479132768,1.5620639399700418,0.7189505578339532,0.5626169658555998,0.6514816697688093,,,0.5641709578113449,inf,,,0.857532945697009
608,,0.0,0.0,1.582762100639918,1.5568468986380286,0.8671464724826272,0.43608743166829034,0.6507060494889467,,,0.4928685327679205,inf,,,0.7627852320513479
609,,0.0,0.0,1.6183263334276883,1.588214827077138,0.880095091753291,0.22165302654727867,0.36657546269313185,,,0.47824363442641393,inf,,,0.7551979495205643
610,,0.0,0.0,1.5003681467503405,1.4895218369382552,0.7768271323268545,0.23433746054036586,0.3648736787933621,,,0.468121228110369,inf,,,0.7640391222721914
611,,0.0,0.0,1.718140508612318,1.6823604810191746,0.7785805139913883,0.40438268767001445,0.5459802763555667,,,0.552929491858785,inf,,,0.893828517313873
612,,0.0,0.0,1.7105220392067126,1.6906048251406256,0.8901722624917823,0.30730686623112013,0.5195277147406985,,,0.4732203808476458,inf,,,0.8335025442384453
613,,0.0,0.0,1.5505242075965289,1.5256908448885764,0.8754074414113494,0.32215873840646414,0.5396883326552544,,,0.524519217297268,inf,,,0.837466233723132
614,,0.0,0.0,1.6372967070074078,1.6259717141559527,0.8626588267637583,0.34680706688457447,0.5304170451252007,,,0.4880666971167561,inf,,,0.8141537634623206
615,,0.0,0.0,1.7112146843835538,1.6640197508569226,0.867459308089078,0.30190521804218096,0.49386888533703655,,,0.5068466436745385,inf,,,0.7919497745354024
616,,0.0,0.0,1.3013721742895874,1.2650155516114743,0.8204420127551619,0.24506005948836332,0.3883940887143713,,,0.5113665138247345,inf,,,0.7637366897700086
617,,0.0,0.0,1.2782842336478828,1.2525266051816004,0.7719532635176966,0.13343717512458508,0.22064575638932066,,,0.5113665138247345,inf,,,0.7675884371569605
618,,0.0,0.0,1.7005327908223287,1.6775356514725783,0.9107164266743811,0.16409381209695637,0.28555464502912553,,,0.5883313578629602,inf,,,0.8160990677951223
619,,0.0,0.0,1.3832152684095016,1.3979877053224516,0.806008289984219,0.22496076725106434,0.40477790152918236,,,0.3943459996787778,inf,,,0.8216157718678178
620,,0.0,0.0,1.701377814254336,1.6776033478032977,0.7499921812044249,0.42815352289210984,0.45797111957000464,,,0.5883313578629602,inf,,,0.8770234698860909
621,,0.0,0.0,1.444918900901545,1.4027059668693311,0.8277254255894269,0.6628813344562647,0.8916537168439629,,,0.49759852643134905,inf,,,0.8194538323595502
622,,0.0,0.0,1.640090795072584,1.6103964514750897,0.9034602707139066,0.7555695979066064,1.188126386583236,,,0.5158180382284114,inf,,,0.8233602629976849
623,,0.0,0.0,1.1235265614890297,1.075352766650512,0.7715937836820899,0.7324777137463582,0.791506273411945,,,0.5158180382284114,inf,,,0.9038098526288887
624,,0.0,0.0,1.634013332509186,1.532193277867883,0.9049548513464456,0.3752372690944935,0.5617569678335772,,,0.524519217297268,inf,,,0.8687918943211204
625,,0.0,0.0,1.6959769878489939,1.64696196770792,0.8749654056337202,1.5248252595039369,1.5790280969342616,,,0.5641709578113449,inf,,,0.9283564879930467
626,,0.0,0.0,1.4719964302676969,1.4399982143527683,0.7291835186480466,0.7089488423776028,0.6616892905856924,,,0.5068466436745385,inf,,,0.8986794301314912
627,,0.0,0.0,1.3997365370578683,1.3780737320315437,0.7888807601484965,0.2451233867604961,0.37838799700687675,,,0.541134803179459,inf,,,0.840280720624671
628,,0.0,0.0,1.5593648756497802,1.5361846391093352,0.5480514556478187,0.314906731309341,0.39607957506204455,,,0.5158180382284114,inf,,,0.9038954227028303
629,,0.0,0.0,1.6763373688123049,1.6469914032671538,0.8776192752369324,0.2190275526442945,0.3853417462297673,,,0.4880666971167561,inf,,,0.6827205593805655
630,,0.0,0.0,1.765130534948266,1.7546840938632484,0.8792105818381349,0.22948810149103685,0.4120567989988925,,,0.4928685327679205,inf,,,0.7503030977115495
631,,0.0,0.0,1.595450066754867,1.6232854013451414,0.8708370816203271,0.23800414317285834,0.4139309468864123,,,0.5202020156036558,inf,,,0.7354685054310468
632,,0.0,0.0,1.585092107030222,1.5537018689328803,0.6830557164203126,0.30412444869949967,0.4033599192031958,,,0.5329562494928909,inf,,,0.8959745128472512
633,,0.0,0.0,1.4902109752543042,1.4323791944122728,0.7859232449725171,0.7317555096033675,0.8735028731138169,,,0.6038851895711802,inf,,,0.8869374049087817
634,,0.0,0.0,1.4920406984631203,1.5035621245544515,0.4902542378982953,0.6894127095488439,0.9599709256688802,,,0.541134803179459,inf,,,0.8802864275050036
635,,0.0,0.0,1.587758214329706,1.6002916110326422,0.8095131431417564,0.7670460870128645,1.0108620758771303,,,0.5713653840954815,inf,,,0.8007620576911217
636,,0.0,0.0,1.549825418197845,1.5109046235169614,0.820913285965265,0.71675231434275,0.9782631552283487,,,0.5451288209179292,inf,,,0.8445067767725429
637,,0.0,0.0,1.6451730911765092,1.6366620610818758,0.5271715481762747,0.6394460698061268,0.836358095641483,,,0.5713653840954815,inf,,,0.9116470263307088
638,,0.0,0.0,1.7003750476142145,1.6830639090332797,0.7364524109460111,0.5820154766132891,0.8441449199868272,,,0.5287703885177266,inf,,,0.8166953456906805
639,,0.0,0.0,1.3023617439425543,1.271214812187413,0.7618127235812687,0.47833720128016105,0.7058278943163083,,,0.5604843169999094,inf,,,0.7981463356585368
640,,0.0,0.0,1.630370334312079,1.5939987988418236,0.700416961583946,0.6564956332021379,0.8126995486265172,,,0.585052858160615,inf,,,0.894862343008075
641,,0.0,0.0,1.4797906157740486,1.4743685738340937,0.5098614624326065,0.5730427156255392,0.6710605448012816,,,0.5978297680564633,inf,,,0.8784322745229056
642,,0.0,0.0,1.5159755419810348,1.5079700140708236,0.8617584582147284,0.33610019051875634,0.4981239742935734,,,0.5677978065141052,inf,,,0.8104543361747174
643,,0.0,0.0,1.3950313403131522,1.3741482065271111,0.787935721246957,0.2569515897975845,0.4030206182638494,,,0.5370774965580548,inf,,,0.7622193274243987
644,,0.0,0.0,1.6718388921023726,1.6491467561262978,0.9129130233558104,0.3081798587777914,0.4580051709820739,,,0.5783247308855777,inf,,,0.7935118522115957
645,,0.0,0.0,1.6539289720099124,1.6233354936695619,0.8748648538442594,0.2593818943930366,0.4180028442287121,,,0.5113665138247345,inf,,,0.7923027606467934
646,,0.0,0.0,1.7346997429143012,1.7175945191238178,0.9154829593289836,0.33135208238333885,0.49467946270886853,,,0.6008849035917525,inf,,,0.8479636645390923
647,,0.0,0.0,1.6531945845511111,1.6279133075113355,0.8477897023045085,0.2492986083590517,0.3845768919236132,,,0.541134803179459,inf,,,0.7855600736443937
648,,0.0,0.0,1.6709039199733016,1.6552083138396452,0.8977724107825015,0.30699572258548,0.44030994827888575,,,0.6097226960127671,inf,,,0.8087154990525885
649,,0.0,0.0,1.7746106141035547,1.7682823330649529,0.8818025837714589,0.3249126943787186,0.444137722182641,,,0.6153451465759925,inf,,,0.8457332471736683
650,,0.0,0.0,1.459903586648408,1.4510099334087843,0.8529821453300055,0.3234624609280623,0.4676722715472814,,,0.5370774965580548,inf,,,0.8379294377989822
651,,0.0,0.0,1.601381634189485,1.5824573266979471,0.810934479001095,0.35443607947386235,0.5022641372285163,,,0.541134803179459,inf,,,0.8700501395577538
652,,0.0,0.0,1.1925690545199226,1.1692826680039945,0.7653225369029175,0.28752865104729713,0.4170264931431821,,,0.5748741956352443,inf,,,0.8070473687751089
653,,0.0,0.0,1.6701350432970503,1.6430422581602593,0.8714636867887879,0.34687957847525236,0.4856300986769759,,,0.581717464821069,inf,,,0.8021664727260798
654,,0.0,0.0,1.7122380382116313,1.6765232387929228,0.7236293437018392,0.6102739404277842,0.5733241471672841,,,0.6153451465759925,inf,,,0.9017072794706912
655,,0.0,0.0,1.543500655649821,1.5015495134962609,0.814763196501647,0.3270321689917497,0.44359194379805106,,,0.6038851895711802,inf,,,0.7579806009224987
656,,0.0,0.0,1.6220756227226862,1.6180713251603414,0.8919009550607677,0.20502976787084978,0.31327614272103527,,,0.5022576003740722,inf,,,0.8074699491378744
657,,0.0,0.0,1.5278118317156728,1.5256376696525873,0.8410191297865621,0.2431204071425314,0.3605616718291522,,,0.5370774965580548,inf,,,0.8496096447381803
658,,0.0,0.0,1.6183415994663952,1.5524404703219035,0.8358315305172748,0.14775341861681857,0.25150543153751537,,,0.5158180382284114,inf,,,0.7706372509893735
659,,0.0,0.0,1.122851116175939,1.0110562831012628,0.7622762682007652,0.9256146985366708,0.831053065482049,,,0.6233814453054027,inf,,,0.9452515034402307
660,,0.0,0.0,1.5419717569108462,1.4825371380941483,0.7968745929587409,0.8477618692204818,0.7498905494452327,,,0.5915533975974677,inf,,,0.9472578618514945
661,,0.0,0.0,1.6545215125815915,1.6278548373277273,0.8367134801858104,0.3703421577614981,0.5306382331194642,,,0.552929491858785,inf,,,0.8109777337470702
662,,0.0,0.0,1.5242573976251848,1.5460353739538653,0.5135464068354452,0.8736738282109953,0.9745110154952001,,,0.5677978065141052,inf,,,0.9468973292420806
663,,0.0,0.0,1.569675956868666,1.5521268944408957,0.8757543652212522,1.1775855811096727,1.339135516619225,,,0.5158180382284114,inf,,,0.8291633106663785
664,,0.0,0.0,1.6875995606080665,1.6843293573978424,0.8900005732040884,1.3948099084355252,1.8027825407048896,,,0.4928685327679205,inf,,,0.8669227999718313
665,,0.0,0.0,1.6364663661077028,1.6080040835177667,0.8175707885391974,1.5266692099057677,2.1407422337789583,,,0.5158180382284114,inf,,,0.8533906954979394
666,,0.0,0.0,1.5610938143474902,1.5360270634282942,0.881718665935338,1.6499468866122886,2.086463135172699,,,0.5287703885177266,inf,,,0.8764924899432432
667,,0.0,0.0,1.7153263376945245,1.6789289961338134,0.8904344639712413,1.1891087354314367,1.6391029512665192,,,0.4302020962658841,inf,,,0.8127765418822973
668,,0.0,0.0,1.713831818296494,1.7035748995167053,0.9323356256595704,1.2662418781442561,1.5850206084498284,,,0.4576907132971797,inf,,,0.821709209171905
669,,0.0,0.0,1.354374365645583,1.2964731944321528,0.748327833125674,1.4734913334936408,1.4608951322389585,,,0.6180765742263259,inf,,,0.9347758980337296
670,,0.0,0.0,1.5522935191261324,1.5231107147517378,0.8812801350569822,1.1319522845193737,1.5530550603184683,,,0.44694259446804574,inf,,,0.8805148400180464
671,,0.0,0.0,1.7270201615587222,1.720168365607141,0.8762243227865092,1.8446518313935951,2.548477402075072,,,0.524519217297268,inf,,,0.8867172593309094
672,,0.0,0.0,1.4466616354419342,1.4293845666103382,0.8837538668472511,2.013252416527042,2.821672346327972,,,0.44144624493110796,inf,,,0.849969613048902
673,,0.0,0.0,1.5988797864930995,1.5333210969046693,0.9230901092678041,2.1174680456374437,2.6585161858078825,,,0.45235697871908603,inf,,,0.8594450493766465
674,,0.0,0.0,1.7618351441723632,1.7233400143734658,0.9202640512079512,1.766468727583442,2.5130516819458437,,,0.49759852643134905,inf,,,0.8638119844108423
675,,0.0,0.0,1.4035123382802839,1.3730917859767537,0.8578181094776507,1.1642064605323594,1.872315918501028,,,0.5113665138247345,inf,,,0.8698791895731962
676,,0.0,0.0,0.4356674411770255,0.38473543832952123,0.5177097622630125,1.262952334248699,2.0117418702575325,,,0.5287703885177266,inf,,,0.871834717411664
677,,0.0,0.0,1.5610377670501372,1.5363852339473485,0.7806757655857616,1.3056511330533347,1.3465747339369698,,,0.6038851895711802,inf,,,0.8893197999131501
678,,0.0,0.0,1.5770236953437444,1.562216092373587,0.7867318549082747,0.6750830326897728,0.9147716764562097,,,0.5677978065141052,inf,,,0.826133288708993
679,,0.0,0.0,1.381795588090593,1.3269465163911711,0.7683088757711982,1.4177180977752666,1.2114277526457902,,,0.5883313578629602,inf,,,0.9552409201637803
680,,0.0,0.0,1.4005578541229402,1.3736903629973283,0.7839419720460281,1.720387843550143,1.7131291131954034,,,0.6333676938231112,inf,,,0.9592270587317481
681,,0.0,0.0,1.3967167284435322,1.3547620373946776,0.6631102456011233,1.693454704160604,1.4791634419851116,,,0.6425374456860184,inf,,,0.9613747927121451
682,,0.0,0.0,1.2629213381182245,1.2204165088004109,0.7578169063886538,1.9488231713320918,1.3565805397126596,,,0.6038851895711802,inf,,,0.9566010948315197
683,,0.0,0.0,1.6684506040304248,1.6438768295406987,0.8474170488493755,2.4470775028447145,2.3696542531610216,,,0.6566669596287297,inf,,,0.94756995809646
684,,0.0,0.0,1.6237625458861737,1.5797146544488156,0.7990074986678383,1.8402011941644518,1.6242759338894308,,,0.6380535849069913,inf,,,0.9537201090990919
685,,0.0,0.0,1.6253890765051229,1.6268576718847223,0.804851094460939,1.824820334898019,1.6394469562537741,,,0.6038851895711802,inf,,,0.94964147329605
686,,0.0,0.0,1.3174422189953052,1.2736822066699562,0.7874847952706125,2.2081779966812998,2.1244735501444807,,,0.6380535849069913,inf,,,0.9583361133715707
687,,0.0,0.0,1.3824131069656915,1.288850968184479,0.8077857280770032,1.3273518841115386,0.9481060960340424,,,0.6233814453054027,inf,,,0.9556030965749702
688,,0.0,0.0,1.5245752703518747,1.463660854847354,0.7658848396798468,1.3382476840127822,0.9829108833799556,,,0.648888643467878,inf,,,0.9487447567730827
689,,0.0,0.0,1.7158469213456429,1.7006799319677237,0.7454903723445294,1.6000622285024002,1.2062664753241559,,,0.6309483474627791,inf,,,0.9533993467241881
690,,0.0,0.0,1.5477482151854351,1.5419177174022034,0.7147622244420473,1.714209411185724,1.101232358829533,,,0.6357360191111145,inf,,,0.949149934935689
691,,0.0,0.0,1.5482463835471865,1.516130195903933,0.8116860544425183,1.0688762300455807,0.9768669021653584,,,0.6602640781246099,inf,,,0.9497363920406986
692,,0.0,0.0,1.7368584779659053,1.6882891848453891,0.9269977166190109,1.8024646731910425,1.5983007293848792,,,0.6713451011121618,inf,,,0.9507747097946334
693,,0.0,0.0,1.595249398589717,1.559382034145895,0.7735043566204289,1.6362236180388083,1.2632414550466906,,,0.6380535849069913,inf,,,0.95061253888538
694,,0.0,0.0,1.4005398078724602,1.378349132658478,0.7364829385671771,1.3674381958972668,1.0938982139305293,,,0.6403206450210053,inf,,,0.9478394738736734
695,,0.0,0.0,1.5329141840309428,1.5435046571672637,0.870765150126741,1.3080520418773365,1.2655895514956297,,,0.6333676938231112,inf,,,0.9511850112774077
696,,0.0,0.0,1.5468428830670358,1.5088934365383464,0.8371175258111845,1.7071594589805812,1.4848018573758592,,,0.6180765742263259,inf,,,0.895899043477612
697,,0.0,0.0,1.739967982149086,1.7153722157863507,0.8678235429463022,2.313032367421254,1.7579501770746426,,,0.6380535849069913,inf,,,0.8874053735011308
698,,0.0,0.0,1.6053932122889898,1.5456408766695326,0.7767063519663913,1.6873788580710032,1.416943209586069,,,0.6233814453054027,inf,,,0.9475032514224917
699,,0.0,0.0,1.5630601632453602,1.5168012133900455,0.42241201396755246,1.6524459380936938,1.4552606125811178,,,0.5604843169999094,inf,,,0.6015738880232833
700,,0.0,0.0,1.653384874982182,1.5981095105277647,0.842944740570151,2.2884686987611937,1.9975299234808572,,,0.6068309995095971,inf,,,0.9283683592085182
701,5.703782474656201,-0.20913869073739402,0.0,1.4744237336298913,1.4325933265425599,0.7038786349879068,2.5238342440988184,1.7787885890821924,,,0.6233814453054027,9.009669676514031,inf,,0.7517665164890631
702,5.703782474656201,-0.7795169382030142,0.0,1.6568389216661417,1.6545995908771822,0.6800149414084259,3.1587496649757334,2.340685466459323,,,0.6284777104787076,7.693992882608094,inf,,0.7757872450708797
703,,0.0,0.0,1.5569408198735866,1.5472335663382881,0.7414538231023907,2.247408331675776,2.0279385805164485,,,0.6509067234006624,inf,,,0.9241011992510163
704,,0.0,0.0,1.56933604079514,1.57933972220477,0.6383195530561357,2.7994576924183843,2.668730863186561,,,0.6309483474627791,inf,,,0.9390542579234474
705,,0.0,0.0,1.5638876930089245,1.5714827960151851,0.7394759573346645,1.9375704360347332,1.3482414595917371,,,0.6547956803312163,inf,,,0.6463576196024688
706,,0.0,0.0,1.6969825369991631,1.62708977514413,0.82432566078319,1.7007813898412663,1.023064881479896,,,0.6425374456860184,inf,,,0.94558187729036
707,,0.0,0.0,1.5091507922059382,1.4595039488747719,0.7635731038221673,1.6832990200138185,1.0158836938734253,,,0.6547956803312163,inf,,,0.9525768020435057
708,,0.0,0.0,1.7258162760194966,1.6791913396388463,0.7810680134985675,2.1218494742098857,1.2323624693919846,,,0.648888643467878,inf,,,0.9487624017501602
709,,0.0,0.0,1.552950055532266,1.5486606615149505,0.7392662174181613,1.9643653748509684,1.3847349809082723,,,0.6097226960127671,inf,,,0.8638527990190707
710,5.44038654604342,-0.9067310910072367,0.0,1.5337615598466754,1.5295529707502125,0.7352922361781136,2.6887402338173008,1.4843239713303964,,,0.62595550513784,7.173458444715143,inf,,0.8040832716077799
711,5.7037824746562,-0.9506304124427,0.0,1.754121602166653,1.6781967473100732,0.7248281463757538,2.969292687903393,2.1996742491860775,,,0.6528756675646988,7.495541943884256,inf,,0.6095007733594098
712,5.703782474656203,-0.43728998972364225,0.0,1.687975425794682,1.6769333194191252,0.7883445196974012,3.34106414305755,2.5149615446551032,,,0.648888643467878,8.272070733383252,inf,,0.6953683287118807
713,5.703782474656203,-0.38025216497708014,0.0,1.6073442389849877,1.5606358489205259,0.7504021330874072,2.2185975429605205,1.3930908394636532,,,0.6357360191111145,8.411832675758411,inf,,0.6610127804542162
714,5.703782474656202,-1.7301473506457143,0.0,1.4943156359558627,1.4806875083758977,0.6889372811398428,2.278000968699817,1.310348963601681,,,0.6566669596287297,6.896705442795552,inf,,0.7910682725968167
715,5.703782474656202,-0.5133404227190581,0.0,1.7114579085541741,1.6870573355504883,0.627977088171255,2.2906600947430142,1.343893710998163,,,0.648888643467878,8.111728083308073,inf,,0.6235490935827454
716,5.573817378301211,-1.7836215610563875,0.0,1.5245449142204286,1.4948370750437732,0.6260592044264239,2.2716354289278295,1.4093520741710193,,,0.6447042257417027,6.671366500917907,inf,,0.5789406860531586
717,5.703782474656202,-0.3612395567282261,0.0,1.5838479827586867,1.5637528057044405,0.7977016722538626,2.217334627274888,1.2480732046222371,,,0.6180765742263259,8.463125970145962,inf,,0.6608781783793803
718,5.602961066574752,-1.0272095288720378,0.0,1.737970802189062,1.714326875494401,0.7482499336615902,2.476846982427254,1.956338530510732,,,0.6447042257417027,7.264430222920869,inf,,0.5887758764902203
719,5.527558615191807,-1.0870865276543886,0.0,1.6160791207775032,1.578325917896113,0.6810184601071411,1.4962469564897432,1.1237478398491703,,,0.6425374456860184,7.1034998561082325,inf,,0.6004240667766112
720,5.703782474656202,-0.6844538969587443,0.0,1.3106987545428654,1.268222089707647,0.660626601350002,1.9658709898739894,1.0815208000278522,,,0.6528756675646988,7.824046010856292,inf,,0.6925694180932678
721,,0.0,0.0,1.4396068883389561,1.4204754269871982,0.6977339008954777,1.5340131587401318,0.8726117559410189,,,0.6233814453054027,inf,,,0.9175342405120833
722,5.619995452830272,-1.7047319540251826,0.0,1.633998073128738,1.575806123499294,0.7938222219803545,2.680771834541949,1.5395477241222695,,,0.6619902821573977,6.782592136028131,inf,,0.9273606025171676
723,5.703782474656203,-0.38025216497708014,0.0,1.4182247823565288,1.4144410540393437,0.723399067193792,2.071365816230324,1.5741374416656884,,,0.6233814453054027,8.411832675758411,inf,,0.6390257337699734
724,5.703782474656201,-0.7985295464518681,0.0,1.5894135039913209,1.5849210617946043,0.6472540380083235,1.845981105662926,1.04139552163154,,,0.6233814453054027,7.669895331029034,inf,,0.8351742247790636
725,,0.0,0.0,1.7275353518846372,1.7130393912391175,0.6581410689607027,1.8162396678152422,1.3128751501661493,,,0.6180765742263259,inf,,,0.8641338260180946
726,5.7037824746562,-1.406933010415196,0.0,1.5732779986823633,1.5574028290507862,0.6092706758871721,2.448777990860753,1.708686325710886,,,0.6125606311107803,7.1034998561082325,inf,,0.6958414894093862
727,,0.0,0.0,1.5178434582173423,1.5099553875601077,0.6459892538485609,2.392964536702711,1.8927284771958823,,,0.6097226960127671,inf,,,0.8059247107292615
728,,0.0,0.0,1.6287225867869874,1.6232565477786949,0.8227235113300511,1.868839350330863,1.2904081786702484,,,0.648888643467878,inf,,,0.940492066947761
729,,0.0,0.0,1.7130941653768166,1.6763261393147113,0.7291560455404853,1.9464207367499455,1.045729261317996,,,0.6333676938231112,inf,,,0.9505244171858093
730,,0.0,0.0,1.5728185854943368,1.5456795368183076,0.6984135180723497,1.2257485048745254,0.9851627949869142,,,0.6284777104787076,inf,,,0.6901340144149558
731,,0.0,0.0,1.7309159651304336,1.73969495787253,0.7361974409243038,1.624598561097764,0.9676264112687532,,,0.6284777104787076,inf,,,0.6924275059733882
732,5.703782474656201,-0.874579979447284,0.0,1.6513077923361568,1.63991578250943,0.5830270729255955,1.643215171250235,0.9570461314110483,,,0.6528756675646988,7.578923552823307,inf,,0.719334412022552
733,,0.0,0.0,1.6338160341821526,1.5778795207557297,0.4860572863159259,2.3279368589971865,1.8597341409595587,,,0.648888643467878,inf,,,0.7700622570414991
734,5.703782474656202,-0.34222694847937213,0.0,1.665509803867719,1.6537291059323918,0.6604824781849373,2.9529115116963323,1.8287713586895693,,,0.6233814453054027,8.517193191416238,inf,,0.8649532371414814
735,,0.0,0.0,1.6597656787779567,1.615839465477198,0.6545906457152824,1.6829552311597908,1.1315749287853774,,,0.6333676938231112,inf,,,0.9552520272780164
736,5.633053170517431,-2.760196053553541,0.0,1.6984643708761316,1.6277039504214716,0.6083534648583737,3.0364489595331094,2.2819427930653595,,,0.6207552362147116,6.319968614080018,inf,,0.7266344874439616
737,,0.0,0.0,1.7413178658123651,1.65659658658617,0.8349485934114144,2.754060897389703,2.082332552783229,,,0.6528756675646988,inf,,,0.8595653126792118
738,5.7037824746562,-0.9506304124427,0.0,1.661780722037289,1.6467362786993536,0.568829383208065,2.3906321689664933,2.086439037506131,,,0.6309483474627791,7.495541943884256,inf,,0.6887691767657725
739,5.703782474656202,-1.9963238661296707,0.0,1.5764349755504539,1.5771872257017527,0.7533487274542184,2.583116897883042,2.2107006590630407,,,0.62595550513784,6.753604599154879,inf,,0.6444121173461904
740,,0.0,0.0,1.7300177761224598,1.7101362152148212,0.6235060085979526,2.188601850670142,1.6094212742230107,,,0.6125606311107803,inf,,,0.6563714241642407
741,,0.0,0.0,1.7054597921552703,1.6854661001647673,0.7818137839214252,1.6767208176483979,1.07995763489874,,,0.6038851895711802,inf,,,0.6991531609170646
742,5.703782474656202,-0.5513656392167662,0.0,1.676959150227535,1.6517231742230045,0.7411938636326454,2.3366952124117715,1.5621628781025478,,,0.6652988471865258,8.040269119325927,inf,,0.891192276180093
743,,0.0,0.0,1.3122689178302955,1.3098865292025879,0.7275407300558112,2.5288480709224777,2.234319175023938,,,0.6125606311107803,inf,,,0.953475750293964
744,,0.0,0.0,1.6002860627606195,1.5801221247576538,0.8890349174105799,2.24401883226653,1.7194910531803798,,,0.6447042257417027,inf,,,0.9463168110388108
745,5.56762856418907,-1.6782157284860895,-0.4003656021444964,1.461052555342134,1.4195051305636506,0.6620540140571023,1.9306317518723057,1.2414099276101034,2.4062553476318818,,0.6468212168108125,6.509725149361491,1.8533173622274883,inf,0.7035350694050364
746,,0.0,0.0,1.716728379213151,1.662405113270956,0.5198763377902612,1.063149343621165,0.7583017627697739,,,0.6233814453054027,inf,,,0.91392500269839
747,5.703782474656202,-1.7301473506457143,0.0,1.621669539541355,1.6114617450693103,0.5141176724231182,1.3825819236190873,0.9519556659755948,,,0.6153451465759925,6.896705442795552,inf,,0.7392346157108964
748,,0.0,0.0,1.5481657911507867,1.4814933358987783,0.7183755239813793,1.1078377947205345,0.83906650928254,,,0.5915533975974677,inf,,,0.8092975082260718
749,,0.0,0.0,1.6866876744231778,1.6292365386658532,0.8009910234900536,1.8860737493496105,1.238980119985579,,,0.6447042257417027,inf,,,0.9030653337268043
750,,0.0,0.0,1.5157264457543835,1.504736088204714,0.7380372400000841,1.6746694292452604,0.9893908410928227,,,0.6468212168108125,inf,,,0.9446997237853323
751,,0.0,0.0,1.6622745615401564,1.6679821234558836,0.729843391801483,1.9392911603975318,1.1862789278513448,,,0.6468212168108125,inf,,,0.9072401744996764
752,,0.0,0.0,1.7060292859101964,1.7120614514703196,0.7290989931207745,2.44553957724667,1.4500962393877277,,,0.6357360191111145,inf,,,0.8142997763038798
753,,0.0,0.0,1.5338006324516082,1.5286118119243948,0.8657779277365205,1.7758376012306494,1.4788196375699043,,,0.6008849035917525,inf,,,0.9380929287957726
754,,0.0,0.0,1.4076050068283412,1.3893613649469871,0.8409270356308591,2.4433465589045946,2.273757703901402,,,0.6333676938231112,inf,,,0.9556850189258499
755,5.703782474656201,-0.6084034639633281,0.0,1.7613694662629704,1.676111132773428,0.5653606090656206,2.537738478196729,1.8158578458743966,,,0.6528756675646988,7.941829046512676,inf,,0.8518432629221824
756,5.159661937916643,-3.439774625277762,0.0,1.2514422328007955,1.2071800042673415,0.6106915982897133,1.9418220658123126,1.3638928698632227,,,0.6602640781246099,5.529829167532763,inf,,0.8214273743505812
757,,0.0,0.0,1.6693465529904015,1.5993101510585375,0.884560990753169,1.3409642761891405,1.0553743908328124,,,0.62595550513784,inf,,,0.907733812053571
