,bvp+hr_XAp0,bvp+hr_XAp1,bvp+hr_XAp2,bvp+hr_XCond1,bvp+hr_XCond2,bvp+hr_XDist,bvp+hr_XFuzz1,bvp+hr_XFuzz2,bvp+hr_XK2_1,bvp+hr_XK2_2,bvp+hr_XPermEn,bvp+hr_XSamp0,bvp+hr_XSamp1,bvp+hr_XSamp2,bvp+hr_XSpec
0,,0.0,0.0,1.7127278469290719,1.6957913006242,0.7750782133968949,1.1881472961626796,1.5197657980144008,,,0.44144624493110796,inf,,,0.8186472115545297
1,,0.0,0.0,1.54172541575916,1.4825993997005882,0.7201666504142218,1.1428078624804352,1.1504000037286837,,,0.40055318934786044,inf,,,0.8255333680745333
2,,0.0,0.0,1.4957678854309582,1.3376532632740707,0.48019466127928195,1.4233668140887599,1.7376084802417922,,,0.524519217297268,inf,,,0.9270554915183638
3,,0.0,0.0,1.7132766994394522,1.7197881905371315,0.6413628111356613,1.7683519928453018,1.917703210676064,,,0.5748741956352443,inf,,,0.8269346826822639
4,,0.0,0.0,1.3978848989503554,1.3342628719962437,0.6848455451250105,1.939593698653235,2.169912672614603,,,0.5329562494928909,inf,,,0.931827961360345
5,5.245615041514379,-4.353860484456935,0.0,1.6760937853513471,1.6668227422787687,0.8211412679633,3.260876707285694,2.194085220985652,,,0.6153451465759925,5.307245997292338,inf,,0.6821283834783987
6,5.689636613828447,-0.9293073135919796,0.0,1.3071250066260058,1.2119547982794587,0.7004668244322909,2.6902810564861093,2.750936010768795,,,0.6153451465759925,7.495541943884256,inf,,0.7652074288740603
7,,0.0,0.0,1.5086760669838475,1.5088539927819222,0.7815984852874378,2.5397898808522954,2.334419900011302,,,0.5370774965580548,inf,,,0.8991787041903821
8,,0.0,0.0,1.5720108436918603,1.5721213251259616,0.6172148507085166,2.5120393666351237,2.4884640073646698,,,0.5783247308855777,inf,,,0.6339645701174431
9,5.443852281946221,-0.7258469709261628,0.0,1.6699045865071258,1.6300030395384668,0.7988086007441433,3.4597191406551295,4.23620762688858,,,0.6333676938231112,7.4002317640799316,inf,,0.6939293993124036
10,,0.0,0.0,1.6024546081746902,1.593991711898448,0.7594778758426902,3.117318811139341,2.3132931257849134,,,0.6125606311107803,inf,,,0.7621557301968211
11,5.628440389812728,-3.4521101057518067,0.0,1.6889613930096048,1.6443532807975556,0.7424275741424657,3.404562092227036,5.880662032545367,,,0.62595550513784,6.089444955468186,inf,,0.6597899210957932
12,5.703782474656199,-1.6540969176502978,0.0,1.7537701304732911,1.7220285375860855,0.6731120262948297,2.806266583252134,2.1250403691909416,,,0.6068309995095971,6.941656830657818,inf,,0.8972527758904707
13,,0.0,0.0,1.621774955242945,1.6087910327708796,0.6902439543284875,3.3136896457182403,3.137135921125514,,,0.6309483474627791,inf,,,0.9278094102523129
14,,0.0,0.0,1.1685433573574446,1.1560200260753566,0.7524488487798783,3.8798414723644528,15.89038640752684,,,0.5677978065141052,inf,,,0.8942503066632118
15,,0.0,0.0,1.733090216822721,1.6739802130105361,0.7163706326448632,3.6846359277266263,13.549392167715453,,,0.5947193981915972,inf,,,0.8738455765275971
16,,0.0,0.0,1.4682927442173996,1.4287710065299182,0.7497410162077225,3.0015341681476997,2.2247221906418355,,,0.6097226960127671,inf,,,0.7311668861449765
17,5.083396600342878,-3.066982615540203,0.0,1.594261964113759,1.5880994228427763,0.6574592984223235,2.3049181679271196,1.3435614838734367,,,0.6333676938231112,5.569834502146462,inf,,0.8463143433296211
18,5.703782474656204,-1.9582986496319632,0.0,1.5604143548975282,1.568567320809743,0.7559295928204235,2.1029427528335987,1.554920720053981,,,0.6584896970785714,6.772835961082766,inf,,0.9439032409971551
19,5.703782474656201,-0.30420173198166406,0.0,1.4058748143165134,1.3359890672251913,0.7442122682110082,2.0816402303979213,1.52986686486559,,,0.5451288209179292,8.63497622707262,inf,,0.6999456213281624
20,5.6792027874023026,-5.338450620158165,0.0,1.5967974944404062,1.5274160797712428,0.6618735312363688,2.0978910372884427,1.7133126629521214,,,0.6380535849069913,5.73081114704412,inf,,0.839780896965839
21,5.703782474656201,-0.13308825774197802,0.0,0.8524237048912853,0.8413823769294277,0.5079400369571838,1.9080762361978933,2.0381604497751167,,,0.6008849035917525,9.461654800257088,inf,,0.7564228405500579
22,4.95225426040218,-4.820194146791454,0.0,1.2836945550391237,1.213667947600521,0.6462815473859174,2.9065514883375707,2.514466480877421,,,0.6207552362147116,4.892852258439873,inf,,0.649680563645481
23,5.703782474656201,-0.45630259797249606,0.0,1.5787874838351095,1.5664963865473867,0.700419952549687,2.491662163901244,1.6184004805833978,,,0.6380535849069913,8.229511118964457,inf,,0.7018691781948815
24,,0.0,0.0,1.274367639267552,1.2646700613172663,0.7309452008689994,2.0938572204038044,1.7973810135346544,,,0.5915533975974677,inf,,,0.9436907105840965
25,5.484893891321482,-0.34737661311702717,0.0,1.1163400138334774,1.0917193905363045,0.6031729831316098,2.7073420712162135,1.7817260692615577,,,0.5783247308855777,8.1886891244442,inf,,0.6182466355000147
26,,0.0,0.0,1.304511371369289,1.2568211643912572,0.6930006482946899,2.2992323947842177,2.7746866422010354,,,0.5158180382284114,inf,,,0.9007513050922965
27,5.703782474656203,-0.5893908557144742,0.0,1.6366392301813926,1.595630181317036,0.7259449978444282,2.6920661677044544,2.30092837324288,,,0.6125606311107803,7.973577744827256,inf,,0.8775603250782719
28,5.703782474656201,-2.775840804332684,0.0,1.6545553550813987,1.6267134241686851,0.6079682427694515,2.206254950370521,2.2940370804159143,,,0.5748741956352443,6.4239583276040655,inf,,0.7799372615206416
29,5.703782474656202,-4.011660340508195,0.0,0.9395766304752372,0.7478528329091728,0.5142868156622017,2.260830978186395,2.0999281936963854,,,0.5748741956352443,6.055706815836335,inf,,0.8139990033044165
30,5.703782474656202,-3.4602947012914287,0.0,1.361260253048929,1.3041440290055215,0.7026940241876282,2.354944025493911,2.0420860066424886,,,0.6233814453054027,6.203558262235607,inf,,0.8523304649752761
31,5.703782474656201,-2.7378155878349766,0.0,1.389998562679737,1.3322958694369118,0.5520194767724209,1.923274763870688,1.943335619320213,,,0.581717464821069,6.437751649736401,inf,,0.6949088589735714
32,3.9281745851343186,1.486293558153157,-5.4144681432874755,1.6249758531177694,1.5778953537508242,0.7520692550017806,3.877845769445464,2.3317375480002545,2.0738270034701367,,0.6547956803312163,3.867474629167077,1.8911160819841188,inf,0.5923091755049
33,4.04288040248741,-4.04288040248741,0.0,1.4261577070717415,1.4074115780375283,0.8285110347157602,4.427803443339316,36.945359666108374,,,0.6468212168108125,3.944201903792381,inf,,0.8238265568739405
34,3.900845296264015,-3.8245851815698253,-0.07626011469418979,1.5650334950173008,1.5432079256420097,0.8266600681076188,4.858845540800643,7.434423523758434,,,0.6403206450210053,3.872268246868314,6.149002341324198,inf,0.6488189965249694
35,4.422502892765338,-4.422502892765338,0.0,1.7094906885159182,1.7032213775559215,0.7947218495319407,5.391233839411756,26.569197384408373,,,0.6566669596287297,4.371416455561866,inf,,0.7305043138246701
36,3.869461084836088,-3.869461084836088,0.0,1.6946516610043567,1.7017725136296022,0.8125584382387976,3.721609617592487,15.880910445348427,,,0.6528756675646988,3.843845280898036,inf,,0.6592856688620489
37,4.0886910143174555,-4.0886910143174555,0.0,1.660871560642565,1.6169201697170756,0.8805768258719824,4.182432508523266,22.549148746760892,,,0.6309483474627791,4.0398563769380305,inf,,0.5690323943050083
38,4.526816300927552,-1.9301772417677054,-1.8874378386811972,1.594557488010753,1.560610040133948,0.7771729747232817,3.87168532738203,8.32254840529062,2.5762709821071175,,0.6309483474627791,4.5479500456582,2.2644950535196124,inf,0.7544578524502132
39,3.7415049790992874,-3.43717952787863,-0.26691040142966427,1.6083372917934977,1.5861546545814056,0.8205958676207697,4.53298149286183,33.25169818131257,5.286627022193463,,0.6309483474627791,3.7163648517895393,5.052142767907604,inf,0.7886424419080648
40,5.420223818059252,-3.2882691162892796,0.0,1.7667711727409237,1.725626058623147,0.7203084588364338,3.2474597812841948,3.3024854766388563,,,0.6309483474627791,5.824068640530703,inf,,0.7835974361702492
41,,0.0,0.0,1.6247419902329479,1.5666550028945385,0.7376618559569279,3.0575914175950523,2.26341879149395,,,0.6357360191111145,inf,,,0.8501714309842935
42,5.19510188247108,-2.1473087780880467,0.0,1.6833670518898995,1.6542562129690814,0.6548813267965599,3.1318964999311,3.719490326824333,,,0.62595550513784,6.036926921184739,inf,,0.9061328603765276
43,,0.0,0.0,1.5265918961049707,1.4964668738637654,0.7717879447816889,3.100415756347937,2.7867405856325225,,,0.6509067234006624,inf,,,0.7148108011609796
44,,0.0,0.0,1.7213641677585771,1.76283385086062,0.7601145990752955,2.8124413419282117,3.1684905428716847,,,0.6153451465759925,inf,,,0.9112319375683492
45,,0.0,0.0,1.7604127988262641,1.7203324298330671,0.7590258883843155,2.655479725136226,1.4498795981263366,,,0.6602640781246099,inf,,,0.85145515937062
46,5.703782474656201,-1.3689077939174883,0.0,1.7415852005863888,1.7288753036726923,0.7405718441830573,2.3429249977083586,2.3198294678918625,,,0.6333676938231112,7.1308988302963465,inf,,0.697863086993022
47,,0.0,0.0,0.9550826558348839,0.9466054069050213,0.6016776685289058,1.6282430718546632,1.7564060610430028,,,0.5158180382284114,inf,,,0.9185195499035507
48,,0.0,0.0,1.6752630613121686,1.6332093335761058,0.811514452439316,1.6442039961521366,1.8354093878434388,,,0.5883313578629602,inf,,,0.881012749142011
49,5.703782474656201,-0.9316178041938461,0.0,1.712795093581694,1.667897497174964,0.7509376144841825,2.978796061371897,2.126446217254942,,,0.6125606311107803,7.515744651201776,inf,,0.8906618572845331
50,5.703782474656203,-0.43728998972364225,0.0,1.6572740077315409,1.6232525192367107,0.7022984684687849,3.2773955400849695,4.422844115610579,,,0.6447042257417027,8.272070733383252,inf,,0.9541021993086365
51,,0.0,0.0,1.171576656142689,1.160661763932152,0.778179962568494,3.0048156659755603,6.860530644901769,,,0.6309483474627791,inf,,,0.9441363954080187
52,5.703782474656202,-1.8822482166365466,0.0,1.561864447220824,1.5175580471560937,0.6852767931323467,2.791383445818875,2.5299155939103546,,,0.648888643467878,6.812445099177812,inf,,0.7264969362336018
53,,0.0,0.0,1.711403489689133,1.7074302136357427,0.5875113935237029,3.291511566855157,4.371828316915842,,,0.6357360191111145,inf,,,0.9213840056106941
54,,0.0,0.0,1.663331651341519,1.6497612838593025,0.7302396423323175,3.690022925105628,4.5097691083232,,,0.6380535849069913,inf,,,0.9160356700251773
55,5.703782474656201,-0.3232143402305181,0.0,1.5454653648945647,1.5202522340476283,0.741216031315777,2.9713172178766776,3.050702407100269,,,0.6233814453054027,8.574351605256187,inf,,0.9349882184651406
56,5.7037824746562,-2.6237399383418523,0.0,1.6809721986211548,1.6487776445097462,0.6948976168165896,2.912948634053634,2.235392341948638,,,0.6403206450210053,6.480311264155198,inf,,0.7887685569266195
57,,0.0,0.0,1.6415393188719811,1.6398670911002315,0.7170314584269999,3.148091682406276,3.3136525743226617,,,0.6468212168108125,inf,,,0.7625525355389999
58,5.322493449490895,-3.1047878455363556,0.0,1.739801423836963,1.6923268973341636,0.7377157741292232,3.098003790175911,2.727730329198385,,,0.6357360191111145,5.790793851645831,inf,,0.8633709283849127
59,,0.0,0.0,0.6024980676875035,0.5847383084308739,0.5895755965012299,2.2332991166448957,1.8531016753437264,,,0.6008849035917525,inf,,,0.8474903469461307
60,5.703782474656203,-0.38025216497708014,0.0,1.2227947403410957,1.1801559160814905,0.7596921474987747,1.7809780701146865,1.5154805239000797,,,0.6180765742263259,8.411832675758411,inf,,0.822472199660374
61,,0.0,0.0,1.2569268447469342,1.2249070161746074,0.6815420227230761,1.7667097154251477,1.48529453893123,,,0.6008849035917525,inf,,,0.8131840111688697
62,,0.0,0.0,1.5379278693765848,1.4683845919871181,0.7703063875282044,2.0894213144333778,1.8812297744157913,,,0.6097226960127671,inf,,,0.9370505986785479
63,,0.0,0.0,1.3983245317041868,1.3245680944833849,0.6636805680570358,2.2451851717570697,1.6626813984526532,,,0.6284777104787076,inf,,,0.6637708804096044
64,,0.0,0.0,1.7369261654038854,1.7138405951398457,0.8137425224420824,3.1941271485708147,7.44853385233021,,,0.6380535849069913,inf,,,0.9535334528877716
65,,0.0,0.0,1.7000083114233178,1.6678244366631472,0.7640241998362257,2.712749200360687,2.2751839687733266,,,0.6425374456860184,inf,,,0.8944814436693899
66,5.703782474656201,-0.13308825774197802,0.0,1.3759110309359488,1.3391805208875274,0.7869347288986142,1.8303432045850718,1.4105515045515364,,,0.6097226960127671,9.461654800257088,inf,,0.8835536169917384
67,,0.0,0.0,1.6752648461782398,1.68362493850346,0.6990469139310718,2.4696727687079734,2.8386414819397983,,,0.41861278947482794,inf,,,0.9226145752288789
68,,0.0,0.0,1.5478431933083368,1.552299424327399,0.7650603874462116,2.091962123044317,2.856219220083862,,,0.4928685327679205,inf,,,0.9195700626768425
69,,0.0,0.0,1.680514616411345,1.6517681038936907,0.7882777221044013,2.575319603470111,2.456823210885092,,,0.5370774965580548,inf,,,0.9265154472237084
70,,0.0,0.0,1.5284398537193808,1.5140401705920075,0.6790343918224464,2.659919646044577,2.3834664970452533,,,0.45235697871908603,inf,,,0.7957100025854775
71,,0.0,0.0,1.7116032829900398,1.65542321030015,0.7313932984908779,2.676408925368522,2.7990581438259277,,,0.5490601803369085,inf,,,0.9413588021186691
72,,0.0,0.0,1.6429134120613131,1.592803666420388,0.7408557632589174,2.904643505550088,4.728902232928368,,,0.5022576003740722,inf,,,0.9467301116712717
73,,0.0,0.0,1.558368036000139,1.5593463939691175,0.7775653470789703,3.7482291432561152,9.49795652764377,,,0.47824363442641393,inf,,,0.9234563250874519
74,,0.0,0.0,0.9806408565097005,0.9029322224522405,0.7999266554598297,3.5962988635780624,9.31995003180772,,,0.5287703885177266,inf,,,0.8897073054850017
75,5.1932474314249815,-5.1932474314249815,0.0,1.4819742119709653,1.4406567890661284,0.701907342200385,3.768081376505766,5.728234873074088,,,0.6233814453054027,5.129043525146558,inf,,0.7395223727098613
76,5.655336703971904,-3.5063087564625803,0.0,1.6000662732142346,1.6057166468440123,0.7878716137665338,3.666051958879169,3.0181494413053356,,,0.6357360191111145,6.11426012458791,inf,,0.88967450398671
77,,0.0,0.0,1.5627083047085892,1.4434117308615528,0.616665400639465,3.4187280141592113,3.6016768693443018,,,0.5783247308855777,inf,,,0.8971719753911369
78,,0.0,0.0,1.5915131601022723,1.5503857833019048,0.6357390912170522,2.927289695130801,4.933566861364477,,,0.5370774965580548,inf,,,0.9106496542510324
79,,0.0,0.0,1.6431960870640951,1.6312074090135091,0.6391144440750464,2.586315859673083,2.6177656744606983,,,0.5641709578113449,inf,,,0.944795634957605
80,,0.0,0.0,1.6732460131178193,1.6125788522465274,0.5698883026917686,2.1075370084088556,1.593971804431325,,,0.5915533975974677,inf,,,0.7063604587037705
81,,0.0,0.0,1.599444025332271,1.5462186409257181,0.7320231141883866,2.759249448303946,1.8950643484763185,,,0.6284777104787076,inf,,,0.7997955620286269
82,,0.0,0.0,1.7011518832221468,1.6280266572547177,0.7673183051996052,2.415573533238366,1.7334298515506563,,,0.6425374456860184,inf,,,0.9238573258334625
83,,0.0,0.0,1.7194410586340583,1.6981070218207273,0.4923613487782147,1.7180489102586987,1.8048792058611929,,,0.581717464821069,inf,,,0.7372097247353835
84,5.348755869979157,-4.385979813382908,0.0,1.7384083374639947,1.7059942531045864,0.7297597888303454,2.590069361354136,1.5342473080401944,,,0.6097226960127671,5.488671095039256,inf,,0.7410987480540122
85,,0.0,0.0,1.6798341655137081,1.6764745153999903,0.5688280046406315,1.5452490399407288,1.4069888963956345,,,0.5783247308855777,inf,,,0.8867672151873679
86,,0.0,0.0,1.7601513844655559,1.7510415490898221,0.6657685855869335,1.384420500188331,1.6079593012822513,,,0.5329562494928909,inf,,,0.9444590727814876
87,,0.0,0.0,1.6982945062267136,1.6692950685926409,0.7314684268025697,2.466648830342611,2.0403136375129,,,0.5370774965580548,inf,,,0.9328949540333882
88,,0.0,0.0,1.6685398137019716,1.642618984079905,0.8136180441580049,2.7127360175387767,4.238372522209241,,,0.5113665138247345,inf,,,0.9212638173269282
89,,0.0,0.0,1.6516363516359185,1.5505993385537127,0.7509966251326683,3.8052285283882696,4.754208952993105,,,0.5604843169999094,inf,,,0.9292334928742226
90,,0.0,0.0,1.5304733648592292,1.505949410837132,0.744061999811427,2.544326316318787,4.368064529395632,,,0.45235697871908603,inf,,,0.9214067020276488
91,,0.0,0.0,1.6703909372330945,1.6450666372835638,0.7477066403385625,2.589831579633505,5.452941214780763,,,0.48319206230712763,inf,,,0.8905474293601632
92,,0.0,0.0,1.5989662059867995,1.553508130183169,0.7715013705641425,3.3812990183299654,10.83838059270397,,,0.48319206230712763,inf,,,0.9257432318895551
93,,0.0,0.0,1.641538955504625,1.6000613762314604,0.5590815315802297,3.0703257853589,5.5899304887546855,,,0.5022576003740722,inf,,,0.7666862092115854
94,5.15684602749562,-4.400508610129595,0.0,1.6637413796692426,1.6420781298504536,0.6705718023407742,2.61817051553066,2.62151190485332,,,0.524519217297268,5.280695765198217,inf,,0.720026067006747
95,5.703782474656201,-0.30420173198166406,0.0,1.7619102894868848,1.7058886918609002,0.7044779690870562,3.0221238188803348,2.7949544599868226,,,0.6068309995095971,8.63497622707262,inf,,0.7045409601106578
96,5.703782474656201,-2.7378155878349766,0.0,1.5262421641556014,1.5136626743858936,0.7791014418768799,3.7640946770115753,19.45791990562218,,,0.6566669596287297,6.437751649736401,inf,,0.8936757797503162
97,,0.0,0.0,1.5926011559716227,1.558516764660292,0.7294779519336159,3.897902997146609,13.113055414882187,,,0.6068309995095971,inf,,,0.9072652530279512
98,,0.0,0.0,1.4046872236475503,1.2816658268973335,0.7643767044326748,4.186826788308151,10.487094194038034,,,0.6309483474627791,inf,,,0.761689248318496
99,5.703782474656203,-3.9356099075127795,0.0,1.5703500283297704,1.5704801222212852,0.6479152663899674,3.4927381046543915,5.867765211407319,,,0.6097226960127671,6.074846156047033,inf,,0.6481977407469159
100,5.703782474656202,-0.5133404227190581,0.0,1.3079840564950305,1.296194966906959,0.7823019449204537,3.537351491583768,2.6659712594714096,,,0.6425374456860184,8.111728083308073,inf,,0.7886932765986161
101,5.424193695942945,-2.1515968327240347,0.0,1.2904644653632797,1.2470744152493956,0.7072806555844551,3.9553815310724945,2.893660045919562,,,0.6207552362147116,6.289571136895647,inf,,0.8222755010254679
102,,0.0,0.0,1.4845549044843165,1.404031870687886,0.7996049034758126,2.9016100037043286,3.4923614216586647,,,0.5947193981915972,inf,,,0.8611892970518799
103,,0.0,0.0,1.7442417268892543,1.7413689306506384,0.7663324046394752,3.35565293911966,5.74539847470963,,,0.6207552362147116,inf,,,0.8222121098589465
104,,0.0,0.0,1.6590333036711578,1.6250497879308394,0.7565757662774901,2.3330118235574844,1.5041440391489473,,,0.6233814453054027,inf,,,0.9435478018565927
105,5.7037824746562,-1.1027312784335321,0.0,1.7424770306207564,1.709143784814913,0.6656830357657367,2.589533554735449,1.6507000610511025,,,0.5883313578629602,7.347121938765983,inf,,0.8605787205938532
106,5.703782474656201,-0.6464286804610362,0.0,1.707067898561896,1.666401176857511,0.49512564150026117,2.5889733944941438,3.094084783389578,,,0.5370774965580548,7.881204424696241,inf,,0.8949011129502862
107,,0.0,0.0,1.660066167289625,1.569861774048296,0.7348316237609294,4.347561098905111,30.51870607753564,,,0.5022576003740722,inf,,,0.7905803956905364
108,,0.0,0.0,1.6609049505943911,1.6545594931672374,0.8618303343268345,2.8593405423180127,4.380785024640357,,,0.41861278947482794,inf,,,0.8892019709382484
109,,0.0,0.0,1.3907297489711699,1.3867232515271946,0.7612747608060553,3.5220655408738177,4.100056912541586,,,0.38163879478178075,inf,,,0.8805336697730707
110,,0.0,0.0,1.685022174613276,1.6598645023913763,0.9467442992482088,2.993764478444717,2.8166589032423652,,,0.3338418249889409,inf,,,0.8456687058496545
111,5.363263839956257,-2.9497951119759414,0.0,1.4513994828929158,1.377333605263805,0.6195768989081311,2.869658241993683,1.9695233044730407,,,0.541134803179459,5.812853569710563,inf,,0.6347163605405327
112,,0.0,0.0,1.568343854602015,1.54376018619526,0.8307458172163442,2.9265396527428456,4.613940426501072,,,0.5022576003740722,inf,,,0.907524543227566
113,,0.0,0.0,1.6659901328884827,1.640459642784857,0.9559174116363888,2.838618113551896,2.212461737577771,,,0.35499006010413947,inf,,,0.8644209523222558
114,,0.0,0.0,1.6910517323429173,1.6729846837175104,0.9608953733913812,2.343939075442913,2.3503525205024953,,,0.38163879478178075,inf,,,0.7868846976274404
115,,0.0,0.0,1.7287958198013007,1.6898101705873425,0.9451356068243145,2.080514711182941,2.549580328223811,,,0.38163879478178075,inf,,,0.794206374310034
116,,0.0,0.0,1.6593875746191462,1.6220875966628965,0.8979491318039008,1.8197746225299307,2.221848062188902,,,0.38163879478178075,inf,,,0.7851352457034791
117,,0.0,0.0,1.6276405407913412,1.6088192777476504,0.930422744479215,1.7985021914751045,2.1145745551675237,,,0.35499006010413947,inf,,,0.7609284876180273
118,,0.0,0.0,1.7500155079258555,1.7106296898295583,0.9419012266041475,2.1142867605448337,2.672101680133835,,,0.34100769111774265,inf,,,0.7835201144484941
119,,0.0,0.0,1.708105525040248,1.669392070107943,0.9449581585624879,1.8567797463124276,1.9769371223783032,,,0.3480560589391537,inf,,,0.803614694818795
120,4.720588058668005,-2.6907351934407626,0.0,1.4002943178226004,1.280242687313071,0.8487200569902935,3.299618039707587,4.2937325020949455,,,0.6008849035917525,5.2548322546082975,inf,,0.8378336623123115
121,,0.0,0.0,1.2904492312170683,1.185768185618084,0.7798049093897713,2.305938628581639,1.74976610831238,,,0.43586655696697996,inf,,,0.7921648871853945
122,,0.0,0.0,1.7151079523593287,1.7021086147773985,0.8126300454536057,1.4698978314898716,1.9318821670814708,,,0.468121228110369,inf,,,0.789121936738155
123,,0.0,0.0,1.585942479477506,1.558591083025862,0.7897300120136932,1.4310833073508218,1.8082791722509752,,,0.468121228110369,inf,,,0.7926100118861311
124,,0.0,0.0,1.496273602625939,1.4483914386811043,0.8935762390773552,1.4879692405433507,2.086991941711499,,,0.45235697871908603,inf,,,0.7589300335909047
125,,0.0,0.0,1.7191291729743228,1.6873090179010075,0.8684374381514893,1.3475777216487816,1.7869137583152823,,,0.38163879478178075,inf,,,0.7110524173897635
126,,0.0,0.0,1.6225431528897332,1.5790636551284543,0.9394066567834796,1.5316742830977754,1.8493177873600515,,,0.41861278947482794,inf,,,0.7582441616625452
127,,0.0,0.0,1.660511674409178,1.61749134858085,0.894450404375842,1.4819649613132353,1.7272454459386377,,,0.4629450596409901,inf,,,0.7788995874235852
128,,0.0,0.0,1.6498888347987892,1.6319068970355164,0.9143791458671762,1.5293349923055257,1.9753936501101679,,,0.36181263880445963,inf,,,0.7784313941978045
129,,0.0,0.0,1.6793839068780019,1.6271097288632315,0.9102376404320114,1.6097912617772105,2.065223169918445,,,0.44694259446804574,inf,,,0.7994863669942992
130,,0.0,0.0,1.1714871608540363,1.0444365574279442,0.8311763826568661,1.90428888754295,1.7822577768086514,,,0.45235697871908603,inf,,,0.9087371845939368
131,,0.0,0.0,1.6428207605964222,1.5984437788448551,0.9244266163236531,4.62788407169872,46.66489673215545,,,0.5978297680564633,inf,,,0.9024261909907237
132,,0.0,0.0,1.672039290317078,1.6409497633456007,0.9399059365843372,3.3866736055938262,17.234873388754387,,,0.5567373465730988,inf,,,0.8854885113897507
133,,0.0,0.0,1.729055311436706,1.7195022152663284,0.9415581997765076,3.444639286384579,9.049328460511749,,,0.45235697871908603,inf,,,0.883362848174951
134,,0.0,0.0,1.6889982506639907,1.6280753316485062,0.9339237227693677,2.982298718315579,4.333370961948112,,,0.44694259446804574,inf,,,0.8627218184506057
135,,0.0,0.0,1.5269797549118518,1.5207264336313298,0.9098468395170636,3.04278664476728,3.2548134919940592,,,0.4302020962658841,inf,,,0.8564792274718992
136,,0.0,0.0,1.700058776706341,1.7004305896078051,0.8910799488933862,2.614463198864587,1.9899734760745003,,,0.3943459996787778,inf,,,0.8678227063087517
137,,0.0,0.0,1.6830623230755533,1.6351082487197717,0.9694318139929272,3.937770549367934,9.264924833114803,,,0.42445136339222655,inf,,,0.9032141725202761
138,,0.0,0.0,1.6100642312472537,1.5863106403128624,0.9640133906134937,3.6203370203139684,3.074976281039948,,,0.43586655696697996,inf,,,0.875407534161843
139,,0.0,0.0,1.742608737078627,1.7005562095591291,0.9448365344675372,3.4970372648935246,5.188108725822598,,,0.48319206230712763,inf,,,0.8499827349982984
140,,0.0,0.0,1.680660387583397,1.6667469394151122,0.8964721446428063,3.0527828915325803,1.9759997712126216,,,0.42445136339222655,inf,,,0.8776455818875215
141,,0.0,0.0,1.6608395067994277,1.6342218673213642,0.9686314698799589,2.969110549609393,3.7102910366136266,,,0.42445136339222655,inf,,,0.8586396081695313
142,,0.0,0.0,1.7546159646287571,1.693592470943596,0.9516029540855281,3.295826067826789,3.865826852313666,,,0.468121228110369,inf,,,0.8746336842280127
143,,0.0,0.0,1.6458975728189968,1.5943721864677058,0.899263446564734,2.509237355688036,2.358968361089549,,,0.41268473150466,inf,,,0.8719366784402591
144,,0.0,0.0,1.6595493819943943,1.644758203074309,0.9394308641664976,2.0549961511625328,2.1629533668861236,,,0.4576907132971797,inf,,,0.784876654435529
145,,0.0,0.0,1.683676243806543,1.687144930727615,0.9248670243052538,2.0487437758098683,2.3249824252013287,,,0.44144624493110796,inf,,,0.7837682692993538
146,5.5906155880341695,-1.8262677587578287,0.0,1.54955965389584,1.466969866790031,0.7539016832440016,3.1295764171325753,5.328449549926458,,,0.6038851895711802,6.671366500917907,inf,,0.9426434183735325
147,5.027481106369141,-3.418687152331016,0.0,1.284517627847757,1.0482484140001989,0.6948676678646061,1.135953584993677,0.939561341096635,,,0.5202020156036558,5.332218918223718,inf,,0.8092352287690598
148,,0.0,0.0,1.5395932373459813,1.4674275958437795,0.8011695411743724,0.8934797001881613,0.9896809553175449,,,0.5113665138247345,inf,,,0.7996261197523771
149,,0.0,0.0,1.4781706801260097,1.4587313376333864,0.909729851574782,2.881756882611699,3.3972145901865605,,,0.44144624493110796,inf,,,0.790158935066025
150,5.703782474656199,-1.1597691031800939,0.0,1.4362171173562495,1.4128904364651185,0.7618576858233637,2.8877698711422197,2.602804914484869,,,0.524519217297268,7.2966910851390905,inf,,0.7272692104003571
151,5.703782474656202,-0.24716390723510206,0.0,1.647673950253783,1.6380112799596558,0.8687920379346328,2.533141323199871,1.9245516216632264,,,0.4928685327679205,8.842615591850866,inf,,0.8254496319711111
152,,0.0,0.0,1.491670886733639,1.487509140609398,0.7384459067910011,2.250228614534759,2.351436711238354,,,0.5202020156036558,inf,,,0.8714218692638493
153,5.703782474656199,-1.1597691031800939,0.0,1.510377871819141,1.4962637254813578,0.685279403501438,1.6266824041885741,1.7447722205702711,,,0.4732203808476458,7.2966910851390905,inf,,0.9321088875065582
154,,0.0,0.0,1.4769175472074763,1.445385610398225,0.7244804221243014,1.361204393247607,1.464129786223992,,,0.5068466436745385,inf,,,0.7857895882189141
155,,0.0,0.0,1.6298385013109877,1.5922832591378082,0.6740781078207032,1.36591638225998,1.651983200373057,,,0.541134803179459,inf,,,0.8472614998363106
156,,0.0,0.0,1.7409067639924918,1.7617917016573335,0.4990628586356863,1.5218366869231101,1.2001486993012977,,,0.5567373465730988,inf,,,0.7791302323911098
157,,0.0,0.0,1.7099763977408995,1.6877166769987466,0.7248578189167737,2.547338482395137,2.331442118837022,,,0.5641709578113449,inf,,,0.8626570879665246
158,,0.0,0.0,1.6988785845017627,1.6707922028847508,0.8455230673244627,1.9854127651953668,2.5293416313126285,,,0.5370774965580548,inf,,,0.762885251048068
159,,0.0,0.0,1.672101815615343,1.6388294962108783,0.6780551491829891,2.038513923348986,2.0026289515037843,,,0.5490601803369085,inf,,,0.8253117574102407
160,,0.0,0.0,1.5284972292929855,1.5243215460268638,0.7361271090256948,2.72688542448849,4.11371701929341,,,0.5068466436745385,inf,,,0.8369064035602166
161,5.7037824746562,-2.832878629079246,0.0,1.646730782047464,1.5996144009915922,0.7288663736554531,2.0704375160736963,1.3434208386843425,,,0.5202020156036558,6.403618643366943,inf,,0.925139493176627
162,,0.0,0.0,1.7043088164715448,1.686228357301285,0.7432834423255875,2.187955162496647,2.2114216947733794,,,0.48319206230712763,inf,,,0.8658870956103663
163,,0.0,0.0,1.6119872504732227,1.5984126873499804,0.8691538334755565,2.515806695094928,2.941453559793449,,,0.4732203808476458,inf,,,0.815855607716859
164,,0.0,0.0,1.6934723443717465,1.6436586673801419,0.8595254318172134,2.170192461694432,2.8478502560048318,,,0.47824363442641393,inf,,,0.8077889467257288
165,,0.0,0.0,1.4037935972160853,1.3775480062297698,0.7734734338324375,2.0689246130530434,2.3697211150477813,,,0.5022576003740722,inf,,,0.826856366395663
166,,0.0,0.0,1.6596168764692854,1.602809755232072,0.7957059549906111,1.751976220598083,2.013985794153712,,,0.524519217297268,inf,,,0.7608543028917356
167,,0.0,0.0,1.6961034580206336,1.7006346134495385,0.8169150396157857,2.018220932999324,2.266429307350459,,,0.45235697871908603,inf,,,0.796423651253987
168,,0.0,0.0,1.7154159688132267,1.681779522615158,0.9159113675559438,2.1692775502565977,2.279108598010741,,,0.44144624493110796,inf,,,0.7605713760425737
169,,0.0,0.0,1.591778657521217,1.5676478469652482,0.8476414783544081,2.231212298279131,3.475265390036651,,,0.43586655696697996,inf,,,0.8246122145851104
170,,0.0,0.0,1.6020803889145698,1.5632741355330255,0.6700569112453468,2.1327244241383454,2.495984612050999,,,0.5158180382284114,inf,,,0.8430186179996346
171,5.703782474656202,-3.7835090415219472,0.0,1.6935649217963498,1.7013598943406176,0.48526011786030926,2.476148777349992,3.8847646398523312,,,0.5713653840954815,6.11426012458791,inf,,0.7394902268436855
172,,0.0,0.0,1.6399010212930598,1.6184365164531418,0.6517682752324263,2.573740601992401,4.54495985301288,,,0.6008849035917525,inf,,,0.9277007063356458
173,,0.0,0.0,1.7262121746689516,1.6697580348269994,0.8014801447671699,2.6720967580848614,3.7918343393504266,,,0.5677978065141052,inf,,,0.8775813529854357
174,,0.0,0.0,1.726422420212114,1.7178887116459447,0.8502593497092903,2.4329709797224446,2.716142578112694,,,0.5287703885177266,inf,,,0.8404020316249913
175,,0.0,0.0,1.5619995534487336,1.5213514576295613,0.6143940402917991,2.0599795479274268,2.3687536770735167,,,0.5158180382284114,inf,,,0.8776576309340376
176,,0.0,0.0,1.5877870983157596,1.541610756783932,0.6640631248751876,1.6623462595257226,1.7268999749396923,,,0.48319206230712763,inf,,,0.7979361432966635
177,,0.0,0.0,1.7609464498643634,1.7256498038575043,0.8076543878007528,1.6219919071678797,2.13228504224597,,,0.5113665138247345,inf,,,0.7376415102565619
178,,0.0,0.0,1.5096470376357756,1.5041800433799057,0.7902557992413467,1.7214200430007611,2.065924612059261,,,0.5329562494928909,inf,,,0.8163419151845765
179,5.7037824746562,-3.0039921033189323,0.0,1.2735544217877024,1.1785516992753695,0.6850545886660045,2.3418255431185697,2.7097373791911865,,,0.5158180382284114,6.344969916285435,inf,,0.869978920215383
180,,0.0,0.0,1.4952329191206575,1.4625096379448939,0.7451236825346105,2.310691413324013,2.8006995040489944,,,0.5202020156036558,inf,,,0.7350681412657586
181,,0.0,0.0,1.6329127092488176,1.628888604614859,0.8655732102666257,2.501201845675897,4.302325750840199,,,0.4302020962658841,inf,,,0.7288772808030974
182,,0.0,0.0,1.7646579804645925,1.7522757992218256,0.7893749789100382,2.585174881487657,5.926481737508315,,,0.44144624493110796,inf,,,0.7347364615966202
183,,0.0,0.0,1.5586789657822506,1.5309470523431712,0.7932604779111507,2.1491213158092646,2.9049435013919487,,,0.48319206230712763,inf,,,0.7211216197491984
184,,0.0,0.0,1.7048618652005367,1.693004592199556,0.8987819760202295,2.705359571114417,3.9571917672323096,,,0.4576907132971797,inf,,,0.7249802248807222
185,,0.0,0.0,1.7771524478596845,1.7573709684725576,0.7662342938234529,2.550755490735767,2.8235750389138543,,,0.4629450596409901,inf,,,0.7907182197853887
186,,0.0,0.0,1.686768449123,1.6799131711623536,0.8798003720774678,1.952206189310903,2.4335185990610935,,,0.45235697871908603,inf,,,0.789757194126826
187,,0.0,0.0,1.7162595945524646,1.7014228664233766,0.7865524799453503,2.367492672623156,2.8414560226505885,,,0.4928685327679205,inf,,,0.8062508768973977
188,,0.0,0.0,1.5200591870251259,1.520808078780558,0.560818963063288,1.6309400829855163,1.6823650187046666,,,0.5158180382284114,inf,,,0.7889639272243999
189,,0.0,0.0,1.5437508988422208,1.5094639641086305,0.7840920120396088,1.6958044437259079,2.030996642122947,,,0.5490601803369085,inf,,,0.7944426516159753
190,,0.0,0.0,1.6754062000615342,1.6329914414420084,0.8298910459749876,1.718169368041527,2.3914242521831808,,,0.47824363442641393,inf,,,0.7646489042245552
191,,0.0,0.0,1.7041645678477941,1.6678295601356963,0.7005818464265098,1.799902861964085,1.7425374429572378,,,0.5329562494928909,inf,,,0.8917519474460529
192,,0.0,0.0,1.7284109681365676,1.7143053175014458,0.8220530003909596,1.491205795134164,1.7350038464837307,,,0.5158180382284114,inf,,,0.7658194233110787
193,,0.0,0.0,1.67301441314005,1.646519816520022,0.848786364940942,1.6785932078170152,1.9952048521877754,,,0.4928685327679205,inf,,,0.7717046564304739
194,,0.0,0.0,1.480983670555819,1.3648148540841218,0.7570156458350868,1.6634769001158864,1.9327841169450495,,,0.5022576003740722,inf,,,0.8093871703424488
195,,0.0,0.0,1.6749971419797915,1.655731693384752,0.7984552281008728,1.5455718718670322,1.8814303552392437,,,0.5567373465730988,inf,,,0.7521374835694118
196,,0.0,0.0,1.6631554741062027,1.6358399930621208,0.7523016629065278,1.3854139223941748,1.428123541770786,,,0.5022576003740722,inf,,,0.7184348194356907
197,,0.0,0.0,1.3694942902015814,1.236453723990132,0.755752520301978,1.5272655825600987,1.7449297553248133,,,0.541134803179459,inf,,,0.8299507824708214
198,,0.0,0.0,1.6562104747323194,1.566277308952665,0.8838815153802364,1.8880818974074114,1.7684777356197496,,,0.468121228110369,inf,,,0.8103071406385123
199,,0.0,0.0,1.724790226754096,1.6419333394715996,0.8916379660225177,1.6147561665869592,1.8487687828370885,,,0.4732203808476458,inf,,,0.8017433493362786
200,,0.0,0.0,1.5847777280515334,1.5505661766487775,0.7983307428936923,1.5300781048293481,1.7736543973326122,,,0.5158180382284114,inf,,,0.761796643770236
201,,0.0,0.0,1.142068664840898,1.1239788442931529,0.848606493659615,1.9024930338506985,2.260026457292917,,,0.44144624493110796,inf,,,0.7930500569553195
202,,0.0,0.0,1.6338250144855928,1.6099346664027376,0.8359380458242677,1.6449377843522996,2.2455643270050833,,,0.4629450596409901,inf,,,0.7677899801266342
203,,0.0,0.0,1.6523510607636573,1.5651786022475882,0.8755449956652538,1.8184507060520918,1.7913295309144628,,,0.4066654671944331,inf,,,0.7740421972452326
204,,0.0,0.0,1.465907279711316,1.408382617029257,0.8725975827258408,1.9043865366170665,1.7715427727480126,,,0.47824363442641393,inf,,,0.7953144171336636
205,,0.0,0.0,1.7213886914430512,1.6758065523409333,0.8959246237530548,2.1133705702269774,2.4896430840680916,,,0.4880666971167561,inf,,,0.7916665043196398
206,,0.0,0.0,1.6753524162465983,1.632300057972154,0.8846767979252134,1.8353698304270623,1.6927299956249455,,,0.4302020962658841,inf,,,0.8047118402255723
207,,0.0,0.0,1.6583624080302293,1.6331846578539617,0.9519508373316358,2.379965910466657,2.3466620044553537,,,0.40055318934786044,inf,,,0.8564231730383907
208,,0.0,0.0,1.6212317955723534,1.6067509596014267,0.7938152243850001,2.2489363639926077,1.7264167682058669,,,0.5677978065141052,inf,,,0.9113251173078073
209,5.703782474656201,-0.3232143402305181,0.0,1.2186632172433858,0.9953074498116379,0.7496969066127303,2.1866044716254365,1.6713987149523462,,,0.585052858160615,8.574351605256187,inf,,0.8997980450979244
210,,0.0,0.0,1.4461441652123432,1.4039923444252167,0.8172553398447037,1.8828521972792915,2.291170826028093,,,0.4880666971167561,inf,,,0.8679790877918252
211,,0.0,0.0,1.450844103609752,1.4149176839811135,0.8573994184587784,2.12185125698888,2.5203298597019006,,,0.5287703885177266,inf,,,0.8675308632274509
212,,0.0,0.0,1.6863868240155568,1.6525811114163973,0.8992203049697027,2.325461633547382,1.5284564197422257,,,0.44694259446804574,inf,,,0.8678529499539348
213,,0.0,0.0,1.5083927727306379,1.5125433480641899,0.8953058688912339,2.5365989951936645,2.181840146760235,,,0.44694259446804574,inf,,,0.8981170730942296
214,,0.0,0.0,1.52184429340767,1.47767826137179,0.6787718928128684,2.142266772281102,2.4536456820415684,,,0.5158180382284114,inf,,,0.8957879062322677
215,,0.0,0.0,1.6022970057200383,1.550960291215528,0.911844381453181,1.9999814273729783,1.852344501256527,,,0.4928685327679205,inf,,,0.8471449957952015
216,,0.0,0.0,1.4907098000686958,1.4776799073019058,0.8814760457846428,3.919583795103193,11.503788912460738,,,0.5641709578113449,inf,,,0.8594666030564423
217,,0.0,0.0,1.6350689269681122,1.6023469022764658,0.6228905093578939,3.604559980157385,3.209576415505782,,,0.6233814453054027,inf,,,0.7080521350208122
218,5.7037824746562,-1.1027312784335321,0.0,1.6254324118591348,1.615931673229391,0.7578130858577216,1.7069109179976116,1.1139132581107773,,,0.6528756675646988,7.347121938765983,inf,,0.8671813639392941
219,5.131936050694246,-0.6842581400925661,0.0,1.6889433089287231,1.6214226190094,0.6965439147348883,0.8031050971444433,0.5727442983388037,,,0.6357360191111145,7.117105508164011,inf,,0.9538983007793059
220,,0.0,0.0,1.5669743984285875,1.5112077706778164,0.5459017952803735,0.5485715540937574,0.32642384477040454,,,0.6447042257417027,inf,,,0.9350548684008428
221,,0.0,0.0,1.7233001413370448,1.7020352113937613,0.6704492559071296,2.06242244526691,0.8387922412463187,,,0.6333676938231112,inf,,,0.9557358134331839
222,5.703782474656201,-0.874579979447284,0.0,1.71024811984958,1.6975558260068,0.6627344734207783,0.892347404177131,0.4719920162394329,,,0.6447042257417027,7.578923552823307,inf,,0.9487905802999951
223,,0.0,0.0,1.763080747544534,1.7434977496643793,0.8118709027590773,0.9962210860038537,0.7560718449726377,,,0.6547956803312163,inf,,,0.9569978186023648
224,,0.0,0.0,1.753624562990458,1.7254883880545113,0.6970328045702014,1.0741474767759371,0.790117727023306,,,0.6566669596287297,inf,,,0.7793971936916415
225,,0.0,0.0,1.597420076521267,1.5895698361031654,0.6827011642836113,0.7272041604514504,0.5020057437665076,,,0.6380535849069913,inf,,,0.9494141199842273
226,,0.0,0.0,1.5417409823831463,1.507814304254788,0.7397533261352637,1.2559427831226686,0.9634159800342599,,,0.6602640781246099,inf,,,0.7384540382300312
227,,0.0,0.0,1.3888611092534267,1.3671537322781289,0.7958599146751679,0.9941722060246089,0.7081093915729881,,,0.6425374456860184,inf,,,0.9548187356848429
228,5.703782474656202,-0.2661765154839561,0.0,1.4723859970104376,1.3908956708914733,0.7687117156580321,2.5955051699803455,1.224882901320143,,,0.6309483474627791,8.768507619697143,inf,,0.908666144450891
229,5.7037824746562,-1.597059092903736,0.0,1.6211878424389208,1.5924488384343416,0.7673696553905767,3.7868804094326567,22.326603876994557,,,0.6153451465759925,6.9767481504690885,inf,,0.7439834134132844
230,5.7037824746562,-1.406933010415196,0.0,1.4289300663887041,1.3746163028428922,0.6703301644944786,3.8046885399496526,4.229546516148853,,,0.5915533975974677,7.1034998561082325,inf,,0.6680194809292519
231,,0.0,0.0,1.7127359447245594,1.7027632936505843,0.6600542067654062,3.8212543378539183,7.418476956765133,,,0.5883313578629602,inf,,,0.8751566578514197
232,5.703782474656199,-1.3308825774197799,0.0,1.396007436357142,1.3674358945939942,0.71459424703065,2.881521955425795,4.349508076978072,,,0.6097226960127671,7.159069707263043,inf,,0.8519327223258277
233,5.274226475435951,-1.2482335991865083,0.0,1.6340036637249917,1.5927667450489045,0.8457075366682507,3.741003732930289,4.253898858958516,,,0.62595550513784,6.662632820949152,inf,,0.8935350496776407
234,,0.0,0.0,1.7488770567233598,1.7233423903697054,0.8199934900045919,3.6692676461334193,4.7591680486895465,,,0.62595550513784,inf,,,0.7053597371964416
235,5.703782474656201,-0.6464286804610362,0.0,1.6242745171361828,1.63107777334187,0.7467632457478091,3.6190629076046683,3.4880647500487423,,,0.6153451465759925,7.881204424696241,inf,,0.8439899395297255
236,,0.0,0.0,1.6686974621452246,1.6454694539245878,0.8101099104535507,3.3586926053429513,4.6418995947027035,,,0.6180765742263259,inf,,,0.9143914339328796
237,,0.0,0.0,1.6355747585000318,1.6123824766590897,0.8405532548822022,4.234172476056945,11.835113198558286,,,0.6333676938231112,inf,,,0.9177742659003192
238,5.7037824746562,-1.578046484654882,0.0,1.6889306860407476,1.6315198944138931,0.8001701074224117,3.5056411942655763,2.7573193101445646,,,0.6447042257417027,6.9887243415158045,inf,,0.8219260238246445
239,,0.0,0.0,1.5915652122749786,1.571298162468303,0.7741061558670438,3.8774669789517815,93.80119028509414,,,0.5883313578629602,inf,,,0.7603524724242395
240,,0.0,0.0,1.7019901744650745,1.6660908636395222,0.8401261236008962,4.062093501826873,36.16523301180734,,,0.4928685327679205,inf,,,0.9197416655875675
241,,0.0,0.0,1.660455569475171,1.609803608387545,0.6420672678375837,3.4725599331474384,2.927661527062246,,,0.5567373465730988,inf,,,0.9370140306245354
242,,0.0,0.0,1.7024273084977983,1.7086868192034508,0.8219712091199933,3.706108349880703,99.4707108139214,,,0.468121228110369,inf,,,0.9097420561249778
243,5.320369584638899,-5.320369584638899,0.0,1.6220147094959754,1.5978343869280214,0.7821076579640759,3.8102597592101626,6.101602103252361,,,0.6153451465759925,5.248469560820469,inf,,0.7041932928225098
244,5.491845094757505,-5.363702042546496,0.0,1.704468477932073,1.6691897658340908,0.7992572802793965,4.3856165660516835,12.703021735069541,,,0.6333676938231112,5.403677882205863,inf,,0.7496387806341803
245,5.03374020011492,-5.03374020011492,0.0,1.7397873821714036,1.7056246351051547,0.8711655058367774,4.157498974571406,11.612331991284073,,,0.6357360191111145,5.027442412412637,inf,,0.8024876172300783
246,5.703782474656201,-0.22815129898624803,0.0,1.2798834021410432,1.2765245121986106,0.6514298636450707,3.429453243950516,8.983773390205588,,,0.541134803179459,8.922658299524402,inf,,0.9369447368615547
247,,0.0,0.0,1.7483081450593607,1.7255420705652693,0.8150513103026951,3.5305820924120423,13.91616232382588,,,0.5677978065141052,inf,,,0.9027801663644448
248,5.703782474656201,-0.05703782474656201,0.0,1.6485851443386088,1.5815740304050634,0.8065555110202344,3.661605713142615,4.6736622631795335,,,0.6038851895711802,10.308952660644293,inf,,0.947061502504242
249,,0.0,0.0,1.617242058894791,1.5989399004055802,0.7376020297646227,2.725580723315161,2.6657960906185134,,,0.5883313578629602,inf,,,0.9330929296942938
250,,0.0,0.0,1.6315177415684856,1.612822859832712,0.881159539998282,3.3993624772660596,4.42931415502029,,,0.6380535849069913,inf,,,0.941031477528795
251,,0.0,0.0,1.5520858375706748,1.532656360018416,0.8574106602281555,3.4089063420589802,7.450623100529515,,,0.5370774965580548,inf,,,0.9186198767779297
252,,0.0,0.0,1.2157702752700386,1.2117619084369722,0.7478953142723852,4.434381328915669,8.051305404649831,,,0.6380535849069913,inf,,,0.8820248506414397
253,,0.0,0.0,1.6083863676995738,1.557495492712797,0.7901510393868884,1.9923590440926284,2.0434461387791343,,,0.6652988471865258,inf,,,0.9417880594351508
254,,0.0,0.0,1.1421148399083982,1.0764007203192794,0.6558607988729619,2.1910730992551026,1.569011768026741,,,0.6425374456860184,inf,,,0.9556102208713007
255,,0.0,0.0,1.7453550026477274,1.7078247013728567,0.7213828345453703,1.6890470942291995,1.9439209021479908,,,0.62595550513784,inf,,,0.9376888904521212
256,,0.0,0.0,1.599400591460893,1.5985989721882137,0.7075245017041522,2.2705230511507644,2.165989442082337,,,0.6403206450210053,inf,,,0.9496970070200471
257,5.703782474656202,-0.5513656392167662,0.0,1.21613319654982,1.1288447994231936,0.5737306648207006,2.9347104155037176,2.9996316173758637,,,0.6468212168108125,8.040269119325927,inf,,0.9030841988849069
258,,0.0,0.0,1.5122083033427802,1.5001096699030365,0.7566560596827128,4.082567701498032,25.944281108641583,,,0.5915533975974677,inf,,,0.8961884523153859
259,5.703782474656202,-4.410925113734129,0.0,1.5761653702984826,1.5507037761567695,0.7298596911145127,4.015952851132723,14.162345839923553,,,0.5915533975974677,5.960827577646092,inf,,0.9048862815989035
260,5.703782474656198,-1.1977943196778016,0.0,1.6314355073673255,1.6161961190763654,0.7787403146951448,3.623461989285318,11.613558843266691,,,0.6284777104787076,7.264430222920869,inf,,0.9435673797470975
261,,0.0,0.0,1.5114791773040273,1.471750638711061,0.7951651207916657,4.2191640029114685,4.734626622204353,,,0.6284777104787076,inf,,,0.8767977214559867
262,,0.0,0.0,1.4716731198552588,1.462323664090518,0.7933563748892456,3.6421265726322885,35.130150089568346,,,0.5978297680564633,inf,,,0.9214659061894096
263,,0.0,0.0,1.4943793899325728,1.460449669280397,0.7837540484938248,3.7330992113275743,46.978702548278626,,,0.6153451465759925,inf,,,0.9425132198877362
264,,0.0,0.0,1.7350787941363004,1.7160060216317938,0.819380185882779,2.8762007231179907,2.7077896001899595,,,0.5158180382284114,inf,,,0.829967520813656
265,5.127615850051439,-4.973787374549896,0.0,1.3677199359968042,1.3722299268150853,0.8549885795154506,3.6732067538349344,4.50164379479058,,,0.6038851895711802,5.103116146890421,inf,,0.8354103916549619
266,,0.0,0.0,1.4183869929354345,1.3892324786958363,0.8616541879298119,4.087562967871262,3.761809686294624,,,0.4880666971167561,inf,,,0.8848867273274539
267,,0.0,0.0,1.6062243656074577,1.5898588349997678,0.8522264832846667,3.9086448384804084,21.762750703089797,,,0.41268473150466,inf,,,0.8309452581047219
268,5.703782474656202,-4.734139453964647,0.0,1.623892172657269,1.604388955993507,0.7572021456968466,4.066969001814794,15.340839093918255,,,0.4732203808476458,5.8901120528476945,inf,,0.911394022099679
269,,0.0,0.0,1.768087468638319,1.6989330851315827,0.8748750405318237,4.713649583193372,6.54386993134158,,,0.43586655696697996,inf,,,0.9084061706578214
270,,0.0,0.0,1.730663337058979,1.7420697883314398,0.7409678354836027,3.4071023648888485,8.825468127455744,,,0.42445136339222655,inf,,,0.8472240039448861
271,,0.0,0.0,1.755696502884561,1.7577106540319518,0.726431033529624,3.845232047007358,46.31482621998671,,,0.5068466436745385,inf,,,0.8228804640878417
272,,0.0,0.0,1.7182750676173664,1.6938633061327044,0.7218757817209044,3.5408657402011037,24.208309165053375,,,0.44144624493110796,inf,,,0.9367539355500049
273,5.703782474656201,-5.1714294436882895,0.0,1.6323054632940317,1.6471634521110736,0.7843914869055347,3.285454496585065,6.2921429643544435,,,0.5748741956352443,5.801762883016405,inf,,0.9013061861636661
274,,0.0,0.0,1.5533194190755353,1.555452557970581,0.7839898768236536,2.9941439690629053,1.5644349080173727,,,0.585052858160615,inf,,,0.7468912160884537
275,,0.0,0.0,1.4335869941593251,1.4131991262420434,0.8337942755403086,3.317743612072846,4.940147006937823,,,0.5287703885177266,inf,,,0.9350694604279843
276,,0.0,0.0,1.7139942559197434,1.676341129944216,0.8245443973795724,3.7341446865322885,23.71324183133944,,,0.5329562494928909,inf,,,0.9191182152389645
277,5.234046368822188,-4.222130737516565,0.0,1.7559097468371254,1.7444357803801038,0.5276218278189888,3.818413148934845,5.747663635037512,,,0.5677978065141052,5.401211789710669,inf,,0.9147386549168522
278,,0.0,0.0,1.663931340849086,1.6023462446748173,0.6717032975792169,3.5222239023681663,13.834973629437822,,,0.5677978065141052,inf,,,0.9369446974445825
279,,0.0,0.0,1.4357294225374342,1.4047710928005581,0.8276670816096641,4.499443070175061,4.802862261584924,,,0.5748741956352443,inf,,,0.813662887160145
280,5.291261682986922,-4.356472118992565,0.0,1.491655702638563,1.457068282364062,0.7477840453497543,4.3713762158837115,14.226096372520761,,,0.6425374456860184,5.431214040014468,inf,,0.8338724218828669
281,5.101596822251887,-5.016570208547688,0.0,1.6857010300105668,1.6590031240403595,0.720399137022425,4.154568228943973,14.500829804924482,,,0.62595550513784,5.0410945015809645,inf,,0.9207574368274501
282,5.448022285037825,-3.3959338910069112,0.0,1.6882381979287362,1.6739166013953783,0.7618516939519653,4.419238732667923,45.90581836854804,,,0.6207552362147116,5.8623875048328395,inf,,0.7864748911237025
283,5.703782474656201,-3.1941181858074725,0.0,1.422250755139115,1.4057740351785186,0.6496847422368132,3.961473050694567,74.10214703812834,,,0.6180765742263259,6.283600969909143,inf,,0.802475107874122
284,,0.0,0.0,1.585610533676814,1.5874468382905877,0.6447479615742112,4.175009250931986,18.74471168340733,,,0.5915533975974677,inf,,,0.9360149115169987
285,,0.0,0.0,1.6448064163266933,1.6284908935439468,0.6846506378716141,3.54846189880956,29.4182795144255,,,0.5567373465730988,inf,,,0.8179915404075012
286,5.7037824746562,-2.547689505346436,0.0,1.5178439520430986,1.5151771910448284,0.8219126615413119,3.195011243738799,4.853170478977452,,,0.5287703885177266,6.509725149361491,inf,,0.8344760290336699
287,,0.0,0.0,1.7044203356679488,1.67020256601567,0.5826614791094742,3.4794246369947097,8.841318865997284,,,0.4576907132971797,inf,,,0.7317172539643471
288,,0.0,0.0,1.6555996792409973,1.6453619560482042,0.7040724114594576,4.0359407902852436,2.4408133011108983,,,0.5287703885177266,inf,,,0.9229789758584708
289,5.580996402671295,-3.255581234891589,0.0,1.606508539427922,1.5938758320761885,0.7682412167168042,4.095964224580938,12.060509302668596,,,0.4629450596409901,6.0796887805228215,inf,,0.9066966987602929
290,5.703782474656202,-3.7835090415219472,0.0,1.5808377654620356,1.5603978522278796,0.9011127274899039,3.9755236921983186,8.76437577264203,,,0.43586655696697996,6.11426012458791,inf,,0.8311837380998524
291,5.703782474656203,-4.563025979724962,0.0,1.5781016360516966,1.5427017619105547,0.8819083822409164,4.572559030595351,50.477406638116655,,,0.5113665138247345,5.926926025970411,inf,,0.8868650756325046
292,,0.0,0.0,1.7166497955552935,1.6735564094001933,0.7806728156032758,4.516529794397745,31.614405983883206,,,0.5329562494928909,inf,,,0.7290001363375721
293,,0.0,0.0,1.573071749492224,1.5522536039729937,0.7889019046423481,4.563847191239307,114.1224624574739,,,0.5604843169999094,inf,,,0.9164018623263928
294,,0.0,0.0,1.5254166827428286,1.4775872416661657,0.8272754517858492,4.09091809872202,122.23028008311134,,,0.5202020156036558,inf,,,0.8492323479878396
295,,0.0,0.0,1.5994782660849982,1.592782489531792,0.7789960087013078,5.670677048111208,100.62879522274626,,,0.5713653840954815,inf,,,0.9266155732795713
296,5.7037824746562,-1.292857360922072,0.0,1.5596288058427794,1.5082978403306144,0.7342522864288104,4.6627393455521675,6.920295388860057,,,0.6584896970785714,7.188057244136296,inf,,0.8618343321466708
297,,0.0,0.0,1.5199454515354969,1.5020140346998812,0.6980384733131983,4.172512400438231,87.40046272553678,,,0.6153451465759925,inf,,,0.856685305427817
298,,0.0,0.0,1.4605174311609317,1.4460725948860096,0.7192502315677981,4.342076306176787,32.72629313165181,,,0.541134803179459,inf,,,0.9117566700625427
299,5.6583978378338236,-3.1687027891869413,0.0,1.7558820780647655,1.7305963710539922,0.7405013303259824,4.113935864293941,2.40413609619244,,,0.6038851895711802,6.220179143471647,inf,,0.6320080239448399
300,5.282360084195735,-4.894987011354715,0.0,1.6058234401966331,1.5896378157446363,0.818021553234243,5.069212018919422,11.861566082145965,,,0.6284777104787076,5.293882769480171,inf,,0.9366984059415874
301,5.478165154078331,-3.4877651480965377,0.0,1.7307546763421746,1.7063924383149476,0.7834513088311186,3.653565873475944,5.611397199226409,,,0.6284777104787076,5.870230682293865,inf,,0.6264364395018621
302,5.1654381644213085,-5.1654381644213085,0.0,1.6856157801929506,1.6464912948375128,0.7545685516424615,4.091851616796012,16.268688872155582,,,0.5978297680564633,5.129043525146558,inf,,0.7653864820129621
303,5.703782474656201,-3.4222694847937207,0.0,1.6226148509365734,1.5089760730187396,0.8006074495618017,3.780921314670567,12.19612181557361,,,0.5490601803369085,6.214608098422191,inf,,0.8590298353542745
304,5.54666911372928,-5.54666911372928,0.0,1.6520581874200757,1.6003573297256442,0.7947671875694373,5.2818699999531065,60.477115172312715,,,0.6403206450210053,5.4994820111434715,inf,,0.55819442648885
305,5.041790411283326,-5.041790411283326,0.0,1.7665002366026674,1.7388817405297716,0.8348510246995612,3.7655740766787473,56.06585298338287,,,0.6233814453054027,4.909282799835968,inf,,0.8215694372352075
306,5.449208419250548,-4.995107717646335,0.0,1.5172466293345437,1.5141027689976427,0.7563154098502723,3.0610144379178403,2.392952745767628,,,0.5713653840954815,5.477975805922507,inf,,0.9340261959852572
307,5.010635294096257,-0.38414870588071304,0.0,1.4135705378405679,1.3145953760882705,0.7603422485223774,3.9604251250018754,2.1717099516491545,,,0.6284777104787076,7.578923552823307,inf,,0.855591598030173
308,5.703782474656202,-0.34222694847937213,0.0,1.7141749882032116,1.6852410960920663,0.7774554738618162,3.0227016731577026,3.154990053202543,,,0.585052858160615,8.517193191416238,inf,,0.7884956314868483
309,5.359632475916645,-2.554758146853601,0.0,1.5827477394933918,1.5678559382813226,0.660287367184293,3.0234684096917532,2.8751275645036984,,,0.6038851895711802,6.041588934290551,inf,,0.8518130267400886
310,,0.0,0.0,1.4752568530955512,1.4390903912222561,0.7905661841927165,2.916219760290289,4.984473815334582,,,0.4732203808476458,inf,,,0.8796310497716338
311,5.7037824746562,-0.9506304124427,0.0,1.6344179138422121,1.6027427606346056,0.6624627389379202,3.352736092562507,4.526352270786415,,,0.4066654671944331,7.495541943884256,inf,,0.8938074308542261
312,,0.0,0.0,1.773216142318725,1.7409748873371056,0.6763080235095104,3.1420394034988868,6.8438798467479485,,,0.4629450596409901,inf,,,0.8681673103648487
313,5.703782474656201,-1.2358195361755102,0.0,1.4440884389561468,1.4349335005228274,0.7050928996458092,2.9018996269042425,2.3834850375718113,,,0.40055318934786044,7.233177679416765,inf,,0.874074534432102
314,,0.0,0.0,1.6572429573545215,1.5648025094743074,0.6385084407306211,1.5486502950354133,1.6023756186662808,,,0.38804190201132227,inf,,,0.8814851640974256
315,,0.0,0.0,1.6387091159855969,1.6232354388666594,0.8647148789685581,1.4733868769024077,1.5939993610638838,,,0.36181263880445963,inf,,,0.7928458260899175
316,,0.0,0.0,1.5717229279337488,1.567043390961427,0.8975411415664636,1.5618535279332684,1.6135654283182854,,,0.3943459996787778,inf,,,0.8237443253994147
317,,0.0,0.0,1.6059048315348914,1.5851811252966137,0.8349150137246306,1.5691510738178007,1.6237932041817977,,,0.47824363442641393,inf,,,0.8379972153893548
318,,0.0,0.0,1.7661353600264746,1.7379340268881378,0.8025284513867925,1.392090487605072,2.0200041256740207,,,0.4880666971167561,inf,,,0.7994873384720994
319,5.703782474656203,-0.38025216497708014,0.0,1.3790309891788088,1.3715876250430574,0.6123363455156159,1.6541458530811346,1.9042436381521022,,,0.49759852643134905,8.411832675758411,inf,,0.8845249929542747
320,,0.0,0.0,1.643133807989563,1.6067225471190474,0.7988866911774224,1.476910140275439,1.9720949297108235,,,0.4302020962658841,inf,,,0.7608813592104829
321,,0.0,0.0,1.7641601462455483,1.7001427193782184,0.8548955409548529,1.4820172426140923,1.728499760204517,,,0.45235697871908603,inf,,,0.8096989776146976
322,,0.0,0.0,1.716545634710263,1.7016922606777527,0.5972968884268819,1.6028389423212184,1.8031272346696172,,,0.5329562494928909,inf,,,0.900747456573617
323,,0.0,0.0,1.488390006794941,1.4632131074415038,0.7676015896379287,1.493579211698004,1.7176603981017848,,,0.5370774965580548,inf,,,0.8407212342005697
324,,0.0,0.0,1.4613535263666624,1.4566118628390614,0.8517205673910944,1.4210486866883316,1.8781804978627574,,,0.5068466436745385,inf,,,0.8077341317723489
325,,0.0,0.0,1.1554246813415538,1.1511012996808991,0.5783133111050216,1.2259727550140762,1.2454122209276224,,,0.5158180382284114,inf,,,0.7560425011245212
326,,0.0,0.0,1.6754646522832237,1.671170197531591,0.6707483757556979,1.6521473583726045,1.68694556094516,,,0.5677978065141052,inf,,,0.7494177964995505
327,,0.0,0.0,1.5887501942825084,1.5592378488983074,0.4637773711260987,1.8665818751131236,2.0869451146370865,,,0.5370774965580548,inf,,,0.789044647362441
328,,0.0,0.0,1.5762726961611913,1.5292159971795183,0.6473398140767086,3.010555965241418,4.661380691419823,,,0.5783247308855777,inf,,,0.6912326549387574
329,,0.0,0.0,1.097636883256277,1.0496379662843338,0.7090605426012405,2.682841240407441,3.3075106461657655,,,0.49759852643134905,inf,,,0.6741187157207127
330,,0.0,0.0,0.8188709226858901,0.7763440149461336,0.7882857930295796,1.63175969320438,1.654676764897351,,,0.5113665138247345,inf,,,0.8324582089823704
331,,0.0,0.0,1.6646654465480528,1.6041645670317968,0.8702680934057565,1.8015481930178265,1.7638071499261727,,,0.4629450596409901,inf,,,0.8120626911505839
332,,0.0,0.0,1.7057567164131866,1.6146015831799099,0.9131100461322537,2.0280104404956707,2.1147877013773204,,,0.468121228110369,inf,,,0.8573344961108323
333,,0.0,0.0,1.6513994903863671,1.6409514401896765,0.8684339304351716,2.2492013883895803,2.2332413422884545,,,0.4629450596409901,inf,,,0.8942580906683931
334,,0.0,0.0,1.7472597703280313,1.751640354762025,0.8510247838706826,1.865927758597935,2.1053830008251677,,,0.4732203808476458,inf,,,0.8182322093322152
335,,0.0,0.0,1.6398993211706996,1.5912511537649432,0.8867649875070169,1.9157069137844098,2.067797138166666,,,0.41861278947482794,inf,,,0.8102659694357555
336,,0.0,0.0,1.626537308109523,1.549103455150877,0.8549885915265862,2.140042720940815,2.3331689781992124,,,0.44144624493110796,inf,,,0.8358762526467693
337,,0.0,0.0,1.677604468001233,1.6493153298679153,0.7519695848976777,1.7835336546522043,1.907876374568624,,,0.47824363442641393,inf,,,0.7667597563304108
338,,0.0,0.0,1.6543354249562408,1.6243082462380174,0.5976724516703282,1.7891015281770584,2.2204250945028416,,,0.49759852643134905,inf,,,0.848497994475957
339,,0.0,0.0,1.7074860052046335,1.685241654300775,0.7642136997681925,1.6132827110468222,2.0052436199026324,,,0.4880666971167561,inf,,,0.7549114975757956
340,,0.0,0.0,1.6364872354756044,1.6073530303303794,0.8340463355867924,1.3225341692110184,1.7085063317558844,,,0.4629450596409901,inf,,,0.7020115854453983
341,,0.0,0.0,0.933109827682522,0.7963784040672971,0.790313787883531,1.6130549742932845,1.3689614700329096,,,0.524519217297268,inf,,,0.8695781241640658
342,5.703782474656201,-4.905252928204333,0.0,1.578974123426715,1.5412606124223158,0.6963456471352131,2.0855664506665006,1.8494747893394128,,,0.5022576003740722,5.8546053643907845,inf,,0.8880334300050413
343,,0.0,0.0,1.6935317326651989,1.682842161193384,0.8445002588204134,2.616286160882264,3.4875074602302973,,,0.49759852643134905,inf,,,0.8668201669583413
344,,0.0,0.0,1.6685483505793448,1.6152945537017043,0.7518702756338831,2.6544280451787547,1.9162851654341488,,,0.49759852643134905,inf,,,0.7953206709121701
345,,0.0,0.0,1.6839302137591927,1.6582246900961137,0.5118103561112186,1.3866660382302558,1.5212276701311498,,,0.5451288209179292,inf,,,0.8266880000367464
346,,0.0,0.0,1.500287818411433,1.48028917762918,0.7377949402464175,2.126632201854784,2.081349178493128,,,0.48319206230712763,inf,,,0.8106854587605622
347,,0.0,0.0,1.5923331369702043,1.5550558148842046,0.8304113742026102,2.2334261879173662,3.1185346326051664,,,0.48319206230712763,inf,,,0.6843160616206295
348,,0.0,0.0,1.3946664759856842,1.4010142310129277,0.6854458355990213,2.3722703276556034,2.407922839373981,,,0.48319206230712763,inf,,,0.7677469141431535
349,,0.0,0.0,1.6031600002876347,1.5581970318493719,0.8429878474126761,2.3129593423363795,2.3329594934589752,,,0.48319206230712763,inf,,,0.7274975420129405
350,5.703782474656201,-3.0610299280654947,0.0,1.739105079337619,1.7460630248031803,0.7130156066203774,2.7062575938332967,2.8974895954546867,,,0.5287703885177266,6.326160584327939,inf,,0.8588023079763563
351,,0.0,0.0,1.546749325654446,1.52316613696432,0.7370045996116996,3.804679571973752,3.230887627307915,,,0.541134803179459,inf,,,0.8756838370769716
352,,0.0,0.0,1.6563701128612331,1.562144991849461,0.7566173332129893,2.5101828760910117,2.46786166796383,,,0.5713653840954815,inf,,,0.8353243693223501
353,5.703782474656202,-3.840546866268509,0.0,1.5335551145052917,1.3485722689510324,0.8775045310047607,2.6410046127034073,3.007083378370813,,,0.5202020156036558,6.099297251911198,inf,,0.8527118140117547
354,,0.0,0.0,1.4791437836993162,1.439422025820011,0.7252487250196294,2.2181969890325752,2.61314654046112,,,0.4880666971167561,inf,,,0.8418187955843535
355,,0.0,0.0,1.6663127849934627,1.6251159592542286,0.7666109752324302,2.2817315996677574,3.0810743621019356,,,0.42445136339222655,inf,,,0.801360716086038
356,,0.0,0.0,1.7607917262279533,1.7172747110878723,0.9116121964497228,1.9607622165935525,1.9928013293923896,,,0.43586655696697996,inf,,,0.7603440170196145
357,,0.0,0.0,1.6963367300958927,1.6799241070693753,0.9125855982331439,2.161586349002042,1.7542558256280278,,,0.4066654671944331,inf,,,0.812880810197471
358,,0.0,0.0,1.6530470814437344,1.6370698039950675,0.9345039905369507,2.485283784157433,2.703216210231886,,,0.4066654671944331,inf,,,0.8700324040777081
359,,0.0,0.0,1.6793359259449614,1.6140236735019613,0.8662000502128,2.5356201315104725,2.3237801506026137,,,0.42445136339222655,inf,,,0.8205499394339624
360,,0.0,0.0,1.6870098815024765,1.6671611783013711,0.9072997528870193,2.355732377615834,3.3600286974250277,,,0.4302020962658841,inf,,,0.8311841876278458
361,,0.0,0.0,1.7680633437472892,1.7332061736067759,0.8765028955204841,2.24664476373957,2.1342056383246466,,,0.44144624493110796,inf,,,0.8401178802510761
362,,0.0,0.0,1.661577833052337,1.661741538719979,0.8884016636319845,2.4180822887993094,3.5778342507800613,,,0.4732203808476458,inf,,,0.7990028013593496
363,,0.0,0.0,1.7542892683022686,1.7319681996928176,0.7896664301604303,2.227003851316743,2.5602919433135742,,,0.5370774965580548,inf,,,0.7093861232677784
364,,0.0,0.0,1.632473290489885,1.591459296537495,0.9056113633950559,3.3042380868642476,4.093853288931675,,,0.5713653840954815,inf,,,0.8023096315574676
365,,0.0,0.0,1.6349756186901492,1.5993565071544444,0.8787880507460295,2.8893858917102815,3.500359515479387,,,0.468121228110369,inf,,,0.8187837856493704
366,5.703782474656203,-1.7871851753922767,0.0,1.3067757575606684,1.2899147567616023,0.6734652498009589,2.8712477026428833,3.284895546436881,,,0.552929491858785,6.864270167042398,inf,,0.7056290780841894
367,,0.0,0.0,1.596116215829723,1.608377379624444,0.8311128544852946,2.637808571309011,2.500526407544256,,,0.5113665138247345,inf,,,0.8295335145486447
368,5.703782474656201,-0.07605043299541601,0.0,0.9853746191934526,0.8574307575697384,0.6298931809084884,2.4539095425526805,2.9512247517543253,,,0.5748741956352443,10.021270588192511,inf,,0.8942422249470403
369,5.6501688805797405,-3.4089352246164437,0.0,1.5884617101918521,1.5267895635311362,0.7199635802429021,3.255575596516622,2.858897314748201,,,0.6425374456860184,6.134565390748655,inf,,0.7010240929585966
370,,0.0,0.0,1.1813608833857139,1.1814676040289775,0.7377403419414796,2.2822249952209748,2.226892245157278,,,0.42445136339222655,inf,,,0.8165572303603099
371,5.703782474656199,-2.56670211359529,0.0,1.507379231144991,1.4535208729045785,0.7093087737432369,2.381893393855186,1.681827345487973,,,0.524519217297268,6.502290170873972,inf,,0.7749790991415503
372,,0.0,0.0,1.553564639451217,1.5469157921613257,0.8283791919286165,2.067310295109378,2.7058237214934295,,,0.4629450596409901,inf,,,0.8318022637295754
373,,0.0,0.0,1.6841454106080376,1.6365148395387257,0.902780747366996,1.770043192426145,2.2627917591678033,,,0.468121228110369,inf,,,0.7851901156282605
374,,0.0,0.0,1.501555517622316,1.4740232447004618,0.6441574410787656,1.9536202887106462,2.1403983285613934,,,0.47824363442641393,inf,,,0.8405988669684353
375,,0.0,0.0,1.7480880142510546,1.719125582992907,0.8168201598663811,1.7490719701331037,1.7568656873113249,,,0.4302020962658841,inf,,,0.7794355934775931
376,,0.0,0.0,1.702779052079721,1.6890722414467085,0.8199377879100785,1.650957844460646,2.0130293911675965,,,0.45235697871908603,inf,,,0.741797825583921
377,5.703782474656202,-0.2661765154839561,0.0,0.7247228301920426,0.5624792250299395,0.5490630193838436,1.518761799817027,1.479875470683213,,,0.49759852643134905,8.768507619697143,inf,,0.8519911219641387
378,,0.0,0.0,1.6875514550623778,1.564571117271023,0.8342479848701708,2.186300362255316,2.5283536908435584,,,0.4880666971167561,inf,,,0.8465475222147876
379,,0.0,0.0,1.5665065073043636,1.4916538274863553,0.6601416666030531,2.03649039430086,2.007486781215249,,,0.524519217297268,inf,,,0.8870670362205185
380,,0.0,0.0,1.7445334624959767,1.7736890728424934,0.8298021674499313,1.7725027115650789,2.2580467642751865,,,0.47824363442641393,inf,,,0.8050615519366037
381,,0.0,0.0,1.749943993235007,1.7223747850088627,0.8270762273267454,1.8762571350074324,2.4887363850641027,,,0.41861278947482794,inf,,,0.8086809766012192
382,,0.0,0.0,1.682618992875288,1.6451880474093024,0.8272631521857565,1.7850421801396392,2.011643775811226,,,0.48319206230712763,inf,,,0.8297198421862975
383,,0.0,0.0,1.6978302433945125,1.6299608719568583,0.8441977997708249,1.8939137862273485,2.5346558580843324,,,0.5113665138247345,inf,,,0.7991569029232998
384,,0.0,0.0,1.7141332412722867,1.6541505828530032,0.8905963362475867,2.1282823254007885,3.0029938396246627,,,0.5068466436745385,inf,,,0.8206653175027954
385,,0.0,0.0,1.0807284001007929,0.9374980940191102,0.5918680389385802,2.304821775000848,3.152505039456987,,,0.4928685327679205,inf,,,0.9033274194369564
386,,0.0,0.0,1.6474995705925846,1.589514808023586,0.8247232121897426,2.557591229124359,2.3707581927719215,,,0.45235697871908603,inf,,,0.8548933099785982
387,,0.0,0.0,1.7033775202755954,1.6865382446675075,0.9119434595059396,2.452080937858198,1.6330020506984795,,,0.41861278947482794,inf,,,0.8028540693454786
388,,0.0,0.0,1.0362566157679924,0.9278434654827601,0.9274388737855236,2.541817729472187,2.720000989835297,,,0.3943459996787778,inf,,,0.8513357269851618
389,,0.0,0.0,1.6113213054190354,1.5066556142026137,0.9249233179148502,2.690269426469641,2.061491066599942,,,0.468121228110369,inf,,,0.884956211599992
390,,0.0,0.0,1.7151398936794493,1.671992020248428,0.946600921249251,2.83069266884241,3.0235993608983227,,,0.40055318934786044,inf,,,0.8518048431992488
391,,0.0,0.0,1.7590488012542917,1.7205860402992843,0.6988830390800506,2.3733053854970088,2.317145377233655,,,0.5287703885177266,inf,,,0.8039783179649913
392,,0.0,0.0,1.5883655416243643,1.537262436686746,0.9446519546220444,2.4441945735967914,2.810837666267105,,,0.4576907132971797,inf,,,0.8506134136635572
393,,0.0,0.0,1.7172908554422064,1.6329090246240716,0.9324379004948364,2.624201746546277,2.080926619748938,,,0.45235697871908603,inf,,,0.8678436420395786
394,,0.0,0.0,1.7193288402401115,1.7182158318104215,0.920010866257996,2.827550542143567,3.954493894741426,,,0.4066654671944331,inf,,,0.8344241925683833
395,,0.0,0.0,1.6030100659547062,1.5842432108482338,0.8147684232515159,2.49411006433719,4.41633539524984,,,0.41268473150466,inf,,,0.817548803593283
396,,0.0,0.0,1.698721771068508,1.6589290897945164,0.8795337219676153,2.3988264219943587,3.9458193392654146,,,0.47824363442641393,inf,,,0.8041313541356023
397,,0.0,0.0,1.6976658967008122,1.6502001325092768,0.8802974844478973,2.2721722452508777,2.560777317253629,,,0.4629450596409901,inf,,,0.7944109870998921
398,,0.0,0.0,1.7180457083578786,1.725779526018987,0.9422348238269149,2.3412057577872623,2.3315006222751076,,,0.44144624493110796,inf,,,0.8371483924528463
399,,0.0,0.0,1.7288539055825898,1.674895162246402,0.8644454578174783,2.4637212052447577,2.6748883729448045,,,0.5022576003740722,inf,,,0.8127854959714925
400,,0.0,0.0,1.7481240214541394,1.686706623640357,0.8803417773664587,2.3825161854121393,2.825269254003723,,,0.524519217297268,inf,,,0.8024393000961241
401,,0.0,0.0,1.7026965110841543,1.6467145471319928,0.9237506801654928,2.4441764684930267,2.439763373514312,,,0.4629450596409901,inf,,,0.8527001511071999
402,,0.0,0.0,1.7245450054417617,1.7019263969847827,0.6424710635121866,2.046795901825902,1.688061005965238,,,0.468121228110369,inf,,,0.8918863763774049
403,,0.0,0.0,1.260182753565865,1.1843343084275006,0.9005773967923129,2.119922156589498,1.9853228491195885,,,0.468121228110369,inf,,,0.8864788915374129
404,,0.0,0.0,1.7228482435524877,1.6333983140535715,0.9080709384518985,2.3770031896517816,2.700624051076025,,,0.4576907132971797,inf,,,0.88824603367456
405,,0.0,0.0,1.7041744589494874,1.7058958544994147,0.881077922630538,1.875576126242579,1.5485341896241167,,,0.49759852643134905,inf,,,0.8284742431327585
406,,0.0,0.0,1.6667832902464401,1.6547815406222517,0.7169140199462894,1.6704025511843599,1.8873134632435091,,,0.5202020156036558,inf,,,0.8492050869874135
407,5.7037824746562,-0.9506304124427,0.0,1.3039056044073962,1.2565060543488633,0.6543885004856751,1.7739996382508638,1.7252827906009809,,,0.48319206230712763,7.495541943884256,inf,,0.6062714010850027
408,5.703782474656201,-3.498319917789136,0.0,1.1550175249849268,1.0474836962156315,0.8038128749882125,2.933287238746966,4.5733200330002735,,,0.49759852643134905,6.192629191703416,inf,,0.8856971289406071
409,,0.0,0.0,1.650997333972042,1.4878797634976422,0.8866783576759999,2.6717484863043297,2.9130046322391934,,,0.5022576003740722,inf,,,0.8781119742734007
410,,0.0,0.0,1.6944240201149579,1.663806676838747,0.8037461401887773,2.5463448393672725,3.0222759739303324,,,0.4629450596409901,inf,,,0.7615038816625663
411,,0.0,0.0,1.7018102787914653,1.6908375219648277,0.8115350831565591,2.5608076675206135,2.777793758238294,,,0.4880666971167561,inf,,,0.8199910607195634
412,5.703782474656201,-1.0647060619358242,0.0,1.4643114449774033,1.4547382290201238,0.6403891967210718,2.572535052547063,3.061565218845935,,,0.524519217297268,7.382213258577253,inf,,0.5877232166641798
413,,0.0,0.0,1.7231003454261558,1.6542452938838743,0.8646364884241041,2.48130823531177,2.4200525867296943,,,0.4629450596409901,inf,,,0.8232932237888008
414,,0.0,0.0,1.6189155826900836,1.5594256047041863,0.841208273746683,2.275988660761597,3.0055884687845844,,,0.49759852643134905,inf,,,0.8392826175949735
415,,0.0,0.0,1.7467304206734153,1.7290972438872816,0.7872254550576072,2.908578707839818,2.975506345370812,,,0.5370774965580548,inf,,,0.8908886978858103
416,,0.0,0.0,1.5333733254014643,1.498556758880425,0.7981112343843075,1.9216120861046362,2.127118950344207,,,0.45235697871908603,inf,,,0.8255646300615632
417,,0.0,0.0,1.6334070341434648,1.606025905652679,0.8032504325791903,2.070554502169445,1.824248918423903,,,0.5113665138247345,inf,,,0.79893489235941
418,5.703782474656201,-2.5286768970975824,0.0,1.67361359548094,1.6272450558982035,0.7160854026954132,2.8455553635999498,2.935784600423408,,,0.5158180382284114,6.517215821090648,inf,,0.8319386048233263
419,,0.0,0.0,1.3145999620081685,1.2469844136954524,0.9264640103798976,2.1793792237522136,2.4398590724095603,,,0.3943459996787778,inf,,,0.7964273535620914
420,,0.0,0.0,1.6480962479456887,1.6041086352442746,0.8720500724933686,2.0992555543093494,2.1993090608080457,,,0.4629450596409901,inf,,,0.806976650650871
421,,0.0,0.0,1.3395678086366134,1.3277239149712876,0.825529511168927,3.4153628591699947,2.9665148801329604,,,0.6447042257417027,inf,,,0.7794043606156515
422,,0.0,0.0,1.722393498765657,1.6749149526064886,0.7872673146182027,3.8460239285582865,10.00160215798544,,,0.648888643467878,inf,,,0.9197196642174572
423,,0.0,0.0,1.7139116835253188,1.6657771362806824,0.6270791385641947,3.4924094143746647,16.077269127355365,,,0.62595550513784,inf,,,0.7036582085058142
424,,0.0,0.0,1.6207873088225073,1.5761736719328052,0.7425534033862163,3.2639693808185983,3.528214699974686,,,0.5947193981915972,inf,,,0.8318551293263722
425,5.703782474656201,-0.20913869073739402,0.0,0.5827015622993136,0.5636007179656684,0.7443574588999887,3.944934497211847,8.312961282331631,,,0.5604843169999094,9.009669676514031,inf,,0.830401394234323
426,5.338642442039801,-3.986186356723052,0.0,1.4673816182881572,1.4277082163944188,0.5541547871919043,3.8643920293136556,3.575639286151398,,,0.6333676938231112,5.572754212249797,inf,,0.8769299940017287
427,5.310404642878802,-2.938423902392937,0.0,1.756258542967425,1.708352809731109,0.7186956064777995,4.6294890585253095,9.041392005863479,,,0.62595550513784,5.805446128432701,inf,,0.7434764682847461
428,5.703782474656201,-3.688446000277677,0.0,1.7845140512772302,1.7742429500171304,0.6967060333154987,3.502775907950194,2.146113977730125,,,0.6447042257417027,6.139706790249074,inf,,0.735754397718659
429,5.602445167556794,-3.193393745507372,0.0,1.6950934748559536,1.630579808395239,0.8135377919208173,4.500477575114439,24.477446800656196,,,0.6425374456860184,6.129450290081885,inf,,0.8094615942298277
430,5.663009111093851,-3.8508461955438187,0.0,1.4881851442002676,1.4380149991578974,0.7527749571016753,4.566668305893085,21.9102541837052,,,0.6403206450210053,6.032286541628237,inf,,0.6989541141747222
431,5.212200385698795,-5.212200385698795,0.0,1.5999871709589764,1.5764649924649254,0.8611926588491331,4.5136337153601875,15.054183851670848,,,0.6547956803312163,5.083205986931091,inf,,0.8559800872139058
432,4.846961428166996,-4.846961428166996,0.0,1.6529359330233513,1.6452693070032647,0.7699962709336069,4.596576498718551,10.389688054081914,,,0.6447042257417027,4.766382779571811,inf,,0.8829040968392722
433,5.168774396203804,-3.4975373414312405,0.0,1.51688195785496,1.4739203387401691,0.7869597144122854,4.180714682551118,4.902896586772541,,,0.648888643467878,5.252706855295984,inf,,0.7904303843138418
434,4.890221635618068,-4.743514986549526,0.0,1.4269965510522857,1.4136621709997896,0.6481155228695409,4.139997090770947,1.9367163406978225,,,0.6403206450210053,4.708064609150724,inf,,0.8628184298064252
435,5.0616898901341445,-4.150585709909998,0.0,1.4928348168213137,1.4698284890735371,0.7035985547172889,4.441652063367333,8.980683209701063,,,0.6425374456860184,5.0206856299497575,inf,,0.8579016656392479
436,5.135543969209982,-4.262501494444285,0.0,1.223916947054112,1.2098183410488168,0.731130013766446,4.719959074148851,10.090638895454891,,,0.6233814453054027,5.005647752585217,inf,,0.6987749179574386
437,5.514847252300426,-5.312636186382744,0.0,1.6891122387409694,1.673915655477364,0.7510066279753952,4.210219182753149,41.39498056826761,,,0.648888643467878,5.4833091518978705,inf,,0.857868758927257
438,5.703782474656201,-2.4716390723510204,0.0,1.611513256186707,1.5890847954968783,0.6746523349563648,4.5261203893708375,58.41156310094188,,,0.6357360191111145,6.54003049885682,inf,,0.8453039481934389
439,5.07108576040155,-3.93854327391187,0.0,1.688376282760421,1.6851198459143926,0.7835383596952193,4.377627470870024,3.8320558823164603,,,0.6038851895711802,5.196964872287749,inf,,0.525386291958163
440,,0.0,0.0,1.2089687494830634,1.1710590054214693,0.8228435368586163,3.1523918461240568,2.780280480403909,,,0.5978297680564633,inf,,,0.8910284123227024
441,5.015256275299987,-5.015256275299987,0.0,1.66212698070164,1.6542321597784835,0.7500083499767938,4.337962238374999,3.8200319204451887,,,0.6380535849069913,5.0139741953617705,inf,,0.645390308363689
442,5.529533677180198,-2.4514265968832207,0.0,1.5695555362821847,1.5071010370476225,0.7155075142207266,3.4598590680627845,2.540599323338104,,,0.6207552362147116,6.2659013928097425,inf,,0.7947808793643922
443,4.954866103599619,-4.773187679800966,0.0,1.6328488019797036,1.610818832180296,0.8156661652071439,3.9334958086635115,7.581378088333473,,,0.6333676938231112,4.766382779571811,inf,,0.7879146977507401
444,,0.0,0.0,0.9246493458823577,0.8454000857906329,0.6554384351488038,3.0859209761075115,4.298781587637961,,,0.5287703885177266,inf,,,0.6727947924422983
445,,0.0,0.0,1.7244440516217239,1.73126256708587,0.6655004186926013,3.209882460782376,3.4550586452341756,,,0.5068466436745385,inf,,,0.9366094037780317
446,5.703782474656201,-0.03802521649770801,0.0,1.7652018688455793,1.8057494470443103,0.7168944923407858,3.8573803558378024,10.17669912402484,,,0.5451288209179292,10.714417768752456,inf,,0.911933748201601
447,,0.0,0.0,1.6274600507405315,1.617647345251701,0.8899653178986408,2.8591742277093966,4.3769856302576535,,,0.5490601803369085,inf,,,0.6850713396253859
448,5.703782474656201,-1.0837186701846782,0.0,1.2602839111297672,1.241767332576377,0.7364027478895192,3.511889552943568,3.5170630762294652,,,0.5370774965580548,7.3645136814778525,inf,,0.8141709615912447
449,5.703782474656202,-4.88624031995548,0.0,1.7350523304889327,1.7365384323312585,0.756951872049,3.4127770292463517,8.652155914127475,,,0.5883313578629602,5.858488864417183,inf,,0.863317289526749
450,5.330457018212198,-5.152775117605125,0.0,1.6370187760215853,1.6517284996123751,0.7406687177197233,4.068297514664853,5.9777113594910976,,,0.62595550513784,5.246357627617326,inf,,0.7800827779320234
451,5.7037824746562,-3.118067752812056,0.0,1.537325414544144,1.4496448445888757,0.6014196040100808,2.195687410339811,2.389066948539071,,,0.552929491858785,6.307698521488204,inf,,0.7750231586215159
452,5.160557998312167,-4.266061278604725,0.0,1.5970966676721663,1.5611297484829767,0.7353981169262321,3.052331409868705,1.8299201098599158,,,0.6309483474627791,5.298317366548036,inf,,0.7590265263263413
453,5.381964140824797,-4.52084987829283,0.0,1.5249754388525594,1.5125692370078656,0.6122747215107455,1.8582399652091863,1.4761538162454664,,,0.6403206450210053,5.496768305271875,inf,,0.7431432781434688
454,5.19424133776781,-4.016879967873773,0.0,1.6571566666856854,1.644796754086552,0.722847453278599,3.4217697505460762,4.27044188816768,,,0.6357360191111145,5.2548322546082975,inf,,0.7822293956503246
455,5.703782474656199,-1.0076682371892618,0.0,1.3033380612089391,1.240007150009849,0.613209276304646,2.7115873189773,4.2546794899487175,,,0.6038851895711802,7.43727303576028,inf,,0.7814682419945885
456,5.1287853816917,-1.5044437119628986,0.0,1.5814175467937555,1.5578991109885616,0.8182865558369213,3.9451911862967455,8.125617514984658,,,0.6357360191111145,6.326160584327939,inf,,0.7998316757613818
457,,0.0,0.0,1.556641283561166,1.5600099539056425,0.7280811073972249,3.743743859850499,2.1160673789743014,,,0.585052858160615,inf,,,0.9059235917251061
458,,0.0,0.0,1.6482171929273794,1.5878323316810787,0.8377116752682469,3.055959943682218,9.168180027836469,,,0.5113665138247345,inf,,,0.8593851420220483
459,,0.0,0.0,1.6755050024603992,1.6591194506636096,0.8473845943875618,2.512342046536807,2.623625789480924,,,0.5947193981915972,inf,,,0.9262550952292996
460,,0.0,0.0,1.6462738629718967,1.5920540738608522,0.714757848192371,3.0703646383870353,2.339427356832166,,,0.6008849035917525,inf,,,0.9186700061237991
461,4.4935162486431,-4.4935162486431,0.0,1.7057114384603107,1.7122043874481987,0.6456877183538701,3.1138609895146665,2.235422069476178,,,0.6180765742263259,4.466374894244027,inf,,0.8416220726703827
462,,0.0,0.0,1.6506791826216842,1.6293793720530745,0.6668574668748084,2.1855806061258507,1.8056336417681473,,,0.6447042257417027,inf,,,0.9507910073629505
463,,0.0,0.0,1.1408166902475942,1.1174882881465453,0.7080252079553534,2.1107528834337583,1.4603413795426174,,,0.5915533975974677,inf,,,0.9518560092069733
464,,0.0,0.0,1.5390719839304277,1.5259823317912866,0.5708964267770854,1.969288227385633,1.846216413552775,,,0.6403206450210053,inf,,,0.7658007443195115
465,5.703782474656203,-2.281512989862481,0.0,1.6249707259042034,1.6026803022957077,0.6825451927175092,2.707113786387749,2.6714051560345324,,,0.6068309995095971,6.620073206530356,inf,,0.7834496727554127
466,,0.0,0.0,1.2029330007324746,1.0752479777032298,0.7776392711127126,4.074202040190381,1.7174153904043434,,,0.49759852643134905,inf,,,0.9305066321253787
467,,0.0,0.0,1.4760828639207613,1.4539531662059983,0.7522295707055239,3.4877736289540593,2.5034280250933234,,,0.5451288209179292,inf,,,0.9254243090697257
468,5.559795379177566,-3.8362588116325202,0.0,1.7114232632034616,1.7020310563843413,0.6755958019675798,2.603449069476454,3.504703762138516,,,0.6068309995095971,5.886104031450156,inf,,0.7506167518367776
469,5.055222535105657,-5.055222535105657,0.0,1.7038259371370086,1.6579771967943142,0.6136089623637856,3.1080313518227145,2.632119411478499,,,0.581717464821069,4.992467990140807,inf,,0.5491251931227682
470,5.033025993624807,-3.623778715409861,0.0,1.7473267254551674,1.669579403509253,0.7379711964517885,2.8728715666130324,3.3566703384959027,,,0.6233814453054027,5.250585963726847,inf,,0.7896099706699025
471,,0.0,0.0,1.7458762246124049,1.7201513118140985,0.6117248704244579,2.8552080520521836,2.418777781456941,,,0.5567373465730988,inf,,,0.781105410041248
472,5.703782474656201,-0.20913869073739402,0.0,1.7308473600068726,1.7269739443752887,0.7612244352128844,2.9111709283971434,1.7655184450955184,,,0.5713653840954815,9.009669676514031,inf,,0.7568393410480974
473,,0.0,0.0,1.7618335741828284,1.7204659170302534,0.5946890601930005,3.09868368314133,5.782896815537921,,,0.524519217297268,inf,,,0.8223244224946527
474,,0.0,0.0,1.659056416519803,1.6189023229328925,0.489542562090473,2.282292422289661,3.3230349354723856,,,0.5068466436745385,inf,,,0.8802892311234151
475,5.703782474656203,-4.182773814747882,0.0,1.5956735445118464,1.5942846523854557,0.6611463975014404,1.7735459530157518,1.6898954423630996,,,0.541134803179459,6.013937402960041,inf,,0.7757427225473351
476,,0.0,0.0,1.3369477798853655,1.324260136380249,0.6274502361145091,2.3088275161211946,2.231559354840828,,,0.6068309995095971,inf,,,0.5504628650105566
477,5.557856752433054,-2.8159807545660804,0.0,1.6568377403526213,1.5966531998797349,0.7927842666715139,3.1087947694898355,2.9707404923321823,,,0.6125606311107803,6.192629191703416,inf,,0.5788741555446714
478,5.143932828819322,-0.4458075118310079,0.0,1.5152449486469286,1.506335569529688,0.628034047059277,3.088172549780794,3.5484169871334967,,,0.6153451465759925,7.557417347602343,inf,,0.796748139190461
479,,0.0,0.0,1.5970544400688274,1.5568091211930783,0.6779116750477994,2.0630911492451407,1.2778776298119827,,,0.6207552362147116,inf,,,0.7267932856016932
480,5.7037824746562,-0.893592587696138,0.0,1.2133889763642838,1.1328691555697927,0.6572946836912384,3.4580967402721483,2.587387843703099,,,0.5490601803369085,7.557417347602343,inf,,0.6919962388224851
481,5.373104362569048,-2.0013402388325088,-0.07626011469418979,1.6168049941170848,1.5562142475896135,0.6811670172214546,2.796160219585784,2.2801679222011346,5.146613791966749,,0.6447042257417027,6.254273354814623,3.7669972333778885,inf,0.7802726778879935
482,,0.0,0.0,1.0252634094397437,1.0109537135443372,0.7516012397852059,3.025049537774081,3.938827709888918,,,0.48319206230712763,inf,,,0.9282210473839149
483,5.225166925174825,-2.5777490164195807,0.0,1.496944704660912,1.4149729398057582,0.7867878797685757,4.012192199064077,6.860226112291966,,,0.6284777104787076,5.680717201725205,inf,,0.8084901013180396
484,5.66112726354482,-4.906310295072178,0.0,1.5463191972332953,1.4962740773122654,0.762808105545443,3.7299567871729704,4.074131902201419,,,0.6233814453054027,5.787164083595252,inf,,0.8452367969663085
485,,0.0,0.0,1.7683878816424068,1.7155180698734278,0.7633057447345247,3.1879765942626306,3.6703494078551393,,,0.47824363442641393,inf,,,0.8921728709552095
486,5.629987337562366,-4.935622232596341,0.0,1.59548934097446,1.4864172576403465,0.7856204042696465,3.9774953599817615,4.499324413030447,,,0.6233814453054027,5.73424168214091,inf,,0.8052188512697734
487,5.595389088395799,-4.532265161600598,0.0,1.218794816472459,1.2024256801069555,0.708049773560484,3.307209237117989,3.4737458845765348,,,0.552929491858785,5.769210279978656,inf,,0.573804371556177
488,,0.0,0.0,1.6248850865051057,1.6212409265685004,0.817303656169769,2.9667884770574338,4.105361563029437,,,0.49759852643134905,inf,,,0.731088104297748
489,5.001011829420738,-4.084159660693603,0.0,1.4572025206799817,1.3786835126126624,0.7855964843541248,3.6917249815366637,2.7918777676564375,,,0.6038851895711802,5.070739218165961,inf,,0.8753627470569644
490,4.993373697296207,-1.0985422134051654,0.0,1.6460906199584062,1.639271160873718,0.8409975254654763,3.566836195440629,3.747764243076387,,,0.6333676938231112,6.403618643366943,inf,,0.654529267811482
491,5.565153038544211,-0.9275255064240351,0.0,1.574923137060342,1.3871961925928482,0.7805189405680042,0.8670539966678243,0.34015872640958034,,,0.6333676938231112,7.313220387090301,inf,,0.7685002653928285
492,,0.0,0.0,1.666543679951074,1.646125703661014,0.9467825202022138,0.23393025387400052,0.41437749195875156,,,0.6425374456860184,inf,,,0.9263780910771661
493,,0.0,0.0,1.6340861911726428,1.599932110569243,0.8996011975884617,0.18862095726264527,0.3901485444524042,,,0.6380535849069913,inf,,,0.9375945099590689
494,4.898286725752182,-3.8206636460867016,0.0,1.736769834779984,1.7124475290277712,0.8651963875757529,4.7179075746534105,50.5278044719105,,,0.62595550513784,5.0410945015809645,inf,,0.8364133483134122
495,5.703782474656202,-0.8175421547007222,0.0,1.2111643284037115,1.1609210707199764,0.840922519581765,3.2230285871725037,3.0062191989636453,,,0.62595550513784,7.64636483361884,inf,,0.7867371880164341
496,5.703782474656201,-0.19012608248854004,0.0,0.8865068532000154,0.8582716992088926,0.6840609744046435,3.4461931457025754,2.6343771838447667,,,0.5713653840954815,9.104979856318357,inf,,0.7381702721636021
497,,0.0,0.0,1.4923830167326082,1.47214604085843,0.6331094738531468,2.7349162601342774,2.2861633398350016,,,0.5287703885177266,inf,,,0.701811595269998
498,5.703782474656204,-4.696114237466941,0.0,1.4609258667767577,1.4486230940390052,0.5047030041689512,3.0050535966918033,2.887196197012741,,,0.552929491858785,5.898176612684425,inf,,0.6114035548511064
499,5.43170601125884,-3.8746169546979727,0.0,1.665387412553312,1.6417976325314527,0.6708543357834014,3.3372819513820953,5.644471456113355,,,0.6509067234006624,5.710471462806998,inf,,0.8902764498412193
500,5.349563878708288,-4.850271250028848,0.0,1.6291347420862967,1.5793214392359305,0.7536812342499959,4.18654650783609,8.941379251764403,,,0.6284777104787076,5.388971734816168,inf,,0.7191524850712844
501,5.461986946553895,-3.914423978363625,0.0,1.636917797742437,1.6452509310205643,0.7727502181841852,3.8173235400271874,3.876725781930733,,,0.6233814453054027,5.737684026331882,inf,,0.6777998954958991
502,5.5433005899267025,-4.231386116977383,0.0,1.650592425226921,1.6413403984962769,0.7727497508712813,4.012443444550382,3.4278300625080638,,,0.6528756675646988,5.707121375921716,inf,,0.6347036315159023
503,5.3384751767935255,-1.316823876942403,0.0,1.742598807318147,1.7057922807386272,0.7470936467577223,3.537817750502944,3.876001590011734,,,0.6509067234006624,6.680177130600062,inf,,0.9015921180938044
504,,0.0,0.0,1.731342196587153,1.7354413421563375,0.7135916267170307,2.5367253411608597,2.366643041267077,,,0.5915533975974677,inf,,,0.9307665015288173
505,5.703782474656203,-4.068698165254758,0.0,1.6738043195061358,1.6111181881163406,0.702425108779236,3.1539673824461514,1.865176321955544,,,0.5978297680564633,6.041588934290551,inf,,0.7448644633095097
506,5.682372523133115,-4.905781611638255,0.0,1.6371759670267898,1.5876717178750728,0.5645410527749902,2.519438339273179,2.296683306586409,,,0.6309483474627791,5.820316290912153,inf,,0.5781614895306811
507,,0.0,0.0,1.6813400671112562,1.6518640427927853,0.6673126730418383,3.0823701292331753,2.7561988515891795,,,0.6509067234006624,inf,,,0.7796268530694451
508,,0.0,0.0,1.6171053510726086,1.62455609137652,0.7961995020776329,2.057913747335874,1.7369603559018847,,,0.6357360191111145,inf,,,0.9153445854760689
509,5.330549377431615,-2.039400202693426,-1.8874378386811972,1.5196792247139865,1.4545978803873438,0.5403902328530792,2.9467461744994847,2.287684714068094,1.2896683219259217,,0.5947193981915972,5.578619331702195,1.233825767475617,inf,0.9099785968509958
510,,0.0,0.0,1.503466245378267,1.4648308269129575,0.712952584939886,2.631467021295318,2.0556574786808532,,,0.6233814453054027,inf,,,0.8817454621291048
511,,0.0,0.0,1.6879501192029613,1.640174917051683,0.7434545545184897,2.713373581551756,3.204688219067375,,,0.5158180382284114,inf,,,0.9003241024272726
512,,0.0,0.0,1.6513699903037868,1.6446772642006995,0.6524957469029672,3.1040816389902393,5.649145827042982,,,0.5158180382284114,inf,,,0.913976751164686
513,,0.0,0.0,1.697071131740992,1.6786306340826946,0.615832519004111,3.2079910810816155,7.447568895048995,,,0.4880666971167561,inf,,,0.7045563754749592
514,,0.0,0.0,1.6209902944482808,1.5755809610254614,0.6830991032169073,3.2014591762051112,4.827454074257544,,,0.4928685327679205,inf,,,0.8545125830284442
515,5.703782474656204,-4.544013371476108,0.0,1.427627811879273,1.34308853508995,0.5641290877734105,3.1063379934731463,7.75621200109142,,,0.45235697871908603,5.931101397380892,inf,,0.6256702770901645
516,,0.0,0.0,1.5592892108730116,1.4675767986520594,0.8042691669120087,3.9644615416525633,26.966423373931878,,,0.4629450596409901,inf,,,0.8401649673673511
517,,0.0,0.0,1.2686247992643263,1.2714511881448283,0.7296069893148032,4.010476289233175,77.94874719665168,,,0.42445136339222655,inf,,,0.760456347370762
518,,0.0,0.0,1.5744081758758504,1.5142038141739242,0.7933719921771087,3.688797279344256,55.41157002299278,,,0.49759852643134905,inf,,,0.8643458715698219
519,4.690575349201801,-4.690575349201801,0.0,1.6721711339436267,1.6630297039422746,0.7616055623907815,4.501228153708113,22.52482936869304,,,0.6284777104787076,4.54063166485052,inf,,0.5700984774285123
520,4.708533602143125,-3.9708633378073683,0.0,1.6796241343240577,1.6516305442568573,0.7763990822119071,3.722354887235325,5.8150420349880605,,,0.6357360191111145,4.783499721512508,inf,,0.49712561307621617
521,,0.0,0.0,1.1028644105716696,1.0613478584215985,0.7014376098750944,3.218034484144392,5.291675559873961,,,0.4928685327679205,inf,,,0.8016754820371352
522,,0.0,0.0,1.7243913029552727,1.689978222856624,0.83796218556031,2.9960986951463657,4.688407019225494,,,0.5022576003740722,inf,,,0.8050659069060804
523,,0.0,0.0,1.3969146085505588,1.3956427475052389,0.8511864936756547,3.39187998972714,6.8961533420017265,,,0.47824363442641393,inf,,,0.8812555367280039
524,5.7037824746562,-3.1751055775586177,0.0,1.6738334360363982,1.6156082043249598,0.6764663739527728,3.5089374414037207,3.039513064655359,,,0.5022576003740722,6.289571136895647,inf,,0.7485285188272066
525,,0.0,0.0,1.7164687630345392,1.6804046065895761,0.6929741519401518,2.722980958454725,2.0975335646698867,,,0.4928685327679205,inf,,,0.6679782260873259
526,,0.0,0.0,1.7613876943040896,1.7311696943080266,0.8241973541195162,3.5292458397627353,11.699552145692731,,,0.5329562494928909,inf,,,0.9217961306393972
527,,0.0,0.0,1.5335599037500547,1.5102267745887512,0.8627793874000997,3.113093638838129,3.396452406443576,,,0.48319206230712763,inf,,,0.7836009681111996
528,,0.0,0.0,0.933382078349681,0.9312578697757675,0.7593777357918507,3.4145161547295038,3.874491291764998,,,0.5677978065141052,inf,,,0.8389266590080162
529,5.498405532268067,-2.47428248952063,0.0,1.570533144629155,1.5607472557341495,0.6777479983056359,3.3119455709972248,2.3781606023557966,,,0.62595550513784,6.242778975388888,inf,,0.8611743927359319
530,,0.0,0.0,1.4206177565812956,1.4021038768438168,0.7575809375960748,4.170205944115715,39.26189328724067,,,0.6357360191111145,inf,,,0.9341409013951686
531,,0.0,0.0,1.6299236708081137,1.6216715182888668,0.8981351188640655,4.058399263488963,87.15051537189497,,,0.6207552362147116,inf,,,0.9108064250291046
532,,0.0,0.0,1.6119139653274663,1.5732840371375807,0.7864402216003784,3.7430177861642444,11.33591017858253,,,0.6468212168108125,inf,,,0.9140703585869349
533,5.703782474656203,-0.38025216497708014,0.0,1.523119882647598,1.4630723936024261,0.5916236786578054,3.162103363762078,4.382101532135236,,,0.5068466436745385,8.411832675758411,inf,,0.9001318332819952
534,,0.0,0.0,1.7151819165399325,1.64813365028048,0.7483432768104293,2.324551728298236,2.8326785856330114,,,0.4576907132971797,inf,,,0.780543702612302
535,,0.0,0.0,1.7122408317684645,1.6742336569778724,0.7496698342738958,1.962493113156616,1.6694956015569231,,,0.4629450596409901,inf,,,0.855750116101941
536,5.703782474656202,-3.8215342580196547,0.0,1.5588738753541496,1.5498491939405954,0.7023548292328262,2.2759192383128117,1.659112636524195,,,0.5713653840954815,6.104260041253326,inf,,0.9433016643028456
537,,0.0,0.0,1.6837183932726303,1.6542398517929873,0.6439533158663843,2.2543099760751595,2.335373422475142,,,0.5451288209179292,inf,,,0.7490269859912617
538,,0.0,0.0,1.701980816050539,1.7022581604054179,0.796038786056356,2.8852999519074256,4.656738260390949,,,0.48319206230712763,inf,,,0.9270177062117252
539,,0.0,0.0,1.614518115329386,1.6047130062397228,0.7470261794381151,2.080840884577812,2.3630713632466964,,,0.41861278947482794,inf,,,0.8412814272448971
540,,0.0,0.0,1.6871268055843052,1.6687616874204008,0.9073940146502377,2.4353991598441267,3.431456871826612,,,0.4302020962658841,inf,,,0.8508396873526118
541,5.153522347437354,-3.0405781849880387,0.0,1.7551741026339354,1.7111125162386707,0.6024846366226236,2.6782247107582755,2.5238744515049216,,,0.581717464821069,5.572754212249797,inf,,0.6432135625310736
542,5.703782474656202,-1.8822482166365466,0.0,1.6184914513132194,1.551839346589284,0.6129149017399836,2.2648973695896393,2.8122099107214726,,,0.5287703885177266,6.812445099177812,inf,,0.8247794568471354
543,,0.0,0.0,1.6902813773853624,1.6811257116024603,0.9129313303940758,2.5243196930157032,2.4079999858222068,,,0.48319206230712763,inf,,,0.8633893041931046
544,5.357208884376228,-0.6428650661251474,0.0,1.374063204308242,1.3571044264172745,0.6608420079273896,3.7078453102544464,3.307940283420605,,,0.5915533975974677,7.418580902748128,inf,,0.9282078597468638
545,5.650915316816884,-4.445386715895949,0.0,1.704985431445502,1.6994423620435324,0.7617711321656241,2.3866955916859687,1.4678462581816238,,,0.6038851895711802,5.870230682293865,inf,,0.8175868311610353
546,5.7037824746562,-1.578046484654882,0.0,1.6254384877323547,1.5934044109032546,0.7745383845887279,3.6116678634237753,4.138383590086692,,,0.6468212168108125,6.9887243415158045,inf,,0.6637023683074659
547,,0.0,0.0,1.7433528481559386,1.7302739468739614,0.7780836997217092,3.6016807702058466,2.405261518431455,,,0.6333676938231112,inf,,,0.9410558125372969
548,,0.0,0.0,1.687244553566153,1.6722896325975696,0.8153133107611559,3.4845360026266694,1.6574551948933784,,,0.648888643467878,inf,,,0.9011424933980171
549,,0.0,0.0,1.449557390288892,1.3904099137936148,0.8299640843958953,3.4843158210066467,5.327225280576009,,,0.585052858160615,inf,,,0.8618429653436558
550,,0.0,0.0,1.5731376141649522,1.51673713012387,0.6788851212323196,2.2357720757318997,3.001206862346249,,,0.5490601803369085,inf,,,0.8642114509500192
551,,0.0,0.0,1.626623346939795,1.5803501672453604,0.7374498044684028,2.6396904572630224,1.955940629519484,,,0.5748741956352443,inf,,,0.878599391330203
552,,0.0,0.0,1.6017822938309467,1.5350833723722381,0.7914930111988865,2.4962088243535927,2.8966440105452405,,,0.6207552362147116,inf,,,0.9163814413018474
553,,0.0,0.0,1.7283423830527855,1.7346215638137308,0.7838252145285036,3.2562644130357934,2.633692886210971,,,0.6357360191111145,inf,,,0.9360907710339372
554,5.703782474656202,-0.6654412887098902,0.0,1.7260391748179695,1.7472767380849215,0.7988742202212685,3.1068636176746205,2.5802092691956897,,,0.6284777104787076,7.852216887822989,inf,,0.9135809908307797
555,5.594992558424821,-4.158944468429117,0.0,1.6232497928143652,1.6055199396104451,0.8058622269092813,2.942842029757291,1.9522634573728337,,,0.6153451465759925,5.8546053643907845,inf,,0.741705011314839
556,,0.0,0.0,1.579434649159075,1.5922420922907627,0.6573520216603425,3.4857024050282903,6.644846959212025,,,0.3265551233283096,inf,,,0.908154409038961
557,5.703782474656204,-4.696114237466941,0.0,1.7160458059992016,1.7097855972572327,0.5861614270181238,2.3190250208130356,1.7057801964732136,,,0.5113665138247345,5.898176612684425,inf,,0.7581448698850423
558,,0.0,0.0,1.0155000375057397,0.9854529863614652,0.4236300496068884,1.8697718210017296,1.94627657500473,,,0.4066654671944331,inf,,,0.9141405015660188
559,,0.0,0.0,1.3126918067210618,1.2639041352752038,0.7833680255110763,2.0276785003126854,2.16470006462726,,,0.4732203808476458,inf,,,0.8461110642093704
560,,0.0,0.0,1.5905073712117563,1.5722942570080523,0.8680589574638281,2.6658122382182317,2.754527642256425,,,0.4629450596409901,inf,,,0.8193915794328548
561,,0.0,0.0,1.7737942540347498,1.7206175559471932,0.9493249896372136,2.4800706535397046,2.5894922469669264,,,0.34100769111774265,inf,,,0.7909692360350817
562,,0.0,0.0,1.6546766455354156,1.6170732465117157,0.9112883498803538,2.9233405645483637,2.5621303127493564,,,0.44144624493110796,inf,,,0.9054870277427463
563,,0.0,0.0,1.3998388908718098,1.3504668728200846,0.6220821571767624,2.3972094479865773,2.3441434687086873,,,0.5287703885177266,inf,,,0.8379224900359685
564,,0.0,0.0,1.4566588182210518,1.3793855329201494,0.8710546140857198,2.096197002486886,2.473532683507339,,,0.44694259446804574,inf,,,0.7630801140910285
565,,0.0,0.0,1.6993702813090898,1.6761564632274617,0.860686231819874,2.11776473315286,2.9610313563817887,,,0.4066654671944331,inf,,,0.7516703254675259
566,,0.0,0.0,1.7625987613677447,1.754175453072793,0.8548788096332263,2.29163096541957,3.3831211257920897,,,0.43586655696697996,inf,,,0.7758531561889462
567,,0.0,0.0,1.6465416779997808,1.6762429978065287,0.8545220726951657,2.536579936218845,3.144568729129694,,,0.44694259446804574,inf,,,0.7726836365774998
568,,0.0,0.0,1.7304898057213656,1.7225687502759954,0.8336841471715277,2.4296267099664015,3.1492996122152035,,,0.3943459996787778,inf,,,0.7711204448953233
569,,0.0,0.0,1.6376038586559227,1.6204849356945528,0.8925061230600395,2.694988018225919,3.890006577710129,,,0.43586655696697996,inf,,,0.7751035127520256
570,,0.0,0.0,1.308935528921076,1.271658024917073,0.7270074607096725,2.6175532822655905,3.3314950560096466,,,0.43586655696697996,inf,,,0.8585621040070993
571,,0.0,0.0,1.503214237926619,1.4958990578121132,0.8114216790395573,2.287149931209448,4.117776692122009,,,0.43586655696697996,inf,,,0.7738899797797808
572,,0.0,0.0,1.6015312750698674,1.5842561150890377,0.527181301584085,2.741707444520258,3.1649873500057657,,,0.43586655696697996,inf,,,0.7952404135098406
573,,0.0,0.0,1.523709871401273,1.4818560117093558,0.8849197909010337,2.171540866193166,2.2125855664524385,,,0.43586655696697996,inf,,,0.7317857100897891
574,,0.0,0.0,1.51667118560065,1.5071564911332778,0.8127671564407198,2.7174943698253045,2.7911376780403128,,,0.5287703885177266,inf,,,0.78022375882853
575,,0.0,0.0,1.5128872672465197,1.4148496197784932,0.9563817858409552,3.235789658905294,2.740052997594243,,,0.5068466436745385,inf,,,0.8992893409373627
576,,0.0,0.0,1.727067084692449,1.6935950884643427,0.966043125605418,4.054448005691013,43.199904030100306,,,0.47824363442641393,inf,,,0.896848574151991
577,,0.0,0.0,1.7337213306843904,1.6931622316947437,0.972928299292436,4.381589668592988,8.260293845524721,,,0.44694259446804574,inf,,,0.8771331822505007
578,,0.0,0.0,1.6793368820116845,1.6499374528534483,0.9638040227397107,3.461247867423824,2.7623662558472493,,,0.4066654671944331,inf,,,0.8435764823071787
579,,0.0,0.0,1.5335412837411622,1.4776217388811137,0.9618178304113394,3.690685806610799,6.769594724895908,,,0.48319206230712763,inf,,,0.871797897421759
580,,0.0,0.0,1.7482148914471745,1.7093214204675051,0.9641123246718797,3.1988715501038616,4.114617871983981,,,0.4066654671944331,inf,,,0.8177191359380988
581,,0.0,0.0,1.7609940932655705,1.7297882859466212,0.9474471982039,2.457903701931126,2.12747616939699,,,0.4732203808476458,inf,,,0.8474356286500052
582,,0.0,0.0,1.5222929899369138,1.4950934671699085,0.9262259020520592,2.701478052387412,2.2632943814767423,,,0.3943459996787778,inf,,,0.8480745609337104
583,,0.0,0.0,1.7111464337582398,1.6484569417219601,0.9351690874448266,2.334048814801691,3.0749131764887134,,,0.44694259446804574,inf,,,0.8478680382630709
584,,0.0,0.0,1.750494473681262,1.7257441327463114,0.8787601307346663,2.221460235098661,3.0028922386415142,,,0.4629450596409901,inf,,,0.7438955440218543
585,,0.0,0.0,1.29789539455493,1.2474409623403162,0.7878222731609508,2.0143779463976696,2.642742616345532,,,0.4880666971167561,inf,,,0.774811443531986
586,5.636536852661579,-5.035306255044344,0.0,1.1171208338938603,0.9979160730004604,0.5359169859100468,2.086716525683016,2.6637588402606003,,,0.5068466436745385,5.72398518197372,inf,,0.8538549561499995
587,5.398327784917919,-3.1850133931015723,0.0,1.5965442646483987,1.563544477489948,0.6698013404277419,3.21526476417688,2.1373365233595805,,,0.6284777104787076,5.866301404153976,inf,,0.7135710487394178
588,,0.0,0.0,1.2309605634476413,1.2113247341775895,0.6724145866794394,1.7400895957864626,2.0805157056477563,,,0.4880666971167561,inf,,,0.7935699334714985
589,,0.0,0.0,1.6117928590827322,1.5848140960196353,0.8710580065398223,2.017602099690073,1.7425877783353712,,,0.4732203808476458,inf,,,0.738550738065749
590,,0.0,0.0,1.6424416924811152,1.5774570416265885,0.8167299734771621,1.804800352157104,2.501573084060552,,,0.5022576003740722,inf,,,0.7620572056912587
591,,0.0,0.0,1.6065980282919126,1.569865801038044,0.7628814062147792,1.8822378007825895,2.1409824421800816,,,0.468121228110369,inf,,,0.7318603767616914
592,,0.0,0.0,1.5222923171818734,1.4996680245883414,0.8147779845957079,1.79266030626193,2.326673982197721,,,0.48319206230712763,inf,,,0.667495805089554
593,,0.0,0.0,1.1038952273624048,1.0005601371871327,0.6438460504861431,2.001870004051537,2.319526343022451,,,0.4576907132971797,inf,,,0.7906854209326255
594,5.352395362289006,-2.5691497738987232,0.0,1.7259350667697717,1.7126251005511273,0.6926462886311373,2.3721768104315393,2.2038005713367497,,,0.5451288209179292,6.027667595771942,inf,,0.6529243819737462
595,,0.0,0.0,1.085554239284068,0.9978161615998129,0.7319012613536741,1.7394925865502908,2.2449999642219494,,,0.468121228110369,inf,,,0.7683718905103514
596,,0.0,0.0,1.6593879909665599,1.6420903406988305,0.7801589135691944,1.6328684602727503,1.933380302151526,,,0.4880666971167561,inf,,,0.743091593042569
597,,0.0,0.0,1.6985883648775189,1.6470180694354437,0.7463922239202964,1.5572867483720638,1.7445590998517502,,,0.5287703885177266,inf,,,0.7105763260893191
598,,0.0,0.0,1.4590823119216032,1.4484725945602526,0.7490765526333361,1.9222625405443907,2.431685039531767,,,0.43586655696697996,inf,,,0.7103875276652869
599,,0.0,0.0,1.721613611899172,1.690407424951101,0.8560488422132109,1.88544332996513,2.463612909459198,,,0.4732203808476458,inf,,,0.7280082523663355
600,,0.0,0.0,1.6483424865717282,1.6229611768509675,0.8220157256782765,1.9809391556312435,1.9748913979690559,,,0.44694259446804574,inf,,,0.7575560839421888
601,,0.0,0.0,1.7170393798011605,1.6998576481072212,0.46549400823615544,1.9323438132513577,2.158842760731428,,,0.6008849035917525,inf,,,0.7381381940370435
602,,0.0,0.0,1.6890653023083475,1.661703467628785,0.589483095997848,1.5995413134785812,1.6572020865824169,,,0.524519217297268,inf,,,0.7870514106401723
603,,0.0,0.0,1.5668297018150246,1.5386600309542802,0.6018627479525349,1.939440300930269,2.757731210783642,,,0.552929491858785,inf,,,0.834203798441199
604,,0.0,0.0,1.759290175347074,1.7048189309865038,0.7870882293703927,1.7195548245854626,2.2116765485102663,,,0.5113665138247345,inf,,,0.7382820785998129
605,,0.0,0.0,1.758651247428431,1.7123653422692857,0.7888146406121089,1.7026548429042347,2.1601259408172595,,,0.5329562494928909,inf,,,0.730968378093845
606,,0.0,0.0,1.7057747045861067,1.667339424364263,0.4553438586491611,1.4054741238599453,1.4673283252655331,,,0.5287703885177266,inf,,,0.8389768076664516
607,,0.0,0.0,1.6156740159505394,1.5309324672964983,0.7638720981517421,1.2790743776709033,1.9148363405451259,,,0.4629450596409901,inf,,,0.7799151481316937
608,,0.0,0.0,1.7822898921336374,1.741173525914612,0.7410238102452645,1.1956464490575431,1.4389299349213773,,,0.5022576003740722,inf,,,0.734524956067511
609,,0.0,0.0,1.6213244547435413,1.5306019808583267,0.7257627822545388,1.9243597053985162,1.6865964804098237,,,0.5158180382284114,inf,,,0.7657692902396387
610,,0.0,0.0,1.6555298836732883,1.6390580077134307,0.6437643661277879,1.6083579199134825,1.5569862865945079,,,0.5202020156036558,inf,,,0.8249000280638487
611,5.703782474656202,-0.5323530309679122,0.0,1.575987812066208,1.5657559339773908,0.4970110822383223,1.8757920494629923,1.8668418771166648,,,0.5287703885177266,8.075360439137198,inf,,0.8918444497007126
612,,0.0,0.0,1.7046082994014717,1.6336119268734413,0.798506346461571,2.1305422577072686,2.238700778556848,,,0.5202020156036558,inf,,,0.8582423522633889
613,,0.0,0.0,1.7029327068056395,1.6721063092349946,0.8509258415756509,2.7270995164802962,2.6664547492223236,,,0.48319206230712763,inf,,,0.8815928494781193
614,,0.0,0.0,1.7504042145104155,1.7010156532622085,0.8908819778166739,2.5042642420520242,2.3387569819407834,,,0.4880666971167561,inf,,,0.8440254785684654
615,,0.0,0.0,1.6765147840610644,1.6368781103022472,0.6216030638698357,2.2121306179280054,1.7689238245940984,,,0.585052858160615,inf,,,0.8903026254083961
616,,0.0,0.0,1.6540071543842516,1.6334249534462115,0.8204076509949199,2.3458041184241467,2.5871292940751496,,,0.5202020156036558,inf,,,0.850390827012673
617,,0.0,0.0,1.622095015019726,1.6001068401524925,0.7750855227322943,2.083919436538058,2.2051279693506336,,,0.541134803179459,inf,,,0.8667632245380129
618,,0.0,0.0,1.4255465512911225,1.379395973235027,0.6975727127315366,2.4585261390221373,3.1891397913905717,,,0.5068466436745385,inf,,,0.9001914057951212
619,5.703782474656204,-2.2434877733647736,0.0,1.7130450993931472,1.7476716953630336,0.685707358925383,2.06095921988085,2.040739109681225,,,0.5068466436745385,6.636880324846738,inf,,0.8923182045013962
620,,0.0,0.0,1.6993492294119326,1.6730964814218154,0.8119694697876847,2.0878982485489117,2.0211235370149407,,,0.4576907132971797,inf,,,0.8471159176124292
621,5.479187298832308,-3.2692484216366102,0.0,1.4068314387754879,1.3280664197184024,0.6179080008127927,2.6444249386264915,3.0001676158116015,,,0.5370774965580548,5.939504808177271,inf,,0.7416732540669163
622,,0.0,0.0,1.4987958716207237,1.4900933511802918,0.8761161695161909,2.9006084307868703,2.97487170693961,,,0.468121228110369,inf,,,0.7987606060034119
623,,0.0,0.0,1.5874769342989319,1.5830700601251873,0.8962821717870635,2.9276773271841097,4.0418448410182055,,,0.4302020962658841,inf,,,0.8334586053711892
624,,0.0,0.0,1.6465551641195597,1.6141628944011546,0.9117246335869867,2.6736754985845397,3.3182823802884367,,,0.38804190201132227,inf,,,0.7854228820209732
625,,0.0,0.0,1.7156642064675,1.6977774189633397,0.9437936169143559,3.0061882588095132,3.023560073702007,,,0.47824363442641393,inf,,,0.8017374681491358
626,,0.0,0.0,1.5761911055607254,1.5525523364994074,0.9200613601584616,2.637960126787923,4.10312920829137,,,0.41861278947482794,inf,,,0.8216933772387474
627,5.7037824746562,-2.509664288848728,0.0,1.24920843678334,1.207595219755104,0.48637930354469655,2.5285022346236636,2.3421601937192733,,,0.5783247308855777,6.524763026726031,inf,,0.8224397037316227
628,,0.0,0.0,1.767121908930969,1.7373748427276585,0.8285574616102913,2.2507440344622736,2.702460781544428,,,0.5202020156036558,inf,,,0.8374989538145651
629,,0.0,0.0,1.5123368008878773,1.4477196831727102,0.8567509050801119,2.0073290155898644,2.4928367119424144,,,0.5022576003740722,inf,,,0.8079916341319356
630,,0.0,0.0,1.5188642254521094,1.5078703484667764,0.6573274986146936,1.8665950429203946,2.037027704909516,,,0.48319206230712763,inf,,,0.8514401730518038
631,,0.0,0.0,1.7433639533334169,1.7006109611461602,0.735448341972372,1.9720252323745617,2.3942277457912455,,,0.47824363442641393,inf,,,0.8416255380109795
632,,0.0,0.0,1.6942778846535167,1.6782645441570414,0.8258158908847596,1.9538203255933915,1.9286329082001243,,,0.5113665138247345,inf,,,0.8363960315602277
633,,0.0,0.0,1.652055918014218,1.6200284688331905,0.6940472543389523,1.5752295464620927,1.7805206862589078,,,0.47824363442641393,inf,,,0.9039380504434379
634,,0.0,0.0,1.394333742532286,1.1774482140880196,0.837007795382288,1.8607351904223004,1.8417624727987971,,,0.5113665138247345,inf,,,0.89172899622254
635,,0.0,0.0,1.54372856996888,1.4564395304862223,0.8472399942305724,2.270508063001037,2.6511898432838144,,,0.5113665138247345,inf,,,0.8953366067816192
636,,0.0,0.0,1.5612049774536936,1.483924498759114,0.8231136365121805,1.9830576756721157,2.2468292133501144,,,0.49759852643134905,inf,,,0.8333072700202034
637,,0.0,0.0,1.4033889309593264,1.4095524585083459,0.7749602334666358,1.8061711603773036,2.7490421006868804,,,0.5068466436745385,inf,,,0.7954065869387333
638,,0.0,0.0,1.73769865309441,1.688307477399195,0.6517455797435492,1.9493804798551684,2.430575379555663,,,0.5202020156036558,inf,,,0.6676847188758842
639,5.703782474656201,-2.6047273300929983,0.0,1.7805730427700208,1.746649911487235,0.7090331237195112,3.261679992774315,2.0908244782396337,,,0.581717464821069,6.487584023484278,inf,,0.7796219890033328
640,,0.0,0.0,1.4852316126965985,1.4674379917580267,0.7790135346878108,1.7172101705760523,1.9700928597206593,,,0.4880666971167561,inf,,,0.7707750221157151
641,5.7037824746562,-1.406933010415196,0.0,1.5021308776186975,1.471929325483817,0.6627374395334346,2.2046297972159357,2.4913470327586293,,,0.5158180382284114,7.1034998561082325,inf,,0.6432736093632363
642,,0.0,0.0,1.6204815401809551,1.5924957426948396,0.8504533511433428,2.632982744244323,2.4054860627135795,,,0.5713653840954815,inf,,,0.8549768746360729
643,,0.0,0.0,1.714680662623226,1.6672961852863306,0.8782686958583547,3.3134603523327857,3.5625678880690628,,,0.5490601803369085,inf,,,0.8832928050411653
644,5.7037824746562,-3.099055144563202,0.0,1.6405359003906372,1.6233670568884837,0.7165385420420671,2.5292224410324744,1.6919518088130872,,,0.5783247308855777,6.3138147485056395,inf,,0.8790878618098514
645,,0.0,0.0,1.7090068345448115,1.7209812681899408,0.8905561704391972,2.4322530047230084,3.0650626283013445,,,0.44694259446804574,inf,,,0.780729187214321
646,,0.0,0.0,1.6743002796649196,1.6432192716253047,0.8395383250834112,2.3680265604042323,2.458858913850346,,,0.5022576003740722,inf,,,0.8165982982963182
647,,0.0,0.0,1.643156126347361,1.6232150983996667,0.8754476859561007,2.4987794427845476,2.527999236389252,,,0.4066654671944331,inf,,,0.8469114836046764
648,,0.0,0.0,1.662031130659513,1.633207582962208,0.8685203741266848,2.612009216279565,2.9724423302015186,,,0.44694259446804574,inf,,,0.7955280044358454
649,,0.0,0.0,1.6905025442988322,1.6169750931791742,0.9069174269447937,2.7178419068682325,2.789822521376121,,,0.4066654671944331,inf,,,0.805965114258597
650,,0.0,0.0,1.7518639073774636,1.7058707311099417,0.9550634750319689,3.4119927928353677,3.087995256033738,,,0.45235697871908603,inf,,,0.862220609362493
651,,0.0,0.0,1.5738766292545718,1.4159435674819316,0.8998648496199283,3.19710069683523,4.835393067996238,,,0.4928685327679205,inf,,,0.8477305713444262
652,,0.0,0.0,1.6676157204651385,1.6248767179750616,0.8539686674433754,2.6967383279508232,2.573236685270184,,,0.4732203808476458,inf,,,0.7888327990895286
653,,0.0,0.0,1.6911252856792278,1.6802689888686848,0.6429865901202507,2.991852393835329,5.684763869230266,,,0.4576907132971797,inf,,,0.8473035368773353
654,,0.0,0.0,1.175075426102982,1.1703140786891781,0.8114669754654167,2.2302165515687387,2.926905841173185,,,0.4880666971167561,inf,,,0.7585730789060218
655,,0.0,0.0,1.4851197239237914,1.4638816490622697,0.8520908735904547,2.427128829215651,2.7731076615037455,,,0.4928685327679205,inf,,,0.79108520415368
656,,0.0,0.0,1.711545988582919,1.6761656132466947,0.6685734963263559,2.163928954044209,1.7325880175278905,,,0.5451288209179292,inf,,,0.7675785466650097
657,,0.0,0.0,1.6221835187698346,1.6263874660946325,0.7667642473830476,1.753038258336904,1.933743405107532,,,0.5158180382284114,inf,,,0.7955248157006517
658,,0.0,0.0,1.7307930386874628,1.716442761671871,0.8155132195105461,1.8762512622052785,1.8392097854763798,,,0.5068466436745385,inf,,,0.8383016548738431
659,,0.0,0.0,1.6893144097485089,1.6495743651885533,0.8350390074140202,1.6245818123671782,1.7238292571438245,,,0.5158180382284114,inf,,,0.8108964557339006
660,,0.0,0.0,1.3435892077866194,1.3341486445245598,0.8115145068361672,1.775013701084495,1.8788292135074094,,,0.4928685327679205,inf,,,0.839012816029488
661,,0.0,0.0,1.5234140698399772,1.4546348371254443,0.8108656760403488,1.7822824439989093,2.0293253418852535,,,0.4928685327679205,inf,,,0.7938787656646021
662,,0.0,0.0,1.7661268845657123,1.7476130259421532,0.7841158174184858,1.612369219252946,1.7194311405546914,,,0.5287703885177266,inf,,,0.8031161027771774
663,,0.0,0.0,1.552764331246109,1.5550346485791653,0.5121380585227059,1.4021211962347142,1.486754103634094,,,0.5451288209179292,inf,,,0.8846821561632063
664,,0.0,0.0,1.661630349736792,1.607049117732651,0.8092045308407914,1.2090444443467523,1.2269854488930527,,,0.5202020156036558,inf,,,0.829112667674631
665,5.703782474656201,-0.13308825774197802,0.0,1.2883621990605942,1.278081569428183,0.6178582506888113,1.6671816725024033,1.6380640351126143,,,0.5641709578113449,9.461654800257088,inf,,0.6671942540893298
666,,0.0,0.0,1.5380111334145927,1.5384941814901878,0.6313918900096427,1.8399838205243808,1.9100241367105264,,,0.5677978065141052,inf,,,0.5305767444761851
667,,0.0,0.0,1.6408720849669258,1.6446670103680732,0.7466413563652963,1.5046618929696274,1.7904155780209814,,,0.5068466436745385,inf,,,0.8501233300074043
668,,0.0,0.0,1.6962674243511517,1.6475905517901996,0.8440914291713342,1.7518412676336936,2.4223837440867655,,,0.4576907132971797,inf,,,0.8470001575152546
669,,0.0,0.0,1.5997800938689117,1.5625244805383338,0.821584862420574,1.8967292195094319,2.5730238793858313,,,0.524519217297268,inf,,,0.8260926449573842
670,,0.0,0.0,1.6147581985268973,1.627998241869272,0.8408617434803337,1.9440339874726054,1.9358337851545728,,,0.45235697871908603,inf,,,0.8114057109286484
671,5.6627249761561345,-5.417340227189369,0.0,1.0280249183477639,0.7371501726999474,0.7357259642014627,2.241151187447745,2.852879214326816,,,0.5567373465730988,5.690537247906181,inf,,0.9049815676116743
672,,0.0,0.0,1.7258788289232836,1.621691208762029,0.7148057375411143,1.7131037093750427,1.365655121736756,,,0.44694259446804574,inf,,,0.854617695080498
673,5.703782474656203,-4.429937721982983,0.0,1.3467970996093228,1.26227932921551,0.7685335101879057,2.472016017569019,1.4289798146151935,,,0.6097226960127671,5.956526495746702,inf,,0.8836849122463704
674,4.89980816454669,-4.785417992505406,-0.1143901720412847,1.6282893798116638,1.6003311192793241,0.6345382701480416,4.051228214617232,5.685790633980079,,,0.6180765742263259,4.88253529146894,4.733270188615407,inf,0.7249651177221418
675,4.765946534682084,-4.594361276620157,-0.17158525806192704,1.3155246044497522,1.285563006195544,0.7415511513972683,3.306285313254823,2.5381875674290133,4.59473533457935,,0.6125606311107803,4.726710270522187,4.483630101453995,inf,0.8666840518781957
676,,0.0,0.0,1.650351710363877,1.6180911788887182,0.8992724432071066,3.0736731558867922,3.3816029090256152,,,0.5567373465730988,inf,,,0.9008065632083415
677,,0.0,0.0,1.5770646534588342,1.5775569123562196,0.8343028187711661,2.7494371510458806,3.5171735874661167,,,0.5370774965580548,inf,,,0.8969444197509501
678,,0.0,0.0,1.6518980148382154,1.6523298622986182,0.9023045227366007,3.393434802035818,13.960629358729108,,,0.5451288209179292,inf,,,0.8994095317507547
679,,0.0,0.0,1.7615091613382081,1.7380691088464124,0.9099420319655718,3.9071231672311204,3.620630434901998,,,0.5202020156036558,inf,,,0.8958364608428584
680,,0.0,0.0,1.6705372837332817,1.6467870988755802,0.7981274032490945,3.319047870341677,6.325843623043335,,,0.5370774965580548,inf,,,0.8133437206167573
681,,0.0,0.0,1.7202365134348427,1.5812406515504107,0.8789465349496256,2.9584261568637302,6.030318793007838,,,0.4302020962658841,inf,,,0.8395632619913669
682,,0.0,0.0,1.582300278976402,1.5321969965385926,0.8934532624469194,2.3387291540948856,3.335104089464618,,,0.40055318934786044,inf,,,0.8039602804150688
683,,0.0,0.0,1.4023424602413421,1.410270262227459,0.9181893200965398,2.707333117994552,3.179739220680061,,,0.40055318934786044,inf,,,0.8355232709664375
684,,0.0,0.0,1.588429081293636,1.5559265569265373,0.79388931576775,2.2959315998120986,3.5162358042378563,,,0.5329562494928909,inf,,,0.8698029750882043
685,,0.0,0.0,1.677704569440718,1.6756459974032165,0.7724698642192503,2.040661841346704,1.829624398520679,,,0.5287703885177266,inf,,,0.736600719173957
686,,0.0,0.0,1.6603952997592533,1.6359064944467714,0.8413937938718928,2.1649079023084283,2.3804527980930557,,,0.4732203808476458,inf,,,0.7564936879769839
687,,0.0,0.0,1.5075489917954452,1.5205090451946113,0.5237079077981753,1.8124075528821992,1.736577297430292,,,0.5641709578113449,inf,,,0.829669913431996
688,,0.0,0.0,1.5369106800980035,1.5180063495776168,0.7462333880345658,1.4381331407003057,1.4298664277217703,,,0.5451288209179292,inf,,,0.7389329237000926
689,5.703782474656202,-1.9963238661296707,0.0,1.2339112058868664,1.0523972152315813,0.6470951797943287,1.9328131442013268,1.49562170512801,,,0.5915533975974677,6.753604599154879,inf,,0.7718234534377711
690,5.703782474656199,-1.5019960516594657,0.0,1.6245018613689344,1.6167096861847532,0.6708993673877992,3.9756529910757643,3.8854926829621594,,,0.6547956803312163,7.03811709684538,inf,,0.7536314729759267
691,5.314534509949609,-1.4880696627858905,0.0,1.1837989896716556,1.172528749829636,0.746595096612071,4.1095427872242185,7.781793452776882,,,0.5451288209179292,6.487584023484278,inf,,0.7083438295419081
692,,0.0,0.0,1.102245141647369,1.1008211305133138,0.6723318775292418,3.3143357383730088,3.067392094285082,,,0.5978297680564633,inf,,,0.929774482070724
693,5.703782474656201,-2.4716390723510204,0.0,1.6054011901007157,1.560543773341718,0.7497269032864164,3.722931800858974,5.72735288857049,,,0.6125606311107803,6.54003049885682,inf,,0.9082734535681476
694,,0.0,0.0,1.6514608268452375,1.6397500306126227,0.7444536555896594,4.47229746269074,9.83055495073304,,,0.6357360191111145,inf,,,0.8180309381421794
695,5.703782474656202,-3.859559474517363,0.0,1.7274884954146454,1.7196319579044377,0.7279518544886486,3.7041703515282305,11.155666992449095,,,0.6380535849069913,6.094358970270615,inf,,0.8625911735699308
696,,0.0,0.0,1.5903029999905156,1.567589960518991,0.73783218436934,3.4212006922781373,4.9680738218696305,,,0.6333676938231112,inf,,,0.8986052322766725
697,5.703782474656201,-3.4222694847937207,0.0,1.7044424109207155,1.7035740453132706,0.7108603874242065,4.287647876425302,21.236417079627447,,,0.6468212168108125,6.214608098422191,inf,,0.8884650406793204
698,5.703782474656203,-2.319538206360189,0.0,1.5023132535993842,1.4686055308429955,0.6967699478975876,3.7389189831923955,6.812164082765978,,,0.648888643467878,6.603543904579146,inf,,0.7347618283419797
699,,0.0,0.0,1.6794524255084884,1.6394406581969854,0.6772210634236623,3.997885902514172,8.751725548824147,,,0.585052858160615,inf,,,0.8315180972102872
700,,0.0,0.0,1.4639892482045183,1.4435760295648814,0.7386705566087649,3.4497957022710946,11.43150705062883,,,0.6233814453054027,inf,,,0.871215450714346
701,5.703782474656201,-0.17111347423968604,0.0,1.6901724818548909,1.645128315649566,0.714706433338645,3.81589548418406,14.634290200107268,,,0.6528756675646988,9.210340371976182,inf,,0.7544770547346213
702,5.703782474656203,-4.201786422996736,0.0,1.2474851037523167,1.2217386915137414,0.6981388827194924,3.1717926892901507,3.3078039240133346,,,0.6097226960127671,6.009402247794649,inf,,0.6452905136102121
703,5.703782474656201,-2.9279416703235164,0.0,1.724354593550578,1.7234961252478747,0.790238808101831,3.9976238084653057,3.6171484577248125,,,0.6547956803312163,6.370612346898773,inf,,0.7681454698625096
704,5.69085062427262,-5.08382655768354,0.0,1.5463393917884107,1.5105397045207347,0.7410460056593877,3.4474463024211883,3.1530987399496513,,,0.6447042257417027,5.798093154127442,inf,,0.7179940272931866
705,4.65621050661101,-3.476637178269554,0.0,1.4883098411641253,1.4237493587985457,0.686935624811156,3.568213769525246,3.3411125081160025,,,0.6447042257417027,4.86365310374761,inf,,0.6680137180696333
706,5.703782474656203,-1.939286041383109,0.0,1.280222925352409,1.2616415782878228,0.7108758027954122,3.6199468356353854,5.611496185854399,,,0.6233814453054027,6.782592136028131,inf,,0.7663180415713859
707,5.703782474656202,-1.7681725671434227,0.0,1.6689601948418271,1.6368710951838685,0.8059303236093436,3.3951968056670214,2.780894547433978,,,0.6333676938231112,6.8749654561591464,inf,,0.814525818220524
