,bvp+hr_XAp0,bvp+hr_XAp1,bvp+hr_XAp2,bvp+hr_XCond1,bvp+hr_XCond2,bvp+hr_XDist,bvp+hr_XFuzz1,bvp+hr_XFuzz2,bvp+hr_XK2_1,bvp+hr_XK2_2,bvp+hr_XPermEn,bvp+hr_XSamp0,bvp+hr_XSamp1,bvp+hr_XSamp2,bvp+hr_XSpec
0,,0.0,0.0,1.6567959693241425,1.6025262518792582,0.8828001902356474,1.15667359409589,1.2134368685993742,,,0.6333676938231112,inf,,,0.9523583705349737
1,,0.0,0.0,1.592280521496442,1.5439491383732968,0.8842620729461337,1.5829747599246025,1.5562604883454965,,,0.6068309995095971,inf,,,0.938504401936913
2,,0.0,0.0,1.7612253944100391,1.756964193741438,0.7503401315719516,1.9715592052415878,1.7751109807967471,,,0.6425374456860184,inf,,,0.9433061042447899
3,,0.0,0.0,1.4538488313553048,1.442596478712304,0.8652361568234581,1.9528381034334268,1.5333612324572397,,,0.6207552362147116,inf,,,0.9468313652599926
4,,0.0,0.0,1.7406950538488806,1.7044663390095598,0.8617457342017438,2.0034623303429777,1.6505494515427843,,,0.6509067234006624,inf,,,0.9297219578451541
5,,0.0,0.0,1.4901448047811963,1.4800692897828556,0.8199204441382307,1.5247843654123048,1.5987518417041942,,,0.6309483474627791,inf,,,0.9231863770361001
6,,0.0,0.0,1.5641958293647915,1.5504206232405304,0.7922738504665867,1.5942013833343613,1.4962398448475607,,,0.6180765742263259,inf,,,0.9533065304242337
7,,0.0,0.0,1.7620589979051684,1.7772955132980603,0.8749953953684634,1.30194405788176,0.9684033766249001,,,0.6333676938231112,inf,,,0.9148685289053838
8,,0.0,0.0,1.707621914580935,1.6995534847704201,0.818123712127158,1.5159536963211846,1.9050282869746524,,,0.6403206450210053,inf,,,0.897742548552372
9,,0.0,0.0,1.653441923789249,1.6416470881478258,0.7727829799238075,1.3957759346125405,1.2844001729345293,,,0.581717464821069,inf,,,0.9354258273365929
10,,0.0,0.0,1.6333174576632368,1.615270343765991,0.8146874375912693,1.69666241374063,1.9640875275326632,,,0.6125606311107803,inf,,,0.9527924732769334
11,,0.0,0.0,1.61373300827921,1.6092394848694709,0.890705478843405,1.8819697198530358,2.1185823119815836,,,0.6284777104787076,inf,,,0.9524944228708941
12,,0.0,0.0,1.653449739825656,1.6273515681780812,0.7424111600789667,1.5375535245384728,1.8602193099866153,,,0.6180765742263259,inf,,,0.9240805262281254
13,,0.0,0.0,1.5076667169898395,1.4808204546421606,0.8089123435256435,0.8723951911696914,0.7730476385229598,,,0.581717464821069,inf,,,0.947380738964042
14,,0.0,0.0,1.7029515835758118,1.658135180826156,0.7752062226279858,0.5518582987170318,0.6035292621993726,,,0.5748741956352443,inf,,,0.9381219928982784
15,,0.0,0.0,1.6689574267407834,1.629829046914193,0.8781497132311731,0.330863710683311,0.5125103761045761,,,0.4928685327679205,inf,,,0.9415265275002144
16,,0.0,0.0,1.689822329273391,1.641035000570126,0.8339657368658243,0.44014187508107533,0.605083306413017,,,0.5677978065141052,inf,,,0.9462794536909572
17,,0.0,0.0,1.6678077443744228,1.6655717446540363,0.7523551041464167,0.8102679730655878,0.9110230788448221,,,0.5748741956352443,inf,,,0.9497085599394689
18,,0.0,0.0,1.4617104217364398,1.416156903150229,0.7680257296040357,0.8389899151404342,1.0055195523452731,,,0.5748741956352443,inf,,,0.9371071223707265
19,,0.0,0.0,1.7459366880098728,1.7458865084726936,0.8276795970886567,0.5616443076381076,0.9879434971628573,,,0.5113665138247345,inf,,,0.906622109988651
20,,0.0,0.0,1.705323632758473,1.6772866164774463,0.6496997617395268,0.40745642687980077,0.5620408271586317,,,0.5202020156036558,inf,,,0.9351005892445549
21,,0.0,0.0,1.4940392197232955,1.472367869897069,0.7798722444312107,0.4935920597238361,0.6707732005872312,,,0.5641709578113449,inf,,,0.9383686971307501
22,,0.0,0.0,1.482612961593723,1.427575950692106,0.8734633324621273,1.0045289281458825,1.0137102246612324,,,0.5883313578629602,inf,,,0.9386360476268315
23,,0.0,0.0,1.6004044841456087,1.5707983091070787,0.8770202901663559,1.6047393079051564,1.2859030619249483,,,0.6468212168108125,inf,,,0.9157228117570957
24,,0.0,0.0,1.559267490024252,1.5235176058953304,0.8438282228364014,0.9665655632265547,1.0370683772816838,,,0.6068309995095971,inf,,,0.8755169783035914
25,,0.0,0.0,1.6520714912550423,1.6473792718607707,0.9297573856812882,0.6606335182836715,0.7010804765051276,,,0.5978297680564633,inf,,,0.8895249851624172
26,,0.0,0.0,1.5999618331169705,1.6161997709565734,0.8914588915394404,1.071042651797584,1.154767092075819,,,0.6153451465759925,inf,,,0.9444831626421987
27,,0.0,0.0,1.4591646599776023,1.434002220109493,0.8735211586444039,1.8474942402847003,2.349989252385476,,,0.6333676938231112,inf,,,0.9149237384388816
28,,0.0,0.0,1.735868536650015,1.7121482112490674,0.7979335037903095,1.8650194011829355,1.7729789931196358,,,0.62595550513784,inf,,,0.9157748703800163
29,,0.0,0.0,1.3749583346652123,1.3617526251094363,0.7496355530087001,1.959679447268879,2.5482315897203396,,,0.6180765742263259,inf,,,0.9481873258495441
30,,0.0,0.0,1.447046449300051,1.4282195808007185,0.8086128100550372,2.153155975301097,2.289135913222175,,,0.6357360191111145,inf,,,0.9381345511256234
31,,0.0,0.0,1.480398163373077,1.436510774776885,0.8259711390723756,1.9156352040671354,2.0623263204661724,,,0.5915533975974677,inf,,,0.942822942519669
32,,0.0,0.0,1.5100313802223047,1.473333075492195,0.8655552531673395,1.6732179566042644,1.4236498506156015,,,0.5978297680564633,inf,,,0.9224472406553901
33,,0.0,0.0,1.6821654068140688,1.6671746902190694,0.793583610497399,1.8209837732939256,2.04118583255113,,,0.6008849035917525,inf,,,0.9213569688597223
34,,0.0,0.0,1.565206711183808,1.5425740190673518,0.8012587271642109,1.6076515477024391,1.7917117906316098,,,0.5451288209179292,inf,,,0.8675265611621191
35,,0.0,0.0,1.4742877287927116,1.427022114111247,0.7839540227854065,1.229130443846064,1.4866031568061544,,,0.5641709578113449,inf,,,0.8747736512312124
36,,0.0,0.0,1.581986647375068,1.5220881906895192,0.8472578928171232,0.9767229882141499,1.1667831738599626,,,0.585052858160615,inf,,,0.9430073257383611
37,,0.0,0.0,1.491637301661672,1.5200313491178246,0.8215860060407982,1.4411410014289117,1.4809554196863948,,,0.6233814453054027,inf,,,0.9306614949596055
38,,0.0,0.0,1.6327129279370385,1.6310866521023688,0.8325298356762585,1.5855889376788586,1.2352014260583055,,,0.62595550513784,inf,,,0.9393660048463605
39,,0.0,0.0,1.6360429548188749,1.6255063431884424,0.9315695800364254,1.7976842816013772,1.695553765484882,,,0.6468212168108125,inf,,,0.9432504800348833
40,,0.0,0.0,1.7682379284566905,1.7786265060465514,0.886554491367441,1.7871597871773413,1.9907548240569877,,,0.6180765742263259,inf,,,0.9357678849426693
41,,0.0,0.0,1.7478826926218782,1.7103643812307974,0.8295348753709139,2.032089701583356,1.717519863187182,,,0.6468212168108125,inf,,,0.9274921591397798
42,,0.0,0.0,1.321576317637974,1.3372533561225541,0.7204145202708525,1.282466544633699,0.994438820167515,,,0.6125606311107803,inf,,,0.94375892467297
43,,0.0,0.0,1.7745028900977449,1.771223184885444,0.8467261906169389,1.960959746231308,1.7627330471929317,,,0.6425374456860184,inf,,,0.8975720226439947
44,,0.0,0.0,1.61445906716921,1.605435383480763,0.7442073409399932,1.421937295688823,1.593788006672691,,,0.5641709578113449,inf,,,0.8391718703193366
45,,0.0,0.0,1.7550748387150756,1.7360525890250262,0.9323337012637066,1.7918598533554229,2.098993165556414,,,0.6425374456860184,inf,,,0.9136408914369961
46,,0.0,0.0,1.3557427800463304,1.3069421321672545,0.765237876449001,1.4712184022552557,1.379101866649572,,,0.6309483474627791,inf,,,0.9493907675967274
47,,0.0,0.0,1.6446967564823853,1.6215023958929982,0.8247163940722376,1.3904489074947293,1.2501293979088848,,,0.6333676938231112,inf,,,0.9497071403805097
48,,0.0,0.0,1.734800365638541,1.710381767649193,0.8602453746336455,1.6823802956242515,1.7048299600309138,,,0.5978297680564633,inf,,,0.9412602178023263
49,,0.0,0.0,1.7170483951833402,1.6994246262850785,0.77554578162561,1.9552134765240847,1.6471848238879137,,,0.6309483474627791,inf,,,0.9192640230836506
50,,0.0,0.0,1.742728370682518,1.7465721163725216,0.7773183110773177,1.9484517192378656,2.022281099537191,,,0.6125606311107803,inf,,,0.9314952358039
51,,0.0,0.0,1.723506719212725,1.7029474072227462,0.7989274416852963,1.6201423057691826,2.200235041294498,,,0.5641709578113449,inf,,,0.8934287704520489
52,,0.0,0.0,1.6515261630850953,1.62560460223182,0.8437385187263526,1.7213781294247423,2.1529906577546774,,,0.552929491858785,inf,,,0.9280219073790535
53,,0.0,0.0,1.4511780690524656,1.4315475397937947,0.8688836566297369,1.7629040253322024,2.3129757674101867,,,0.6125606311107803,inf,,,0.9364867769235273
54,,0.0,0.0,1.5656301648953603,1.5427723768656703,0.8916870477940582,1.3724715307377973,1.7690839590292313,,,0.5783247308855777,inf,,,0.9081386080758808
55,,0.0,0.0,1.4115742408205612,1.4139119866188492,0.8431110014621639,1.7502003393634777,2.0297761129654686,,,0.6008849035917525,inf,,,0.8908547694721682
56,,0.0,0.0,1.3379565314395956,1.282786531877885,0.8013762941223712,1.6810321175123737,1.9779683718585652,,,0.5783247308855777,inf,,,0.9434828991907185
57,,0.0,0.0,1.601933348123926,1.5814327784640825,0.7538263655785381,1.3430041854179953,1.6646787795419122,,,0.5329562494928909,inf,,,0.9144743280756452
58,,0.0,0.0,1.7075534968536195,1.6114027304784626,0.8533670958610547,1.1563645927764552,1.2585015023969979,,,0.5158180382284114,inf,,,0.8731360441613889
59,,0.0,0.0,1.6926619192695662,1.672155383788474,0.8769771057210827,1.8822944966379647,2.231643041865459,,,0.541134803179459,inf,,,0.9301973914222754
60,,0.0,0.0,1.664405450542211,1.665792608129989,0.8517730789848287,2.0710672682093065,3.2120720831048977,,,0.5567373465730988,inf,,,0.9372461221515892
61,,0.0,0.0,1.758054158504148,1.7180809120110316,0.8345281347237475,1.78267520190556,2.248988922244185,,,0.585052858160615,inf,,,0.941203340149658
62,,0.0,0.0,1.7098648078003802,1.6911136291338251,0.8082617740760917,1.7183706179849325,1.9803857207442161,,,0.5947193981915972,inf,,,0.9211811227148086
63,,0.0,0.0,1.5184069860774956,1.5075437431677685,0.7778001526897427,2.217115761111119,1.6995053330362242,,,0.5883313578629602,inf,,,0.9218976646919551
64,,0.0,0.0,1.7031746886362313,1.6803927432273873,0.9043786838197662,1.819099015169455,2.386877535337968,,,0.6068309995095971,inf,,,0.9469829225147192
65,,0.0,0.0,1.7778898380547477,1.7820509430842897,0.9100832179293178,1.612432642791871,1.2938854421378612,,,0.6509067234006624,inf,,,0.9431585470470154
66,,0.0,0.0,1.5616905445690639,1.517699836503297,0.8307494184992565,1.8122511954450815,1.8934388738503312,,,0.6509067234006624,inf,,,0.9450315352206287
67,,0.0,0.0,1.294076453814758,1.273276306336664,0.8202795020135244,1.860815291712284,1.9383671838400085,,,0.6125606311107803,inf,,,0.9519149007640122
68,,0.0,0.0,1.3402243718799012,1.3122181384352158,0.7973766295402556,2.1783567922846383,2.0140123420037424,,,0.6038851895711802,inf,,,0.9294685191311886
69,,0.0,0.0,1.5796437488540365,1.5555568919455176,0.7607011754841638,1.8636639846775636,2.187127732067994,,,0.6207552362147116,inf,,,0.9308016337963855
70,,0.0,0.0,1.6250612004792755,1.6100171066227946,0.777349113578123,2.1447345399337814,2.8514179185515354,,,0.5883313578629602,inf,,,0.936636740796194
71,,0.0,0.0,1.7303918945250707,1.6766781863974691,0.7565479995117209,2.0244203743852034,1.9368710572995975,,,0.6380535849069913,inf,,,0.9360326127263852
72,,0.0,0.0,1.768138626070248,1.741822676766277,0.7793319473718713,1.864753576233151,2.480463947974882,,,0.5490601803369085,inf,,,0.885863040327685
73,,0.0,0.0,1.631490883539634,1.5979831006772691,0.7317587229149864,2.3307513220818152,2.6058363089939145,,,0.5978297680564633,inf,,,0.9019803745359968
74,,0.0,0.0,1.6857218431222378,1.6567584832080626,0.8399355067930706,1.8332481344687332,1.9209836540636136,,,0.6008849035917525,inf,,,0.9507940530662774
75,,0.0,0.0,1.388582224497408,1.3709514721401428,0.7264797041418534,1.6123460213393899,2.405243914216069,,,0.5287703885177266,inf,,,0.9103209789355254
76,,0.0,0.0,1.5004214115241783,1.4489569400153246,0.7635831740621991,1.6773134981451032,2.058177231977975,,,0.5783247308855777,inf,,,0.9070248731619225
77,,0.0,0.0,1.6691841717591103,1.661489352206085,0.9087880458411347,1.9678431666526495,2.3027698380825585,,,0.6380535849069913,inf,,,0.9217078055202281
78,,0.0,0.0,0.8976376537942802,0.8591246533173491,0.7793574623097367,1.8932634361756842,1.8161585882592148,,,0.5677978065141052,inf,,,0.9077219424039963
79,,0.0,0.0,1.559347937249451,1.5530521865308144,0.821988901425213,1.635717568455475,1.9518375038973084,,,0.541134803179459,inf,,,0.9376905289578408
80,,0.0,0.0,1.6784445408949367,1.6849815173585314,0.7801149267976469,1.3535183307114054,1.3819695256862294,,,0.5641709578113449,inf,,,0.9386788907372136
81,,0.0,0.0,1.635102982714564,1.6445665652341084,0.8926845468451796,2.004520784209808,1.4566407243838109,,,0.6309483474627791,inf,,,0.9561153172952936
82,,0.0,0.0,1.5227928356055078,1.4660811175174642,0.8606525114737367,1.6409806905478717,1.5944520536730515,,,0.6528756675646988,inf,,,0.9545355142445392
83,,0.0,0.0,1.327027673082053,1.3157272249843963,0.7726656240616494,1.2431092834078545,1.380747390721415,,,0.5915533975974677,inf,,,0.9603692293889984
84,,0.0,0.0,1.3201990319258479,1.313372783193968,0.742084021068738,0.9334102878861056,1.1576531571156885,,,0.5287703885177266,inf,,,0.9158036079833297
85,,0.0,0.0,1.2636215542974392,1.1965546254869943,0.7990675063665078,1.4202122161151867,2.113462819331195,,,0.5287703885177266,inf,,,0.9385980707695679
86,,0.0,0.0,1.3403333107357396,1.3437625332944438,0.8275642714658312,1.2274302823162002,1.758503592447371,,,0.5370774965580548,inf,,,0.8946539375805397
87,,0.0,0.0,1.5871954737499159,1.570945746601225,0.8647950251342925,1.1737311113447593,1.6278544907023926,,,0.5287703885177266,inf,,,0.8744711316862531
88,,0.0,0.0,1.653294137694136,1.5931576301048873,0.7294441881258995,1.0377156578500109,1.2506052119480613,,,0.5451288209179292,inf,,,0.9321288369036077
89,,0.0,0.0,1.5013135490803404,1.487908407856742,0.8299809100149383,1.3147067623241007,1.7636571401900714,,,0.48319206230712763,inf,,,0.9175455953497677
90,,0.0,0.0,1.665358465595042,1.6078097454497131,0.7279102728737504,1.1367756322638287,1.344139237749498,,,0.5202020156036558,inf,,,0.9418242964008938
91,,0.0,0.0,1.6109475995082359,1.5646753119937198,0.8770153700679414,0.8029346478711913,1.379235725634776,,,0.47824363442641393,inf,,,0.9099657101162093
92,,0.0,0.0,1.705167221984119,1.6776214571771904,0.8961921970348034,1.2161398847262563,2.22408385822797,,,0.4880666971167561,inf,,,0.9063875999281947
93,,0.0,0.0,1.5967746177878772,1.5845874960648543,0.754545732167724,1.1818144023375212,2.1689994273764257,,,0.4928685327679205,inf,,,0.9119279144842117
94,,0.0,0.0,1.5191083492110646,1.496696154045838,0.8906831405929793,1.2687055265598008,2.2370149352643454,,,0.45235697871908603,inf,,,0.90064326807499
95,,0.0,0.0,1.765099400818183,1.7823419982079112,0.874136115993996,1.3607738980459623,2.597014048656857,,,0.4576907132971797,inf,,,0.890056296402554
96,,0.0,0.0,1.63354170395121,1.5896284816608173,0.8618609207362449,1.6295294703729726,2.1724384082353714,,,0.4928685327679205,inf,,,0.891152589156238
97,,0.0,0.0,1.5351241717113733,1.4876808896668918,0.7798870795390858,1.686250906346498,2.3980637600605776,,,0.5329562494928909,inf,,,0.9233813763086832
98,,0.0,0.0,1.3232848641490105,1.3250847758741113,0.8668496307347076,1.2802407237253692,2.4035670297605236,,,0.5287703885177266,inf,,,0.8878233614802393
99,,0.0,0.0,1.5864278361976183,1.5236837997020187,0.8505626096341526,1.3580967290475372,3.119263552660782,,,0.5287703885177266,inf,,,0.8674189169580653
100,,0.0,0.0,1.6507108322992279,1.6272818402867322,0.9098799978636611,1.3670266765443808,3.381105336558597,,,0.5158180382284114,inf,,,0.8494341069542758
101,,0.0,0.0,1.578934892277223,1.569526533195296,0.8753309589124261,1.3551579376188134,2.6614684803877937,,,0.4732203808476458,inf,,,0.8354628823400827
102,,0.0,0.0,1.4066728037423346,1.3893903308264444,0.7642747992428297,0.9453277227596079,1.4140640783900302,,,0.3943459996787778,inf,,,0.9122145646828512
103,,0.0,0.0,1.4059036667827316,1.343351112826637,0.7578236509458589,1.9003053339159521,2.252709863335598,,,0.48319206230712763,inf,,,0.9348182977338312
104,,0.0,0.0,1.4960313693762437,1.4921441873876393,0.8664238045529914,1.8349737970730868,2.7827443229764524,,,0.4576907132971797,inf,,,0.9105019663637193
105,,0.0,0.0,1.020605744247961,0.9936785103352108,0.75465437572599,1.8401922993785322,1.8377447444257697,,,0.4732203808476458,inf,,,0.9274924057318026
106,,0.0,0.0,1.7704305795744624,1.7262590306416572,0.874155984312586,1.2016885752622262,0.8085141058527343,,,0.6333676938231112,inf,,,0.9484409776809173
107,,0.0,0.0,0.9656820338469128,0.9091755719203247,0.7333328347683726,1.2830798100544574,1.4119359688870723,,,0.468121228110369,inf,,,0.915156904450768
108,,0.0,0.0,1.624375797693069,1.5976147444348094,0.6233930401375829,1.852844671138103,3.1281686346316446,,,0.4302020962658841,inf,,,0.920552258274544
109,,0.0,0.0,1.580329754936031,1.5284477676104615,0.953901714102405,2.504045298185441,5.659875462959091,,,0.40055318934786044,inf,,,0.8529329447571211
110,,0.0,0.0,1.6095700238022408,1.5925886674178071,0.8200339879478338,1.6527954537175675,2.6589075805616904,,,0.42445136339222655,inf,,,0.8932815558770383
111,,0.0,0.0,1.6705232334035318,1.650341169771409,0.8808553752779285,1.901341440462223,3.1324872708644693,,,0.4928685327679205,inf,,,0.9026963233329082
112,,0.0,0.0,1.578312141585119,1.5831647200785088,0.8564297112818599,1.4287744881114364,2.077894705246521,,,0.5202020156036558,inf,,,0.9265057349254197
113,,0.0,0.0,1.7067475722640606,1.6833989470283193,0.8942225950437233,1.2964290794503905,2.627935434495277,,,0.42445136339222655,inf,,,0.8557642172920147
114,,0.0,0.0,1.7084878515783504,1.697390522860718,0.7858974814420245,1.487449661581594,1.7952876308016026,,,0.5158180382284114,inf,,,0.8813439478045498
115,,0.0,0.0,1.3433538221572878,1.3292782802765746,0.8614101505795656,1.9654324847065976,3.128530128517851,,,0.4880666971167561,inf,,,0.7397559836657254
116,,0.0,0.0,1.14562236077977,1.1219745897012239,0.7646850284963006,1.3223615429830742,2.3934836718184718,,,0.45235697871908603,inf,,,0.9065363046200053
117,,0.0,0.0,1.5778633948874898,1.527025597296494,0.8987259769546054,1.9009339122530178,3.387606781169949,,,0.5202020156036558,inf,,,0.8794363537439955
118,,0.0,0.0,1.3869476840717134,1.3717973126627383,0.4155815771368483,1.3529492353537,1.4407252924018248,,,0.5677978065141052,inf,,,0.9525588672133534
119,,0.0,0.0,0.7018125765839875,0.5379444610515539,0.6029406149082156,1.0266186244372841,1.4816087112796288,,,0.4880666971167561,inf,,,0.942511983883912
120,,0.0,0.0,1.0022654327260772,0.9574031140202995,0.7269716719482759,0.9764349445225584,1.6094740194549824,,,0.44694259446804574,inf,,,0.8607544690561464
121,,0.0,0.0,1.0511664080263499,1.0376353969042087,0.6781107255675026,1.5546815476033764,1.790589785566787,,,0.5641709578113449,inf,,,0.9499066961269065
122,,0.0,0.0,1.4537755475771874,1.4092250211172994,0.8826883333029111,0.45604458476424353,0.8156477398660881,,,0.44144624493110796,inf,,,0.9085643743047364
123,,0.0,0.0,1.6330076391761212,1.605642548668957,0.8433949659474966,0.29983397626931174,0.6081871299811652,,,0.36181263880445963,inf,,,0.8679556328061077
124,,0.0,0.0,1.7298197363872858,1.710359528680318,0.9218184381621077,0.2509918185114316,0.4881528113314432,,,0.31914402280573173,inf,,,0.8173229093107726
125,,0.0,0.0,1.6374868497678063,1.6378453570070666,0.8825428148274116,0.24972756298126583,0.4812252752773037,,,0.3265551233283096,inf,,,0.819094078643693
126,,0.0,0.0,0.5987790084989334,0.5470904880039028,0.6299754076396695,0.36055014900153015,0.5410578886088839,,,0.3943459996787778,inf,,,0.9013280460467561
127,,0.0,0.0,1.5151264755035756,1.4696024950148043,0.8402477708803061,0.736791831409626,0.6096611130411146,,,0.552929491858785,inf,,,0.9256304601340385
128,,0.0,0.0,1.620139375141045,1.6058394321256195,0.6136696409068776,0.6025665699468815,0.628496744303048,,,0.5022576003740722,inf,,,0.939272964714569
129,,0.0,0.0,1.5090501391785287,1.5048540076983896,0.7542492213651667,0.4143598084170867,0.5132145957691887,,,0.5451288209179292,inf,,,0.9446625587106598
130,,0.0,0.0,1.7210429182266842,1.6967508578863544,0.8889921901576215,0.09331973142088068,0.16404708227373116,,,0.48319206230712763,inf,,,0.7257556767576073
131,,0.0,0.0,1.5395628377494393,1.4617847745060846,0.8098922296371994,0.07082792388210214,0.12298746927797406,,,0.42445136339222655,inf,,,0.7112999184963084
132,,0.0,0.0,1.462270163323256,1.4352338849127793,0.81770158071063,0.07843689557360119,0.1276241424005113,,,0.4880666971167561,inf,,,0.7415507955139634
133,,0.0,0.0,1.7367067602918698,1.7029776055389414,0.85626700133708,0.07249296484738209,0.12825282142496314,,,0.45235697871908603,inf,,,0.7276848594051258
134,,0.0,0.0,1.744433072415157,1.6659833765861813,0.817844594814922,0.09005691448357722,0.16132141893375856,,,0.45235697871908603,inf,,,0.7118801893639535
135,,0.0,0.0,0.783919948375365,0.7720800729014486,0.5523756753501595,0.18998900273241792,0.23984273581754184,,,0.468121228110369,inf,,,0.9070664559859026
136,,0.0,0.0,1.4527745007313497,1.4228930951101944,0.8461262788657697,0.21970531782399833,0.4032923683400249,,,0.4576907132971797,inf,,,0.7893770146541373
137,,0.0,0.0,1.6690171751233946,1.6671765409268682,0.8572818564281496,0.1651559508219508,0.30209066146959784,,,0.5022576003740722,inf,,,0.7987298957399337
138,,0.0,0.0,1.412253503565445,1.3670183421789166,0.7789357609306793,0.2777607840588325,0.36871184226818876,,,0.552929491858785,inf,,,0.8794121818409995
139,,0.0,0.0,1.436032032530341,1.4437471641572672,0.7317175899650943,0.35984348036286123,0.41067218308207104,,,0.5329562494928909,inf,,,0.9168668253028613
140,,0.0,0.0,1.5121151351242719,1.4849393934737398,0.7058480701914133,0.15667071480225936,0.18981580262265282,,,0.541134803179459,inf,,,0.8727105809938549
141,,0.0,0.0,1.5700433914406484,1.5476399620996155,0.67970185748799,0.19656978903128627,0.26557987731637045,,,0.5370774965580548,inf,,,0.8704147698165603
142,,0.0,0.0,1.6952660745660482,1.6529369339305768,0.8052528727480661,0.12729145861066005,0.2003246292118365,,,0.5713653840954815,inf,,,0.8596228824408871
143,,0.0,0.0,1.247111394697532,1.2543312574132348,0.6736411474557461,0.4329909561872638,0.5077578292664029,,,0.5287703885177266,inf,,,0.9170720308335787
144,,0.0,0.0,0.3770111084934434,0.3423943252153155,0.5895616668784311,0.3036734561966601,0.51053735808097,,,0.4732203808476458,inf,,,0.7586769475947649
145,,0.0,0.0,1.5667151676687812,1.5320655805421004,0.7494409769195003,0.41266372674888285,0.6774282674782801,,,0.41268473150466,inf,,,0.7734179127038754
146,,0.0,0.0,1.5823092922502167,1.542154008209311,0.8823120212187981,0.5419974784806313,0.6229918464410095,,,0.552929491858785,inf,,,0.9065378061412807
147,,0.0,0.0,1.720706841031373,1.704946402031457,0.7919237448297592,0.14898126900107317,0.19171047362949473,,,0.5713653840954815,inf,,,0.881079486836883
148,,0.0,0.0,1.6694008794526822,1.6181519399364044,0.865390450462036,0.10529920018829493,0.1808753259813097,,,0.49759852643134905,inf,,,0.8086132259157424
149,,0.0,0.0,1.4866332800777542,1.4669110338531524,0.7223221284222284,0.19730791020832736,0.24472246714723364,,,0.5287703885177266,inf,,,0.8489593634697473
150,,0.0,0.0,1.7247125239581522,1.6812626954425656,0.8845935444980676,0.20423359872903932,0.3575081578642148,,,0.5022576003740722,inf,,,0.7392084973695661
151,,0.0,0.0,1.5214242470317567,1.5057400962309064,0.680580756293424,0.225620497696004,0.3183743547266541,,,0.5329562494928909,inf,,,0.8717448973322749
152,,0.0,0.0,1.3189728329972292,1.3124340534187813,0.737403424641606,0.08873833248189929,0.16760557953592864,,,0.5022576003740722,inf,,,0.7875221546892389
153,,0.0,0.0,1.6522803998389408,1.6179363655381198,0.8387828977200259,0.088050428894491,0.16231079187218028,,,0.5567373465730988,inf,,,0.7506886647369352
154,,0.0,0.0,1.7532703027688636,1.7506921121987764,0.8026368989986613,0.20129185116279755,0.3152004844821094,,,0.5567373465730988,inf,,,0.8528738832344382
155,,0.0,0.0,1.5079984348030957,1.4872950001547864,0.8706076548919279,0.16781159270466364,0.2985820086920881,,,0.5287703885177266,inf,,,0.796331578830613
156,,0.0,0.0,1.5095975341694305,1.4888239050168037,0.8643191345207067,0.25388632890499413,0.4037189884852612,,,0.5287703885177266,inf,,,0.7802901200287096
157,,0.0,0.0,1.668320912516888,1.6507633990820207,0.8553404646994933,0.28433195616029755,0.43982294473578315,,,0.5370774965580548,inf,,,0.7738538826112576
158,,0.0,0.0,1.2380312266369866,1.2193034597661199,0.829246925110464,0.2730205400167844,0.4425468523750619,,,0.5287703885177266,inf,,,0.7855544993891496
159,,0.0,0.0,1.4120468227553085,1.381067044949495,0.6914407179339616,0.49309324852525843,0.6567365404317987,,,0.4928685327679205,inf,,,0.9318611268890755
160,,0.0,0.0,0.9670854006103353,0.953754714867852,0.6645994727928739,0.3083032029587702,0.41631825130148953,,,0.5490601803369085,inf,,,0.8495989519517841
161,,0.0,0.0,1.7022231120404687,1.7019336385874486,0.8444559765821558,0.6183548454406491,0.7784397866905802,,,0.5068466436745385,inf,,,0.834638520262668
162,,0.0,0.0,1.714865288661812,1.7086633997028091,0.8434777349650506,0.5142994257974333,0.6660619250119238,,,0.5287703885177266,inf,,,0.7862692801202608
163,,0.0,0.0,1.3255956401285605,1.3078091341655667,0.7155205142926646,0.6694994669506662,0.631667856086381,,,0.5490601803369085,inf,,,0.9160077203960021
164,,0.0,0.0,1.709300877430643,1.6445418931819618,0.8674270027233033,0.5955817634990797,0.4919354654210806,,,0.6068309995095971,inf,,,0.9135766371504739
165,,0.0,0.0,1.6378184351965364,1.6109694639010104,0.8989187045229703,0.8827747606849444,0.7870656005070027,,,0.6468212168108125,inf,,,0.9220579957359499
166,,0.0,0.0,1.6867685270007224,1.6484720696985122,0.8768094284502993,1.4538551994918836,0.9660453504204318,,,0.6425374456860184,inf,,,0.8637256212265153
167,,0.0,0.0,1.6110145297908267,1.6116822176827643,0.8575143605521665,0.928291158011079,0.9123269142910854,,,0.5783247308855777,inf,,,0.7984110501409858
168,,0.0,0.0,1.6728285238731029,1.6509453910587895,0.7575401037580822,0.4282350180201694,0.3895775022357489,,,0.5713653840954815,inf,,,0.9206233162219168
169,,0.0,0.0,1.708200566903951,1.7165495170960454,0.7967522002962516,0.664387183315964,0.5339435260313284,,,0.5677978065141052,inf,,,0.9197215168954299
170,,0.0,0.0,1.7388107617741277,1.7202663377716552,0.789268312324431,0.7135049002649524,0.4537330647745149,,,0.6309483474627791,inf,,,0.8911056342050051
171,,0.0,0.0,1.7137942514346038,1.7058262061535094,0.7497735066494013,1.0284295357222908,1.0513865339340533,,,0.6233814453054027,inf,,,0.8929868333995842
172,,0.0,0.0,1.5926594083091519,1.5500272789362042,0.8588611839432394,0.7830560422208742,0.6869837606571746,,,0.5883313578629602,inf,,,0.938973470306905
173,,0.0,0.0,1.3163952429812602,1.251893698574308,0.7768069982855889,0.5439007077583773,0.5381772933000044,,,0.5677978065141052,inf,,,0.9189239663066313
174,,0.0,0.0,1.7233646541060108,1.657530820489446,0.87081757664797,0.9787021606430166,0.7832316914251047,,,0.6180765742263259,inf,,,0.9466199595433273
175,,0.0,0.0,1.6025080031392585,1.5904026450529556,0.7538749943322626,0.7065379725374428,0.5313820600727459,,,0.5915533975974677,inf,,,0.926248890109549
176,,0.0,0.0,1.6993411659479156,1.674048587242423,0.8033298714882956,0.7752863446229988,0.621175766118657,,,0.6207552362147116,inf,,,0.9463709857678644
177,,0.0,0.0,1.4444433613050345,1.3982396269190005,0.8891879361332177,0.5054952679764192,0.5320439401165761,,,0.5329562494928909,inf,,,0.9238114537559984
178,,0.0,0.0,1.3285184233624543,1.3174826782414015,0.710707991047786,0.8122627134194725,0.7378014865415917,,,0.5783247308855777,inf,,,0.849536348149226
179,,0.0,0.0,1.6834657410806477,1.637470531206079,0.795694880777986,1.0350505712679259,0.9595460732328494,,,0.6284777104787076,inf,,,0.8552615962393486
180,,0.0,0.0,1.6525515848873478,1.6666617422672803,0.7861949017957719,0.28458117440275954,0.3269056017958143,,,0.4928685327679205,inf,,,0.9139607472492409
181,,0.0,0.0,1.686881772309246,1.6188428305390554,0.6576575593110546,0.29430737348451735,0.24153018305698937,,,0.5451288209179292,inf,,,0.9215316023381335
182,,0.0,0.0,1.6931261054657494,1.656350218835998,0.8676229389837582,0.6952925272247423,0.4922888159497041,,,0.6097226960127671,inf,,,0.9346329531533517
183,,0.0,0.0,1.4080473212753168,1.3781727546251008,0.7034063227998505,0.5279646742563656,0.5725008996725581,,,0.5202020156036558,inf,,,0.9388964583553094
184,,0.0,0.0,1.6575393140994807,1.6139968223987697,0.7957205240865706,0.8653612067420956,0.6157235806165325,,,0.541134803179459,inf,,,0.935105108724909
185,,0.0,0.0,1.6879346679178486,1.6196377858267634,0.8127173705356776,0.28884589533105487,0.3051634335499943,,,0.4302020962658841,inf,,,0.9104121620638737
186,,0.0,0.0,1.734368825352496,1.761893904392117,0.7713678285253841,0.6430190851600343,0.49883761990220277,,,0.6008849035917525,inf,,,0.9242664949040844
187,,0.0,0.0,1.3905632319480177,1.3301301153311709,0.7696089173587329,0.46725846665803616,0.36205368730016807,,,0.552929491858785,inf,,,0.903087781157402
188,,0.0,0.0,1.5201989062443568,1.4744210912365894,0.794921339665655,0.39277061969727817,0.4655413197929869,,,0.5451288209179292,inf,,,0.8661906723983457
189,,0.0,0.0,1.7038963613146887,1.646569742427458,0.8899455785043108,0.2419101485418774,0.40643670003025334,,,0.4576907132971797,inf,,,0.7163319939139844
190,,0.0,0.0,1.7578538409095525,1.727125237952986,0.8161219525568068,0.2503967291247276,0.47162584502773297,,,0.4302020962658841,inf,,,0.745628895645461
191,,0.0,0.0,1.766609319385263,1.7484072974396132,0.7840281550750929,0.2768913608170885,0.5130718572822571,,,0.44694259446804574,inf,,,0.7099606415697814
192,,0.0,0.0,1.641672362280354,1.622963208721425,0.7794606998083753,0.2555511137618842,0.4945793283148862,,,0.44694259446804574,inf,,,0.7330367572839208
193,,0.0,0.0,1.6218349579303823,1.6198104467632803,0.8333154153105302,0.2714316425187387,0.5081995889143356,,,0.41861278947482794,inf,,,0.7494903773023441
194,,0.0,0.0,0.9182593532491072,0.837170906582756,0.7574165315529388,0.49178977302130894,0.5094035880205341,,,0.5451288209179292,inf,,,0.9384548613590353
195,,0.0,0.0,1.073279300254409,1.0709491192492053,0.6255285958574845,0.34926982721762173,0.33301111095329017,,,0.5202020156036558,inf,,,0.9294853147471634
196,,0.0,0.0,1.564856146854967,1.5450917255550036,0.8676517971308891,0.708784461424914,0.49699791198088916,,,0.5883313578629602,inf,,,0.928720548547482
197,,0.0,0.0,1.638320129207198,1.6149657584024952,0.9175549257831805,1.3270346715667791,1.3356743211309177,,,0.6153451465759925,inf,,,0.9372530778250874
198,,0.0,0.0,1.2651175156225773,1.2200420470593842,0.7615489879447329,0.3386546013766465,0.2451269146422132,,,0.585052858160615,inf,,,0.9133971768404515
199,,0.0,0.0,1.673307278107526,1.6616338852198944,0.6940138281216387,0.27031313198383095,0.1690979627655112,,,0.5329562494928909,inf,,,0.9247544221009094
200,,0.0,0.0,1.5656555983148892,1.4946129572139726,0.7227432623945651,0.3584118300370392,0.2795119178147029,,,0.5748741956352443,inf,,,0.9155692376587328
201,,0.0,0.0,0.989736671478542,0.9441406464826262,0.6913322520108757,0.39459076813339866,0.4164797610583823,,,0.5068466436745385,inf,,,0.896255877500379
202,,0.0,0.0,1.2714519500758588,1.1650355464963422,0.6213660594676913,0.23070592788827313,0.2244718570552102,,,0.5783247308855777,inf,,,0.9000256266604441
203,,0.0,0.0,1.3726723075605087,1.3143765936791796,0.6793620416946997,0.2635628625219001,0.227542918822625,,,0.541134803179459,inf,,,0.9340412758546366
204,,0.0,0.0,1.726278414887619,1.742244345923203,0.6640508096179293,0.4350634848602136,0.36796654096279996,,,0.581717464821069,inf,,,0.943547588133236
205,,0.0,0.0,1.7105010299963794,1.6996672941709292,0.56992659359276,0.2590595671598605,0.3514138226790247,,,0.5022576003740722,inf,,,0.91927043677712
206,,0.0,0.0,1.4740044018514296,1.4033476283913189,0.6991547909468687,0.29863658170893376,0.2986599610568062,,,0.6038851895711802,inf,,,0.879183386230785
207,,0.0,0.0,1.5104483600239125,1.4469223419235309,0.8427485315697939,1.0311305487663476,0.47745888280912596,,,0.6038851895711802,inf,,,0.9227494673225808
208,,0.0,0.0,1.6598977083521984,1.6441760482504844,0.8381947630217854,1.478141984173213,1.0009576150812218,,,0.6207552362147116,inf,,,0.9463842245779694
209,,0.0,0.0,1.3761316489972752,1.372954293901541,0.8401522308955598,2.219171588329251,1.665929263051234,,,0.6547956803312163,inf,,,0.9081016205510523
210,,0.0,0.0,0.8295786968530174,0.7552688204193942,0.5448166115226107,1.2637701732279982,1.1216926527811877,,,0.648888643467878,inf,,,0.6746237620184559
211,,0.0,0.0,1.5580618430806141,1.5488899336297806,0.7867429029146059,0.9810095348051059,1.0515200842808978,,,0.5567373465730988,inf,,,0.9499135105751912
212,,0.0,0.0,1.7141942775158028,1.7069314216407832,0.8485545822040964,1.426904778974691,1.0352480748383566,,,0.6153451465759925,inf,,,0.9508867657630193
213,,0.0,0.0,1.5836907593523657,1.5764849312833236,0.8059651893729933,1.8057727652961946,1.6542725931491031,,,0.6357360191111145,inf,,,0.8876288694449468
214,,0.0,0.0,1.0449781341540225,1.0112709167955396,0.6997504028183219,0.6469548746362883,0.7317519959654862,,,0.552929491858785,inf,,,0.8422824562414484
215,,0.0,0.0,1.7090332808020234,1.6803619422872298,0.8432680370580007,0.6670921883951366,0.507777802909212,,,0.6125606311107803,inf,,,0.9267510772158911
216,,0.0,0.0,1.7669505309351163,1.7477305925293154,0.8306352287382889,0.46771762510975096,0.48731096139278196,,,0.5947193981915972,inf,,,0.9209963708618848
217,,0.0,0.0,1.6231606181196494,1.6157751071456925,0.671518565638599,0.2290350599930047,0.25284816586371395,,,0.5451288209179292,inf,,,0.9451255566404257
218,,0.0,0.0,1.3890653021070622,1.3790725424144388,0.7389702420215899,0.572313503160612,0.41277651396722514,,,0.6180765742263259,inf,,,0.9353687325810454
219,,0.0,0.0,1.5845072177458128,1.53981488612732,0.8488753423518343,0.5833510890761071,0.5151892070690679,,,0.5883313578629602,inf,,,0.9122436817614482
220,,0.0,0.0,1.5975497341938676,1.5601197436501761,0.6051400928980898,0.4309279906598874,0.412208324209174,,,0.5604843169999094,inf,,,0.9656035700662565
221,,0.0,0.0,1.7220243780059263,1.7314784342335654,0.9200726977041268,0.2352581051099767,0.3581864320738175,,,0.5978297680564633,inf,,,0.9140835142901186
222,,0.0,0.0,1.6323729067208153,1.6264850602297665,0.7972344078392805,0.19965061194700237,0.2401427625458429,,,0.5490601803369085,inf,,,0.926769069177557
223,,0.0,0.0,1.467074089650481,1.4115434664341422,0.8230507845937658,0.39172212577321336,0.42654495567640605,,,0.5567373465730988,inf,,,0.9437098606762955
224,,0.0,0.0,1.6609713367001768,1.6589466490449476,0.8082179656870976,0.38276802933443244,0.46438092073035686,,,0.581717464821069,inf,,,0.9350677813686652
225,,0.0,0.0,1.7273162219396139,1.7088507571693545,0.9323037016688105,1.1016011699198913,0.9124876279707372,,,0.6684167106117298,inf,,,0.9312431411936377
226,,0.0,0.0,1.586085581116985,1.5775745109972334,0.8288668496583564,1.3110713871519968,1.0348085728770662,,,0.6528756675646988,inf,,,0.9451042903184375
227,,0.0,0.0,1.4795469573214013,1.4562014324461363,0.8031729936402376,0.46819597539773083,0.6111845825571465,,,0.5748741956352443,inf,,,0.8660857046046773
228,,0.0,0.0,1.3461957264149496,1.3300385771882022,0.4960686499987873,0.8199884639840618,0.8935541655298761,,,0.5022576003740722,inf,,,0.9537608145309275
229,,0.0,0.0,1.4266880092758862,1.3972306144594808,0.7282096092915952,1.0696652352646139,1.0351253499426856,,,0.6125606311107803,inf,,,0.9065412694559672
230,,0.0,0.0,1.4813222941544368,1.4450564375939974,0.8049991989905996,1.26682875872878,1.2898458156868757,,,0.5748741956352443,inf,,,0.8772363485879875
231,,0.0,0.0,1.6418673446405232,1.596470937169732,0.7868565118157774,1.1104725733521967,0.9909111128985033,,,0.6357360191111145,inf,,,0.7743630414434214
232,,0.0,0.0,1.5552264782933132,1.5093525028628336,0.818184392284801,0.7797658586331004,0.7372088521085315,,,0.6357360191111145,inf,,,0.9578739599158624
233,,0.0,0.0,1.5118441692067492,1.4662481390940314,0.7356265439937899,1.0257177053682276,0.7967728691858642,,,0.6207552362147116,inf,,,0.9512479664146611
234,,0.0,0.0,1.7793696798591119,1.769512528012989,0.6650998947074096,1.6973244535987626,1.4780191439662205,,,0.5978297680564633,inf,,,0.9507368517766187
235,5.703782474656203,-0.43728998972364225,0.0,1.7378365377217528,1.6967152394888803,0.4962167338204125,1.588633895207343,0.9127792071169893,,,0.6233814453054027,8.272070733383252,inf,,0.5643238967093811
236,5.703782474656201,-0.6464286804610362,0.0,1.5473902234750603,1.5164445483044695,0.6695355648020718,1.680663353643541,1.012194399450102,,,0.6233814453054027,7.881204424696241,inf,,0.6916426461375029
237,,0.0,0.0,1.4940786903733774,1.4995389106632158,0.8423575644609611,2.343159574726928,1.8036911070795836,,,0.6380535849069913,inf,,,0.856737228224246
238,,0.0,0.0,1.4761303202090512,1.446186150589911,0.798441684956368,1.4956044276754599,1.0611156985672145,,,0.6425374456860184,inf,,,0.8384015713658652
239,,0.0,0.0,1.160634323434616,1.1526145282407312,0.7113537525876431,1.3560130973274005,0.9914625468520166,,,0.6284777104787076,inf,,,0.9511286105899278
240,,0.0,0.0,1.500234333734574,1.4912768121054223,0.7976029457199313,1.0054875938559689,0.8547608569589411,,,0.5947193981915972,inf,,,0.9408821323686908
241,,0.0,0.0,1.6824740809943886,1.6924011645238541,0.8441888635934428,1.1145335942408818,0.7459583127988776,,,0.6125606311107803,inf,,,0.9492236445165345
242,,0.0,0.0,1.695740158019083,1.6931874687773774,0.766612855708508,0.9449380881098246,0.9404074507446805,,,0.6207552362147116,inf,,,0.9505664714249468
243,,0.0,0.0,1.615231695955909,1.5716473713217713,0.8096378326423376,0.6756783061041411,0.4777830746201127,,,0.581717464821069,inf,,,0.9490009336639595
244,,0.0,0.0,1.2375019748008047,1.1886790393547395,0.7226580099897866,0.3053702273778469,0.41878676679431065,,,0.5202020156036558,inf,,,0.9537704388235778
245,,0.0,0.0,1.7114375867012779,1.700006204876593,0.4115877061793917,0.6372080740885057,0.6964836185762121,,,0.5158180382284114,inf,,,0.6728121509995235
246,,0.0,0.0,1.7727296272653599,1.772401620991976,0.684048519181305,1.358244936065466,1.0233706304020258,,,0.6425374456860184,inf,,,0.8041524651450594
247,5.703782474656203,-0.43728998972364225,0.0,1.7658312573713129,1.755321307310325,0.7581524008608651,1.5768987578777498,1.215533156209583,,,0.648888643467878,8.272070733383252,inf,,0.6942738973813327
248,,0.0,0.0,1.6816312939820222,1.6704629990419742,0.8258894579301472,1.821778304755839,1.2143354633639007,,,0.6566669596287297,inf,,,0.9236894146734914
249,,0.0,0.0,1.6333377350990677,1.6283007553343236,0.8448459488966018,1.6452391449382497,1.2474536188053609,,,0.6357360191111145,inf,,,0.9260414624259621
250,,0.0,0.0,1.5089409178743383,1.4844669419951149,0.46671093875153824,0.8410504829377404,0.6241754709834212,,,0.6468212168108125,inf,,,0.6353040137049383
251,,0.0,0.0,1.4885583313921105,1.4011488383002701,0.8486550314225759,0.664833675674608,0.6846668944973926,,,0.6566669596287297,inf,,,0.9533054041156077
252,,0.0,0.0,1.4071680521320462,1.3661069908290577,0.8228360781743059,0.8764952866306949,0.6837907650830297,,,0.648888643467878,inf,,,0.9507590778846015
253,,0.0,0.0,1.5920714179939761,1.582493359698962,0.7183886856271057,1.1615291093170554,0.7576083778788951,,,0.6068309995095971,inf,,,0.9453700734621566
254,,0.0,0.0,1.7110613230608185,1.716237218352161,0.8428219087410325,1.702800791442691,1.418369531302298,,,0.6284777104787076,inf,,,0.9465146438708536
255,5.703782474656201,-0.019012608248854004,0.0,1.720773195581734,1.7236724804705557,0.7925738429602442,2.316648757650709,1.6233049031480413,,,0.648888643467878,11.407564949312402,inf,,0.8875872888882724
256,5.703782474656199,-1.0076682371892618,0.0,1.468425890323219,1.4238578344391244,0.6595401118612745,2.367512150330965,1.393527546241498,,,0.6425374456860184,7.43727303576028,inf,,0.7345699451437561
257,5.703782474656201,-1.2358195361755102,0.0,1.6206800723172596,1.5803080956788613,0.816384309937405,1.8817772826509094,1.428362705953618,,,0.6403206450210053,7.233177679416765,inf,,0.6907366352619906
258,,0.0,0.0,1.5698207757771214,1.5407221194266913,0.8161732154540635,1.0483461187697738,1.014267382522838,,,0.6380535849069913,inf,,,0.9447781161488363
259,,0.0,0.0,1.6348196344622112,1.5925304667248263,0.7800297757852748,1.3915189570819733,1.1139836395363714,,,0.6528756675646988,inf,,,0.9509699550569559
260,,0.0,0.0,1.7225400463176457,1.7076166085914495,0.7098895254236695,1.4584941742448223,1.5778073870132627,,,0.6233814453054027,inf,,,0.9375426846559954
261,,0.0,0.0,1.6420152479661114,1.6407041074649522,0.7600686182612773,0.956224031538292,0.8780619559259563,,,0.6447042257417027,inf,,,0.9260252375736603
262,,0.0,0.0,1.5877415833434458,1.5585863108961264,0.7226572048471328,1.327006877935205,1.1490481779702384,,,0.6380535849069913,inf,,,0.8946169993362048
263,,0.0,0.0,1.5617347940988466,1.5456663691468786,0.6181970462393475,1.4920479934295048,1.4408228861947852,,,0.5947193981915972,inf,,,0.9219375496848666
264,,0.0,0.0,1.531403147856997,1.439446368299649,0.581390541574981,1.3729839794628595,1.349138470300849,,,0.6008849035917525,inf,,,0.7580525824177133
265,5.703782474656201,-2.7948534125815385,0.0,1.6561840200090021,1.5716373557341135,0.4211669992390306,1.1413012490605514,0.8454174122172053,,,0.5978297680564633,6.417132362533666,inf,,0.7654612138784295
266,5.4317880113985,-2.8607416860032098,0.0,1.6082694901951209,1.4541413206091445,0.500219487153388,0.7895898036819604,0.5479318080296328,,,0.5748741956352443,6.013937402960041,inf,,0.6529989753780925
267,5.628093989422643,-3.264294513865133,0.0,1.510396344460292,1.5143341139715267,0.7002257067111757,0.8735425528267532,0.7931064729795152,,,0.6233814453054027,6.144874760407516,inf,,0.42873445581655595
268,,0.0,0.0,1.585217303183597,1.59423906351319,0.8083100104593554,1.906000184668676,1.3168447377309287,,,0.6097226960127671,inf,,,0.9534326714533196
269,,0.0,0.0,1.4619134376657963,1.4612036969309266,0.5215495231332801,1.4940716611529097,1.4176348544828057,,,0.6038851895711802,inf,,,0.6744425595198216
270,,0.0,0.0,1.7117728696605607,1.6681612848971292,0.7440883918411599,0.8114321748998238,0.8400346674294347,,,0.5915533975974677,inf,,,0.9515565890578092
271,,0.0,0.0,1.7173295107419169,1.7100579329918166,0.7266467774318941,0.2667077086725094,0.2668070593866824,,,0.5947193981915972,inf,,,0.9444794286426726
272,,0.0,0.0,1.7183697990021851,1.7201023650515723,0.5546897543325451,0.22072337445332096,0.19626310174955805,,,0.6097226960127671,inf,,,0.9627835004842904
273,,0.0,0.0,1.7470373762199016,1.7117664303664997,0.7389949765411493,0.9126115311386757,0.8744323029899415,,,0.6153451465759925,inf,,,0.9440019002256651
274,,0.0,0.0,1.5548005491855945,1.4983962707556386,0.8413866817680913,0.9163065420137013,0.9779524889897113,,,0.6425374456860184,inf,,,0.9517957320225585
275,,0.0,0.0,0.9618836656713741,0.9398917524738617,0.6877453166575841,0.9843708528822341,1.1134517642609656,,,0.5641709578113449,inf,,,0.9537698309291699
276,,0.0,0.0,1.0745704088874388,1.0287119413437196,0.623251482916853,0.7175989629043806,0.6723871565610122,,,0.5947193981915972,inf,,,0.948946879614515
277,,0.0,0.0,1.7078875621597978,1.6913205759082843,0.7800105057429274,0.7499125076434393,0.6388484590618537,,,0.5915533975974677,inf,,,0.9490216705061331
278,,0.0,0.0,1.422154645097626,1.427875948552458,0.48121881543951733,0.5130400641610035,0.567527668665163,,,0.524519217297268,inf,,,0.9574533469789986
279,,0.0,0.0,1.5948113026481727,1.5667804256424815,0.7305224376476126,0.650247938549856,0.6712814098821706,,,0.5713653840954815,inf,,,0.9490756709200373
280,,0.0,0.0,1.554449790499046,1.5724166820912915,0.8664623121860453,1.0750662458225975,1.0596407561581267,,,0.6068309995095971,inf,,,0.9291850418202213
281,,0.0,0.0,1.1613168697141407,1.150952485652853,0.7110231148681853,0.8998328094888003,0.8159921157690672,,,0.6284777104787076,inf,,,0.9489693599539233
282,,0.0,0.0,1.4831619954327686,1.4885078674780912,0.721411497043674,0.8557759187483222,0.995773656398379,,,0.5978297680564633,inf,,,0.9506052279180884
283,,0.0,0.0,1.2108936784546522,1.181593098581046,0.7070852352728204,0.869241203635044,0.8038141980020436,,,0.5641709578113449,inf,,,0.9547791030756692
284,,0.0,0.0,1.6824441358891749,1.6798482617678216,0.6677968560785184,2.1391551732163387,1.975327087728941,,,0.6333676938231112,inf,,,0.669270246018152
285,,0.0,0.0,1.6510280633038104,1.6608744909792101,0.718705354238743,1.3853290916597485,1.0526217607005404,,,0.6403206450210053,inf,,,0.9265279527297635
286,,0.0,0.0,1.6899851434888007,1.6540310390129358,0.9050173559015864,1.8436050517978764,1.754185322955613,,,0.6509067234006624,inf,,,0.9570908173198379
287,,0.0,0.0,1.768254319384933,1.7013726211474407,0.938049479878122,1.495276805817085,1.4011453653789228,,,0.6584896970785714,inf,,,0.9083186748511071
288,,0.0,0.0,1.6198309513409406,1.5477197773774523,0.8705973693843027,1.2060784929511872,0.9258109986284482,,,0.6425374456860184,inf,,,0.8739481693767667
289,,0.0,0.0,1.6550272004540902,1.6328219575071627,0.8994280056577206,1.2440040002183466,1.0948183030752254,,,0.6284777104787076,inf,,,0.948593050934432
290,,0.0,0.0,1.1621460111517607,1.1528396274444228,0.6998450203258101,0.29167864181497366,0.4168904568919295,,,0.5370774965580548,inf,,,0.9004588165921501
291,,0.0,0.0,1.4035089753459715,1.406693810325792,0.8062961612391072,0.5138531745852175,0.4969759687713813,,,0.581717464821069,inf,,,0.934347667375837
292,,0.0,0.0,1.5983767596752125,1.6025548656937618,0.8679061756374711,1.1042154516882083,0.9425044659876765,,,0.6284777104787076,inf,,,0.9501710559942007
293,,0.0,0.0,1.7115313649875814,1.6996244078453402,0.7610145193666793,0.5794285662562143,0.7857300324965286,,,0.4629450596409901,inf,,,0.9015538316123405
294,,0.0,0.0,1.773892099081322,1.6965373258603396,0.822697963664543,0.7895604009759849,0.770354961264067,,,0.5113665138247345,inf,,,0.9231053078155843
295,,0.0,0.0,1.5644635326573306,1.532162668068705,0.8216962556579385,0.6353311575960436,0.7097402104151558,,,0.5068466436745385,inf,,,0.9073440334303896
296,,0.0,0.0,1.4821520864693478,1.4582850005913364,0.9014496622264085,0.6822713507348519,1.2777418274808772,,,0.3751344627501719,inf,,,0.8400341239441913
297,,0.0,0.0,1.6731791346048939,1.6585815086692268,0.8925787456936348,0.6854236258860649,1.2298932351962293,,,0.35499006010413947,inf,,,0.8423992086667644
298,,0.0,0.0,1.637343039028529,1.6264543790251442,0.8545809391214252,1.1524200079064784,1.8235140177294258,,,0.38163879478178075,inf,,,0.8624581272940156
299,,0.0,0.0,1.6809607007275325,1.5161180936097698,0.8173635573119452,0.6614923561813069,0.615700161083076,,,0.35499006010413947,inf,,,0.8590572785632806
300,,0.0,0.0,1.4741406256140261,1.46799256264897,0.8720756905558954,0.18156675104014985,0.36974072254136486,,,0.2961247884481232,inf,,,0.8543611657246841
301,,0.0,0.0,1.3347718542070333,1.315685443914333,0.7447047796112991,0.877519687581622,1.041834742404533,,,0.5022576003740722,inf,,,0.9413529453014122
302,,0.0,0.0,1.6179267688194743,1.5312755876687845,0.8464442141534658,1.0189678053149562,1.3030407608592647,,,0.3751344627501719,inf,,,0.8431325332151037
303,,0.0,0.0,1.610202093078821,1.6052739806395826,0.36707935121140206,1.0924674813046944,1.5238261056945879,,,0.541134803179459,inf,,,0.9600929804714683
304,,0.0,0.0,1.5812676836267427,1.5186518492577625,0.8543555910211514,0.5830313622524322,0.9196852080875774,,,0.4066654671944331,inf,,,0.8926625475381901
305,,0.0,0.0,1.7491056437889019,1.728434767380537,0.9181026457179646,0.38904559586356957,0.7787128815399698,,,0.3265551233283096,inf,,,0.842279142953962
306,,0.0,0.0,1.6907297635309473,1.6580026924082185,0.9236824355222346,0.35846809595375617,0.7375648495851741,,,0.3338418249889409,inf,,,0.8465560079800617
307,,0.0,0.0,1.6650419681405213,1.6556763009571223,0.8740159271782691,0.369941253878774,0.717041465824162,,,0.3338418249889409,inf,,,0.8596046828235747
308,,0.0,0.0,1.6919002984183398,1.679954989759611,0.765703140240917,0.5282692244878971,0.523178401121479,,,0.5329562494928909,inf,,,0.9221028961743615
309,,0.0,0.0,1.599379546146281,1.5635507963333588,0.7906533810878423,0.1016574616856117,0.18497978642952878,,,0.4576907132971797,inf,,,0.7808253817896135
310,,0.0,0.0,1.6250882982988673,1.6140792995476343,0.7849771296248844,0.09684683313892568,0.1732453744077035,,,0.3943459996787778,inf,,,0.7101900581378902
311,,0.0,0.0,1.7893221225115652,1.7782338616891977,0.8767174358668723,0.10367650193232603,0.17627271229141195,,,0.3265551233283096,inf,,,0.714290423849107
312,,0.0,0.0,1.695688981262348,1.679015194578359,0.8188443791022401,0.10421738921155821,0.1789438318084665,,,0.41861278947482794,inf,,,0.7327478894212832
313,,0.0,0.0,1.738683618363932,1.7277454851543717,0.8479934055495412,0.09223560705430743,0.16710492372150748,,,0.41861278947482794,inf,,,0.7006826151957637
314,,0.0,0.0,1.662327263416297,1.6402062652787963,0.8871187437403953,0.09928871197300616,0.17485839269635242,,,0.3480560589391537,inf,,,0.7725807716435722
315,5.703782474656202,-0.7414917217053063,0.0,1.5394154149374033,1.49504737964654,0.4113512520279491,1.1093638176323506,0.8304562055887528,,,0.5915533975974677,7.7440033031827555,inf,,0.922448439294029
316,,0.0,0.0,1.4347182990732785,1.3979508747098066,0.7878292189580836,0.38959227323760287,0.6227183643110747,,,0.4732203808476458,inf,,,0.8080733603346363
317,,0.0,0.0,1.3912842450201175,1.3741516168873964,0.7847870324315812,0.34971692260140125,0.5632967384382674,,,0.48319206230712763,inf,,,0.8319456191195391
318,,0.0,0.0,1.4157403864248834,1.403924994977408,0.8731567679564253,1.0073081377266206,1.8042030302824028,,,0.44694259446804574,inf,,,0.825104400031178
319,,0.0,0.0,1.4204761302809004,1.381317806960064,0.8286604650776155,0.21669234966753798,0.3883049161957407,,,0.4302020962658841,inf,,,0.7632125987274913
320,,0.0,0.0,1.549633489144011,1.4901085356353116,0.8159387553295387,0.14770890891966648,0.2765230406444755,,,0.4629450596409901,inf,,,0.8272047112786953
321,,0.0,0.0,1.709924185124454,1.6931682889385584,0.8916806382051252,0.16387373091890675,0.2735550607268341,,,0.5113665138247345,inf,,,0.8164071963759423
322,,0.0,0.0,1.1303420745672428,1.0949542009906987,0.6777467412813394,0.3573673150557257,0.48572871396545314,,,0.44144624493110796,inf,,,0.8380608061682153
323,,0.0,0.0,0.9358782873563822,0.9062546849135323,0.662551092533367,0.19330175614803596,0.32463141525237293,,,0.4880666971167561,inf,,,0.7521367024129599
324,,0.0,0.0,1.7134058320775594,1.6851051238263905,0.8702433183967972,0.12192464469611378,0.209795803444568,,,0.34100769111774265,inf,,,0.7327206417422156
325,,0.0,0.0,1.4510638060378032,1.438684004893265,0.7922796002262631,0.27231968903876475,0.34012697511470585,,,0.5022576003740722,inf,,,0.8742551778425341
326,,0.0,0.0,1.7348334241462195,1.6837963270676648,0.8681423073958776,0.6033468198331726,0.645383381635632,,,0.5567373465730988,inf,,,0.9183678018609497
327,,0.0,0.0,1.6109111933191715,1.538319305023627,0.8410323154055709,0.3105197388090415,0.5036661837426823,,,0.3751344627501719,inf,,,0.7879012417455359
328,,0.0,0.0,1.6583724761063372,1.6247407825789069,0.8702938715528089,0.29375158227519566,0.49793647979904765,,,0.34100769111774265,inf,,,0.7254632878861225
329,,0.0,0.0,1.5416046498688796,1.4538444591624264,0.6863238863503452,0.34001889041612743,0.4173709943766856,,,0.4880666971167561,inf,,,0.8904624054882088
330,,0.0,0.0,1.4738610125562124,1.427544439874257,0.696552117390537,0.40379724606146655,0.4272705924136841,,,0.5783247308855777,inf,,,0.9177171002174471
331,,0.0,0.0,1.574895799340236,1.5741921971741795,0.7800415986572723,0.3101514824466122,0.42470336224275856,,,0.40055318934786044,inf,,,0.6717983298646133
332,,0.0,0.0,0.526676966639129,0.49139220019510743,0.44099249798708934,0.3949393616621902,0.45999669148671357,,,0.45235697871908603,inf,,,0.8783553109335287
333,,0.0,0.0,1.1713845779234557,1.134242558183889,0.6944383098170305,0.5363591012891429,0.6298444367300964,,,0.524519217297268,inf,,,0.90509079989622
334,,0.0,0.0,1.386990256427201,1.3643639702395949,0.6423222674226506,0.36802001855234273,0.5331886883425159,,,0.4066654671944331,inf,,,0.7547178815254093
335,,0.0,0.0,1.379286366072358,1.2888729098194396,0.7262190494205676,0.63763125775793,0.7383712595134952,,,0.5113665138247345,inf,,,0.8683499007526698
336,,0.0,0.0,1.6358214765927734,1.6508892257315697,0.7908072571917881,0.4648940119990573,0.6418211789866994,,,0.5451288209179292,inf,,,0.8313246684592517
337,,0.0,0.0,1.6367344630629852,1.579674955555409,0.7628873630240643,0.6497513342879193,0.7767786935382358,,,0.541134803179459,inf,,,0.8766643579545561
338,,0.0,0.0,1.6042720387929736,1.4848645907951739,0.8172465052151541,0.4925298577919994,0.6789206209755001,,,0.48319206230712763,inf,,,0.805131206053277
339,,0.0,0.0,1.7100421265589083,1.6943323379531805,0.8443384242498199,0.4405795198337165,0.6696507232092775,,,0.4629450596409901,inf,,,0.7491584055737277
340,,0.0,0.0,1.7107973294465748,1.66606380529678,0.8983058975031157,0.31034565966164257,0.5165574039493168,,,0.5022576003740722,inf,,,0.714463423242132
341,,0.0,0.0,1.6234860267516595,1.6000615842966952,0.8337162364097177,0.3831444970136101,0.5972731879152806,,,0.5202020156036558,inf,,,0.8146900509067007
342,,0.0,0.0,1.3265909318001563,1.3096303188912977,0.6779163287009946,0.48714094869482694,0.5876843851000084,,,0.49759852643134905,inf,,,0.8925987994268008
343,,0.0,0.0,1.303770580009301,1.2521007481009616,0.799655965455348,0.7308954120555736,1.1188574563644014,,,0.5113665138247345,inf,,,0.847761234254927
344,,0.0,0.0,1.4472580735849743,1.4552031392130402,0.8423294412654252,0.6483384865333068,1.004730093608933,,,0.36181263880445963,inf,,,0.7873435331343589
345,,0.0,0.0,0.6955666077607113,0.6186355532701446,0.5911968901202445,0.6614599271976309,0.8566365406573251,,,0.49759852643134905,inf,,,0.8827398317231098
346,,0.0,0.0,1.6865578975028657,1.6668193353317982,0.8334095288188353,0.8500141395254504,0.778182007350112,,,0.585052858160615,inf,,,0.930363291951143
347,,0.0,0.0,1.605055643876562,1.4971282020565453,0.8823829109584359,0.9081811201391647,0.8698818355736021,,,0.6008849035917525,inf,,,0.9476351985787983
348,,0.0,0.0,1.3207992328321287,1.2481815383277248,0.8017038658888088,0.36313212694669394,0.40582630959233795,,,0.5329562494928909,inf,,,0.8770430549606438
349,,0.0,0.0,1.26728997799066,1.1760805867234654,0.6910520701508751,0.3357995802964256,0.3173364690077505,,,0.581717464821069,inf,,,0.9443691837684788
350,,0.0,0.0,1.6736423598973085,1.665900954025459,0.5902813281691955,0.5952104796228815,0.6576166736891191,,,0.5604843169999094,inf,,,0.605293425024797
351,5.703782474656201,-0.3232143402305181,0.0,1.043171944342029,0.9307484950447171,0.42580917369441407,0.4210019168744332,0.5059674621744779,,,0.5370774965580548,8.574351605256187,inf,,0.643850437119298
352,,0.0,0.0,1.4576393620735772,1.4493521791458495,0.7451860168408156,0.48255845602979913,0.36951841062230434,,,0.6038851895711802,inf,,,0.9179438186678102
353,,0.0,0.0,1.526030078621635,1.5234907141885567,0.8126564983105932,0.9672607800155988,1.1926513654391488,,,0.48319206230712763,inf,,,0.7979711272999674
354,,0.0,0.0,1.604528414864153,1.5704931016392185,0.7584175463372033,0.5262024546385772,0.5004390066334535,,,0.5370774965580548,inf,,,0.8468732849684968
355,,0.0,0.0,1.6761724700990883,1.6381029618397032,0.9070348552350648,0.32664724482823126,0.562379391805588,,,0.3685265678147087,inf,,,0.7759231788561595
356,,0.0,0.0,1.6723824579227173,1.6138361825648335,0.9025013168946378,1.3791344806042813,0.9009773506031267,,,0.62595550513784,inf,,,0.9279428063432515
357,,0.0,0.0,1.5738122773065903,1.5488073301157077,0.6783424753921641,0.6398787568016285,0.4607141210423362,,,0.5748741956352443,inf,,,0.8731128152977254
358,,0.0,0.0,1.6878077951264254,1.6575549563462724,0.7735336356194792,0.2328515467819,0.29232726119330377,,,0.5451288209179292,inf,,,0.7684137665123545
359,,0.0,0.0,1.5189368791927575,1.486782009698704,0.8332169785514109,0.17344634095321998,0.24648501131565034,,,0.468121228110369,inf,,,0.8428798671045538
360,,0.0,0.0,0.7488119209487887,0.6701317400589062,0.5551445552747039,0.25340370274333585,0.2995247929273851,,,0.4928685327679205,inf,,,0.8605877707297738
361,,0.0,0.0,1.2209238920105907,1.2230065508815702,0.7266160666812638,0.31605180081055445,0.2435348214518432,,,0.5451288209179292,inf,,,0.8593522099680155
362,,0.0,0.0,1.724995075551321,1.6636402019397958,0.8631195820305403,0.08721925838428031,0.14340210044433468,,,0.5158180382284114,inf,,,0.7309645039731025
363,,0.0,0.0,1.6920115252269505,1.6017012517679108,0.8032844171987251,0.49294426523491075,0.5397803867375155,,,0.5113665138247345,inf,,,0.8651119185785026
364,,0.0,0.0,1.664140230513409,1.6448289164594259,0.6999796134071682,0.5371263695312559,0.7971428234723599,,,0.48319206230712763,inf,,,0.7575593370504617
365,,0.0,0.0,1.104917066864476,1.0168766278464427,0.7573883214060055,0.9988658611808097,0.8624136702708177,,,0.5022576003740722,inf,,,0.9223917300681254
366,,0.0,0.0,1.2055436483500659,1.1745507908176285,0.7728922220750064,0.23856094387241084,0.4211838217981012,,,0.41861278947482794,inf,,,0.8090728339766656
367,,0.0,0.0,1.6866903260005603,1.6811782572185063,0.6235261214806979,0.6448914916390154,0.5638403673352373,,,0.585052858160615,inf,,,0.9436912769372171
368,,0.0,0.0,1.6020346271670678,1.5852009784516083,0.7560110086109293,0.22800159875126408,0.3290941421975966,,,0.4576907132971797,inf,,,0.8846639025686066
369,,0.0,0.0,1.7466169092184418,1.6767028321561792,0.834419374994612,0.22179975398326382,0.3092540005685799,,,0.48319206230712763,inf,,,0.8206805985335841
370,,0.0,0.0,1.4907597010782494,1.4672688434850716,0.6597645655850175,0.4920035609616653,0.6280938761684591,,,0.44144624493110796,inf,,,0.8898532531152289
371,,0.0,0.0,1.6906812400937785,1.6098001439326983,0.7906832280262546,0.292878030167069,0.2759607700324905,,,0.5202020156036558,inf,,,0.9264661186790825
372,,0.0,0.0,1.7187504792619306,1.7051005300277078,0.7496884115403132,0.09009684307398727,0.14235620893479167,,,0.4576907132971797,inf,,,0.7689471966511982
373,,0.0,0.0,1.4995758011377927,1.461963004978782,0.8444457528047731,0.1403283750643067,0.23542762309294615,,,0.4880666971167561,inf,,,0.8027878371217637
374,,0.0,0.0,1.6880881758881636,1.6751830135131212,0.7980512791697462,0.12186918113522299,0.1929484865531495,,,0.5068466436745385,inf,,,0.8004417767141966
375,,0.0,0.0,1.6291493336698095,1.5940624016651028,0.5835492796868823,0.15142984644285176,0.18764210698593392,,,0.49759852643134905,inf,,,0.8454075768295741
376,,0.0,0.0,1.5152743404082671,1.4519636613171067,0.8178560090627542,0.6095730451061421,0.7284591632593986,,,0.5287703885177266,inf,,,0.8910178689944291
377,,0.0,0.0,1.7282728348957466,1.669259272449727,0.853635298861746,0.4983466020377081,0.6867328826572886,,,0.5287703885177266,inf,,,0.8228084052655145
378,,0.0,0.0,1.63124188990039,1.5779001012787386,0.9075101248154381,0.5069260046318178,0.7855880661081895,,,0.47824363442641393,inf,,,0.8039515382933172
379,,0.0,0.0,1.6757742360992944,1.6382796575893799,0.7296049442559425,0.39642965538570984,0.5778191498456953,,,0.5329562494928909,inf,,,0.9102936315323128
380,,0.0,0.0,1.5031050488239615,1.4668725299269922,0.8092329453982035,0.22243698907052048,0.36051926826112024,,,0.48319206230712763,inf,,,0.7783950707662979
381,,0.0,0.0,1.7675775447359852,1.7764224871342242,0.9148077599717219,0.3066990491435583,0.5044264966818126,,,0.5202020156036558,inf,,,0.8220476869378414
382,,0.0,0.0,1.598346943662286,1.5770385560502074,0.7447127856100298,0.37473986072869764,0.49553702435111097,,,0.5329562494928909,inf,,,0.9084427141592986
383,,0.0,0.0,1.2022139889435337,1.1401495476615289,0.7137118778078473,0.13326485029594445,0.22359995981585565,,,0.42445136339222655,inf,,,0.7220448034507367
384,,0.0,0.0,1.5619543979885362,1.5545154928427882,0.7966222185836516,0.13996831046997738,0.2552970041491589,,,0.35499006010413947,inf,,,0.7002408146150053
385,,0.0,0.0,0.9141520524603853,0.8067570191236196,0.5694125272687159,0.325202589768621,0.3492049398748953,,,0.45235697871908603,inf,,,0.9292128662531811
386,,0.0,0.0,1.6960005844615658,1.6744029341306579,0.854856972337912,0.8344254400336338,1.1044520323690117,,,0.5490601803369085,inf,,,0.8816101886399416
387,,0.0,0.0,1.3029057986429091,1.3048256956649609,0.7567466497515049,0.6947034369823548,0.8322169098694716,,,0.524519217297268,inf,,,0.8729955317433209
388,,0.0,0.0,1.4999196849867553,1.475658518515857,0.7034800473642029,0.3842650687387537,0.5026678978660217,,,0.5370774965580548,inf,,,0.8275127149288645
389,,0.0,0.0,1.4891292148368969,1.4568629978308438,0.8898017860363425,0.5755546027945427,0.7198504950079466,,,0.524519217297268,inf,,,0.8054983950242669
390,,0.0,0.0,1.516866196636052,1.5065132537618444,0.7755223097147214,0.35840574501900635,0.4985194925907387,,,0.5370774965580548,inf,,,0.8055746540303036
391,,0.0,0.0,1.3064352241826065,1.283540128805585,0.71195350251019,0.183221521512193,0.3084455291643552,,,0.5022576003740722,inf,,,0.7972233729436966
392,,0.0,0.0,1.5842962663189055,1.5560629999238973,0.8199186050029889,0.2334424105148168,0.3999362086790083,,,0.5329562494928909,inf,,,0.813451183391453
393,,0.0,0.0,1.6964930615123581,1.6889143868439764,0.91803829925025,0.20342757684932844,0.3369742666521197,,,0.5490601803369085,inf,,,0.7918934931730993
394,,0.0,0.0,1.2911292572447461,1.290106047899262,0.6920470075001253,0.48695256836717343,0.5968846576336126,,,0.5677978065141052,inf,,,0.8582825641412093
395,,0.0,0.0,1.584754533128963,1.5566876660615658,0.7963262044941676,0.5271737040482908,0.8192588881547708,,,0.48319206230712763,inf,,,0.7978534217297301
396,,0.0,0.0,1.4936930012971756,1.4445790359366957,0.821584519276954,0.42723436163524753,0.7281657759110698,,,0.44694259446804574,inf,,,0.7964153745589418
397,,0.0,0.0,1.2518071209998536,1.1671672865767881,0.7783688858155791,0.3158536354419251,0.4935682683613968,,,0.45235697871908603,inf,,,0.7738079482123094
398,,0.0,0.0,1.3985311799567388,1.3450173840697317,0.804246904332954,0.6851670440772153,0.9745735421157604,,,0.5202020156036558,inf,,,0.8441425091668665
399,,0.0,0.0,1.7718980000186673,1.7426911487456103,0.8206259946824426,0.5865095637851656,0.8157525071076787,,,0.49759852643134905,inf,,,0.7992816176122887
400,,0.0,0.0,0.9254018497972056,0.856070019763085,0.6094467684240557,0.7152948138803178,0.9192615733262827,,,0.48319206230712763,inf,,,0.9005687646357138
401,,0.0,0.0,1.074410470885049,1.0217368528084023,0.7556973397163422,0.45473036979900616,0.5833372910652566,,,0.4928685327679205,inf,,,0.8384873708097063
402,,0.0,0.0,0.9656662174777859,0.9363773202040574,0.6513828492981241,0.5913646079736102,0.7960692800935537,,,0.5158180382284114,inf,,,0.8575578071983733
403,,0.0,0.0,1.2446888553638487,1.2156728284508025,0.7321131840613891,0.7986183433743207,1.1144351558455088,,,0.5604843169999094,inf,,,0.8638010288619064
404,,0.0,0.0,1.567747822740541,1.5162996751859619,0.8305456265817305,0.9197507754286065,1.2774898598790987,,,0.5641709578113449,inf,,,0.7408278315185302
405,,0.0,0.0,1.7116258846302,1.691817634641216,0.7842527028731738,0.8528290380555962,1.2193510705406878,,,0.5451288209179292,inf,,,0.7773321581168717
406,,0.0,0.0,1.6617198542109988,1.6647461228109104,0.7485117224303347,0.7590497085892647,0.9119066330593736,,,0.5641709578113449,inf,,,0.8773201901299321
407,,0.0,0.0,1.7802366326290686,1.719189213321869,0.8552110270670825,0.37741761958380105,0.5129393797227346,,,0.5022576003740722,inf,,,0.8075901412485718
408,,0.0,0.0,1.5754260954613004,1.5190586378234217,0.8482722842937174,0.31474187171995965,0.5011069662479744,,,0.5113665138247345,inf,,,0.7649402396394075
409,,0.0,0.0,1.0703743006523334,1.0592595256127422,0.69587345177296,0.46805949008711134,0.5470229836542013,,,0.5604843169999094,inf,,,0.8909493703465405
410,,0.0,0.0,1.2258774793143854,1.1651830435349744,0.8300100026401935,0.6307871198447164,0.8074805916010596,,,0.524519217297268,inf,,,0.8383673981805625
411,,0.0,0.0,1.3614777267568667,1.345161815189174,0.8578243156262166,0.731236851794529,0.9709858536025661,,,0.5158180382284114,inf,,,0.8704837607596481
412,,0.0,0.0,1.6674870112704665,1.6617008402154283,0.8307497255640407,0.6165353573454293,0.9039747791669386,,,0.5451288209179292,inf,,,0.8224259461788178
413,,0.0,0.0,1.7476960090162648,1.7237298166731696,0.8472051006123171,0.5145525477662813,0.7441712656795465,,,0.524519217297268,inf,,,0.7674434331412966
414,,0.0,0.0,1.6744591265937505,1.6840342597753104,0.8294136770826726,0.6559345221119545,1.0842683891595453,,,0.4880666971167561,inf,,,0.7894528511825827
415,,0.0,0.0,0.7188344549784172,0.6711855814682657,0.5701991650824283,0.5642983561932434,0.803290480284699,,,0.5287703885177266,inf,,,0.8875243980185636
416,,0.0,0.0,1.5025782382728352,1.4570856530804748,0.8243473502890598,0.44276964946417025,0.5587082007221373,,,0.524519217297268,inf,,,0.9119056081499957
417,,0.0,0.0,1.3108523582809917,1.2520105092145493,0.8063312846096383,0.5519637745992939,0.6884624603346132,,,0.5113665138247345,inf,,,0.9093164797958296
418,,0.0,0.0,1.0806127525309754,1.0640014681977639,0.6757145022099161,0.34800107154161714,0.507674638476279,,,0.5567373465730988,inf,,,0.81360522909454
419,,0.0,0.0,1.6829062625191948,1.6678576434476031,0.8197630619717895,0.34820957137937025,0.49832085342448545,,,0.552929491858785,inf,,,0.8462557607053629
420,,0.0,0.0,1.524120970924021,1.5095339649176955,0.8771950676373236,0.36216814860764296,0.5299149104347178,,,0.5490601803369085,inf,,,0.834359892066098
421,,0.0,0.0,1.7365283870218027,1.7057171601529755,0.8267011415170553,0.4140975276680811,0.571581518045177,,,0.5490601803369085,inf,,,0.7890884524882205
422,,0.0,0.0,1.7437480914960406,1.735995483159669,0.8986325428441589,0.7090265745147553,0.8710866623911586,,,0.6068309995095971,inf,,,0.85402767449063
423,,0.0,0.0,1.6590589180594253,1.619032160520206,0.8174689651553227,1.097204306892906,1.0588464105944102,,,0.6125606311107803,inf,,,0.9517101182516795
424,,0.0,0.0,1.5613317408158187,1.5406862640856194,0.8321056796707011,1.2966906065482655,1.120735657235821,,,0.6528756675646988,inf,,,0.9331761802056058
425,,0.0,0.0,1.3492352707968067,1.3427184980949125,0.7965461551266823,1.492061052280102,1.2929518951189587,,,0.6528756675646988,inf,,,0.9118450888167574
426,,0.0,0.0,1.6551213006077257,1.6331174885019615,0.8630790674876719,1.5308998625984278,1.3475135292378395,,,0.6309483474627791,inf,,,0.8648284498047778
427,,0.0,0.0,1.614384890688541,1.5870656617331318,0.8615680878293622,1.6292107507664289,1.6977274316186413,,,0.6180765742263259,inf,,,0.9325997129729275
428,,0.0,0.0,1.6886632473473349,1.702454922476438,0.8812357490564088,1.525365409689052,1.4586005660611077,,,0.6233814453054027,inf,,,0.9324044878816935
429,,0.0,0.0,1.6900585180227294,1.6496265713762315,0.8967392851841767,1.2739657982628345,0.9541332012403003,,,0.6547956803312163,inf,,,0.9256087089825977
430,,0.0,0.0,1.6219293979493743,1.63002351675884,0.8165265138728308,1.5815288499824043,1.7995056756112873,,,0.6447042257417027,inf,,,0.9485913124472375
431,,0.0,0.0,1.558627602400431,1.5105119928599038,0.8855863597269197,1.2971996314223917,1.1457041571007727,,,0.6447042257417027,inf,,,0.948816785934401
432,,0.0,0.0,1.5755982967710715,1.5764112345970256,0.8458619506064141,1.285563299912363,1.136507811004206,,,0.648888643467878,inf,,,0.9525585222972756
433,,0.0,0.0,1.6923179796157728,1.6791981326644354,0.8575364117845532,1.087637021736197,0.8670303915872248,,,0.6233814453054027,inf,,,0.8411817990431256
434,,0.0,0.0,1.7278951721867994,1.7501807123306243,0.9418135182567848,1.3565026651968435,1.2948548832720939,,,0.6566669596287297,inf,,,0.9408054707586464
435,,0.0,0.0,1.4352252417880316,1.4456094585707824,0.5705169998511347,1.3798122437923777,1.0596586442564677,,,0.6509067234006624,inf,,,0.9693050823257834
436,,0.0,0.0,1.7253131973426998,1.736284189877282,0.8393092047343341,1.5709807958001274,1.5494253015262445,,,0.6447042257417027,inf,,,0.9033486178157443
437,,0.0,0.0,1.5752487958947188,1.5524052903235883,0.8440158402866709,1.4130746140942192,1.4649750522262492,,,0.6207552362147116,inf,,,0.8917694434534721
438,,0.0,0.0,1.6875011013535814,1.6067018042154857,0.8069923654054623,0.6757084188656953,0.7694936232432404,,,0.541134803179459,inf,,,0.9420079728965075
439,,0.0,0.0,1.51343398836227,1.497623403416088,0.8900521282714877,1.4295596358032947,1.4190273615038715,,,0.6233814453054027,inf,,,0.953594990022008
440,,0.0,0.0,1.3102796554176732,1.2664158872529945,0.7791254735146698,0.8675518639724876,0.8880218911852367,,,0.6038851895711802,inf,,,0.9542926593781932
441,,0.0,0.0,1.5593571711209706,1.5416838780954363,0.8711061843013491,1.3602382389050547,1.087373720087252,,,0.6566669596287297,inf,,,0.9534937355510774
442,,0.0,0.0,1.7557990707365776,1.6551360894110976,0.8554150517057926,1.1076696824896965,0.9136976368409973,,,0.6180765742263259,inf,,,0.953699661123027
443,,0.0,0.0,1.704681713354252,1.6679010363281273,0.8194953658268457,0.9579243800166183,0.815950007749,,,0.648888643467878,inf,,,0.9367230853418923
444,,0.0,0.0,1.612541136578853,1.5816725381512953,0.8931108714721988,0.6738515894663017,0.632190849279666,,,0.648888643467878,inf,,,0.9021022229934023
445,,0.0,0.0,1.7252771261517288,1.7141915452865142,0.9218240916803866,0.6882121706900083,0.6352962617190738,,,0.6528756675646988,inf,,,0.9292460761632388
446,,0.0,0.0,1.6125131498246685,1.5931620650867768,0.9041490385608195,0.6635165605447603,0.6929964613205282,,,0.648888643467878,inf,,,0.9323486550187551
447,,0.0,0.0,1.389672056598647,1.3734326352604564,0.790678001894712,0.6982192664840492,0.7471209764514852,,,0.6207552362147116,inf,,,0.9466137019196386
448,,0.0,0.0,1.3641417041909367,1.345597262601914,0.5255706327738204,0.7850325808115654,0.534839645868111,,,0.6403206450210053,inf,,,0.9576264538789566
449,5.7037824746562,-1.254832144424364,0.0,1.7291267657866567,1.7149979808369105,0.6581383341710443,2.8944371224485073,2.372900331545016,,,0.6380535849069913,7.217910207285977,inf,,0.7979124957594202
450,,0.0,0.0,1.4645456274023516,1.432953574997062,0.8568794445493287,2.1501824593455674,1.7712698179426787,,,0.648888643467878,inf,,,0.8446346463166458
451,,0.0,0.0,1.6701074058874936,1.667490054261775,0.7419247510495078,2.1221613046244263,2.1662183241759543,,,0.6509067234006624,inf,,,0.9504556796293547
452,,0.0,0.0,1.7053884923448752,1.6906783403384469,0.8878749408666253,1.9947048519494546,2.079350883932487,,,0.6425374456860184,inf,,,0.9515174209358122
453,,0.0,0.0,1.7417178827470734,1.7259355286752889,0.9102517110458497,1.9056415539858684,2.123624899511152,,,0.6509067234006624,inf,,,0.9264998820073667
454,,0.0,0.0,1.7576596681097747,1.742578655639839,0.9589038265899315,1.7522652036234476,1.9154063341145182,,,0.6468212168108125,inf,,,0.9208951599791892
455,,0.0,0.0,1.64635763927412,1.6174446255251536,0.8454196651822443,2.063347056636857,2.3451431306033723,,,0.6333676938231112,inf,,,0.9532047931695956
456,5.188873140525953,-1.2107370661227224,0.0,1.386613545069439,1.2898391804944787,0.7538026473728032,1.9815243134823586,1.1803094756601582,,,0.6097226960127671,6.603543904579146,inf,,0.8962667418669416
457,4.91092349329585,-3.7629401895711125,-0.3622355447974015,1.4906933803868834,1.4255234408697874,0.6704918271175738,2.2007654299950885,1.5548979524699473,3.7594933258845535,,0.6403206450210053,5.002336491281561,3.460789478864401,inf,0.8682150606195319
458,,0.0,0.0,1.286620445239535,1.203348492194243,0.8385585505622976,1.9695212585830533,1.2743460139962022,,,0.6180765742263259,inf,,,0.9082499653250421
459,,0.0,0.0,1.569510122597836,1.5488262135288895,0.7839114482810717,2.7130635773457303,1.9780394054979409,,,0.6333676938231112,inf,,,0.7535712266023825
460,5.204014052614164,-3.9706790783306443,-0.019065028673547448,1.6589792787457032,1.6122149917934747,0.6341868893959306,1.78146506739729,1.1780311932499803,,,0.6380535849069913,5.3744787275136,6.0330862217988015,inf,0.5304639913534818
461,5.703782474656202,-3.7835090415219472,0.0,1.2937495496225833,1.2643122350710478,0.5413846348243766,1.7104969508479118,1.3832098594496176,,,0.6125606311107803,6.11426012458791,inf,,0.7950924353183753
462,,0.0,0.0,1.5826237438367374,1.52562977920125,0.7258134785143675,1.2586696260756853,0.6902835001188188,,,0.62595550513784,inf,,,0.9536680608899117
463,,0.0,0.0,1.3587290734677238,1.3144317988458531,0.8352255734393791,1.8516161622146778,0.797412212120258,,,0.6380535849069913,inf,,,0.8059232454455221
464,5.16011331204393,-3.887285361739761,0.0,1.6462387099551603,1.626406312972596,0.8524726765359412,3.747967487364377,3.963941560350641,,,0.6333676938231112,5.190958848227537,inf,,0.7855013698899341
465,5.451072565077053,-1.744343220824657,0.0,1.6382423957807235,1.5848726455161086,0.830157142288942,3.3310444899733205,2.8944613991620294,,,0.6425374456860184,6.532367626111251,inf,,0.6629935112229878
466,,0.0,0.0,1.688373059950514,1.6795351786671895,0.7968154086032181,3.0649625838297965,3.1044402107047797,,,0.6357360191111145,inf,,,0.9445568735366443
467,5.703782474656202,-2.015336474378525,0.0,1.499978103158477,1.4400531718935174,0.7232818743181474,2.2602454773508516,1.3745766057648403,,,0.6380535849069913,6.744125855200335,inf,,0.8285488930748697
468,,0.0,0.0,1.4886196332331234,1.4117655235025985,0.7988059583161085,1.323741729757962,1.1949840746818678,,,0.6403206450210053,inf,,,0.9526115550972691
469,,0.0,0.0,1.6764376217288721,1.6375323513801183,0.885273429560057,1.275968370080612,1.3860522677836649,,,0.6207552362147116,inf,,,0.9612515412232314
470,,0.0,0.0,1.6673534107385755,1.6408994917586763,0.9372077551959108,1.119462110662271,1.1381479661790934,,,0.6233814453054027,inf,,,0.8639036264056091
471,,0.0,0.0,1.7181176001894243,1.7287200467018855,0.7250019727130971,1.2334895477201933,1.3675267853540658,,,0.5748741956352443,inf,,,0.9115158741960643
472,,0.0,0.0,1.7129144260183398,1.6895595102032286,0.7455798746640536,0.9843984755135401,1.1460424746544549,,,0.5287703885177266,inf,,,0.9429377152116688
473,,0.0,0.0,1.4611229424326593,1.4339019307225853,0.7275464426466959,1.4137845943281262,1.4724288628350206,,,0.581717464821069,inf,,,0.9400157336981838
474,,0.0,0.0,1.7564607190278472,1.6844641081078366,0.9178292222400788,1.6913905642966207,1.5673489260921616,,,0.62595550513784,inf,,,0.9409212307892828
475,,0.0,0.0,1.596403185408765,1.5657059072646449,0.90517568636552,2.028311893295979,1.875589870477964,,,0.648888643467878,inf,,,0.9430680961562645
476,5.703782474656201,-0.9316178041938461,0.0,1.574382000652438,1.529562170219556,0.6209877770819718,2.0821385163662773,1.7375756732618517,,,0.6403206450210053,7.515744651201776,inf,,0.6375490722996724
477,,0.0,0.0,1.437386712093768,1.4440105461489037,0.7926193079687667,2.3940014286131204,2.5912188965638707,,,0.6309483474627791,inf,,,0.8975114334767174
478,,0.0,0.0,1.6963549392380064,1.6976690230216087,0.8744838068196953,2.2823295376987076,2.654039987255391,,,0.6357360191111145,inf,,,0.8957939164920725
479,,0.0,0.0,1.3110501925091254,1.2955341605882196,0.6743236954017873,1.339509711745021,1.4858890340567459,,,0.6125606311107803,inf,,,0.9482048002294224
480,,0.0,0.0,1.452950213747739,1.4430595752573758,0.5983128458461757,0.7541866078710799,0.8940607986169281,,,0.585052858160615,inf,,,0.942348182794759
481,,0.0,0.0,1.7578196872589777,1.7669097750378395,0.8333473822571025,1.2063944181203228,1.0448664285035614,,,0.6068309995095971,inf,,,0.9512573825552247
482,,0.0,0.0,1.6644264747108757,1.5755929889251266,0.8459605288547253,1.304199906152127,0.9557916466585106,,,0.6038851895711802,inf,,,0.9179561769094607
483,,0.0,0.0,1.605315896788624,1.559164364743438,0.879433189671624,1.9973980578510968,1.5551784668950215,,,0.6284777104787076,inf,,,0.9574486552664632
484,,0.0,0.0,1.2000610564246514,1.1708613204773437,0.7561018374134971,1.2867969902982224,1.812745210611351,,,0.5783247308855777,inf,,,0.9515342805288121
485,,0.0,0.0,0.9452611125987013,0.9398183104135572,0.7177243718518164,1.4130345383899492,2.349838989416328,,,0.5158180382284114,inf,,,0.9259907077217602
486,,0.0,0.0,1.3451643180035666,1.3205917704771288,0.8533432710773194,1.1114547810130624,1.6299257959797113,,,0.5329562494928909,inf,,,0.9390241743496271
487,,0.0,0.0,1.710886491865371,1.7054026229767127,0.7531655440893774,0.8651776388932758,1.2036812784010493,,,0.5202020156036558,inf,,,0.9358794354664527
488,,0.0,0.0,1.7118787617377182,1.692092228081979,0.8304333353877712,1.7443759664064438,1.6956552953496988,,,0.6309483474627791,inf,,,0.9512364682580806
489,,0.0,0.0,1.7345850586524596,1.724787884588433,0.8054648635336361,1.397790194585496,0.8782729834732779,,,0.6357360191111145,inf,,,0.9416502735363791
490,,0.0,0.0,1.4475798155023525,1.4709445303223498,0.8693305572129112,1.8402215759884009,1.6015140458692951,,,0.6509067234006624,inf,,,0.8866762146793911
491,,0.0,0.0,1.6994506170247359,1.6865966136073756,0.7640876425788403,0.8032226138690415,0.7952966271077588,,,0.6153451465759925,inf,,,0.9291588759289927
492,,0.0,0.0,1.6972438006865536,1.6785650112343877,0.8689781453649703,1.3634716165825833,1.4627789754414773,,,0.6309483474627791,inf,,,0.9502302883763791
493,,0.0,0.0,1.5595873295006744,1.5547027036387648,0.8180233087103154,1.2174844653228392,1.0737937822780255,,,0.6309483474627791,inf,,,0.9507445820397648
494,,0.0,0.0,1.355785876299368,1.328769578953384,0.8459676193849084,1.710612121855893,1.3734357808258688,,,0.6447042257417027,inf,,,0.9596834604642497
495,,0.0,0.0,0.8728585722004262,0.801075775696167,0.6894285275261701,0.8823059861097718,0.9946300442255182,,,0.5490601803369085,inf,,,0.9613184983504325
496,,0.0,0.0,1.7318126555842417,1.7253715317613036,0.8119607683034447,1.288777001216946,1.3587037497492012,,,0.6180765742263259,inf,,,0.9341383946384826
497,,0.0,0.0,1.2680146528280267,1.2701120909304042,0.7084947141783979,1.0524305438472354,1.1242547479973823,,,0.581717464821069,inf,,,0.913979526708224
498,,0.0,0.0,1.7373267415595088,1.7907577514540016,0.8067476218203492,1.0652424880046223,1.2637725185374922,,,0.6008849035917525,inf,,,0.9380009799491322
499,,0.0,0.0,1.3956040395877667,1.3741922133207654,0.7143812128312701,1.2756995991300404,1.215888043776248,,,0.6207552362147116,inf,,,0.8724708233817121
500,,0.0,0.0,1.5282739400097718,1.4801488676863304,0.860087147102835,1.3822640472975602,1.269836890794043,,,0.6380535849069913,inf,,,0.8806990471433646
501,,0.0,0.0,1.6148324727647867,1.5581044481371475,0.8010807974229596,0.91110785565855,0.5952176261515095,,,0.6468212168108125,inf,,,0.9182048415579801
502,,0.0,0.0,1.7165957944146903,1.6925691116903105,0.8995073730919886,1.3932381226608872,1.04147553919937,,,0.6357360191111145,inf,,,0.92385121722637
503,,0.0,0.0,1.7268843586599583,1.6988462316642141,0.9281560789148182,1.4075705204824425,1.0185297162685625,,,0.62595550513784,inf,,,0.9487496745576485
504,,0.0,0.0,1.5506560781267744,1.4703097739588753,0.8674964409374152,1.6994321558784338,1.2855900786758003,,,0.6447042257417027,inf,,,0.9453275623239159
505,,0.0,0.0,1.6805234048346098,1.6432513197196217,0.8014054873195594,0.8120219607605642,0.7250092284359972,,,0.6380535849069913,inf,,,0.91898238516924
506,5.703782474656202,-3.6314081755311154,0.0,1.1260088120470806,1.0633800088360654,0.5959196097507393,1.148032607486117,0.4399227843948925,,,0.6357360191111145,6.155291521265772,inf,,0.6189706459005718
507,5.614663551441349,-1.3100881620029814,0.0,1.7320555408034568,1.6954707713969375,0.7463052034285629,2.4090545686250784,1.8699034059849127,,,0.6425374456860184,7.03811709684538,inf,,0.5803072786439465
508,,0.0,0.0,1.6485165628732767,1.6470997951112774,0.9359018842022748,2.632383132849843,1.8888475389541068,,,0.648888643467878,inf,,,0.9199056981832266
509,,0.0,0.0,1.7478951213849232,1.724759379325792,0.93391776675755,2.3574934362774274,1.5992807509155718,,,0.6584896970785714,inf,,,0.9421474996575386
510,,0.0,0.0,1.64841504184015,1.6295552354476353,0.8709577736825256,2.2620311854060136,1.6849111308898954,,,0.6333676938231112,inf,,,0.7007792623161402
511,,0.0,0.0,1.7017317021411043,1.66388469928962,0.8466649437581816,2.149480725493528,2.1017946672179026,,,0.6528756675646988,inf,,,0.9395390451503172
512,,0.0,0.0,1.7074771925434125,1.640359610617148,0.7994219647152845,1.8758045548505127,1.786204220180798,,,0.6333676938231112,inf,,,0.885328674598493
513,,0.0,0.0,1.6923506402480641,1.676250539210821,0.6002445303128799,1.612797753672329,1.430879536193633,,,0.6333676938231112,inf,,,0.688104207721816
514,,0.0,0.0,1.5959672311653417,1.5665359859694288,0.8438081210810104,1.5940966332845257,1.2901117418614574,,,0.6528756675646988,inf,,,0.9498233418357923
515,,0.0,0.0,1.5820256231341938,1.5623222026003885,0.859532177374743,1.0040411685412087,1.203155079745574,,,0.6068309995095971,inf,,,0.9386559851440794
516,,0.0,0.0,1.6003111983609215,1.5705311178461658,0.8196189175164976,1.5765670429316687,1.029331400390084,,,0.648888643467878,inf,,,0.7780809088789631
517,,0.0,0.0,1.5520305803918177,1.5171481166356073,0.8292725926215905,1.18712960530159,0.9483968376129879,,,0.6403206450210053,inf,,,0.952304787852824
518,,0.0,0.0,1.4347495587171872,1.4064918128297597,0.8397778221416363,1.3393373859291686,1.3337984859460568,,,0.6125606311107803,inf,,,0.9518107015718886
519,,0.0,0.0,1.7015579395016502,1.6665581325262284,0.9273955648052816,1.2521510454148894,1.147388082228251,,,0.6447042257417027,inf,,,0.9137579342418152
520,,0.0,0.0,1.6476735724149485,1.637936135115623,0.8756175522473606,1.78781751141002,1.983287563867638,,,0.6038851895711802,inf,,,0.948426279647387
521,5.703782474656201,-1.5210086599083203,0.0,1.6903321910250684,1.6629430116284352,0.42426444741805824,1.1749837004147474,0.9684197310770488,,,0.6233814453054027,7.025538314638521,inf,,0.7029380277484627
522,5.703782474656203,-0.5703782474656203,0.0,1.5633781804434193,1.4372255049987779,0.6079115471865258,1.6193916773064674,1.6814663308995559,,,0.6097226960127671,8.006367567650246,inf,,0.9350729563112334
523,,0.0,0.0,1.5979355965300088,1.5853438001590983,0.8504423285702574,0.9597363279918163,0.853070122367737,,,0.6207552362147116,inf,,,0.9039522501023345
524,,0.0,0.0,1.3297956666034625,1.3268574455736124,0.7508647559758542,0.6864199816187717,0.6372532058924779,,,0.6153451465759925,inf,,,0.9367319804588162
525,,0.0,0.0,1.6087599829756587,1.5782758215266457,0.6973166236648783,1.3080278501696556,1.2222568500325501,,,0.5748741956352443,inf,,,0.9524657670853259
526,,0.0,0.0,1.3436142574997083,1.3029999257585878,0.8037982142205188,1.5993323596449955,1.474160660186781,,,0.6380535849069913,inf,,,0.9639637822957621
527,,0.0,0.0,1.3987126167856005,1.2879459609331616,0.8278106626350558,0.5834168256723208,0.6076231867200876,,,0.6509067234006624,inf,,,0.9257694231205704
528,,0.0,0.0,1.6743058954602508,1.6431794729466016,0.864774235440758,0.8170183704002675,0.7410352781224949,,,0.6180765742263259,inf,,,0.9242431640304246
529,,0.0,0.0,1.5720068087239616,1.5638384726688197,0.6961392444253973,1.6194279181248303,0.9008324889417048,,,0.6097226960127671,inf,,,0.944920860456346
530,,0.0,0.0,1.4837457063268638,1.3823808957111638,0.7974407959430888,3.1168764725858473,1.9989269283645705,,,0.6425374456860184,inf,,,0.9596975559895966
531,,0.0,0.0,1.6503158925788863,1.5792879386641607,0.8337066010245096,1.2829269032332167,0.925451783338259,,,0.6380535849069913,inf,,,0.9371114647909883
532,,0.0,0.0,1.690706803771665,1.6778873657615685,0.8620268565310139,1.2064276363997253,0.9576954198610301,,,0.6357360191111145,inf,,,0.93612520736633
533,,0.0,0.0,1.61333376174959,1.5508360156975292,0.7890011619439288,1.4506888052234808,1.1582530120217454,,,0.6333676938231112,inf,,,0.9451305620010189
534,,0.0,0.0,1.751575534091737,1.6986024603745162,0.8542809528721635,1.9508723235538208,1.5822597126463205,,,0.6584896970785714,inf,,,0.9455056097910802
535,,0.0,0.0,1.6390828176374495,1.6203276190599876,0.8409706680410526,2.0424163558076796,1.502957284886648,,,0.6380535849069913,inf,,,0.9526540676485103
536,,0.0,0.0,1.672734495613037,1.6584126919648132,0.8341111105001584,1.231204784862164,0.9377966854862845,,,0.6547956803312163,inf,,,0.9475417607192587
537,,0.0,0.0,1.3255789102736186,1.3265153210663265,0.7768548090250389,1.584927176009283,1.329162316319407,,,0.6309483474627791,inf,,,0.9143187464386452
538,,0.0,0.0,1.7350907639803197,1.6876808889594435,0.8609688707946971,2.0945351845949833,1.6392287877343246,,,0.6468212168108125,inf,,,0.9350999822023743
539,,0.0,0.0,1.6240729528643958,1.572478312478508,0.8346159254797816,2.5400941459830753,2.920182939123452,,,0.6380535849069913,inf,,,0.9166580106813561
540,,0.0,0.0,1.4445656780803042,1.4356053847844414,0.718813515633163,2.1774064741247305,2.3465527891710405,,,0.6468212168108125,inf,,,0.9478132599739691
541,,0.0,0.0,1.67514059364277,1.6734150768696818,0.8906449155658404,2.074200805325331,2.0323891107523946,,,0.6425374456860184,inf,,,0.8958606121718067
542,,0.0,0.0,1.385343486290635,1.3596818314097907,0.8214972299591186,1.923189057569424,1.777396248743605,,,0.6097226960127671,inf,,,0.9532160488028963
543,,0.0,0.0,1.2072724676982443,1.2012842726551478,0.7739044100112206,1.0967359348908636,1.5426373729801297,,,0.5915533975974677,inf,,,0.9447128824234325
544,,0.0,0.0,1.648017067349445,1.6249326522498657,0.6679990868302506,1.413262727979902,1.4584591204516872,,,0.6038851895711802,inf,,,0.95358601506303
545,,0.0,0.0,1.7662827759864748,1.7519216243677127,0.8543952969617078,2.428421832183664,2.201812344947608,,,0.6380535849069913,inf,,,0.950159261372762
546,,0.0,0.0,1.6565172571011515,1.6553994848728482,0.8154777964013931,2.615863845133076,3.366481022948036,,,0.6207552362147116,inf,,,0.9417991239236769
547,,0.0,0.0,1.7558246387446803,1.7326244600423695,0.8346892288765548,2.451299875439449,2.6310708332434505,,,0.6284777104787076,inf,,,0.9550697200219669
548,,0.0,0.0,1.7396300230510016,1.716805695298372,0.7814992078078685,2.04285327211658,2.3846562911041684,,,0.62595550513784,inf,,,0.9243681099106887
549,,0.0,0.0,1.4080800380121685,1.3230170289772687,0.7253791537905907,1.1757388739875692,1.1172892220759856,,,0.585052858160615,inf,,,0.9160508397569821
550,,0.0,0.0,1.2761452418358605,1.2829940422522954,0.6437055123676709,1.0609612017791543,1.0325811989426976,,,0.5915533975974677,inf,,,0.9519207282140553
551,5.703782474656204,-1.9582986496319632,0.0,1.6695747535793632,1.5815426513610864,0.5822009420605225,1.5714255003980162,1.3653793811183597,,,0.6333676938231112,6.772835961082766,inf,,0.5680967345267789
552,,0.0,0.0,1.6503761358496927,1.6313435770970037,0.6953518008693881,2.1637148653144203,2.5520719107749645,,,0.5978297680564633,inf,,,0.730133543189107
553,,0.0,0.0,1.4965139681676043,1.3534636516685785,0.7051932756468967,1.5212646438862036,1.5002840352895668,,,0.5947193981915972,inf,,,0.8412490440892358
554,,0.0,0.0,1.5646653026917043,1.5219877590108761,0.8324216381589741,1.6611927644722297,1.8795634797982497,,,0.6068309995095971,inf,,,0.9312056188051896
555,,0.0,0.0,1.46261728180867,1.4396147829642172,0.7211720848663498,2.2483694998132604,1.688507666148126,,,0.6425374456860184,inf,,,0.7907389130845793
556,5.703782474656201,-0.17111347423968604,0.0,1.7287875541318207,1.656994917393232,0.717656164269554,2.334829024096482,2.3327509190368283,,,0.6468212168108125,9.210340371976182,inf,,0.6588621315024331
557,,0.0,0.0,1.6209864458622274,1.5802566436979826,0.8256720003291469,1.3979064320264283,1.3573108738267807,,,0.6566669596287297,inf,,,0.8601825170122033
558,,0.0,0.0,1.7340133480898505,1.6877484941656793,0.8540248027917828,3.1468264889994026,3.6632536480924256,,,0.6425374456860184,inf,,,0.9530390904023364
559,,0.0,0.0,1.587363982256834,1.565987322020372,0.885931630016722,1.3109239353970028,1.2828740016126212,,,0.6284777104787076,inf,,,0.9063486664714904
560,,0.0,0.0,1.7340285621615883,1.7061521303039713,0.9362241351989413,1.020491398354836,1.0354507893195812,,,0.6528756675646988,inf,,,0.8463231761477912
561,,0.0,0.0,1.620561346155878,1.5660979462767775,0.882828414478864,2.260970874097593,1.510328825874919,,,0.6403206450210053,inf,,,0.9482004034993329
562,,0.0,0.0,1.391785126147,1.330246839262753,0.5913381890188247,0.20684235148379052,0.2607232125245704,,,0.41268473150466,inf,,,0.9462395033621028
563,,0.0,0.0,1.4354739472317959,1.3328070690181935,0.6551176120605352,0.287553177190717,0.3055489347372132,,,0.468121228110369,inf,,,0.94910886640039
564,,0.0,0.0,1.3323911446188423,1.2893434456988273,0.7464552299486664,0.18479734797057346,0.3060462897028907,,,0.40055318934786044,inf,,,0.8513463125730206
565,,0.0,0.0,1.755906757374921,1.7155578776571503,0.9119233346588647,0.14462065891069215,0.28780050964089154,,,0.31914402280573173,inf,,,0.7631358138541119
566,,0.0,0.0,1.6751609177039812,1.647090950910709,0.8695810845589266,0.24678774270070375,0.45129055509132243,,,0.35499006010413947,inf,,,0.8370118037988079
567,,0.0,0.0,1.5843949684227003,1.5278108954326401,0.9152070317050128,0.30613306854129574,0.5818723764583452,,,0.2461092077232671,inf,,,0.8087613339993374
568,,0.0,0.0,1.5820790759188426,1.5630396826477089,0.9280669737908324,0.3043980431861949,0.5808099003139968,,,0.23718601089358102,inf,,,0.7836543367151829
569,,0.0,0.0,1.5300654442927497,1.5158584316918466,0.9226798853160099,0.3303402583796897,0.6386774461422056,,,0.2548524784312949,inf,,,0.7985768441553152
570,,0.0,0.0,1.6479075045005214,1.6257814803399488,0.9009044782089289,0.29209088405431005,0.5251962159079365,,,0.3116047106179316,inf,,,0.7877710206845974
571,,0.0,0.0,1.672748941247459,1.6371396475954345,0.8721714018596468,0.22925067287591996,0.3768479371033055,,,0.5113665138247345,inf,,,0.7771880491848531
572,,0.0,0.0,1.574515956548623,1.5733459348079315,0.6618685866331016,0.2957488758880095,0.38600243484639796,,,0.5604843169999094,inf,,,0.9127422455801956
573,,0.0,0.0,1.5688879129310964,1.550356969454911,0.7348078533678358,0.07611442246115589,0.10481540077135985,,,0.5713653840954815,inf,,,0.9423991012880156
574,,0.0,0.0,1.548002267401423,1.5138915305946017,0.8158143238131706,0.033790470366524036,0.0648328616197556,,,0.49759852643134905,inf,,,0.7874484926706163
575,,0.0,0.0,1.6170135209604153,1.58037558443037,0.8558341734656937,0.036557766074339595,0.06926481114191535,,,0.49759852643134905,inf,,,0.8048166268030272
576,,0.0,0.0,1.5695059987786575,1.5478593485715932,0.6583246208027637,0.39462777078600786,0.35186764367281526,,,0.5329562494928909,inf,,,0.9449106612833824
577,,0.0,0.0,0.8353160317366664,0.7618898596534192,0.5767172722390835,0.1270873438743835,0.17420329838324877,,,0.43586655696697996,inf,,,0.8949808172034365
578,,0.0,0.0,0.6399746368682062,0.5932508503358471,0.703804535337682,0.1675074766019389,0.28997171093996443,,,0.44144624493110796,inf,,,0.7300081700083407
579,,0.0,0.0,0.8856332169301739,0.7510005679090459,0.7784232623896943,0.3142505845795714,0.4501545511982096,,,0.40055318934786044,inf,,,0.7661132261949815
580,,0.0,0.0,1.7538177430872488,1.7215272741300598,0.8376244113117205,0.7435585354342226,0.5519805505899595,,,0.5451288209179292,inf,,,0.8681394992745364
581,,0.0,0.0,1.556025663720493,1.53337099138738,0.7915006446558225,0.22293088856354423,0.32560107440270486,,,0.4928685327679205,inf,,,0.7956348770546355
582,,0.0,0.0,1.2212760978946462,1.2111955321064358,0.7749886821208144,0.5977833757373417,0.6246559187451585,,,0.5202020156036558,inf,,,0.8733105972940054
583,,0.0,0.0,1.4632199685000025,1.4541612430936561,0.7797885397408427,0.1926125378414955,0.3414913745712118,,,0.3685265678147087,inf,,,0.7169919280670247
584,,0.0,0.0,1.5419278993939582,1.4588805247193544,0.8234222071634182,0.1735872280184792,0.24770487225556115,,,0.4576907132971797,inf,,,0.7774329315837512
585,,0.0,0.0,1.6590327271498726,1.6439755952309723,0.879278380715435,0.060552840391744356,0.12648133141936654,,,0.3265551233283096,inf,,,0.7731064379653764
586,,0.0,0.0,1.7715433437838597,1.7644007829935051,0.8935512373633672,0.08488424440833658,0.1629508500546124,,,0.3116047106179316,inf,,,0.7401691998255082
587,,0.0,0.0,1.77326592601459,1.7433883475070868,0.9059636986956023,0.08099996051493559,0.17990521964071937,,,0.3338418249889409,inf,,,0.7737953766580664
588,,0.0,0.0,1.402293467225521,1.3725086836445843,0.8450044804877302,0.11995418487252475,0.2486465089972218,,,0.3338418249889409,inf,,,0.8067341610754711
589,,0.0,0.0,1.4967316577996037,1.4861325429916925,0.8744132546060848,0.09725382671350782,0.20385543294024538,,,0.3751344627501719,inf,,,0.7519107314120151
590,,0.0,0.0,1.618347235312994,1.596122439575405,0.8847242973162023,0.13625269836369377,0.2926904830453302,,,0.3751344627501719,inf,,,0.7929683990316626
591,,0.0,0.0,1.5526706585403895,1.5280508886871016,0.8880615776733333,0.12866535583650274,0.2620368172119629,,,0.3265551233283096,inf,,,0.8104334140744244
592,,0.0,0.0,1.6152799057408669,1.5813663254557178,0.848198410636817,0.5046125398491946,0.47834776059313233,,,0.552929491858785,inf,,,0.9323822891762688
593,,0.0,0.0,1.4229235999688612,1.3830534139243,0.7943109486232803,0.18043321784875826,0.21834496693897326,,,0.49759852643134905,inf,,,0.8830926047176744
594,,0.0,0.0,1.6012115714636455,1.5512657480386052,0.48987824475582536,0.5775244906269694,0.2964729116384648,,,0.5287703885177266,inf,,,0.8266666717021275
595,,0.0,0.0,1.0405654021880197,1.0011576657093402,0.6298790622150034,1.902752480616846,1.4717925162798362,,,0.581717464821069,inf,,,0.8849226074453833
596,,0.0,0.0,1.1211717906833123,1.108366942587902,0.6779610443177292,0.059887162562674796,0.11533498875398093,,,0.5451288209179292,inf,,,0.7962154581986987
597,,0.0,0.0,1.7431130464229905,1.7256557973360231,0.9371925719624661,0.036259091902911066,0.07529567058357056,,,0.4928685327679205,inf,,,0.7818055100906419
598,,0.0,0.0,1.707305695104078,1.6698723808528713,0.8778534086614364,0.04350974196169752,0.0897919899145206,,,0.49759852643134905,inf,,,0.800769972860022
599,,0.0,0.0,1.7657987208688746,1.7558387437900218,0.9080898174203299,0.04417413415123126,0.09111506725752161,,,0.541134803179459,inf,,,0.816908150237729
600,,0.0,0.0,1.7160556925966781,1.6867689297764799,0.9151692361770661,0.043510507667267814,0.08697390903338363,,,0.47824363442641393,inf,,,0.8107115578305174
601,,0.0,0.0,1.7584340344701155,1.685715672098909,0.9422602980189938,0.04390993709826111,0.08915868304187395,,,0.4880666971167561,inf,,,0.8132964185481273
602,,0.0,0.0,1.7890222062454206,1.7288445755110267,0.9215189671369542,0.06099877890794809,0.12316003962013833,,,0.41861278947482794,inf,,,0.8151366352461622
603,,0.0,0.0,1.7326896584010156,1.6996581521180465,0.8811473031467139,0.08125124116373926,0.16488978673473256,,,0.45235697871908603,inf,,,0.8148615572398351
604,,0.0,0.0,1.528594566348411,1.4821109220470108,0.8679790372941634,0.057398844396432426,0.10109602223145714,,,0.5287703885177266,inf,,,0.7734433200422738
605,,0.0,0.0,1.7512836191369385,1.7295373249350106,0.8816743057794263,0.06303319564277007,0.11186380458701332,,,0.45235697871908603,inf,,,0.7979972182025707
606,,0.0,0.0,1.6062583715423417,1.5842678070253806,0.8751735384918593,0.07971549676036632,0.16136882411106518,,,0.4576907132971797,inf,,,0.8164796124475465
607,,0.0,0.0,1.3205052968313633,1.2968311201221567,0.5814864766475342,0.199328406189015,0.21608453805077432,,,0.5068466436745385,inf,,,0.9197626048156448
608,,0.0,0.0,1.6183895888130784,1.5757151864773629,0.8992078088912895,0.5435180371771818,0.4603110966307129,,,0.5915533975974677,inf,,,0.8895523306403849
609,,0.0,0.0,1.6888782506519424,1.6384199263214807,0.8905285679754417,0.3278475024395962,0.3918013203530845,,,0.5068466436745385,inf,,,0.8138622482799757
610,,0.0,0.0,1.2112060231330746,1.209883104855642,0.5502586986242597,0.5235314020663483,0.6092383212051302,,,0.49759852643134905,inf,,,0.9007965265030276
611,,0.0,0.0,1.5797017233275459,1.557422355600156,0.7216467757245963,0.5323738220598914,0.7369730741579674,,,0.5022576003740722,inf,,,0.8484242119497287
612,,0.0,0.0,0.9025297779506929,0.8379811078928868,0.7284069293792763,0.7670361403886414,0.9676198242612485,,,0.5370774965580548,inf,,,0.8777291439165049
613,,0.0,0.0,1.4004432956139556,1.384636299504371,0.7898362834933571,0.38101767585759194,0.5192044140913858,,,0.5370774965580548,inf,,,0.8374676255587735
614,,0.0,0.0,1.3720856689335552,1.3325504080521857,0.7201397936859906,0.3738873198728435,0.4951642389792421,,,0.5022576003740722,inf,,,0.8716679938964973
615,,0.0,0.0,1.715700180618121,1.7154756530357183,0.832705176208243,0.41920486912624805,0.6667332657240543,,,0.5022576003740722,inf,,,0.77417828437495
616,,0.0,0.0,1.5322562967893796,1.5222902787094206,0.8017780247670528,0.44000765967056177,0.6559598418847838,,,0.47824363442641393,inf,,,0.7108814678951869
617,,0.0,0.0,1.7073174920065384,1.6742387500923888,0.9263887698541358,2.0231004728773065,1.8273388458204796,,,0.6619902821573977,inf,,,0.9185857897358216
618,,0.0,0.0,1.554969710390575,1.5521543371547337,0.8509427891644876,2.033449464911011,1.6451532995337312,,,0.6468212168108125,inf,,,0.926251339025495
619,,0.0,0.0,1.7153443053404958,1.6943462243210425,0.8264930948052972,1.8099608117165742,1.5463272627776796,,,0.6284777104787076,inf,,,0.9213056512731331
620,,0.0,0.0,1.7101194618480462,1.6916053413841527,0.8228647034628219,1.5359930103369641,1.5537919403500244,,,0.5713653840954815,inf,,,0.9420066788962269
621,,0.0,0.0,1.7255949263177617,1.6674954063483207,0.7959774647068287,1.3034060649360841,1.1100482829461051,,,0.5748741956352443,inf,,,0.9495808464550259
622,,0.0,0.0,1.4236795049461917,1.397684424085481,0.7837343619978003,0.743073420440687,0.9415949874918053,,,0.5713653840954815,inf,,,0.8470713238657708
623,,0.0,0.0,1.6089053958619823,1.5892644918864844,0.8119422923555655,1.1536203199383193,1.1044044125189267,,,0.5783247308855777,inf,,,0.9430248318844814
624,,0.0,0.0,1.5030316377180963,1.4761442721802787,0.7447406867111844,0.8512910245130031,0.9857122435151605,,,0.585052858160615,inf,,,0.949707626404407
625,,0.0,0.0,1.6227935972365886,1.616524772237388,0.796913268037269,0.8637334094732192,1.0954169756736973,,,0.5783247308855777,inf,,,0.9264838706495353
626,,0.0,0.0,1.5983824607570323,1.5571694120953719,0.7218675777434118,1.1162177929032706,1.1957352411804276,,,0.5604843169999094,inf,,,0.936937121958132
627,,0.0,0.0,1.3151940034944736,1.2863141219925032,0.7330527485998852,0.8886244573092765,1.148469544499994,,,0.48319206230712763,inf,,,0.9065704294515345
628,,0.0,0.0,1.648958780674906,1.6505964106819022,0.7099400937291624,0.8208911450537995,0.8694545892687006,,,0.5604843169999094,inf,,,0.9106593449466922
629,,0.0,0.0,1.644936243606831,1.6162002995135367,0.7653134297912961,0.6221675720033213,0.7983011303897652,,,0.5604843169999094,inf,,,0.9175949672788012
630,,0.0,0.0,1.6599696169595717,1.6664297820876413,0.7408171700524915,0.8437752865782844,1.0147163272184356,,,0.5677978065141052,inf,,,0.9471764939213665
631,,0.0,0.0,1.7041423727554694,1.709419284228701,0.7869631888753518,0.527667113522928,0.6498941659114232,,,0.5202020156036558,inf,,,0.9449872108547668
632,,0.0,0.0,1.6988453242397499,1.676659884742102,0.8971516822695254,0.5228521749813555,0.7211794453014719,,,0.5604843169999094,inf,,,0.9305776742956173
633,,0.0,0.0,1.7420713743253886,1.7180270508812212,0.8016210236452468,0.7424829291408463,0.7215887350911883,,,0.581717464821069,inf,,,0.9439511267104167
634,,0.0,0.0,1.4729827474595556,1.45861726932547,0.7755461767685029,0.6162456029418343,0.6193875387071289,,,0.5947193981915972,inf,,,0.948636400241003
635,,0.0,0.0,1.702051997966164,1.6719057181704173,0.9025369859383422,0.5257719792204398,0.6744998608095466,,,0.47824363442641393,inf,,,0.9112067174045573
636,,0.0,0.0,1.7362946935306351,1.7255675048392096,0.7823233630547448,0.8806516444697938,0.7625128635951179,,,0.5370774965580548,inf,,,0.9502873607162599
637,,0.0,0.0,1.636731386614986,1.619146085594139,0.7416279479292952,0.631531311945064,0.7555361754062484,,,0.5604843169999094,inf,,,0.938807078344796
638,,0.0,0.0,1.5147612296709192,1.4840794255748215,0.6824263774065771,0.4715089467395394,0.5427449127939923,,,0.5748741956352443,inf,,,0.7686864258548779
639,,0.0,0.0,1.5065361032027895,1.4784757963288064,0.8005541726945269,0.5228234819942655,0.614356786024946,,,0.541134803179459,inf,,,0.7536879395828774
640,,0.0,0.0,1.5984168987456602,1.474272923484041,0.7108846101886356,0.7945532180315008,0.8030774720396855,,,0.5978297680564633,inf,,,0.8968867068707426
641,,0.0,0.0,1.4051552031522723,1.3714497703859112,0.8194135759116747,1.3783017907478214,1.3367610449871736,,,0.6403206450210053,inf,,,0.9049270860866979
642,5.703782474656201,-0.6084034639633281,0.0,1.5456717798210522,1.5500639497931938,0.4798337026978104,1.1834814623778098,0.695373390128315,,,0.6425374456860184,7.941829046512676,inf,,0.6168135373243402
643,,0.0,0.0,1.2841386293955335,1.2585016204951038,0.31537162841804006,1.171234211986385,0.7067186635931062,,,0.6125606311107803,inf,,,0.6345834460512656
644,,0.0,0.0,1.2269558763688266,1.210115601633914,0.6454305841229803,0.3618224060264321,0.4125845162697139,,,0.4928685327679205,inf,,,0.9493716798399238
645,,0.0,0.0,1.6038391229612514,1.598051862836313,0.7985651761499614,0.5599504522883126,0.4184466149489494,,,0.5113665138247345,inf,,,0.9422823629486581
646,,0.0,0.0,1.6487869870055856,1.6537534357723769,0.8523424109467846,0.5647621317849284,0.3339075661233806,,,0.5883313578629602,inf,,,0.9482763774196901
647,,0.0,0.0,1.6577133433589613,1.6576790814358713,0.8581312864606645,1.151002027903303,0.946591746953185,,,0.6403206450210053,inf,,,0.8671026046228034
648,,0.0,0.0,1.693015986588298,1.6599272025489233,0.9352430093380686,1.2152412135604334,1.0267404636334099,,,0.6309483474627791,inf,,,0.8623330855735218
649,,0.0,0.0,1.5363229240638212,1.496927074983528,0.8686122010804681,1.4328727437065316,1.3492952485080985,,,0.6284777104787076,inf,,,0.9514160823070505
650,,0.0,0.0,1.5198739277553268,1.520168066937171,0.7050773379222282,1.2384662725020321,1.2278033716828385,,,0.5978297680564633,inf,,,0.9460442407568286
651,,0.0,0.0,1.5370385992614528,1.5302910638086016,0.4170732722465033,1.0168038323807203,1.2247847670720193,,,0.5713653840954815,inf,,,0.5798415106649586
652,,0.0,0.0,1.549858393044984,1.5483996020290103,0.8188746476110708,1.056509755198993,0.7076738277340908,,,0.6207552362147116,inf,,,0.8182740173573906
653,,0.0,0.0,1.6259708717998806,1.611162668004397,0.846441085354494,0.7471077116877737,0.52010340723799,,,0.6380535849069913,inf,,,0.9317814453931352
654,,0.0,0.0,1.5477255900178675,1.507037278363528,0.8642090933520788,1.4330214265264907,1.3598613383272697,,,0.6380535849069913,inf,,,0.8451374915062816
655,,0.0,0.0,1.7379695221170057,1.7182563937409574,0.7009761903271967,1.4491434042798501,1.0436575265108292,,,0.6528756675646988,inf,,,0.6993599803253845
656,,0.0,0.0,1.2914298581241266,1.1530998176928458,0.630525589864463,0.6306288264067972,0.4973306844188714,,,0.6468212168108125,inf,,,0.9590972356157015
657,,0.0,0.0,1.2230649508686733,1.1902867898429412,0.7546170889469004,0.2755648528984873,0.33727759794948553,,,0.585052858160615,inf,,,0.929130756577436
658,,0.0,0.0,1.7620381476229812,1.6845030855643097,0.704790186988087,0.7325873100087938,0.4982295143941098,,,0.6180765742263259,inf,,,0.9279037794437719
659,5.703782474656202,-0.7034665052075982,0.0,1.75309349881026,1.6796645980170566,0.4770831394317848,1.2815587497923149,0.9352586808077017,,,0.6357360191111145,7.796647036668178,inf,,0.6778238865489468
660,,0.0,0.0,1.5518774928158434,1.5041652558051455,0.8538392863655592,0.815508476252185,0.8140446773749013,,,0.6068309995095971,inf,,,0.9422643406173258
661,,0.0,0.0,1.403840075302545,1.3452195331046959,0.7996055472701342,0.5935603253874786,0.6428999542292558,,,0.5677978065141052,inf,,,0.9349929133332299
662,,0.0,0.0,1.6570968093889635,1.632471675897292,0.6084377293893056,0.43946814504279996,0.38826666018874323,,,0.5604843169999094,inf,,,0.950569553306709
663,,0.0,0.0,1.7149386088561573,1.7138568206908495,0.737411134507342,0.583397571692184,0.5309132770677938,,,0.585052858160615,inf,,,0.9371248777993547
664,5.703782474656202,-1.8632356083876926,0.0,1.6897161940930412,1.6392825106256914,0.5574047873262272,1.302829916642614,1.0457185667735516,,,0.6425374456860184,6.82259747064183,inf,,0.925942923131718
665,,0.0,0.0,1.6487026877938433,1.6357350149320289,0.8824590009179805,1.1620334150916,0.9631180488468358,,,0.6380535849069913,inf,,,0.9455607926333451
666,,0.0,0.0,1.6159942999781594,1.5719118323938421,0.8930955116701262,1.8067758244331882,1.0650443833523844,,,0.6333676938231112,inf,,,0.9492572104379529
667,,0.0,0.0,1.5387584388535467,1.5367097852083174,0.7977204583803945,2.1074371479294833,1.466536437473147,,,0.6333676938231112,inf,,,0.9557143280951403
668,,0.0,0.0,1.7275978664831477,1.6530486879275206,0.8197018810111458,1.443231479064278,1.1268436032127787,,,0.62595550513784,inf,,,0.9441526064165147
669,,0.0,0.0,1.4091595518964692,1.3878648392090551,0.8215050004252306,0.7925266987571395,0.6551248253237432,,,0.6357360191111145,inf,,,0.9353499870222712
670,,0.0,0.0,1.4492732086667783,1.406606942944303,0.8386105951479943,0.6332607528508158,0.6171654835189329,,,0.6380535849069913,inf,,,0.9256370817196137
671,,0.0,0.0,1.4312738556887903,1.325267204001945,0.8261054435445928,1.2451625518735805,1.6746426079990098,,,0.5567373465730988,inf,,,0.9480696509222184
672,,0.0,0.0,1.727538832814341,1.6944179581759293,0.9139491400980594,1.292699112979806,2.213681185406484,,,0.41268473150466,inf,,,0.8693912102361947
673,,0.0,0.0,1.5691425639431251,1.5513097415569232,0.7765255839919357,0.8400742862853356,1.0002138023908396,,,0.552929491858785,inf,,,0.9123933558347721
674,,0.0,0.0,1.7160210700422964,1.702562532909664,0.7176375611444004,1.6030486053405357,1.3015014146845287,,,0.648888643467878,inf,,,0.6722179881428403
675,5.697648428810539,-2.1461142415186365,0.0,1.74942598729201,1.7201370053488794,0.7047735399840911,1.3361591281713219,1.3509048173831604,,,0.6333676938231112,6.671366500917907,inf,,0.5020704313749708
676,,0.0,0.0,1.3945194300246424,1.379843575988555,0.8157978338140718,1.071059382036553,0.7907894393691943,,,0.6153451465759925,inf,,,0.931357152654733
677,5.370711751529991,-1.3784826828926977,0.0,1.7407968971913461,1.6824884015989952,0.6586521637806801,1.8592302397585778,1.0624028819484064,,,0.6309483474627791,6.671366500917907,inf,,0.5792546625268744
678,5.703782474656201,-0.13308825774197802,0.0,1.6252897469575958,1.5600827076870536,0.6767080574585348,2.1005134197185766,1.1317233266127067,,,0.6333676938231112,9.461654800257088,inf,,0.7465798211590758
679,,0.0,0.0,1.529829911609365,1.4657592887835103,0.7742472261795661,1.5071783755798913,1.124942875497733,,,0.6584896970785714,inf,,,0.9218706270500281
680,5.703782474656201,-1.0647060619358242,0.0,1.7316877641567792,1.7033866749725408,0.741177449798684,1.2956271477157253,1.020019888807699,,,0.6403206450210053,7.382213258577253,inf,,0.682476112782411
681,5.703782474656203,-0.43728998972364225,0.0,1.533785441049648,1.454582167449338,0.690155089282259,1.7800397920250142,1.077098851927696,,,0.6180765742263259,8.272070733383252,inf,,0.6377223704680001
682,4.955027127993934,-0.3303351418662622,0.0,1.1916625502611438,1.1514602480143739,0.5756511619453796,1.3935247308706427,1.2965542786179929,,,0.5978297680564633,7.557417347602343,inf,,0.7595641951064351
683,,0.0,0.0,1.6542635058733777,1.637899329620324,0.8856350633909856,1.9170618264426555,1.2234138707933702,,,0.6425374456860184,inf,,,0.8603649622692318
684,5.264789260301567,-1.0529578520603133,0.0,1.7430485806711074,1.7510123056400946,0.5558536665924992,1.816418488915542,1.463889174823034,,,0.6447042257417027,6.82259747064183,inf,,0.5829010651336372
685,,0.0,0.0,1.7646945503365126,1.7548406270395693,0.9077745928073199,1.3930022394510317,1.2622731268748644,,,0.6509067234006624,inf,,,0.958651504186839
686,5.703782474656202,-0.34222694847937213,0.0,1.7133016857571532,1.7109050221031845,0.7762309209283286,2.3627537531664355,1.8145752768972163,,,0.6333676938231112,8.517193191416238,inf,,0.700996277728275
687,,0.0,0.0,1.6242032060243377,1.5761229348692358,0.6899671313510899,2.4023401108445,1.7734945528284758,,,0.6333676938231112,inf,,,0.5651213120480733
688,,0.0,0.0,1.698771423125347,1.7085727813994158,0.8434241864263389,1.6805159851923976,1.267520634891006,,,0.6528756675646988,inf,,,0.9434098264088867
689,,0.0,0.0,1.7302681434710108,1.7331006449151163,0.8130145032102793,1.9512455975270404,1.5273484527769836,,,0.6357360191111145,inf,,,0.9521170900097369
690,,0.0,0.0,1.44295252087548,1.4272317345804877,0.7535014885314759,2.368483096690346,1.66062275484897,,,0.6547956803312163,inf,,,0.9534932752539008
691,,0.0,0.0,1.7162337032910466,1.6955619957497263,0.874989381068793,2.156430468877202,1.7044181915165733,,,0.6509067234006624,inf,,,0.9465023924881213
692,,0.0,0.0,1.541781530705217,1.5023250163166046,0.8108444594407782,2.181126068491966,1.5972586038680694,,,0.6068309995095971,inf,,,0.9342348223425064
693,,0.0,0.0,1.7095717395094592,1.6795668708765488,0.851731008624759,2.4881348205246456,1.4616982696098755,,,0.6447042257417027,inf,,,0.9366028874259693
694,,0.0,0.0,1.6600737557603311,1.6043418514151893,0.9252780134763037,1.215261443081519,1.2430455068758344,,,0.6447042257417027,inf,,,0.9542253395098392
695,5.703782474656201,-1.2358195361755102,0.0,1.5873625412876,1.5150577616619239,0.7621896680399408,0.7770232002188446,0.7720904357631039,,,0.6333676938231112,7.233177679416765,inf,,0.6973922680209015
696,,0.0,0.0,1.6909884741950567,1.682215859410363,0.8513158921646548,0.743197890375367,0.7396757370771863,,,0.6309483474627791,inf,,,0.9265155322604176
697,,0.0,0.0,1.0860509249864405,1.0245173416775673,0.790377439488131,1.8625549653503757,1.3101119299592272,,,0.6097226960127671,inf,,,0.9582212492039156
698,5.7037824746562,-1.1027312784335321,0.0,1.3686434726246803,1.3620392264562584,0.6978727900243,1.8636604823854261,1.850745671532607,,,0.6284777104787076,7.347121938765983,inf,,0.7021326422425771
699,,0.0,0.0,1.6909849397869374,1.6492330279295973,0.8563710290142379,1.2700247341613036,1.1791758049565413,,,0.6403206450210053,inf,,,0.9195690013101087
700,,0.0,0.0,1.2900814326450332,1.2630914045019341,0.7629239239083159,0.73018044474961,0.8083568512017999,,,0.62595550513784,inf,,,0.9013815781555568
701,,0.0,0.0,1.4840111164634529,1.4596541053731547,0.6778690519322754,0.740030758040745,0.6138484560015034,,,0.6008849035917525,inf,,,0.9533118810887726
702,,0.0,0.0,1.7618463324328484,1.7300571957951365,0.8779564392120354,1.132521362918624,0.9801653153972187,,,0.6357360191111145,inf,,,0.9391093084456047
703,,0.0,0.0,1.5775683838453634,1.491402559715945,0.827372898831597,0.9017838501193731,0.7807185862746118,,,0.6097226960127671,inf,,,0.906089730663443
704,,0.0,0.0,1.7097985318660234,1.7072794134965625,0.7412599203975413,2.115292167306898,1.675644889233046,,,0.6468212168108125,inf,,,0.9404132460960761
705,,0.0,0.0,1.7326167208460674,1.6804864591423794,0.7616243539879304,1.5705965931828028,1.4042095118985354,,,0.6309483474627791,inf,,,0.5422052468893575
706,,0.0,0.0,1.083452115646179,1.0681666439050512,0.6812071918131019,0.784738234118456,0.7629123228168716,,,0.5677978065141052,inf,,,0.9357789952680847
707,,0.0,0.0,1.6341247862190174,1.6085820534497806,0.8364580838364092,0.9812615555052835,0.8949583596267976,,,0.6309483474627791,inf,,,0.9504580411559357
708,,0.0,0.0,1.6234248027303737,1.5914710758340624,0.8218734481591295,1.2916633946885314,0.7310776002270463,,,0.6233814453054027,inf,,,0.949715590014207
709,5.703782474656199,-1.311869969170926,0.0,1.7221143647285808,1.720338507962072,0.7635127128346255,2.5790480389348893,2.1240886160761945,,,0.6468212168108125,7.173458444715143,inf,,0.596543007697565
710,,0.0,0.0,0.6849586240708577,0.6616910987199304,0.6944093073696982,2.1437050568703326,2.2616003190906895,,,0.6125606311107803,inf,,,0.9438922319086329
711,,0.0,0.0,1.5146918478538585,1.5066133848444798,0.8654179397017933,2.306438820281189,2.221139179000679,,,0.6097226960127671,inf,,,0.941912369797643
712,,0.0,0.0,1.7590743644351374,1.7682801037423153,0.8528034947948263,1.9358338679628249,1.4996928611791762,,,0.6380535849069913,inf,,,0.791772672671926
713,,0.0,0.0,1.433166904525044,1.4153315156977007,0.8201576338626101,1.986949270908393,1.9600848922071197,,,0.6180765742263259,inf,,,0.9511263077250192
714,5.703782474656202,-0.7034665052075982,0.0,1.6264168261300116,1.6225115164008037,0.6978117072045917,1.9706006495799424,1.7144691115719037,,,0.648888643467878,7.796647036668178,inf,,0.68570669322021
715,,0.0,0.0,1.63655893582143,1.6506386227768468,0.8049448690765083,2.386449483742264,1.8482482572331347,,,0.6425374456860184,inf,,,0.7987043857205198
716,,0.0,0.0,1.7500160276476575,1.7481926333762392,0.8654631181559843,2.275454548414231,1.9982666581538941,,,0.648888643467878,inf,,,0.9089207301713496
717,,0.0,0.0,1.6648959593347854,1.6141780423161387,0.8476305835981742,1.6160271762097946,1.0881433836750372,,,0.6403206450210053,inf,,,0.9286308522078743
718,,0.0,0.0,1.6745098759723918,1.623283639219787,0.8556830420471055,1.351381415188672,1.1512032384787696,,,0.6357360191111145,inf,,,0.9500714701950839
719,,0.0,0.0,1.572492910763187,1.5755753971762516,0.6455701772705834,0.6040091480003861,0.7616389731222756,,,0.5113665138247345,inf,,,0.9344264087323266
720,,0.0,0.0,1.5420534042794487,1.5211978707401923,0.7346540469074553,0.6021421426960879,0.8910439647007743,,,0.468121228110369,inf,,,0.8777337053223937
721,,0.0,0.0,1.2381352996358763,1.2372712316509091,0.6477501238795695,0.5496419779101588,0.5772053398223902,,,0.5022576003740722,inf,,,0.9255155326347386
722,,0.0,0.0,1.6191996191983544,1.5531306804629799,0.8365901691267419,0.4643920229889174,0.6334527439769563,,,0.44694259446804574,inf,,,0.8711067674265932
723,,0.0,0.0,1.6184786792221877,1.5740268215992448,0.6858229324055659,0.4982970324230757,0.7542528397970587,,,0.47824363442641393,inf,,,0.8629108854129824
724,,0.0,0.0,1.5858416174529761,1.5449313093789852,0.9163353866641747,0.563901804770796,0.8500578887757454,,,0.43586655696697996,inf,,,0.8030240939293228
725,,0.0,0.0,1.582400974470032,1.5597288870560742,0.9150897376323399,0.49968778086784005,0.7454887223854733,,,0.4629450596409901,inf,,,0.8314305460514497
726,,0.0,0.0,1.7442339671563134,1.7477981518430472,0.9267220702462436,0.5366932427218761,0.8157856958041311,,,0.40055318934786044,inf,,,0.8191701824055079
727,,0.0,0.0,1.4737552891705277,1.4324640079462647,0.9058395668388012,0.6488213033967347,1.0698758169511158,,,0.3116047106179316,inf,,,0.801359193510544
728,,0.0,0.0,1.7562227778582788,1.7307465121686534,0.934837622036816,0.7640544036740644,1.2960334534585365,,,0.43586655696697996,inf,,,0.822340140791966
729,,0.0,0.0,1.6307749364838697,1.6156608992120063,0.9339451652753163,0.7795061944206267,1.3755775079185808,,,0.3338418249889409,inf,,,0.7640651410979161
730,,0.0,0.0,1.2528945098233997,1.2370334488942178,0.572211243996252,0.888411363955346,1.4782838155984699,,,0.3943459996787778,inf,,,0.8965505458570571
731,,0.0,0.0,1.570400916320822,1.5480426037983213,0.7175642916723309,1.0726142557128917,1.1600696338283245,,,0.5113665138247345,inf,,,0.8829539392233365
732,,0.0,0.0,1.6847055049560227,1.6564304697504564,0.8495737047053193,0.32231221433504265,0.4548885489509687,,,0.4302020962658841,inf,,,0.7944289624529074
733,,0.0,0.0,1.6221739922473641,1.5681525718817588,0.8736859717534354,0.3811526071649778,0.47254136365052185,,,0.43586655696697996,inf,,,0.8005671373136031
734,,0.0,0.0,1.6382021163539917,1.5698931895959785,0.8210373441632187,0.4638456394144775,0.6045766291856964,,,0.42445136339222655,inf,,,0.8275152720098048
735,,0.0,0.0,1.7203491158842763,1.685845647393973,0.9157788325465833,0.4519265068580181,0.6956406899142615,,,0.38163879478178075,inf,,,0.8225410649895988
736,,0.0,0.0,1.6297904731596986,1.5851121341977412,0.8356580786230206,0.7134170678951222,0.8587809649807767,,,0.5022576003740722,inf,,,0.9284976789473558
737,,0.0,0.0,1.0611624146175807,1.026034949853894,0.813483328647361,0.5453189243705198,0.7879561360797847,,,0.44144624493110796,inf,,,0.786924345886897
738,,0.0,0.0,1.2249308739909397,1.1370894750799425,0.9218322091729754,0.8062424309666032,1.1162368969965946,,,0.3338418249889409,inf,,,0.7934440755060127
739,,0.0,0.0,1.6957804325277674,1.6607553417080791,0.8871617375384226,0.5642359716743899,0.5533234351691507,,,0.5113665138247345,inf,,,0.8663631094687105
740,,0.0,0.0,1.3386233402353926,1.3053287563532325,0.856149664846847,0.4143288475916415,0.6934397417925868,,,0.34100769111774265,inf,,,0.8245995613510066
741,,0.0,0.0,1.6790878597121746,1.6710466021416504,0.9158062241468558,0.48341204894947676,0.9484792770028276,,,0.28007874463063287,inf,,,0.7925246439633756
742,,0.0,0.0,1.6828830022650885,1.661086581484279,0.91762685189637,0.4998966078253633,0.9413533788267467,,,0.30393309777884125,inf,,,0.7807241631965922
743,,0.0,0.0,1.207634430254506,1.1764735761307525,0.9049646085536939,0.41104796074188105,0.7770767014713849,,,0.23718601089358102,inf,,,0.800863486820218
744,,0.0,0.0,1.2190592487627487,1.1975265871807277,0.5714872852723736,0.4892237803929257,0.7155501740033605,,,0.35499006010413947,inf,,,0.9067714667119494
745,,0.0,0.0,1.2665541137484138,1.2427953252807844,0.7912283721319835,0.11620740832972891,0.21303333293378107,,,0.4629450596409901,inf,,,0.765619599439815
746,,0.0,0.0,1.6844253248668666,1.6691215785352886,0.9172438127153438,0.14628617399438418,0.24111399824896868,,,0.43586655696697996,inf,,,0.7824612469681985
747,,0.0,0.0,1.4185800322121547,1.355425880711164,0.790323496979416,0.5314998383758281,0.5330352019320866,,,0.5370774965580548,inf,,,0.9324877535988129
748,,0.0,0.0,1.1428118356195813,1.1094195246489014,0.6526377782072711,0.2950309369396978,0.39844453812771863,,,0.5490601803369085,inf,,,0.873775470927807
749,,0.0,0.0,1.6702893805668761,1.655020571445611,0.8660267272201475,0.1734005774403661,0.2944725323255145,,,0.5370774965580548,inf,,,0.8056409845699867
750,,0.0,0.0,1.5854403171014217,1.5367087704778692,0.7891412257373192,0.39712825354482467,0.5169380706542284,,,0.5287703885177266,inf,,,0.9047082521423271
751,,0.0,0.0,1.7538009148845801,1.7201588450240146,0.8880342442467752,0.5566263261529605,0.8606261086497079,,,0.41268473150466,inf,,,0.8269582619819938
752,,0.0,0.0,1.2787775301735245,1.2703905767260892,0.5910806557944465,0.4455566276389245,0.5838460606489868,,,0.4629450596409901,inf,,,0.9467534411358501
753,,0.0,0.0,1.641541633046051,1.6076803688089178,0.8841614281849249,0.3018732581971094,0.5949198369598322,,,0.27183033608702345,inf,,,0.7832180958432929
754,,0.0,0.0,1.5329582254484588,1.4943796572592751,0.8939761134243389,0.286973374203044,0.5480307772067172,,,0.3116047106179316,inf,,,0.8158347364719101
755,,0.0,0.0,1.595110129221909,1.5764950378811011,0.9031168479533791,0.3712273915709645,0.7217377652455217,,,0.288175044534938,inf,,,0.8081359726995841
756,,0.0,0.0,1.603808473508023,1.59193925629361,0.8987576125062209,0.46227356722888474,0.8616507219616844,,,0.21876365787541036,inf,,,0.7999576187483238
757,,0.0,0.0,0.7984571454714257,0.7777285585081868,0.6176161635481349,0.692391527029164,1.0949310598035469,,,0.3943459996787778,inf,,,0.9176187819510176
758,,0.0,0.0,1.2855614530988546,1.2571238268748217,0.7397061976903748,0.36612463714006627,0.4350578824496164,,,0.47824363442641393,inf,,,0.937603441432569
759,,0.0,0.0,1.6472157967964725,1.6205465829897077,0.8012519422759443,0.22264659750831325,0.2515437765013529,,,0.5158180382284114,inf,,,0.8325171502743322
760,,0.0,0.0,1.3904859921124613,1.3755890021128057,0.7412502092342732,0.07968102331433909,0.13945807109005665,,,0.4732203808476458,inf,,,0.900770345372307
761,,0.0,0.0,1.5732175721114756,1.5417545795462533,0.5705636712405838,0.245666167805038,0.2228951426673791,,,0.4928685327679205,inf,,,0.955353424174695
762,,0.0,0.0,1.293467892235789,1.2695071184726177,0.7680184041674966,0.05210093069826649,0.11764775211373094,,,0.44144624493110796,inf,,,0.8647536704801075
