,bvp+hr_XAp0,bvp+hr_XAp1,bvp+hr_XAp2,bvp+hr_XCond1,bvp+hr_XCond2,bvp+hr_XDist,bvp+hr_XFuzz1,bvp+hr_XFuzz2,bvp+hr_XK2_1,bvp+hr_XK2_2,bvp+hr_XPermEn,bvp+hr_XSamp0,bvp+hr_XSamp1,bvp+hr_XSamp2,bvp+hr_XSpec
0,4.309752995058927,-4.309752995058927,0.0,1.6400065031079838,1.563919437052916,0.777951281723408,3.6298667858329217,3.5572951039495413,,,0.6153451465759925,4.2552960932798625,inf,,0.5157969113972998
1,4.582178352678719,-4.3225215793602585,0.0,1.6081655549180929,1.5824144764462416,0.7310497253439783,3.0061186900005943,2.762521111456615,,,0.6403206450210053,4.412714963479331,inf,,0.38194173754146776
2,4.7293438108634165,-0.7412347053245136,-1.1820317777599423,1.7022831372298017,1.6260381353391302,0.8205749192117692,3.261670699786692,2.4880469751493033,1.749510200912158,,0.6468212168108125,5.524242560824123,1.7561880034431874,inf,0.5247700758049834
3,4.307845866304499,-4.00280540752774,-0.30504045877675917,1.5634657682395448,1.5524349630845489,0.7812697715762214,3.8678674927850576,4.472094645644051,4.369079219129257,,0.6207552362147116,4.259219205412335,4.375757021660286,inf,0.6769263228679342
4,4.406111007434521,-4.259240640520036,0.0,1.6886645508515374,1.6529436080968087,0.7653210732835768,4.651260552698886,4.934158556725857,,,0.6380535849069913,4.2259730047005375,inf,,0.6299490895118193
5,5.225276420128432,-5.225276420128432,0.0,1.7206304349620845,1.7033897701281566,0.7438905387287802,4.9842860621399625,9.004157216399346,,,0.6097226960127671,5.155661066146513,inf,,0.5945393832168787
6,4.238400442293901,-3.336568520979043,-0.5910158888799709,1.6937364394039178,1.6773344292765338,0.7476160670371413,3.9276349639246533,6.082348381101905,,,0.6333676938231112,4.060265248569238,3.9133124962580177,inf,0.6633237325814705
7,4.389753920172239,-4.184898737230868,0.0,1.2521957439967106,1.247880014126196,0.7299446681060886,5.079553420204405,5.51621712332752,,,0.5677978065141052,4.31748811353631,inf,,0.7889252797678611
8,4.762606578129504,-4.762606578129504,0.0,1.5496163582840783,1.5389581703141348,0.7842734400544983,3.839275091168715,4.938817510622096,,,0.6097226960127671,4.701925854452399,inf,,0.7732520621362576
9,5.252305261017774,-2.923783261966561,0.0,1.6645484128164811,1.6454285752508009,0.725020342895992,3.2721240209324676,1.9142086651642543,,,0.6309483474627791,5.765657878374289,inf,,0.5641313908860606
10,4.0731024070624295,-1.327738278071597,-2.7453641289908326,1.701702594194526,1.67283197722095,0.7684670927706633,3.7295974602852313,12.2765526755447,2.6050781281511077,,0.6468212168108125,3.991787973897009,2.445963675839393,inf,0.682690314176124
11,4.855430340357694,-4.288963467315964,0.0,1.7264628083415658,1.7455673042431292,0.7663867502578446,3.0469509614732937,4.390691515364072,,,0.6180765742263259,4.8022670283642,inf,,0.6605131317001312
12,5.5875518474175285,-3.4642821453988675,0.0,1.6217310483749927,1.608884389852347,0.7017893710325501,3.747998684598021,4.589960059986774,,,0.6153451465759925,6.000393177852283,inf,,0.7829985086338394
13,4.676543080709371,-3.4450534027892368,0.0,1.6756112150453637,1.6886988517541237,0.7648736902986809,4.8578712327964455,7.976219673037029,,,0.6425374456860184,4.895819619667674,inf,,0.6638675174202989
14,4.816163945825494,-4.527194109075964,0.0,1.446546228637178,1.3992127936626517,0.7019347402338196,3.447058250626463,3.5084350228056684,,,0.6403206450210053,4.766382779571811,inf,,0.5840405432280387
15,4.209376802875074,-4.209376802875074,0.0,1.1686478412251815,1.1159040630740993,0.7091194122785008,3.776984727873362,6.224119331224403,,,0.6125606311107803,4.179902450583747,inf,,0.5600111670972355
16,4.484227766412871,-4.484227766412871,0.0,1.4609560852898957,1.4585891140707825,0.7127978414021309,3.8125956388536166,6.397321156040263,,,0.6425374456860184,4.362659832183032,inf,,0.4599062479924873
17,5.6407690946052975,-2.2751102014908033,0.0,1.6966699559840615,1.6598691059396513,0.8217564429896024,3.2071356183911925,2.70194534619348,,,0.6333676938231112,6.524763026726031,inf,,0.77361633424304
18,5.146148952847468,-4.785918526148145,0.0,1.690663563530516,1.6752405482175337,0.7572183136411734,3.6777375648378308,2.0147929885106883,,,0.6403206450210053,5.1672891041416324,inf,,0.7791074088303156
19,4.486467984630532,-4.27675266922151,-0.2097153154090219,1.4732608450920561,1.4725747629494448,0.7384066328006268,3.335574046189838,6.135430978978718,4.6306955239516965,,0.6333676938231112,4.372296350031306,4.637373326482726,inf,0.6266922185052042
20,4.92396002651586,-4.675612425182325,-0.13345520071483213,1.688295677108413,1.697746467314774,0.7523590669788719,4.011857271288089,2.7421604954667185,,,0.6357360191111145,4.84794971181916,4.6137050884379285,inf,0.6596001407961247
21,4.780531253268617,-4.780531253268617,0.0,1.559676680383826,1.5616363259494996,0.713630484806936,3.83412108053965,7.111695675231784,,,0.6509067234006624,4.746989799472717,inf,,0.754772611599656
22,4.982369557420051,-3.105677024125165,0.0,1.6568110907602804,1.619857614831138,0.7855983700000319,5.671471074351963,30.314807013682895,,,0.6528756675646988,5.221356325411908,inf,,0.5728682835616077
23,4.206914387231318,-4.206914387231318,0.0,1.6461353093415099,1.6404602178992322,0.7653371287664348,4.037140599041582,4.514514868465221,,,0.6447042257417027,4.174831813134787,inf,,0.6131865351092618
24,4.64485237548227,-3.5765363291213483,0.0,1.7224176218862328,1.7131790993910134,0.7963634828436847,4.21578461344494,1.833178699746293,,,0.6566669596287297,4.857914207078592,inf,,0.7321656267458132
25,4.683046145559943,-4.683046145559943,0.0,1.658686611239509,1.6570637024462658,0.7925522434031247,4.936108727467219,17.22313405879917,,,0.6207552362147116,4.552156150702475,inf,,0.7120911482266084
26,4.467903465364677,-4.467903465364677,0.0,1.616005049239917,1.6248405277707718,0.7678879090259839,4.238949793302312,3.4528280159123277,,,0.6528756675646988,4.449116556014747,inf,,0.6659713456651972
27,5.226533596237878,-4.250913991606807,0.0,1.6594819772378526,1.6525382374917934,0.7459233521092546,4.400943160908275,10.111469883422998,,,0.6333676938231112,5.386541599962876,inf,,0.8248864606762814
28,4.595501581439844,-3.7683112967806727,0.0,1.554635561191552,1.533916369218889,0.7602520320049363,3.8658421904077653,4.184971181939632,,,0.6447042257417027,4.585367558691911,inf,,0.5618019528869672
29,4.385878232272779,-4.385878232272779,0.0,1.725060583394945,1.692466012240241,0.7891551461803704,4.346650593271976,70.52221328956163,,,0.648888643467878,4.249050951983082,inf,,0.509195612069166
30,4.959823990201038,-4.100121165232857,0.0,1.6941340382156387,1.6689065565695398,0.7430805751827827,3.992540551711066,8.479936700888395,,,0.6447042257417027,5.044536845771937,inf,,0.8215615903940691
31,5.7037824746562,-3.099055144563202,0.0,1.732270335810455,1.6949084128441523,0.8124366332232457,3.587875643979924,2.285152999929195,,,0.62595550513784,6.3138147485056395,inf,,0.6376740807322282
32,4.667181703443375,-4.667181703443375,0.0,1.36905778668409,1.3770115111466337,0.7758415015669072,4.240982994206738,4.162467587245039,,,0.6528756675646988,4.590829068717434,inf,,0.5217890058508007
33,4.410081866540052,-4.391016837866505,-0.019065028673547448,1.6226125964563738,1.5903975470836909,0.8031864790758445,5.011490654294537,9.94395248426927,,,0.6447042257417027,4.368781407923861,7.038783541388542,inf,0.5316290113562693
34,3.589752847386888,-1.7976401520734284,-1.7921126953134596,1.6950661874945723,1.6661286057082476,0.8211050689347593,5.372693630873158,6.499394574338179,3.315215369386434,,0.648888643467878,3.542376995124935,3.3218931719174636,inf,0.4273589207220497
35,4.707358962647393,-4.440608621430708,0.0,1.7091131362413554,1.6863312474819707,0.8162240266902195,4.645620001384592,1.642652083440157,,,0.6333676938231112,4.387374241000477,inf,,0.6929565758924892
36,4.669290362689217,-4.669290362689217,0.0,1.5731530800149256,1.552585446687627,0.819780963594674,4.093365716725201,77.32252737617539,,,0.6357360191111145,4.522055279277585,inf,,0.6867616451128165
37,5.167346830570679,-3.9616325701041872,0.0,1.347869744226473,1.306220554063601,0.6672020523643349,3.561580249846385,2.410928521097812,,,0.6153451465759925,5.39629777490824,inf,,0.7411185336345686
38,5.185749629496732,-5.185749629496732,0.0,1.7044589647746515,1.6940400824226767,0.7291562964120176,3.872361031723553,40.3008423560855,,,0.6425374456860184,5.1252982024163956,inf,,0.8194631741210111
39,3.8150487843578085,-3.8150487843578085,0.0,1.5580912919686782,1.523914673165442,0.7384612996839399,4.466122046075394,2.6064461334781424,,,0.6380535849069913,3.7526479014640817,inf,,0.6498818203895057
40,4.631044147666514,-4.631044147666514,0.0,1.681024526815909,1.6515788536966918,0.8069723548073086,3.92487700740119,1.8097561822305557,,,0.6403206450210053,4.425630272156013,inf,,0.5766114021070535
41,4.948897480506795,-4.717948931416478,0.0,1.702245728223174,1.6840201284450729,0.7838469410870123,3.6342289726823327,5.431163267939537,,,0.6380535849069913,4.963433692611962,inf,,0.8211200077239771
42,5.010805548667463,-3.3405370324449755,0.0,1.3887812594432707,1.3381182426874427,0.7306650932821793,3.579139309881731,4.19267500434357,,,0.62595550513784,5.276338459829262,inf,,0.5657040121289828
43,4.643064461669395,-2.832269321618331,0.0,1.4053765029617704,1.3425647190403407,0.7691790101939475,3.12235862662471,2.963479944066909,,,0.6309483474627791,5.030838001413775,inf,,0.6939193812816186
44,4.706189023007538,-4.706189023007538,0.0,1.628037649684839,1.6270488138963852,0.6930329871144928,4.104216278045342,4.778150693981008,,,0.6357360191111145,4.689760254288711,inf,,0.7023022300410584
45,5.16756154955544,-1.119638335737012,0.0,1.6489769650344277,1.6161031572796836,0.7051430261814513,3.2423096912867457,3.9951247937350396,,,0.6309483474627791,6.587283383707366,inf,,0.6205341300300614
46,4.408932186030985,-4.408932186030985,0.0,1.7470288172448751,1.746888915470695,0.7871253115195825,3.8127468682554233,3.564247561904753,,,0.6180765742263259,4.248273044514837,inf,,0.7074851890713254
47,4.933773038509019,-4.127923442219212,0.0,1.6709255487436456,1.624593383572624,0.6729349257286701,3.144377756721285,2.6287578549266013,,,0.62595550513784,4.9941059921450455,inf,,0.6404896010677557
48,5.40855311997326,-4.867697807975935,0.0,1.6680139772431706,1.648056076333908,0.6916033208494949,3.1115828144134747,4.460920841258845,,,0.6309483474627791,5.454321615024618,inf,,0.6790670429380797
49,5.703782474656201,-3.669433392028823,0.0,1.6697396600087362,1.6268512969374165,0.8198693754442684,3.6515950865356346,11.149340999089194,,,0.6380535849069913,6.144874760407516,inf,,0.7254982171748123
50,5.302092141367327,-4.948619331942838,0.0,1.7092763213793067,1.683798242454926,0.6768371373815492,3.541140682458102,3.090011912989827,,,0.6566669596287297,5.307245997292338,inf,,0.6173172742286658
51,4.796221737140305,-4.796221737140305,0.0,1.7105449241373938,1.716849390338921,0.7541172604843379,3.6518602623730034,2.202315088336057,,,0.6357360191111145,4.770306918027945,inf,,0.6272079063040612
52,5.458359595664793,-1.4737570908294941,0.0,1.156760115495822,1.1459907994777565,0.7418606286377236,3.808110059588231,2.9601925558784745,,,0.6447042257417027,6.680177130600062,inf,,0.7337312332405115
53,5.028323224935884,-3.2724403311191423,-1.3536170358218695,1.600459331463784,1.55312086383888,0.7871673240218469,4.188333618315592,4.545235611405761,2.225360417109331,,0.6403206450210053,4.941420225074783,2.203464847196304,inf,0.5348814790444599
54,5.163535407455066,-2.3408027180462967,0.0,1.5980433026472323,1.5615673255273959,0.7198678566601168,3.9272119324761356,3.5996074448313227,,,0.5947193981915972,5.918627223155716,inf,,0.5075724390741395
55,4.539139796038881,-4.539139796038881,0.0,1.629341206788626,1.607155057900047,0.8221470647244882,3.503415947496341,2.5496555069103572,,,0.6207552362147116,4.495817649060728,inf,,0.644998164576401
56,5.7037824746562,-1.444958226912904,0.0,1.578610416259466,1.5427970093298853,0.7103981382543217,3.0574941321550857,3.9958907505692207,,,0.5978297680564633,7.076831609026071,inf,,0.7088833843932937
57,4.93427658518449,-3.634917084419241,0.0,1.362445633154925,1.3067210368380644,0.699601390475095,3.0239212689497865,3.081092606179548,,,0.6284777104787076,5.169240324272894,inf,,0.5308477208329235
58,4.901848325413547,-4.72211388681505,0.0,1.7043396522083316,1.680589494562538,0.7114232835442577,4.141881153440942,10.170734081115961,,,0.6447042257417027,4.831095380264178,inf,,0.6945091269522493
59,4.513509713990257,-4.513509713990257,0.0,1.5856802695977241,1.5879525663682823,0.66525196509008,3.6035344992834712,11.663315230423892,,,0.6357360191111145,4.4529260844314145,inf,,0.6698765746738645
60,5.425761902233804,-3.2916288873551744,0.0,1.6217972470696767,1.632242985555528,0.618298495113283,3.4248295435850427,2.969023508708843,,,0.6038851895711802,5.866301404153976,inf,,0.6390921378449409
61,4.254343011136383,-4.254343011136383,0.0,1.7180823246461887,1.6403704762653244,0.7411278896247533,4.050050073678762,6.669696467509768,,,0.62595550513784,4.207140056367445,inf,,0.4966608343515638
62,5.255863361410822,-5.063148371492425,0.0,1.7280215200925457,1.6528566672689338,0.6323004637665378,3.3229363360528907,4.647844838025079,,,0.6333676938231112,5.240048458424061,inf,,0.521281276500661
63,4.646832028697941,-4.646832028697941,0.0,1.2946854992642431,1.2499233484630157,0.5604879011664142,3.106170116536421,2.9660396025359512,,,0.5567373465730988,4.602950429249779,inf,,0.7301660851071048
64,4.593139501816875,-4.057273226604906,0.0,0.9441916671265165,0.9202867981953918,0.7293006009607708,3.8688316909435305,4.3835966720128905,,,0.6619902821573977,4.602950429249779,inf,,0.8158919287099589
65,4.770483695705463,-3.355240199312842,0.0,1.533066297058302,1.5307642293953572,0.7463026063874406,3.730972168084205,6.681467958636029,,,0.6468212168108125,4.88547215114225,inf,,0.78558688373511
66,4.357245480295867,-2.875782016995272,0.0,1.4463075489100277,1.42189936518706,0.7709545609260771,3.3266640715980174,3.128755665420087,,,0.6547956803312163,4.690970175791424,inf,,0.5289647987858337
67,5.168919524938492,-5.168919524938492,0.0,1.7176378578869813,1.7033426117500887,0.6277119388925381,3.536172727410475,3.4505671598921905,,,0.6584896970785714,5.095830140159488,inf,,0.6492797250697435
68,5.0020381834949506,-5.0020381834949506,0.0,1.745557069081291,1.7413237663917103,0.6968496787936176,3.7102796019673585,4.607051385013958,,,0.6403206450210053,4.765078147945146,inf,,0.5580860101942365
69,5.293859737443078,-5.293859737443078,0.0,1.6645299649749394,1.6278764541306927,0.5962752035671347,4.343835015427978,4.227378662922171,,,0.6153451465759925,5.188964829620673,inf,,0.8302994642816236
70,5.599995731042947,-3.490664005683437,0.0,1.5763451166562068,1.5298533617188288,0.6738044922108192,3.741525606324567,2.4523365806461657,,,0.62595550513784,6.036926921184739,inf,,0.5855860651232003
71,5.6999529322221685,-3.4389716024407084,0.0,1.7018764173973815,1.6441330049348333,0.6015019519715963,2.664952560970964,2.0396042938862458,,,0.6207552362147116,6.203558262235607,inf,,0.7263437164760185
72,5.0270320787938605,-4.32324758776272,0.0,1.5260985299161478,1.5282325556799337,0.7203947528026644,3.1385722959045377,2.5534469391242753,,,0.6357360191111145,5.063684515186071,inf,,0.8231409955121954
73,5.254520413182161,-2.837441023118367,0.0,1.6598642439925877,1.6366018747874536,0.7063998334989648,2.8468516076685235,4.050567748746548,,,0.6180765742263259,5.820316290912153,inf,,0.6826288393946448
74,5.479528975063276,-1.2420265676810092,0.0,1.527739947628167,1.5186959905638162,0.6390222515153543,3.41655082152855,5.445190660738234,,,0.6153451465759925,6.907755278982137,inf,,0.7457792797030397
75,,0.0,0.0,1.603550332364562,1.6220405295884495,0.7696865018088804,2.7884762264250953,2.4858051798535215,,,0.5677978065141052,inf,,,0.8700702551302987
76,5.372461588017799,-2.9548538734097898,0.0,1.6491873196158662,1.6428494259676287,0.6929222366002645,3.5496246963042903,2.687423199806151,,,0.6447042257417027,5.809142990314028,inf,,0.8111714425690099
77,4.273826281220869,-4.273826281220869,0.0,1.579342099519255,1.5720880272525561,0.8269668759456585,4.38437717989606,8.975422641736051,,,0.648888643467878,4.01000341378835,inf,,0.6930309194413193
78,5.05222412492985,-2.526112062464925,0.0,1.6578966578514458,1.6438419895833793,0.661546669807965,3.6084097156205246,4.692564135079106,,,0.648888643467878,5.73424168214091,inf,,0.6254011315535949
79,5.256432166635242,-2.4705231183185634,0.0,1.650565305537467,1.6322606125704886,0.7471343114950371,3.030075810694689,2.4098058030530285,,,0.6233814453054027,5.960827577646092,inf,,0.6244596697549031
80,5.1887600147222726,-2.231166806330577,0.0,1.7163920622569426,1.7125702787538768,0.7543418366480702,4.296458001348538,2.2421413603073255,,,0.6509067234006624,5.973842945758163,inf,,0.5539910084818142
81,,0.0,0.0,1.5779203208860824,1.5530776373323283,0.684544460227123,2.483657030232081,2.5593254496473583,,,0.552929491858785,inf,,,0.8896841231644917
82,5.703782474656201,-3.2131307940563265,0.0,1.2313939370364944,1.2190065800737824,0.5164147763422563,2.167595754748069,2.2436807865900046,,,0.5158180382284114,6.277666234389328,inf,,0.7787149970565028
83,,0.0,0.0,1.5756333111960936,1.5509692138025422,0.5598073911326339,2.014356948651028,2.4071864990392453,,,0.5329562494928909,inf,,,0.7561919540915475
84,5.703782474656201,-3.6504207837799685,0.0,1.5229337302590062,1.4542960463715542,0.46250523260168774,2.256460628799259,2.5422832375509223,,,0.49759852643134905,6.15006957728462,inf,,0.6310288543835569
85,5.703782474656201,-0.15210086599083203,0.0,1.7400348421150595,1.7343709668432965,0.5234331309321277,1.3140611567213047,1.1507991038897736,,,0.49759852643134905,9.328123407632566,inf,,0.752117228753926
86,,0.0,0.0,1.5467347874017434,1.515342520862096,0.8397361001700167,1.064908929335503,1.109656810498754,,,0.5022576003740722,inf,,,0.8351054410077929
87,,0.0,0.0,1.5793337717858607,1.5232014381017214,0.5045741106314957,1.128919743143425,0.9913282001872419,,,0.4880666971167561,inf,,,0.585425444770093
88,,0.0,0.0,1.6923736592874108,1.6933266251081822,0.8850133319424902,1.175812098205549,1.5204997385325971,,,0.541134803179459,inf,,,0.8268159622548502
89,,0.0,0.0,1.6326108910679662,1.6015016548833045,0.8308787495338339,1.3594593166713427,1.3484364572038208,,,0.552929491858785,inf,,,0.849745095198277
90,5.703782474656202,-2.015336474378525,0.0,1.599252889404259,1.5862602162803923,0.6677918353293092,1.7251678861922137,2.0524315085880227,,,0.524519217297268,6.744125855200335,inf,,0.6729638496957001
91,4.689114953245781,-2.391448626155348,0.0,1.6780620693465989,1.596384885562156,0.624130038482171,2.8767563386413304,5.142467956625564,,,0.581717464821069,5.336827221309912,inf,,0.7623339016749231
92,5.160817183217576,-5.160817183217576,0.0,1.5550277510330548,1.5422863520037922,0.6329211561298184,3.111434939136165,2.478030833306844,,,0.6447042257417027,5.1252982024163956,inf,,0.7705316201572904
93,4.709343808402883,-2.1392176671738543,-0.9532514336773726,1.6916728482905805,1.6271500659253046,0.7164823643312069,3.044771169542684,2.5699248192434334,2.6375923972727624,,0.648888643467878,5.049722682804303,2.4458192610799534,inf,0.4633385699642192
94,3.348624573063214,2.0086484842036185,-5.357273057266832,1.6699310756820562,1.640101038136239,0.746384220267429,5.179507672397485,16.253913218925383,2.4516892920223587,,0.6357360191111145,3.3144082515897644,2.454802028388892,inf,0.47090783836641376
95,4.625363703317907,-4.625363703317907,0.0,1.7048053326763364,1.6888000172378739,0.8044921046965188,4.65207702531398,12.131231708561213,,,0.6380535849069913,4.55638002181866,inf,,0.7845300287775494
96,4.730842705916722,-3.0380883867377246,-0.30504045877675917,1.6285551635544961,1.5598465815343203,0.7260115399190106,2.942379971567592,1.9610186040635011,6.6423067474937465,,0.6380535849069913,4.758580399287626,3.876395827784995,inf,0.5365344284371729
97,5.157487145879242,-4.762079798028499,0.0,1.603064149773856,1.587330029918679,0.7178555542697492,4.515978481094549,16.857765713721253,,,0.6528756675646988,5.017324282247053,inf,,0.49846473712589046
98,5.703782474656201,-3.4412820930425747,0.0,1.4811589815665633,1.4671022484160328,0.6498945298247835,3.3218880269142677,5.149191475623178,,,0.6284777104787076,6.209067918046577,inf,,0.733444941094504
99,5.418626988982805,-2.8538102141976105,0.0,1.5877245931096677,1.576908565777644,0.6571986196383388,2.847024807083875,2.8383579228485276,,,0.6447042257417027,6.000393177852283,inf,,0.5825656968833255
100,4.2093355599556075,-4.2093355599556075,0.0,1.7579527021016785,1.7001548694718833,0.7969199000745367,3.566198060503379,3.3527805162228783,,,0.6528756675646988,4.176277944984787,inf,,0.6213981802395757
101,4.616731069107932,-4.616731069107932,0.0,1.5457787272430306,1.5092857224403522,0.6558169610679071,3.8311246189732047,3.1155238149444204,,,0.6468212168108125,4.5078418420275295,inf,,0.5405255631006691
102,4.1806482702566,-3.7295829203232036,-0.019065028673547448,1.473073841202158,1.4263809338617397,0.7668433624660098,3.999634834312116,2.4941571107718574,,,0.6233814453054027,4.008778673892454,7.3987862754199485,inf,0.4792624087894721
103,3.9279512685204905,-1.602017770347702,-2.3259334981727884,1.5299955477813598,1.4816644941987707,0.7552216518513393,4.244881325690907,9.321989228160176,2.7942225525346434,,0.62595550513784,3.8971343929343956,2.70640951164475,inf,0.6995424376700079
104,4.824707936996196,-4.149248825816729,0.0,1.7040836130897943,1.672491598025431,0.8269061783469838,4.132131111998191,6.479304778739507,,,0.6447042257417027,4.736798628466528,inf,,0.4777289444698283
105,3.8280656284449748,-1.0827014994541422,-2.7453641289908326,1.648265121843894,1.6370293747632896,0.7848031075274549,5.013847409211173,27.470417838159776,2.7906035322991234,,0.6547956803312163,3.7819698771799484,2.655781772556453,inf,0.6826318602913501
106,4.32419364435609,-4.32419364435609,0.0,1.605519188416714,1.6007372980296024,0.872906243325332,4.107872098782825,17.690120101279177,,,0.6153451465759925,4.314160323443636,inf,,0.5757035549842985
107,5.196964327293702,-3.429996456013843,0.0,1.6220518422808352,1.6019180527764443,0.7852384534899538,3.728691370579842,2.783601277888632,,,0.6403206450210053,5.549631794828943,inf,,0.6270102201345799
108,5.6564591731721885,-4.694861113732917,0.0,1.7443083214160127,1.71118990910106,0.7529402589134048,4.306680184794117,14.027389393000835,,,0.6309483474627791,5.824068640530703,inf,,0.7666948206788633
109,4.782752548800387,-4.2247647514403415,0.0,1.7349771029843217,1.716820276417419,0.8157714641624363,4.551256630306455,10.366077762308176,,,0.6284777104787076,4.710530701645918,inf,,0.7551102994552065
110,4.706501097715018,-3.4984991493014967,0.0,1.7377284773558985,1.7100645166598107,0.7300570037369393,4.399223348435531,4.838630450276151,,,0.6357360191111145,4.9183600179870846,inf,,0.690071795839002
111,5.2290226288983845,-3.189703803628014,0.0,1.7093970866846382,1.7073315978760584,0.7407437678934801,4.701055470953118,2.375364357187869,,,0.648888643467878,5.602429980395914,inf,,0.7093476598506383
112,4.844394599771908,-4.844394599771908,0.0,1.7281484845164736,1.7320295533004484,0.7561257392816711,4.653118045103332,14.476974288868764,,,0.6333676938231112,4.824155727153637,inf,,0.6400138610622097
113,4.404633476034851,-3.7945525584813327,-0.6100809175535183,1.6892582124956645,1.6616321599931059,0.7657510431373139,4.054756262398646,5.633776400678852,3.750360842321281,,0.6403206450210053,4.318321794284888,3.6235072522277876,inf,0.7945286479090561
114,4.077015808943283,-2.0370577408737067,-2.0399580680695766,1.594499251162993,1.5583570834459073,0.7757083286920762,3.956438419598432,2.5254757093876186,2.671651589437758,,0.648888643467878,4.056406722881708,2.6783293919687874,inf,0.6795901050159954
115,3.721891170318654,-3.721891170318654,0.0,1.4356416878659286,1.3629394902477934,0.8178908696574357,3.5078979046300764,2.2188061903080416,,,0.6566669596287297,3.703654739696091,inf,,0.6850280565174726
116,5.142954611116412,-5.091525065005248,0.0,1.674516971189743,1.652988518374045,0.7796132459111537,4.50319123410429,11.078739208860513,,,0.6447042257417027,5.095830140159488,inf,,0.6665570667036205
117,3.8859677015276386,-2.316923218463897,-1.5690444830637416,1.7167216515243995,1.707444078881593,0.7691751162834258,3.722082769736536,2.4844984979840814,2.529900857801292,,0.6447042257417027,3.7650408150795003,2.444027102967076,inf,0.7847907831746147
118,5.298223618861741,-5.298223618861741,0.0,1.3916527305862745,1.377032255523304,0.736617503991626,4.2329040625752885,9.109448055628299,,,0.6547956803312163,5.22754829565983,inf,,0.802734623670349
119,5.2030391378104035,-4.8735133257490775,0.0,1.5466938391750806,1.5242619451010453,0.7249701162052302,4.983376825015116,15.997841405958216,,,0.6333676938231112,5.225480042595771,inf,,0.7370170753276835
120,4.58644639164628,-4.58644639164628,0.0,1.5133513607491376,1.494114351068416,0.7545729275727905,4.134258457555899,51.36105701629381,,,0.6284777104787076,4.491841500681089,inf,,0.5482054270306739
121,4.102149203352276,-4.102149203352276,0.0,1.7133455018027557,1.6877216077459536,0.881017682567174,4.6770274963302185,3.2825792336946717,,,0.6333676938231112,4.062200108895533,inf,,0.6398050585160835
122,3.96715811197235,-3.96715811197235,0.0,1.7352186639023144,1.7094341128217891,0.7798477324479108,4.218385912796658,12.106946592194529,,,0.6528756675646988,3.913691062528843,inf,,0.5203409462705895
123,5.325606279129096,-2.9468354744514333,0.0,1.5709248518848975,1.5617333248724998,0.706858950123649,3.72475884815229,2.2565096085820846,,,0.6233814453054027,5.787164083595252,inf,,0.7000378957958943
124,4.952027916875752,-4.572372443248611,0.0,1.6580941876975714,1.671444545027942,0.7232501644200149,3.8981507322017257,12.348066077850865,,,0.6528756675646988,4.947660494934867,inf,,0.7075833292802528
125,5.400999771234708,-4.986923122106714,0.0,1.6488662277484378,1.6361572629148797,0.7580383586733592,3.717252319144127,2.3138634671085514,,,0.6233814453054027,5.421112944027964,inf,,0.6463074670832366
126,5.239498860341327,-4.994988913525399,0.0,1.3953934513560984,1.3309914650495538,0.731166177392945,3.1551121625725074,2.9964323533315955,,,0.6357360191111145,5.090400262565118,inf,,0.5920184955457815
127,4.72702842218128,-4.5537040467012995,0.0,1.6696544790765295,1.5954842886473013,0.7267466173005279,3.367759378068471,3.268103213548161,,,0.6509067234006624,4.697041839859974,inf,,0.6838458129368054
128,4.770285180508384,-4.770285180508384,0.0,1.7310447101560331,1.7077813766606555,0.6701576954623123,3.192659139719252,3.990122752195013,,,0.62595550513784,4.66232859982804,inf,,0.7545249598948665
129,5.703782474656203,-4.182773814747882,0.0,1.571563789448784,1.5483548603347077,0.6719217428353594,2.664635927333549,2.829116244254805,,,0.5748741956352443,6.013937402960041,inf,,0.8016378966067267
130,4.793608976642106,-4.793608976642106,0.0,1.732078296027079,1.6919567635684172,0.6867326812923784,3.5099904285523036,6.809445781567701,,,0.648888643467878,4.755993075722675,inf,,0.7078436443430666
131,4.204717333277402,-3.1180106988851968,-1.0867066343922047,1.6473872874297528,1.627960955834512,0.7185738902085254,3.592006004625296,6.91918093100914,3.474220348008375,,0.6380535849069913,4.120004309002678,3.2445093724751737,inf,0.8668141691254078
132,5.445095967078805,-3.7934168570649005,0.0,1.7498027865527657,1.727982087388483,0.7327915666220408,3.6284007863030396,2.660339527533697,,,0.6509067234006624,5.748082733552781,inf,,0.6882181803167805
133,,0.0,0.0,1.7387238056656575,1.7071629372867971,0.6087275723557594,1.8298051773187491,1.6344235514991523,,,0.6038851895711802,inf,,,0.7671682158191935
134,,0.0,0.0,1.4985312585278678,1.4823110624684959,0.7079926390447159,1.3481458066793055,1.4629432261058892,,,0.44694259446804574,inf,,,0.7973467112661182
135,,0.0,0.0,1.5806773014441535,1.590999343919235,0.7326531026066327,1.4534352418472698,1.5251420162475715,,,0.3338418249889409,inf,,,0.634026134006815
136,,0.0,0.0,1.7227392307177982,1.7306947849985974,0.4907113595592433,0.8407093455728593,0.860859216628347,,,0.38163879478178075,inf,,,0.9181756990728001
137,3.7842578255240853,-3.7842578255240853,0.0,1.6138698301236933,1.5663926155549435,0.7478889844326447,3.557343060621868,1.6006597600363488,,,0.6153451465759925,3.7441572844189226,inf,,0.7147869847232687
138,5.435473776933466,-3.551176200929864,0.0,1.596794093131308,1.5350517634652965,0.705460388689639,2.941660229914816,3.992024248312792,,,0.5978297680564633,5.769210279978656,inf,,0.7186498061311862
139,4.104200518501087,-4.104200518501087,0.0,1.773433205560492,1.740600340907462,0.7743206675039344,4.5257132378908835,6.075268338428115,,,0.6333676938231112,4.090352540952563,inf,,0.784030765565205
140,5.703782474656201,-2.5857147218441447,0.0,1.3154555924774085,1.240359270557416,0.6875070414064577,1.9551586988890652,1.0650081002092704,,,0.6333676938231112,6.49491006357635,inf,,0.7469647305393375
141,5.703782474656199,-0.9886556289404079,0.0,1.4664226536448504,1.4777918848227316,0.5858983976180695,1.8234949963029299,1.7035565587062471,,,0.5370774965580548,7.456321230730975,inf,,0.885963562587653
142,5.079013019050672,-3.1828481586050876,0.0,1.646776425967709,1.5893923123044562,0.7667738810879061,3.704498257728141,4.870839409451552,,,0.6038851895711802,5.4621443407058266,inf,,0.7170728080976442
143,5.16638318378032,-5.16638318378032,0.0,1.4854542764537866,1.4788914464010685,0.7063613432365077,3.1228815470358398,4.627752316785264,,,0.6153451465759925,5.022370550314677,inf,,0.5190254407978208
144,5.262299786144484,-3.823937844598325,0.0,1.3930801741449166,1.3247279468743927,0.7247027526824253,3.0554824968397987,5.479245733287957,,,0.5287703885177266,5.518686990979521,inf,,0.5793629131414783
145,3.8725050444723714,-0.8030354280312322,-3.0694696164411392,1.578451396110387,1.5133611162537914,0.6136238101024275,2.841491204489911,2.14506786625535,2.541613179084313,,0.5947193981915972,3.8553276617516006,2.4708329225763386,inf,0.5632348260126976
146,,0.0,0.0,1.6642414867267048,1.6488488814177722,0.6576199814494492,1.8982536814628417,1.2062873941761536,,,0.5713653840954815,inf,,,0.8289353171602046
147,,0.0,0.0,1.5897115565157227,1.601365335785215,0.6042327118439832,2.6510066517184256,3.328590343853015,,,0.5022576003740722,inf,,,0.9041692743405356
148,,0.0,0.0,1.6660232265515684,1.6557615668463879,0.6833728144687214,2.2232228453567524,2.800437899761347,,,0.5370774965580548,inf,,,0.6319166940104093
149,,0.0,0.0,1.55444704999222,1.5383402208517662,0.775716667449169,2.8205726729890634,6.606658332835272,,,0.47824363442641393,inf,,,0.8619388543642402
150,,0.0,0.0,1.1789523285201813,1.169538603889598,0.7740866766964746,2.5526443019055045,3.2221571504540862,,,0.4302020962658841,inf,,,0.858964769365218
151,,0.0,0.0,1.6090215843587172,1.601662151042487,0.8286368925385517,2.9706166878618294,2.9567797608876716,,,0.5783247308855777,inf,,,0.8699869894778297
152,5.249549854204152,-4.112147385793252,0.0,1.5442939604496746,1.5375682242632047,0.5892541970879412,3.329122695729274,2.329856146925813,,,0.6284777104787076,5.443985605693956,inf,,0.8833062151751909
153,,0.0,0.0,1.6425043847085337,1.5726190015258068,0.6784462517331153,2.7058234296786505,2.6995551949373664,,,0.6333676938231112,inf,,,0.6692883366165912
154,,0.0,0.0,1.6158119132506865,1.6097360187568646,0.5941842194109107,1.6762999952123052,1.45261394728758,,,0.552929491858785,inf,,,0.9284286569207432
155,,0.0,0.0,1.610069630664876,1.5962546521567407,0.8463257347757825,1.5960422045518738,1.7479211129201475,,,0.5329562494928909,inf,,,0.8820589470495053
156,,0.0,0.0,1.042818286902195,0.9610040027237947,0.693057590601751,1.7688571172850138,2.1351201457302356,,,0.5329562494928909,inf,,,0.9169897043567176
157,,0.0,0.0,1.5840839469350483,1.5891769557347146,0.5677622262706412,1.7507066098142283,1.841785127375217,,,0.5451288209179292,inf,,,0.9370926831793372
158,5.703782474656202,-0.3612395567282261,0.0,1.5311567839609421,1.4978286310378368,0.8672483446711399,2.525588676593995,2.754961901852382,,,0.6233814453054027,8.463125970145962,inf,,0.8179087195820516
159,,0.0,0.0,0.63004843364905,0.5990601569317623,0.6451481038464959,3.363389216756039,4.985024235899078,,,0.6380535849069913,inf,,,0.9395162810797573
160,,0.0,0.0,1.632978857721205,1.6059342108112962,0.878581600913666,3.452577565469493,2.6095900597669264,,,0.6153451465759925,inf,,,0.8911421940593118
161,,0.0,0.0,1.096001360568559,1.0922003006355134,0.8314688328736857,2.944932770647512,2.6508086598405574,,,0.5978297680564633,inf,,,0.9154914107007507
162,,0.0,0.0,1.6929016961821444,1.6717072601335874,0.7448311773301255,2.794483989093449,2.155286920924083,,,0.5490601803369085,inf,,,0.9122140957161211
163,,0.0,0.0,1.6641961397627736,1.6436309702042031,0.8511967938541425,2.8887179947119317,6.943534093931191,,,0.5451288209179292,inf,,,0.9009909271657692
164,,0.0,0.0,1.3195580988663598,1.2380757036749213,0.7967625578293919,3.207038120355861,3.1662914790687933,,,0.5068466436745385,inf,,,0.910080248233645
165,5.703782474656201,-3.669433392028823,0.0,1.6114701424303692,1.595670868723708,0.7281768583588446,3.600486601248043,3.2229692880865057,,,0.6380535849069913,6.144874760407516,inf,,0.7388377632582225
166,,0.0,0.0,1.5780882412104702,1.5304901934905069,0.8632942506306402,3.4466839790762718,4.478320281003208,,,0.6309483474627791,inf,,,0.9050304486842188
167,5.703782474656202,-0.34222694847937213,0.0,1.383201179460051,1.355464173242267,0.5813438680248071,1.8497551935331171,1.6842090007462678,,,0.4928685327679205,8.517193191416238,inf,,0.8292749130567829
168,,0.0,0.0,1.5630504502529903,1.5081071188560256,0.7440816953109078,0.8689435891216919,0.9317625411498703,,,0.3751344627501719,inf,,,0.8493032478629331
169,,0.0,0.0,1.6336646037542166,1.602740975352167,0.32955646148472684,0.8595334717193142,0.9377555117151439,,,0.3943459996787778,inf,,,0.9000332370161289
170,,0.0,0.0,1.6506124995735807,1.5916643664029817,0.9112371793170235,0.731426629403644,0.9765863439040717,,,0.42445136339222655,inf,,,0.742695006099379
171,,0.0,0.0,1.6085484397515115,1.5714540791396379,0.34453181104735336,1.2305046673384097,1.3894007994487099,,,0.47824363442641393,inf,,,0.799163381318424
172,,0.0,0.0,1.172849061025279,1.1355309299138916,0.3431511935461501,1.3950080176548045,1.6434599930241656,,,0.38804190201132227,inf,,,0.6679947323205045
173,,0.0,0.0,1.6543102638455365,1.6275562746964374,0.9129739083215578,1.1321988931394922,1.3538734244586186,,,0.3265551233283096,inf,,,0.7665483063734665
174,,0.0,0.0,1.7075556772986649,1.6853420762963722,0.9004531578679338,0.8194042243013057,1.1052641595090715,,,0.27183033608702345,inf,,,0.7637844750931758
175,,0.0,0.0,1.4476218992891725,1.4337083276761842,0.5324345594172937,0.896081818460633,1.076148164228115,,,0.41268473150466,inf,,,0.6364931269464323
176,,0.0,0.0,1.6096793914609036,1.5207853951038148,0.8086200046847175,0.9002072712452374,1.0502828305487673,,,0.552929491858785,inf,,,0.766555293098095
177,,0.0,0.0,1.756233100950903,1.7258070704019919,0.8642449640227707,0.7134234808169628,0.8299456059075829,,,0.47824363442641393,inf,,,0.7158714625317919
178,,0.0,0.0,1.6618241594826109,1.6226842960853132,0.9016743957596168,0.7466330265119656,0.890372748399065,,,0.4732203808476458,inf,,,0.7429615966724421
179,,0.0,0.0,1.735772587098825,1.6934065244946197,0.8505298935229533,0.9245987240803094,1.1015811156945943,,,0.3943459996787778,inf,,,0.8015776522634647
180,,0.0,0.0,1.5265993645558007,1.5517525004160786,0.7328457406685729,1.1887974845678335,1.1237563738614131,,,0.468121228110369,inf,,,0.6527879614851548
181,,0.0,0.0,1.5650841566206057,1.5151619420394942,0.7626373407818764,0.9258609471641839,1.177227105494856,,,0.5113665138247345,inf,,,0.7890923854193579
182,,0.0,0.0,1.5385980160951984,1.5142592923278742,0.6170665981728612,1.30623863749187,1.3358775298127428,,,0.48319206230712763,inf,,,0.7603802724497868
183,,0.0,0.0,1.7403489277210722,1.674339109222556,0.8303338513661227,1.1931305775159888,1.2072320330374486,,,0.468121228110369,inf,,,0.7131668929722736
184,,0.0,0.0,1.5467687425626746,1.5165119894451062,0.42091645047379744,1.2190994605269196,1.4457453628664785,,,0.5370774965580548,inf,,,0.7197247317133715
185,,0.0,0.0,1.6557218655548307,1.645507807419775,0.8629922982176519,1.0592300132390404,1.125562446130306,,,0.5677978065141052,inf,,,0.8506839341760514
186,,0.0,0.0,1.529500999025731,1.4905205894785354,0.8763624697534182,1.0767751147422133,1.3666599096678065,,,0.4576907132971797,inf,,,0.8150498607392302
187,,0.0,0.0,1.596657104760506,1.5749553308142432,0.8849117751087722,1.1561549989333009,1.6150811682093307,,,0.5287703885177266,inf,,,0.8509117335607365
188,,0.0,0.0,1.5491371657131654,1.5428114177599657,0.8842269947264093,1.075069735130046,1.3816283746732358,,,0.4629450596409901,inf,,,0.8489415838373888
189,,0.0,0.0,1.4312851435253466,1.39735156648747,0.8671810861891591,1.2694132856624538,1.6299041576543902,,,0.3265551233283096,inf,,,0.8446364055050952
190,,0.0,0.0,1.695301737485004,1.691794420549491,0.8951130501677859,1.1495269756245599,1.5337043500901557,,,0.45235697871908603,inf,,,0.8457446098864461
191,,0.0,0.0,1.5252757461619146,1.529593909359153,0.26157069702166946,1.3526009836485198,1.625487342795737,,,0.47824363442641393,inf,,,0.7697849142677181
192,5.703782474656201,-0.6274160722121821,0.0,0.9641496329940331,0.9119255927388532,0.536646606732946,2.0842764508673124,2.2209097117435657,,,0.5748741956352443,7.911057387845922,inf,,0.9441269123352866
193,,0.0,0.0,1.424669796236923,1.4085650454858207,0.5867453325087394,2.203467652642016,2.399082790876449,,,0.6403206450210053,inf,,,0.9286540144700689
194,,0.0,0.0,0.6838576135121989,0.6514542845694615,0.6827202031217173,2.131378077400505,1.8903431727306397,,,0.5748741956352443,inf,,,0.8995500803232755
195,,0.0,0.0,1.7639478114764349,1.7560203744158225,0.43478087494559237,1.9706796185031912,1.5697485985352548,,,0.6125606311107803,inf,,,0.9379598802683937
196,,0.0,0.0,1.4462257304327168,1.4248207613390242,0.4543715988320599,0.6549758276088767,0.6054950512011448,,,0.5748741956352443,inf,,,0.9137503250914747
197,,0.0,0.0,1.6202987233548947,1.597180547883942,0.5152049192461172,0.2261363175752543,0.27260308890945784,,,0.5370774965580548,inf,,,0.7685731132896002
198,,0.0,0.0,1.677045922518694,1.6037337951779262,0.31270307189422963,0.854061926249593,0.9186207784369236,,,0.4629450596409901,inf,,,0.7928374866359681
199,,0.0,0.0,1.6812839608392554,1.6622737375555312,0.9238747249389074,0.6590387595219586,0.9011807280632074,,,0.3685265678147087,inf,,,0.6646104031523896
200,,0.0,0.0,1.746002096289446,1.7099272650425776,0.9237549381707173,0.6563826295016028,0.8885156676987681,,,0.31914402280573173,inf,,,0.7023259166131435
201,,0.0,0.0,1.58495813313599,1.5204818408243745,0.9503764048986937,0.7958262542474196,1.1986036487651353,,,0.288175044534938,inf,,,0.7275645941584539
202,,0.0,0.0,1.4815738262187708,1.4720115563283815,0.3905097333602386,1.0632913352227382,0.9748039591278503,,,0.5287703885177266,inf,,,0.7818677110513751
203,,0.0,0.0,1.6279977139458368,1.5962793926874763,0.9203161209140692,1.5719062820505212,1.7303022738268037,,,0.4732203808476458,inf,,,0.7915703194525766
204,,0.0,0.0,1.5699713422389565,1.571015385621322,0.5152042198920249,0.891106159080013,1.0153765198106797,,,0.4629450596409901,inf,,,0.8941552041743397
205,,0.0,0.0,1.6789815619268251,1.6714268511530532,0.8795384021697138,0.7493391368473499,1.107357775942865,,,0.43586655696697996,inf,,,0.7631069848901634
206,,0.0,0.0,0.684115483061676,0.6764826544155382,0.7972059921066058,1.2582400760157233,2.1125015718423175,,,0.36181263880445963,inf,,,0.8785534276156491
207,5.620604812989006,-0.9367674688315011,0.0,1.2115319407668976,1.0865425183371158,0.5854207993764151,1.2380994982049796,1.2256178768439243,,,0.5490601803369085,7.382213258577253,inf,,0.7470929106648296
208,,0.0,0.0,1.7071979349903952,1.693671185676404,0.8683307037206294,0.4744335388705994,0.5140201254209558,,,0.48319206230712763,inf,,,0.832145626098045
209,,0.0,0.0,1.7435670053916255,1.7067178643602368,0.5903543034778213,0.31199727414345757,0.36958044988883715,,,0.552929491858785,inf,,,0.8258670741861293
210,,0.0,0.0,1.5477912062154007,1.4667648149199894,0.6105277690678744,0.23977406391598968,0.3218731763938094,,,0.5068466436745385,inf,,,0.7592697180706366
211,,0.0,0.0,1.0774836734357787,1.0667259977246897,0.4183470419485994,0.5254078593970146,0.4608299728626122,,,0.48319206230712763,inf,,,0.8815180492961031
212,,0.0,0.0,1.6374259430659663,1.6178812604779556,0.5793282224342213,1.1768994977062917,1.2609668012270279,,,0.49759852643134905,inf,,,0.8971466069718919
213,,0.0,0.0,1.4306305872543417,1.4187360467932317,0.5969736042520042,1.0555929869322536,0.8056005051624306,,,0.552929491858785,inf,,,0.6610321479223704
214,,0.0,0.0,1.6234952113278007,1.5353134674834625,0.7255218727640609,0.9442418455962172,1.0116123013623795,,,0.5748741956352443,inf,,,0.7724482995652465
215,5.703782474656201,-0.03802521649770801,0.0,0.8213599576348457,0.8123691896979538,0.5243903688809658,1.0580903829162764,1.0278384634839006,,,0.581717464821069,10.714417768752456,inf,,0.840036929212496
216,,0.0,0.0,1.4732286632693923,1.4641101895973885,0.8206020875974779,0.44316774933844105,0.579283818872782,,,0.6180765742263259,inf,,,0.9655504740953907
217,,0.0,0.0,0.9147069574269909,0.7149377268091557,0.7685222769224012,1.2617225515529915,0.7891258755158896,,,0.45235697871908603,inf,,,0.8688759661052217
218,,0.0,0.0,1.5563301565698886,1.5415989264622163,0.9165728018573102,1.246320419069237,1.5253729294548715,,,0.38163879478178075,inf,,,0.7193283847191301
219,,0.0,0.0,1.4885694963727054,1.4955901547485972,0.8847047822083471,1.330270380771593,1.495053189602204,,,0.30393309777884125,inf,,,0.7923729974021071
220,,0.0,0.0,1.626156036158484,1.6102990931196677,0.944447710929446,1.7164211312848245,2.3280834226908045,,,0.2961247884481232,inf,,,0.7782885471240965
221,,0.0,0.0,1.539629252061587,1.5107723573127743,0.9038046132073327,1.6501226911247755,1.664029624585056,,,0.288175044534938,inf,,,0.7954825561228492
222,,0.0,0.0,1.7317388616216347,1.6948476040765275,0.8731114796425494,1.2486183885612188,1.1829147708962993,,,0.3338418249889409,inf,,,0.7810957095796777
223,,0.0,0.0,1.664542374900031,1.6127760409224565,0.9029709133935953,1.82917568112385,1.6221580916773042,,,0.3265551233283096,inf,,,0.8421122471959741
224,,0.0,0.0,1.6242220745384321,1.5865969135844886,0.6528459079492634,3.0873355032746908,2.4452539793282266,,,0.5713653840954815,inf,,,0.8067053409457532
225,4.7954304313344505,-2.6922796903803725,-1.639592465925081,1.6792089400855696,1.6061999086845995,0.7615534431845317,4.311925089270046,9.25643725707674,2.521082674511453,,0.6333676938231112,4.8022670283642,2.150950624694694,inf,0.7393867124732251
226,4.412761517041152,-4.147995826018683,0.0,1.7113184006323252,1.6999054840960428,0.7591273238112994,4.889161508618704,33.79303720977311,,,0.6447042257417027,4.240527072400182,inf,,0.7322944114862753
227,4.953870178961112,-4.953870178961112,0.0,1.7652476211863168,1.7464637634845765,0.7140526030127436,3.5038613712595246,3.0140817004829095,,,0.6333676938231112,4.942976645622441,inf,,0.5973232387642313
228,5.677122967711589,-4.920173238683376,0.0,1.638887638177436,1.612439633995008,0.6990545173692154,3.163697976069059,2.409028145827202,,,0.6380535849069913,5.809142990314028,inf,,0.6252243908235757
229,5.388039493298081,-4.7953551490352915,0.0,1.310492332555622,1.3067015656965384,0.7585187354536188,3.8749387340367187,2.5931963184210236,,,0.6380535849069913,5.401211789710669,inf,,0.7421672745204702
230,5.462116172872223,-4.915904555585001,0.0,1.0792969468184779,1.048964092249438,0.7293478681999568,3.4412253110640703,2.95186713737665,,,0.6309483474627791,5.41610040220442,inf,,0.8175607618520717
231,5.47455269840803,-4.635121284652132,0.0,1.661426614415034,1.7008040072236432,0.7188731801084779,3.8199946268787577,3.195988086682128,,,0.62595550513784,5.584519053829383,inf,,0.6277129312532832
232,5.383862996644833,-4.002004827505993,0.0,1.7218890569875862,1.6960341040180775,0.7854519475992086,3.995874331689089,2.086425151137747,,,0.6425374456860184,5.5640205322810425,inf,,0.7457002949375658
233,5.116264750600655,-4.212391311327872,0.0,1.712548553383975,1.7203921434491125,0.7804072449045215,4.514073328129749,9.084574331472263,,,0.648888643467878,5.269837895226168,inf,,0.7453538603560744
234,5.389792726197422,-4.20403832643399,0.0,1.3348127629099864,1.3311847346334877,0.7538118562970534,3.708745823388368,3.3414607776384493,,,0.6468212168108125,5.578619331702195,inf,,0.8422746701777762
235,5.423650453497258,-3.0316544369180973,-0.4575606881651388,1.6332056296570718,1.6015632100756558,0.6249328210935708,3.682359390202954,2.3566113909014175,,,0.6403206450210053,5.805446128432701,2.4240649905317553,inf,0.6514502451491799
236,5.190073017673753,-4.515363525376165,0.0,1.558838111000277,1.5322202113668992,0.7983027418380585,3.4835664582405013,2.6559784877915966,,,0.6447042257417027,5.0849997093851185,inf,,0.7582106573160388
237,5.2850851155506415,-5.2850851155506415,0.0,1.6138238368420856,1.5281687990091264,0.7460520253162126,5.381748967267943,35.20795106014039,,,0.6403206450210053,5.095830140159488,inf,,0.713982265460291
238,5.0404092487318355,-4.7883887862952434,0.0,1.6979590079705063,1.6889987185078232,0.8114354443439195,4.268982650204283,50.036519647015176,,,0.6509067234006624,5.042814192460491,inf,,0.49725533670483574
239,5.442910094681644,-4.064039537362294,0.0,1.7258617927023636,1.7107249053834777,0.7833557349544347,4.35573524209829,18.283782273000458,,,0.648888643467878,5.572754212249797,inf,,0.7791874406140863
240,5.219659187609905,-3.149194376524643,0.0,1.7427220235853766,1.7547064055160981,0.7384499903762782,3.9038762351081853,5.0637149912722546,,,0.6528756675646988,5.61150719854703,inf,,0.7555756263831724
241,5.071778492412214,-4.818189567791603,0.0,1.6612309929171385,1.6544705859392541,0.7749079873453895,3.8387124650358895,12.13575292607126,,,0.6528756675646988,4.939866223208049,inf,,0.8506490046672984
242,5.387288856362791,-4.758771823120466,0.0,1.6776755783967106,1.6501573327328516,0.705880179335638,3.345949491759511,3.918315646048511,,,0.648888643467878,5.451727579847571,inf,,0.880098391765403
243,5.004402910917798,-4.787545451444693,0.0,1.6265036701808424,1.599365817113512,0.7243404926471383,4.616852486889981,36.295083655642195,,,0.6584896970785714,4.8564846142689975,inf,,0.5160754329214615
244,5.484521631826014,-1.7916103997298312,0.0,1.3515798308253408,1.3149262787563667,0.7464068031779199,3.779549756613985,6.63627194351694,,,0.6309483474627791,6.54775254495073,inf,,0.6977152155024597
245,5.058688195352859,-4.586543963786593,0.0,1.638121362052295,1.6018202337552034,0.693580055145149,4.5560451321145905,7.123169088536746,,,0.6468212168108125,4.915325114291931,inf,,0.6796570243110726
246,4.586548371636274,-1.2881160529461506,-3.2219898458295186,1.4806437922449693,1.446902766899029,0.7977019571903718,4.555910993051999,3.6194048426027923,1.8464902948256692,,0.6509067234006624,4.5437615578594475,1.733904676529881,inf,0.47262420029205715
247,4.608228010127771,-4.608228010127771,0.0,1.5958664807663858,1.5567559392283523,0.7197108549956567,3.515383211567777,3.5979433114213255,,,0.648888643467878,4.423774984054267,inf,,0.712852523688518
248,5.04911449320778,-5.04911449320778,0.0,1.775985211448086,1.7756689480574077,0.7762004440679723,4.130764856137212,5.264389377200174,,,0.6233814453054027,4.963433692611962,inf,,0.7720281265242168
249,3.9093137483917326,-3.9093137483917326,0.0,1.6502272351898444,1.64274420660621,0.7499002863251745,3.7082388448568118,4.4245053824908,,,0.6447042257417027,3.8086644924409927,inf,,0.5508072427782938
250,4.190704700423298,-3.436377854347105,0.0,1.6011555272027234,1.6086675754308106,0.6974162810978728,3.6904264905452333,4.115394224739768,,,0.6403206450210053,4.3091893107216155,inf,,0.5418719739366991
251,4.185037573885209,-4.017636070929801,0.0,1.6545981804299106,1.6456242189019163,0.7185977944515793,3.812447268863236,1.8951801431202826,,,0.6566669596287297,4.108443486601602,inf,,0.5489921675387106
252,5.587432769347924,-5.214937251391396,0.0,1.7389343457858528,1.7169912519573012,0.7045347941757114,3.824450701497251,3.922502122788612,,,0.6468212168108125,5.617604778415148,inf,,0.7637608992527077
253,4.020572785512996,-4.020572785512996,0.0,1.5277261618290416,1.495817759332869,0.7596851357054794,4.476258226359595,1.9497756361505045,,,0.6153451465759925,4.011843340710357,inf,,0.7949609172557854
254,5.449649753735425,-5.050008771794827,0.0,1.7324135953679596,1.6860229424506472,0.7767159085341738,3.579666082302535,4.20046271274972,,,0.6528756675646988,5.4621443407058266,inf,,0.605073111097964
255,5.238311666171136,-4.173188294049672,0.0,1.6797190951668213,1.6432906280787354,0.7393822222720293,4.090056478082253,7.8405279726905945,,,0.6403206450210053,5.318520073865556,inf,,0.761827628162754
256,4.829155938826252,-4.249657226167102,0.0,1.5990190552015067,1.588892037375111,0.7558829723425988,3.8240874299200294,4.333904927608986,,,0.6547956803312163,4.901780889184174,inf,,0.745138637293108
257,4.91819513815284,-3.6066764346454163,0.0,1.4361325103516092,1.4097189315715486,0.7899806207757354,3.22256479455166,2.7755451946066207,,,0.6425374456860184,5.106779154649158,inf,,0.6061958096842284
258,4.894273413212713,-4.894273413212713,0.0,1.7425585289772805,1.7103801977160793,0.662283135477946,2.961329723593007,2.3919564235771125,,,0.6403206450210053,4.735532003851334,inf,,0.6660155131792429
259,4.759396172554103,-3.8551108997688237,0.0,1.7170941270126934,1.688197315274219,0.7190156899821113,3.5849118687075427,3.7542072779454942,,,0.6284777104787076,4.772931591450717,inf,,0.7525096054850905
260,4.459978324825549,-4.236979408584272,0.0,1.7781988075588129,1.7688251569061448,0.7749979324575416,3.2748695341916614,6.333964505876412,,,0.6309483474627791,4.310843570817642,inf,,0.6900281481304502
261,4.601669571826392,-3.572158023454829,-1.0295115483715627,1.276135884104025,1.2293573739927575,0.7167786742426122,4.182101007664366,9.104626096046616,3.240723446373705,,0.6468212168108125,4.310016098697609,3.1085648040505185,inf,0.4679028924709865
262,4.256093899516242,-4.256093899516242,0.0,1.7767082062893738,1.7649933313371338,0.8357942037887683,4.0584171744829955,3.4152251813675907,,,0.6566669596287297,4.218397210892079,inf,,0.7825746617345243
263,4.338269433168569,-4.338269433168569,0.0,1.3107102130995398,1.2716190359365087,0.7335439883111557,4.121661036478855,2.007157796824357,,,0.6509067234006624,4.296868826333575,inf,,0.5945126758461841
264,5.148167317585698,-4.221497200420273,0.0,1.1429774270427888,1.0916664044847253,0.6545000033794658,3.1585523445481054,4.29287137572459,,,0.6447042257417027,5.1384686656061405,inf,,0.703585084371967
265,5.703782474656201,-1.0837186701846782,0.0,1.6809455191926086,1.68347149204897,0.6343671072835875,2.7966253474665104,2.689704346846528,,,0.5604843169999094,7.3645136814778525,inf,,0.7750785574278689
266,4.586857142991626,-3.608327619153412,0.0,1.7691172961027537,1.737330215239384,0.6417277963459498,3.510141502177901,12.74030461447999,,,0.6068309995095971,4.7821725813044464,inf,,0.6871290885777726
267,4.836151317057094,-3.0912997686138954,-1.2773569211276792,1.6049840222109049,1.577852443279583,0.692107111711905,2.94439934834505,2.9360125295466477,2.366773406331648,,0.5604843169999094,4.875230657090053,2.3276416728313833,inf,0.470878499522888
268,4.71805665259843,-4.639422375055123,0.0,1.578946850195132,1.5753196174501354,0.6644740476923123,3.2136376865913894,2.1251580129490337,,,0.581717464821069,4.481969752201934,inf,,0.5598334479800298
269,5.242447639159406,-3.3726413145258842,0.0,1.6928243153875928,1.6841039639070159,0.7030839916898823,3.7017182780235824,3.3827913107774585,,,0.6447042257417027,5.605446573935339,inf,,0.924513046009584
270,5.697621166384558,-4.273215874788419,0.0,1.6447077376218373,1.586099909433321,0.7353799910365694,3.3114156924007783,4.540150103803228,,,0.6403206450210053,5.982614931831,inf,,0.5956780662098382
271,5.328327751852896,-1.7050648805929267,0.0,1.6904911173082686,1.6664978804894768,0.7039914365708093,3.2608096021308266,1.8617539087315045,,,0.6403206450210053,6.410352675548287,inf,,0.7874692172790145
272,5.703782474656202,-4.296849464241006,0.0,1.7245887832513445,1.7151820347012396,0.7665015202407137,3.086741138900056,2.343421543557139,,,0.6528756675646988,5.9870299500401165,inf,,0.8826742955498129
273,5.6197646345883285,-0.6181741098047162,0.0,1.763017914140829,1.7389566341502618,0.5379695350036019,1.8393319228579634,1.4513701733943498,,,0.6333676938231112,7.796647036668178,inf,,0.727120702793523
274,,0.0,0.0,1.6175147879694687,1.6234348632693323,0.7365624936699641,1.6571744363555816,1.4205804028158886,,,0.6284777104787076,inf,,,0.8938635846946628
275,4.350434573227826,-4.350434573227826,0.0,1.4541444286880654,1.4398084558227635,0.6107207359473262,2.332718627620172,1.9832151937271503,,,0.6207552362147116,4.328380554702734,inf,,0.6786150240587111
276,,0.0,0.0,1.7632514055207926,1.7593300577931008,0.7033521643433084,2.0048047686347306,1.959368003794634,,,0.6403206450210053,inf,,,0.8791252546135216
277,,0.0,0.0,1.6396402380076374,1.593639076285741,0.6828364890148112,1.8923615594076384,1.7501500907302752,,,0.6284777104787076,inf,,,0.7810122296759568
278,5.703782474656199,-1.311869969170926,0.0,1.7476962090812795,1.7470153067612078,0.7792087361944112,2.6933459721811435,2.494000707022955,,,0.6380535849069913,7.173458444715143,inf,,0.7172169088201743
279,5.703782474656202,-0.7414917217053063,0.0,1.6589454131869135,1.5610183432756422,0.6174512102556579,2.1820400902979484,1.9362713906664077,,,0.62595550513784,7.7440033031827555,inf,,0.668628019567073
280,,0.0,0.0,1.603933832361874,1.5909008561187514,0.8093793325536998,2.407933901634407,1.954529685079157,,,0.6309483474627791,inf,,,0.9202278942545535
281,5.7037824746562045,-2.41460124760446,0.0,1.582205086196053,1.5398413185616748,0.6017413131550685,2.6384853564701056,2.390660251937741,,,0.6309483474627791,6.563377862853811,inf,,0.7876089399115564
282,,0.0,0.0,1.7021253210390535,1.6731355617451236,0.8067031882920414,1.98179982513549,1.7901401542344404,,,0.6380535849069913,inf,,,0.943108045613527
283,,0.0,0.0,1.5461164667057712,1.508561447169233,0.8396444980057528,2.9616376915302594,1.733636999541723,,,0.6309483474627791,inf,,,0.913044746178306
284,5.703782474656199,-1.4829834434106117,0.0,1.7161963382600143,1.6572574921361034,0.7796270763359671,3.9082029124412085,2.0917758836834417,,,0.6380535849069913,7.05085612262281,inf,,0.8161174018632354
285,,0.0,0.0,1.671262527162581,1.6000144296691496,0.6760902266840673,2.273092288206099,2.440375023959713,,,0.6180765742263259,inf,,,0.7466508892468987
286,5.7037824746562,-1.292857360922072,0.0,1.6986375405279948,1.6638730522616343,0.8221310468748996,3.8072741326597552,3.107641410592349,,,0.6403206450210053,7.188057244136296,inf,,0.8258912375162822
287,5.522586323721444,-4.436477680056227,0.0,1.6195513258263632,1.6340598452391997,0.635765564488098,3.1992842924971865,3.8209050701288945,,,0.6509067234006624,5.690537247906181,inf,,0.8467902849076699
288,5.703782474656203,-0.28518912373281013,0.0,1.4732294587821333,1.4733586720498155,0.7694172858858728,3.6339841722426796,2.2616486576609836,,,0.6468212168108125,8.699514748210191,inf,,0.8517914040343335
289,,0.0,0.0,1.6257058769213777,1.636641948778224,0.6694363971809483,3.2767754419989727,2.9103845648019067,,,0.6447042257417027,inf,,,0.6372737549639793
290,5.690765626194983,-4.040443594598438,0.0,1.7562935231699903,1.7735908064638748,0.7073342570839,4.02305689368804,17.56103974741135,,,0.6425374456860184,6.027667595771942,inf,,0.5964588460312477
291,,0.0,0.0,1.6970189554384034,1.6878104005432086,0.787495047164304,3.2402401382818287,3.3515267873581402,,,0.6447042257417027,inf,,,0.8160989785619344
292,5.703782474656201,-0.3232143402305181,0.0,1.3813073186599911,1.3600025788798287,0.7119312519859372,3.225353796943489,2.889086557810505,,,0.6403206450210053,8.574351605256187,inf,,0.8102581813891341
293,5.010635294096253,-1.6869138823457386,0.0,1.6131772843495775,1.5586991807062853,0.8039518650646665,3.255126750109546,6.511838144629209,,,0.648888643467878,6.099297251911198,inf,,0.7784906148805228
294,5.703782474656201,-0.03802521649770801,0.0,1.6175074199497836,1.608823142202194,0.6805598381774058,3.2815011742601192,3.113718053980299,,,0.6180765742263259,10.714417768752456,inf,,0.6667766775737479
295,5.7037824746562,-1.121743886682386,0.0,1.6088052312364192,1.5278733818733488,0.772786884213549,2.856437540451445,2.971902525528954,,,0.6380535849069913,7.330027505406683,inf,,0.7733524268451026
296,5.389555752802357,-2.6947778764011785,0.0,1.6374394986424834,1.6236131075976465,0.8000102028330898,4.1537971326769325,26.679540484209816,,,0.6468212168108125,6.023069886523313,inf,,0.7449459527968201
297,,0.0,0.0,1.5124386295238499,1.4946204192289307,0.738709315553858,4.05698078972344,3.530387866637331,,,0.6425374456860184,inf,,,0.8905119135670043
298,5.703782474656201,-3.0610299280654947,0.0,1.7741892405723552,1.745456912595187,0.6365865547705793,3.5310098932419773,6.230464321524048,,,0.6468212168108125,6.326160584327939,inf,,0.8027068466662809
299,5.4076807664558375,-1.8566370631498375,0.0,1.6536886852299997,1.6110684584746269,0.7949592996343159,4.263874009305271,7.581438348112327,,,0.6380535849069913,6.417132362533666,inf,,0.8570791584460691
300,,0.0,0.0,1.731309730854847,1.6855316132414608,0.8349732093250126,3.097407741493693,2.7132778183392445,,,0.6547956803312163,inf,,,0.8045451886090331
301,,0.0,0.0,1.6842001686933528,1.636044497110871,0.7589642339646309,2.8679494496932953,1.346415204598899,,,0.6309483474627791,inf,,,0.9054190151198974
302,,0.0,0.0,1.5282780376917688,1.5304940221462384,0.7607904301955114,3.219207471938343,1.8766591434543032,,,0.6403206450210053,inf,,,0.9002874927133295
303,,0.0,0.0,1.1621804293537457,1.1460943686005212,0.7432060179046307,3.1557928683424867,4.419291946538237,,,0.5978297680564633,inf,,,0.9206637729637517
304,,0.0,0.0,1.1188718519240204,1.0713557276820331,0.6010398867827766,3.2555394210204036,6.1084405458964905,,,0.6233814453054027,inf,,,0.7035721671083737
305,,0.0,0.0,1.2849741017087914,1.2808229772422646,0.7505782413573221,2.9259282139588065,2.992285858236322,,,0.6566669596287297,inf,,,0.8392095087709764
306,,0.0,0.0,1.7303294145518417,1.7492494994311432,0.7159943817395692,2.51189873776093,2.4334487891022136,,,0.6333676938231112,inf,,,0.8995777217394105
307,,0.0,0.0,1.6324710552971151,1.6252899184647722,0.6316997705082,2.719706168389106,3.9827078053436953,,,0.62595550513784,inf,,,0.9399577628435025
308,,0.0,0.0,1.7565561074508824,1.7057428260582048,0.8271872246633182,2.7319003639049257,2.617726098941053,,,0.6284777104787076,inf,,,0.9271846391856148
309,,0.0,0.0,1.6793954833747577,1.6478696455966533,0.764443716454774,2.0583445518821315,1.3338699372898053,,,0.6619902821573977,inf,,,0.9286319539317102
310,5.7037824746562,-1.273844752673218,0.0,1.580957822566607,1.561583131291093,0.777478194606342,2.7677247534057714,2.8311694007123407,,,0.6468212168108125,7.202872329921436,inf,,0.9471681460853487
311,,0.0,0.0,1.7213018835938854,1.7041603502939404,0.8242353759763722,3.05373552749474,3.7478866585559305,,,0.6125606311107803,inf,,,0.9397836091863893
312,,0.0,0.0,1.7332699314215883,1.7020641448562905,0.6319694362785931,2.3003364388138907,2.095869203564493,,,0.5641709578113449,inf,,,0.74979624040299
313,,0.0,0.0,1.3152645094056308,1.274371370464685,0.7401468136226451,2.9740685610242505,2.4113285415084773,,,0.6233814453054027,inf,,,0.9522409838659609
314,,0.0,0.0,1.3719484199265828,1.3684753564304788,0.7289228490077361,3.7777446887748014,4.676210914040643,,,0.6357360191111145,inf,,,0.5805540233183973
315,5.703782474656202,-3.7835090415219472,0.0,1.558112612604676,1.526096483760255,0.6708364986698836,3.124928244607157,2.5832691272084967,,,0.6403206450210053,6.11426012458791,inf,,0.7367125158856973
316,,0.0,0.0,1.659693528069166,1.6731969498852055,0.7237569440995145,3.2346819237940316,3.487939971664725,,,0.648888643467878,inf,,,0.8935013749593251
317,,0.0,0.0,1.4839482624382891,1.4568465179821424,0.7443277579762153,3.270456530940502,4.096368320861286,,,0.6380535849069913,inf,,,0.8973260580026348
318,,0.0,0.0,1.677472786053059,1.6717587339646518,0.6350115572648437,3.7139643084571587,2.397577107431149,,,0.6509067234006624,inf,,,0.7030406011277714
319,,0.0,0.0,1.527557461390725,1.5024516265854027,0.7491568906374039,2.7226634185031693,4.193406358072574,,,0.6153451465759925,inf,,,0.810485691233151
320,5.703782474656203,-1.9012608248854008,0.0,1.3725521299316357,1.369586984932151,0.773351071938295,3.0575394444871082,3.5611423236022937,,,0.6333676938231112,6.802394763324311,inf,,0.9398179607906997
321,,0.0,0.0,1.361000515214243,1.3659550784895413,0.7006057566684606,2.543971939173555,2.4380394230828757,,,0.6038851895711802,inf,,,0.7987190826284799
322,,0.0,0.0,1.7707196220177728,1.7772162480717024,0.8237029874694685,2.623726741213024,2.0302127063754716,,,0.6425374456860184,inf,,,0.8102199499310739
323,,0.0,0.0,1.7860336118585813,1.7767715555803776,0.7412399082412033,2.9444248407399516,2.4890969112548924,,,0.6038851895711802,inf,,,0.8652379078381827
324,,0.0,0.0,1.7104713830526244,1.7259057823134494,0.7257348083685236,3.2451241896387493,2.665593041481197,,,0.6125606311107803,inf,,,0.944043356607081
325,,0.0,0.0,1.3856566500562535,1.366219870361145,0.7334495388746675,2.549820920191515,3.249459210685625,,,0.5713653840954815,inf,,,0.9241999914739097
326,,0.0,0.0,1.0396843730026504,1.0345863050301434,0.8280019642505342,3.015304527647497,1.6982233034745162,,,0.5883313578629602,inf,,,0.9361900094269093
327,,0.0,0.0,1.2912003206028992,1.2828288205657221,0.7211554128249685,2.847077533881039,2.3587396983156372,,,0.62595550513784,inf,,,0.8429728076861032
328,,0.0,0.0,1.5555496975078564,1.5442559068892263,0.6742563614272525,2.602296427605259,2.611558355270671,,,0.6403206450210053,inf,,,0.6703142952698696
329,5.703782474656202,-3.270168618802889,0.0,1.669785076832652,1.6370620758515975,0.6109778822704578,2.394831119516323,2.720255586987461,,,0.6038851895711802,6.260070472498949,inf,,0.7676232856042241
330,,0.0,0.0,1.6253486437423852,1.6444275982891743,0.6019774038519479,2.3468622345885266,2.204293929320778,,,0.6180765742263259,inf,,,0.8412111775478286
331,,0.0,0.0,1.5767502085100202,1.5892493230656166,0.7616071546109489,3.399085628984129,2.881737499882843,,,0.6357360191111145,inf,,,0.8312730463458942
332,5.703782474656202,-2.129412123871649,0.0,1.3511018090511329,1.331677147267452,0.6351517781014396,2.603623929470868,3.7051827304732408,,,0.5783247308855777,6.689066078017308,inf,,0.6783939120980731
333,,0.0,0.0,1.4442815810594931,1.4343154969405338,0.6594136312024971,2.6287033688449952,3.5743368978905146,,,0.6380535849069913,inf,,,0.8221396162310646
334,,0.0,0.0,1.21692331031196,1.2192801909059743,0.7570354965055379,3.2388277743918272,3.594393962065263,,,0.6153451465759925,inf,,,0.9176853157541915
335,,0.0,0.0,1.5349779409430724,1.5403996580281236,0.5771428587260012,2.903370489555444,2.1293171337752277,,,0.6468212168108125,inf,,,0.8929295889887526
336,,0.0,0.0,1.7158267443057764,1.702745817391326,0.7797665666235528,2.770140009299806,2.1021724377522077,,,0.6233814453054027,inf,,,0.8544045498360164
337,,0.0,0.0,1.6689816548450918,1.6216985456707835,0.7009722870044874,3.1158958668683505,2.6532118225379677,,,0.6038851895711802,inf,,,0.8678748019547385
338,,0.0,0.0,1.611332349482832,1.576525620729664,0.6397815704066374,3.0933528650695385,2.7193250615936515,,,0.6038851895711802,inf,,,0.9037699577212974
339,,0.0,0.0,1.6036537358601934,1.58622980663952,0.6946646974100172,2.858385638241421,3.6371006105449055,,,0.6584896970785714,inf,,,0.7187218466753624
340,,0.0,0.0,1.372868505509502,1.3609486408521696,0.7676823058826764,2.286888920885152,2.0133339135322617,,,0.6584896970785714,inf,,,0.9290605331123866
341,,0.0,0.0,1.2622912864475342,1.2286518928494197,0.735565077613534,2.7947476220194,2.1426803805086054,,,0.6309483474627791,inf,,,0.8201056709098242
342,5.703782474656202,-0.3612395567282261,0.0,1.6664779930017235,1.6542263389657474,0.7887013444028607,3.0949516044697445,3.334691497382311,,,0.6403206450210053,8.463125970145962,inf,,0.9382562851668622
343,,0.0,0.0,1.3740736211136257,1.3329834356179722,0.8315823894865066,2.957747816237438,4.20531211858499,,,0.6284777104787076,inf,,,0.8120938541948414
344,5.703782474656201,-0.07605043299541601,0.0,0.7600814737329855,0.7570655185897429,0.5880068121303645,2.552703826985364,3.8075618856038664,,,0.5451288209179292,10.021270588192511,inf,,0.7975671770829251
345,5.703782474656201,-0.45630259797249606,0.0,1.4573893766861512,1.4422618918545542,0.7000596910921876,2.3987889555435005,2.190499413476894,,,0.5748741956352443,8.229511118964457,inf,,0.947375349410469
346,,0.0,0.0,1.7235568696414965,1.7272047564323256,0.7919270579175611,2.857496383427577,3.1248257464961444,,,0.5202020156036558,inf,,,0.93352671691965
347,,0.0,0.0,1.551226207562392,1.5363157486714487,0.7559692021899657,2.8249694471415854,3.920620710027975,,,0.5713653840954815,inf,,,0.9420640423858537
348,5.703782474656201,-1.387920402166342,0.0,1.3014516528461733,1.3012322402765155,0.6490636394415248,2.6195390115803137,2.5220095585083357,,,0.6125606311107803,7.117105508164011,inf,,0.937061679175216
349,,0.0,0.0,1.6261598901891685,1.6230846016612785,0.7106614749320076,2.8901640501933996,4.177249023848842,,,0.6380535849069913,inf,,,0.9507994963538684
350,,0.0,0.0,1.662997727890934,1.6073212557574217,0.7566666277390912,2.8813224978776097,3.3300092061466855,,,0.5451288209179292,inf,,,0.9318373289486416
351,,0.0,0.0,1.3239163561782077,1.2976444883829363,0.7301525286213708,3.161502895104562,2.9532969529572757,,,0.5883313578629602,inf,,,0.9303483636513583
352,5.7037824746562,-3.023004711567786,0.0,1.6847895891909517,1.6636702745808956,0.6480220313173684,3.7928373197982013,3.162872590991959,,,0.6425374456860184,6.33866074709217,inf,,0.6963220942597135
353,,0.0,0.0,1.6115845066595973,1.6103664477764545,0.8117273645524864,3.120058518371818,2.327041131211015,,,0.6447042257417027,inf,,,0.7428338854670521
354,,0.0,0.0,1.5694658860587152,1.5486170767259553,0.8339462017178726,2.709144383007067,2.3258623232599787,,,0.5978297680564633,inf,,,0.8961436431776308
355,,0.0,0.0,1.6855419580718496,1.6977814800551532,0.7632738774800677,2.53632436281822,2.7946290087763606,,,0.552929491858785,inf,,,0.9432948291646504
356,5.703782474656202,-0.49432781447020413,0.0,1.476056089152677,1.4649580038390357,0.687177227930317,2.350221380367059,2.188677563790357,,,0.6309483474627791,8.14946841129092,inf,,0.8830551722015809
357,5.703782474656201,-2.4716390723510204,0.0,1.6336213529590657,1.642554361522692,0.6454052331942873,2.4308563819682294,1.721409468848453,,,0.648888643467878,6.54003049885682,inf,,0.7237301873283863
358,5.703782474656202,-1.7491599588945685,0.0,1.6097995856271954,1.610447257009548,0.6603776222827298,2.583320375040657,2.251817999469954,,,0.6447042257417027,6.885776372263361,inf,,0.8929266821159897
359,,0.0,0.0,1.203458774031831,1.2047107513926596,0.7279240558333891,2.3992331776987808,3.6318563157396526,,,0.6125606311107803,inf,,,0.7509916353749313
360,,0.0,0.0,1.5798947133581256,1.5158681937309897,0.7567929074377036,2.9204540820897495,2.8405354837869012,,,0.6233814453054027,inf,,,0.9461573190862198
361,,0.0,0.0,1.744748626777322,1.7166099015111893,0.550298712667247,3.116532586171022,4.0300391436757135,,,0.6468212168108125,inf,,,0.6593909078105296
362,,0.0,0.0,1.153247790678524,1.1256724306650367,0.7382753183179863,2.63157565333895,2.251571271216299,,,0.6180765742263259,inf,,,0.9487426123071836
363,,0.0,0.0,1.2100568786676487,1.2022911188034175,0.7929788317066068,3.127764227319353,3.2396208501360992,,,0.6125606311107803,inf,,,0.9100657556283236
364,5.519434820251959,-1.729422910345614,0.0,1.6564979092665555,1.6379321517732737,0.5219766759600281,2.4758023601204457,2.216900958140633,,,0.6528756675646988,6.628441456200873,inf,,0.900187091516564
365,5.703782474656204,-2.3765760311067514,0.0,1.180425536893991,1.1669692415695585,0.7897173049584555,2.6468136555662585,2.474035768985988,,,0.6097226960127671,6.579251212010101,inf,,0.7136913793629734
366,5.635657874783547,-5.034521034806636,0.0,1.7455723113814505,1.7668772695302695,0.7082066206835747,2.8028470219882387,3.4741726372016557,,,0.6125606311107803,5.717205494988342,inf,,0.6611600685477587
367,,0.0,0.0,1.6329458686587013,1.6207286539148913,0.6724232859752695,2.6103410303318157,2.5565625020539713,,,0.648888643467878,inf,,,0.8812747786054105
368,,0.0,0.0,1.603100115113616,1.6263069674482034,0.7777927368830593,2.591140447905999,2.7733233928710765,,,0.6357360191111145,inf,,,0.9121779751194473
369,5.703782474656202,-0.5133404227190581,0.0,1.7703478657223044,1.7745216815422944,0.8366522403600074,3.036735943721847,3.0054952239177406,,,0.6447042257417027,8.111728083308073,inf,,0.6524628996506048
370,,0.0,0.0,1.6422779196206954,1.653059392167926,0.705006178156498,3.1420070567712703,2.2958211333675553,,,0.62595550513784,inf,,,0.8473469774039193
371,5.703782474656203,-1.939286041383109,0.0,1.648828856798841,1.6073541739260357,0.6828182598502895,2.5351345810171333,2.3491149906121467,,,0.6509067234006624,6.782592136028131,inf,,0.6715662861489009
372,,0.0,0.0,1.5808995964122856,1.5429145710854426,0.5304887432804906,2.122536024618137,2.0042461463871457,,,0.6097226960127671,inf,,,0.6641796064656357
373,,0.0,0.0,1.6675008993873832,1.678526021015016,0.5583443951762133,2.292448030642279,2.081146922594116,,,0.5883313578629602,inf,,,0.9446352979558924
374,,0.0,0.0,1.5793110481847363,1.5523323748752766,0.6881785965177223,2.5722527031390823,1.9902983021779606,,,0.6125606311107803,inf,,,0.9483791078203523
375,5.703782474656203,-0.5893908557144742,0.0,1.6314279633319968,1.6075216652673163,0.6542653671764731,2.402667968356389,2.117656330712272,,,0.6309483474627791,7.973577744827256,inf,,0.6336413578652413
376,5.703782474656199,-1.1597691031800939,0.0,1.7377326796904313,1.6724564847930112,0.7517789839554042,2.51523783059313,2.124633491754593,,,0.6357360191111145,7.2966910851390905,inf,,0.6926197785787543
377,,0.0,0.0,1.5712711565531148,1.564267706911986,0.7479177168444342,2.5295616698529764,1.6684333166505478,,,0.6403206450210053,inf,,,0.8617600231258921
378,,0.0,0.0,1.7263419768524282,1.701014237005148,0.7115551387104695,3.044623806090045,2.4219271491359997,,,0.5783247308855777,inf,,,0.8160137393180472
379,,0.0,0.0,1.6378853095300954,1.5750185051635117,0.8159728187272297,2.0327903418404847,1.477451004734987,,,0.648888643467878,inf,,,0.5889084859354419
380,5.703782474656204,-2.395588639355606,0.0,1.5029730354819784,1.4735454586060055,0.8853131643843472,2.655605168867808,2.6398144468221574,,,0.6038851895711802,6.571283042360924,inf,,0.8123903097194911
381,5.50306417912726,-4.750978741313201,0.0,1.6629603628731953,1.6446379244155305,0.6323838842583612,3.360744626661688,5.5103031515146705,,,0.6403206450210053,5.596423956335702,inf,,0.6970719870766553
382,5.079676470782238,-4.774895882535303,0.0,1.7167658904851615,1.7107375352947793,0.8068722839562203,3.8113871142974434,2.3151012583674397,,,0.6284777104787076,5.049722682804303,inf,,0.4964705116248357
383,5.703782474656198,-1.0266808454381158,0.0,1.7359602746162022,1.7138765713762019,0.6948052461316673,2.564770450092485,2.1788532380758134,,,0.6547956803312163,7.418580902748128,inf,,0.7286807917029074
384,5.520619230052277,-3.5515983713336317,0.0,1.6501028784472886,1.6599766143666037,0.6719795972488393,2.030550778055848,1.534455644933984,,,0.6207552362147116,5.910396724019201,inf,,0.6840457914633079
385,5.703782474656202,-0.2661765154839561,0.0,1.5125192560633935,1.4942026789144864,0.6583145728162476,2.857608892218164,2.187678114904656,,,0.6425374456860184,8.768507619697143,inf,,0.8463171291088525
386,,0.0,0.0,1.7311651054255268,1.7255859412894263,0.7107443977189415,3.0089948566398856,2.8499633361974803,,,0.6380535849069913,inf,,,0.6341417179934457
387,5.396853833817848,-4.8751579632154565,0.0,1.7165627539270605,1.6901899034060284,0.7294323136989661,3.4690957407125067,5.0133700665006184,,,0.663668482632973,5.438857389327036,inf,,0.6534275097230728
388,5.703782474656202,-3.7454838250242393,0.0,1.450813062484169,1.444042696373029,0.7068925060956923,3.1016645769337807,2.530672500910705,,,0.6509067234006624,6.124361220574413,inf,,0.6641862423117335
389,5.703782474656201,-1.0647060619358242,0.0,1.6104659631548017,1.5931322025623333,0.7778480247574073,2.7789481255429056,2.0434722412734767,,,0.6509067234006624,7.382213258577253,inf,,0.8464502065993394
390,5.703782474656203,-4.068698165254758,0.0,1.3139815344601968,1.2756833226567186,0.7426752308554017,2.894975138985804,2.2252191513121633,,,0.6233814453054027,6.041588934290551,inf,,0.6943773922329721
391,5.703782474656203,-4.486975546729546,0.0,1.5424828964403572,1.4963565883749825,0.7307702020754184,2.0677799618018295,1.4874739495637455,,,0.6357360191111145,5.943733144286792,inf,,0.6633614949158865
392,5.321451291728295,-4.470019085051767,0.0,1.27320050116003,1.2599172608774043,0.5539745812151775,1.8768406462475118,1.482769166073864,,,0.62595550513784,5.438857389327036,inf,,0.8336992697139639
393,,0.0,0.0,1.6791913013097304,1.663125097806046,0.48341315340349084,1.6710622291104635,1.2831470097416486,,,0.585052858160615,inf,,,0.7733855171212898
394,,0.0,0.0,1.6150237759322303,1.589845779523796,0.6793330752717556,1.5536515856502626,1.225363235422561,,,0.6008849035917525,inf,,,0.8656629676498917
395,5.703782474656203,-1.9012608248854008,0.0,1.699989973854645,1.6647693024368613,0.7682979796390834,1.90806692560284,1.391325020024603,,,0.6333676938231112,6.802394763324311,inf,,0.7706746985567223
396,5.600180404963966,-5.245502312649582,0.0,1.6838141403079265,1.6165069328609927,0.750042367475772,2.8790682980092965,2.2588837265541066,,,0.6097226960127671,5.629912626089745,inf,,0.7744995208234953
397,5.658008604241865,-1.9991630401654592,0.0,1.393441706095065,1.3892568841262554,0.6909934071068923,3.5286418927429786,2.6867701459390254,,,0.6509067234006624,6.680177130600062,inf,,0.7002611560704086
398,5.7037824746562,-0.969643020691554,0.0,1.7191747920318161,1.716414365516079,0.8098887685841042,2.1981977799649517,1.4664272417741118,,,0.6425374456860184,7.4757393165880766,inf,,0.8748119782128587
399,,0.0,0.0,1.5938414537320782,1.567957158981157,0.6266572486964788,2.600157213613139,2.0721685930591596,,,0.62595550513784,inf,,,0.6778554308942304
400,,0.0,0.0,1.3912654707467782,1.379217835281456,0.7083840318282759,1.7225168916741695,1.2080698100388862,,,0.585052858160615,inf,,,0.7739052147555995
401,,0.0,0.0,1.547754449315091,1.5402955530715183,0.7226081824144058,2.157368220141802,1.9621060180828427,,,0.581717464821069,inf,,,0.9259691837347845
402,5.703782474656202,-0.5513656392167662,0.0,1.606735624516795,1.609337616253172,0.7520938382557306,2.5833033552575078,2.337239203061861,,,0.6284777104787076,8.040269119325927,inf,,0.85943827686725
403,5.658952059993119,-3.79149788019539,0.0,1.5855155271385317,1.5629890401866222,0.799400270559155,3.7518947656377226,7.274593457285228,,,0.6180765742263259,6.041588934290551,inf,,0.9065247034391678
404,5.703782474656199,-1.3498951856686336,0.0,1.6852491493026596,1.648873217750139,0.7223394539512111,2.669103997694813,1.2801441633067085,,,0.6403206450210053,7.144885072271086,inf,,0.6217894129759304
405,5.269321801673651,-3.6709608551659767,0.0,1.6845867488469812,1.6053293905806842,0.7164536785779536,3.280772058849889,3.9974511573366294,,,0.6403206450210053,5.578619331702195,inf,,0.766250204586467
406,,0.0,0.0,1.67502076252862,1.5914278455477615,0.6850718537758899,1.0797760058781987,0.9502674027975957,,,0.5713653840954815,inf,,,0.9305951881561626
407,,0.0,0.0,0.8861638973931587,0.8857051250443486,0.4717688114314483,0.4689680612815175,0.5823671235552781,,,0.5113665138247345,inf,,,0.9280528005455083
408,,0.0,0.0,1.7706143001070505,1.748311811901961,0.8986240830926223,0.4520565975244262,0.6574176224288619,,,0.48319206230712763,inf,,,0.7977169807918649
409,5.703782474656202,-0.8175421547007222,0.0,1.3080328549069267,1.2402546790579272,0.5981526650566422,1.0770842954112008,0.7379612858160693,,,0.5641709578113449,7.64636483361884,inf,,0.7989976773670647
410,,0.0,0.0,1.6882912879131156,1.6569087120806678,0.4645043332617122,0.4206635525827588,0.5818480606067742,,,0.5022576003740722,inf,,,0.8777638692068188
411,,0.0,0.0,1.6846665023706486,1.5904162638240382,0.7538416410021638,0.3551800099999097,0.5284524070625958,,,0.45235697871908603,inf,,,0.6765993726966164
412,,0.0,0.0,1.605279967378464,1.5331628474534826,0.7749838312509914,0.5326243782373268,0.7132409892512241,,,0.41268473150466,inf,,,0.6851932876566337
413,,0.0,0.0,1.5172075980603994,1.467215769614855,0.8177299138290863,0.5713570772341561,0.8059675103053764,,,0.42445136339222655,inf,,,0.6721011713343978
414,,0.0,0.0,1.6537633430948202,1.5955710469027022,0.8380153564389305,0.5210913797778772,0.8368863079498465,,,0.34100769111774265,inf,,,0.6825988286802412
415,,0.0,0.0,0.8073096210933907,0.6681886054958059,0.19198765962444234,0.660281095478996,0.8198193384537417,,,0.4576907132971797,inf,,,0.765725217757904
416,,0.0,0.0,1.4246117404349197,1.3401736737550747,0.45895548575162237,1.079148383583,1.0044145204515051,,,0.5883313578629602,inf,,,0.6917601159637533
417,,0.0,0.0,1.7188767013645736,1.7046404339201995,0.5820375479391561,1.3318676199057682,1.3356881223766202,,,0.6008849035917525,inf,,,0.8405082729447997
418,5.7037824746562,-1.292857360922072,0.0,1.6658168270068563,1.6422802135649095,0.27881500966609146,1.4720334655319784,1.3920147971890415,,,0.5783247308855777,7.188057244136296,inf,,0.7686832586798618
419,5.043513245233599,-1.1768197572211732,0.0,1.5243657090344551,1.462885179549778,0.7521761974285665,2.9337664009316122,2.621553792280685,,,0.6380535849069913,6.458805058934233,inf,,0.5676539280973925
420,,0.0,0.0,1.272544661235739,1.2519630512467377,0.5697058874283323,1.0002650317495398,0.6588523480713864,,,0.5567373465730988,inf,,,0.9391424315454329
421,,0.0,0.0,1.6270008417966395,1.6138888336898871,0.49607975120787695,0.45273218790677255,0.5241054898958932,,,0.5113665138247345,inf,,,0.8924800285156004
422,,0.0,0.0,1.5036347399703687,1.4181488847357855,0.6793456576692438,0.3057791386182379,0.3922423924451197,,,0.468121228110369,inf,,,0.7623776119429022
423,,0.0,0.0,1.75183234717186,1.6910153856656476,0.8271269430350628,0.26056038665409703,0.43918433717137423,,,0.48319206230712763,inf,,,0.7053375692011923
424,,0.0,0.0,1.7477672631052779,1.762876552269725,0.5945628612243292,0.2891986135818138,0.3531373057619546,,,0.5567373465730988,inf,,,0.8391238559303169
425,,0.0,0.0,1.70362998888113,1.6476154262357603,0.7250221589899484,0.2208888351446407,0.33173692475195693,,,0.524519217297268,inf,,,0.7137402608664601
426,,0.0,0.0,1.7618204540763975,1.7638205811519463,0.3738991135498782,0.3663444191420087,0.4597153250260404,,,0.5329562494928909,inf,,,0.8811861587073828
427,,0.0,0.0,1.4639388681472651,1.419214327497967,0.7761789907242735,0.36735199537141927,0.5495804869135765,,,0.4928685327679205,inf,,,0.658348389740953
428,,0.0,0.0,1.021293753447512,0.9622502005475687,0.22444288923482122,0.4528007039689167,0.5250285755771675,,,0.48319206230712763,inf,,,0.9028943579805995
429,,0.0,0.0,1.1629183600353143,1.1068049950316574,0.7824207254729454,0.3538823725313204,0.5438523046558619,,,0.4302020962658841,inf,,,0.7074748334832517
430,,0.0,0.0,1.755062439134819,1.694369234601248,0.7503362854998846,0.24831696358263367,0.38999069395916086,,,0.41268473150466,inf,,,0.7295337026984665
431,,0.0,0.0,1.5775711524391323,1.4844320544017704,0.81171572213498,0.1928619078396019,0.32851781394324236,,,0.4629450596409901,inf,,,0.7035438106775949
432,,0.0,0.0,1.4303851441372748,1.4043942293014424,0.5944669826892733,0.2576228832111975,0.3916997716407722,,,0.44694259446804574,inf,,,0.8270081561333826
433,5.703782474656201,-0.05703782474656201,0.0,1.0386090038362052,1.0151116162068559,0.38777579597224293,0.577702156203148,0.5374426527851901,,,0.541134803179459,10.308952660644293,inf,,0.7613830060117257
434,,0.0,0.0,1.2126930461169705,1.1396062569825138,0.7371787053380597,0.5827182947069595,0.6450753547621472,,,0.5748741956352443,inf,,,0.8547338726729478
435,5.586014749803784,-3.8357301281985983,0.0,1.707739952424214,1.6801064520882314,0.5247281148004259,0.9297972428117497,0.8693910505215715,,,0.5783247308855777,5.922768015821747,inf,,0.8902638822317398
436,,0.0,0.0,1.1858694364534408,1.197489201069794,0.4490729849433302,0.9381418369287969,0.9122827448009923,,,0.5915533975974677,inf,,,0.6623444389712319
437,,0.0,0.0,1.7637017050971053,1.7422067418314595,0.8257810786139045,1.4366282033651347,1.5555240733255433,,,0.5677978065141052,inf,,,0.7921784343463221
438,5.703782474656203,-2.1674373403693568,0.0,1.3094224949987847,1.2997281317870828,0.2852218031461013,1.0113365069100548,1.034984846419166,,,0.6068309995095971,6.671366500917907,inf,,0.7778379898266815
439,5.703782474656201,-0.13308825774197802,0.0,0.983843073488525,0.9769121249843304,0.4566383282970067,0.900008843651745,0.923726897301935,,,0.5783247308855777,9.461654800257088,inf,,0.6806826773039522
440,,0.0,0.0,1.5847166668183588,1.5583945287716015,0.7479767099902336,0.8392450996236092,1.0203122405995138,,,0.5783247308855777,inf,,,0.7699907763474243
441,,0.0,0.0,1.7168026960877938,1.6774947058309637,0.7150347713069717,1.1441897189489756,1.1975382038880338,,,0.5567373465730988,inf,,,0.7521235987947058
442,,0.0,0.0,1.693981598151474,1.657862767949619,0.8562171452218622,1.2785944772495201,1.2888678176416266,,,0.5370774965580548,inf,,,0.7802311834053337
443,,0.0,0.0,1.730547178396856,1.7188717639520799,0.8283619899571728,1.1745175452184224,1.5413358832550954,,,0.49759852643134905,inf,,,0.7408163326081082
444,,0.0,0.0,1.6779148744704222,1.6781254156455188,0.9054254546766847,1.193602236121762,1.3808061237157487,,,0.4928685327679205,inf,,,0.7721401531177041
445,,0.0,0.0,1.6566815545949622,1.6530309677327633,0.8363290358005121,1.1964883835464717,1.4691009057047117,,,0.5287703885177266,inf,,,0.793055829761955
446,,0.0,0.0,1.6986017790762342,1.6735984626997458,0.9167697321386415,1.4126589626558625,1.4533640431662944,,,0.4880666971167561,inf,,,0.81512014095173
447,,0.0,0.0,1.6963546416486381,1.6823911297458736,0.8450894240202402,1.246744300075003,1.2104733998743742,,,0.541134803179459,inf,,,0.8199898646041517
448,,0.0,0.0,1.72488008090978,1.6943435452851014,0.8233334157134505,1.2357206262296467,1.4475162753835082,,,0.5451288209179292,inf,,,0.7803744509751233
449,,0.0,0.0,1.5042297078636555,1.4734436427727866,0.8109305088039535,1.2327191108972548,1.2538576386536542,,,0.5287703885177266,inf,,,0.7552443727019249
450,,0.0,0.0,1.1935873176813148,1.1169377208055788,0.5023287179360332,1.1798945045755922,1.409811679447423,,,0.5783247308855777,inf,,,0.8990824167188135
451,,0.0,0.0,0.9521603191175828,0.9092093723761261,0.4446506017785538,1.0036226598782942,1.1587722285738054,,,0.552929491858785,inf,,,0.9263008779856015
452,,0.0,0.0,1.3595793260319151,1.3283255555436904,0.39474652006595456,0.9587394538871267,1.1594321557906895,,,0.5567373465730988,inf,,,0.8711813542272598
453,,0.0,0.0,1.615807730886356,1.5399830802115146,0.5946848844942384,0.6511799457425775,0.6993346411230581,,,0.5022576003740722,inf,,,0.8972635609433218
454,,0.0,0.0,1.6252442793954152,1.5379058505515213,0.7854328532882725,0.1999077171614257,0.3056201246807134,,,0.4928685327679205,inf,,,0.6078748491650362
455,,0.0,0.0,1.32460267566096,1.2782642679033083,0.41966412989099044,0.5135893653807996,0.5142709182463009,,,0.552929491858785,inf,,,0.9172840865583262
456,,0.0,0.0,1.7582333329912754,1.6865594437266163,0.8296041801981872,0.35352240787725514,0.5428636255522348,,,0.4732203808476458,inf,,,0.6831163080984503
457,5.703782474656199,-0.9886556289404079,0.0,1.6499804011561845,1.61038391092718,0.6404599758323702,1.537286001130097,1.0603860783810228,,,0.6207552362147116,7.456321230730975,inf,,0.5526625347077783
458,,0.0,0.0,1.6980716166289067,1.717981373623055,0.7140520119707343,1.0902199151644911,0.9656154134477317,,,0.6233814453054027,inf,,,0.906076408204308
459,,0.0,0.0,0.9959302913159327,0.9823091893650866,0.5101408729427402,0.7080348142145384,0.6835235716508821,,,0.5883313578629602,inf,,,0.8925115751744752
460,,0.0,0.0,1.3037598417614036,1.2313188315640236,0.681312920484191,0.6154971458697579,0.6842857232268154,,,0.5370774965580548,inf,,,0.8001471715367855
461,,0.0,0.0,1.6357417000198744,1.5795804875901471,0.6948589462616683,0.49916191914530794,0.6029099808088607,,,0.4629450596409901,inf,,,0.710798648397874
462,,0.0,0.0,1.1074033034880704,1.0422663485286678,0.7425260831518629,0.533051303582828,0.6600747260703763,,,0.4880666971167561,inf,,,0.793500301026091
463,,0.0,0.0,1.694406328278499,1.63423455272315,0.7392923296700223,0.37542098108988786,0.5869012909048694,,,0.42445136339222655,inf,,,0.6669692169864783
464,,0.0,0.0,1.7077478866923492,1.629476758862907,0.812828049628215,0.4031948891239921,0.6154942545116799,,,0.44694259446804574,inf,,,0.6784293708641058
465,,0.0,0.0,1.651299910371282,1.5589851294261965,0.7242932309614882,0.38519698805828173,0.5761299220071288,,,0.44144624493110796,inf,,,0.6591214480180766
466,,0.0,0.0,1.4184680147544386,1.3771443970834136,0.7016902201635512,0.5247682208942981,0.7539097823989659,,,0.43586655696697996,inf,,,0.7048345811755503
467,,0.0,0.0,1.3736515903414788,1.3481416787957474,0.34700532917245186,0.5628983287722429,0.5883585366851993,,,0.5022576003740722,inf,,,0.910205251129518
468,,0.0,0.0,1.4227042998657848,1.39621995438289,0.8326747744313526,0.3235918090293909,0.48614946753322047,,,0.5022576003740722,inf,,,0.6606157384186602
469,,0.0,0.0,1.7321117274233535,1.6311699240884439,0.7702907905515853,0.45196980266947506,0.5556978703745282,,,0.5451288209179292,inf,,,0.7513360702549629
470,5.703782474656203,-0.4182773814747882,0.0,1.6150302093101958,1.5796991867315053,0.8001360224773191,1.0532997656374619,0.8328609224570154,,,0.524519217297268,8.316522495954086,inf,,0.705513139154832
471,,0.0,0.0,0.7637452806575092,0.7394843721211541,0.41780654609841805,0.9571043974310403,1.1017897596050799,,,0.5604843169999094,inf,,,0.9322647607101807
472,,0.0,0.0,1.607528802638582,1.5604617377687635,0.905462155506178,0.9945726678864236,1.2336323513307466,,,0.49759852643134905,inf,,,0.8043384357044392
473,,0.0,0.0,1.4557151553571588,1.4243598888032591,0.6542716788963695,0.9048343022497068,0.9916796556896361,,,0.5604843169999094,inf,,,0.9131124571039333
474,,0.0,0.0,1.6306346398935105,1.6451686734017068,0.8544646723341424,0.8144039176584673,0.9912291841466879,,,0.43586655696697996,inf,,,0.8202222420052016
475,,0.0,0.0,1.6933019018369921,1.6715945513027861,0.911745053218844,0.9092253344609741,1.0218713436740665,,,0.49759852643134905,inf,,,0.7756231219208165
476,,0.0,0.0,1.6473154524368723,1.6264758081234156,0.7081761948257331,1.0098184673272341,1.135467343511475,,,0.5022576003740722,inf,,,0.8180455429375346
477,,0.0,0.0,1.480649273265283,1.4920802625621268,0.45163496084647226,0.9410273793168393,0.9753463020800671,,,0.5370774965580548,inf,,,0.9347766596253941
478,,0.0,0.0,1.6344983577037477,1.5747409272298816,0.8508558005210012,0.4670950674525552,0.5986865132376715,,,0.5068466436745385,inf,,,0.7976699668746982
479,,0.0,0.0,1.5524411079070066,1.5110685664242207,0.8279148699417572,0.4948032069030158,0.6103169584839919,,,0.5451288209179292,inf,,,0.760637495261743
480,,0.0,0.0,1.6430220654457477,1.643724833186231,0.4163718706063987,0.6834471416946022,0.6592774154715284,,,0.581717464821069,inf,,,0.723287837716141
481,,0.0,0.0,1.2727268728460994,1.1955888392784808,0.44130651209237853,1.4104012469871188,1.4237987242663386,,,0.581717464821069,inf,,,0.9073778591984953
482,,0.0,0.0,1.7479062550601114,1.7384238665729361,0.633186398375199,1.3369554131072223,1.5114250692150053,,,0.524519217297268,inf,,,0.868104009981478
483,,0.0,0.0,1.1233918411042954,1.0980098133495122,0.3739110559039678,1.0244256280132442,1.0148836158108268,,,0.5451288209179292,inf,,,0.8868316984601059
484,5.092182021220953,-2.5970128308226865,0.0,1.4880211177746996,1.4616339931363749,0.4381968381209196,1.7724962484153137,1.1614094522919929,,,0.6068309995095971,5.744604469176456,inf,,0.6657479797582037
485,5.659223013048775,-2.640970739422762,0.0,1.5528204504447074,1.5441081427214607,0.6207663218958859,2.5074579431267905,2.6614393990425724,,,0.6038851895711802,6.403618643366943,inf,,0.78021146689075
486,5.703782474656204,-2.1103995156227953,0.0,1.6103036613680586,1.5504796306250022,0.48623338307659847,0.981027103709079,0.702897355771038,,,0.5287703885177266,6.698034748000068,inf,,0.7735950004604167
487,,0.0,0.0,1.550870056172578,1.5599729477807684,0.51552483081089,0.3046956056715919,0.3245121131775021,,,0.6008849035917525,inf,,,0.8842228265663938
488,,0.0,0.0,1.4379834717058375,1.4382940655598764,0.37511637149368976,0.11374463744544261,0.12400711451836333,,,0.581717464821069,inf,,,0.9651755774849295
489,,0.0,0.0,1.629312486692407,1.6119708946828282,0.8368813933211384,0.07451268989517178,0.09951366632566172,,,0.5451288209179292,inf,,,0.8355049896932714
490,,0.0,0.0,1.6729198733937638,1.6377966737278082,0.8824346384309935,0.08417728652395348,0.1001223798252446,,,0.5370774965580548,inf,,,0.8218385139504754
491,,0.0,0.0,1.7150222624033482,1.717078022933941,0.7884706162744559,0.07849960126014073,0.09660447852859015,,,0.552929491858785,inf,,,0.8278414097846599
492,,0.0,0.0,1.597012321050371,1.590850497762347,0.8751934484507119,0.07861468793462774,0.09658237572877594,,,0.5202020156036558,inf,,,0.819587565238
493,,0.0,0.0,1.5136502084673886,1.5069508544856058,0.901140997473667,0.0727930778282405,0.10483980024753153,,,0.5783247308855777,inf,,,0.8123708632490912
494,,0.0,0.0,1.6521173243746452,1.6317935372684649,0.8205860085741742,0.09105391604723603,0.11636204843565555,,,0.5202020156036558,inf,,,0.8789743915706991
495,,0.0,0.0,1.357702322974844,1.3248562974779987,0.736726490696372,0.09659189942781153,0.13247477543659283,,,0.5567373465730988,inf,,,0.8765382750224079
496,,0.0,0.0,1.5549926603177628,1.4881535355362523,0.7313723335839337,0.465657219047689,0.4023940744224684,,,0.5713653840954815,inf,,,0.8820713337041379
497,,0.0,0.0,1.606230334296892,1.5606559243886968,0.7791953086414017,1.2312694648731237,1.0286581647503308,,,0.4928685327679205,inf,,,0.8867278631019636
498,,0.0,0.0,1.7033729645850084,1.6147296932291855,0.7735573851605296,0.6146151929891078,0.8283840289033674,,,0.4732203808476458,inf,,,0.7156156108809871
499,,0.0,0.0,1.6887511692415256,1.6166682779048722,0.8512177409936738,0.6506306539342253,0.8903143101783518,,,0.4732203808476458,inf,,,0.693812627215776
500,,0.0,0.0,1.3913283037721018,1.3620525699085915,0.6124470604005864,0.8519156424484282,0.9072653068753787,,,0.5713653840954815,inf,,,0.8876616001113528
501,,0.0,0.0,0.8912272280509963,0.8495586926733782,0.5979370593921112,0.7173612748642894,0.8444621682291519,,,0.5202020156036558,inf,,,0.8818322938654349
502,,0.0,0.0,1.5597221765096885,1.5078000720379534,0.8130417786157536,0.7568701647227838,0.7522866772435239,,,0.5490601803369085,inf,,,0.8748011297311595
503,5.703782474656202,-0.2661765154839561,0.0,1.6191638955545602,1.5995970127692332,0.8466036282985995,2.7828844159037867,1.6819918063575372,,,0.6528756675646988,8.768507619697143,inf,,0.8025327724221132
504,,0.0,0.0,1.6081119024172006,1.5961036465976075,0.7389484487749088,2.6880993843511414,2.2495221448197893,,,0.6403206450210053,inf,,,0.9366008504526832
505,,0.0,0.0,1.6903824042837174,1.6116708194861336,0.7754823353644386,1.9395819645323176,1.875453289837976,,,0.5113665138247345,inf,,,0.8843240775918232
506,,0.0,0.0,1.2407103366840881,1.2238921377381407,0.6445941728987652,1.9169928242643062,1.9716915520159295,,,0.524519217297268,inf,,,0.8740379328908215
507,5.703782474656202,-3.289181227051743,0.0,1.6697933130479317,1.6340301193684315,0.48015450225468903,1.8973983557292906,1.390619328407032,,,0.5883313578629602,6.254273354814623,inf,,0.7101915754789463
508,5.703782474656201,-0.8555673711984302,0.0,1.7181495872813952,1.677527930762792,0.7473171948538568,1.6340746746369188,1.0433222262852906,,,0.6425374456860184,7.600902459542082,inf,,0.8912229183383783
509,5.703782474656201,-0.4753152062213501,0.0,1.5405403764115033,1.495747552847907,0.6899585927859719,1.2890880520026258,0.7830200843234958,,,0.6284777104787076,8.1886891244442,inf,,0.6614979143743894
510,,0.0,0.0,1.5019381007478154,1.4928205145302293,0.6570457208613885,1.7603864554113604,1.6832223207272206,,,0.5641709578113449,inf,,,0.8535263928528579
511,5.070867690816689,-3.008714829884569,0.0,1.432774055686435,1.3768531613734225,0.7264832803714109,2.3580179308075997,1.7323094162822867,,,0.6153451465759925,5.494061943674132,inf,,0.6001457969811956
512,,0.0,0.0,1.6928133777803578,1.6784363638520718,0.8302787188779628,3.4182082851928026,6.407987629651539,,,0.6468212168108125,inf,,,0.8925124271236605
513,,0.0,0.0,1.6118264562165687,1.615768651904191,0.7475939772150072,3.3040681942995165,2.971731929385742,,,0.648888643467878,inf,,,0.9478533298595901
514,,0.0,0.0,1.6101313286594936,1.5845945705875666,0.8144863773716726,2.675206832701345,2.6405455622581675,,,0.6425374456860184,inf,,,0.9492112360949068
515,,0.0,0.0,1.5664595476422318,1.5661628740064915,0.7855132611027086,1.7393084033756112,1.491740845657368,,,0.6333676938231112,inf,,,0.9474527271258673
516,,0.0,0.0,1.5065386149243603,1.4087665756942016,0.7224455409020226,1.774311264093855,1.164830708659961,,,0.6153451465759925,inf,,,0.9504521974956649
517,,0.0,0.0,1.7603247205476782,1.701083900102575,0.6504237509455923,3.54342445014334,2.3200357966057994,,,0.6333676938231112,inf,,,0.6574346434935415
518,,0.0,0.0,1.7306211697886564,1.682977150746444,0.6910210317750823,3.011391792394351,3.9534216384737633,,,0.6380535849069913,inf,,,0.6294441279478487
519,5.703782474656203,-0.38025216497708014,0.0,1.7329212530331017,1.7205848824434056,0.5331611418070614,2.6372738397883486,2.8370267581884674,,,0.6509067234006624,8.411832675758411,inf,,0.8340645283385049
520,5.455490947291444,-2.436785956456845,0.0,1.6024899112759075,1.5336052050613056,0.6302478273231852,2.199497549125822,1.4652390089589775,,,0.6447042257417027,6.203558262235607,inf,,0.6614281829952525
521,5.085570124427061,-0.6272203153460042,0.0,1.6477406657370681,1.6311892426468442,0.6751506616684083,3.209072477506696,4.603349435214804,,,0.6309483474627791,7.159069707263043,inf,,0.8457920970601394
522,5.703782474656201,-0.9126051959449921,0.0,1.7322790545623308,1.6836978750739855,0.730020493751635,3.045045401238877,3.590230685148806,,,0.648888643467878,7.536363938404511,inf,,0.7338927195155294
523,,0.0,0.0,1.7649671886730807,1.727610821873547,0.7429061599874636,2.632030937033971,3.088272381463944,,,0.6528756675646988,inf,,,0.8047939932357705
524,5.703782474656201,-0.03802521649770801,0.0,1.5098612030753205,1.4942306473480387,0.733723284078973,3.123541650860074,1.9377820631600238,,,0.6447042257417027,10.714417768752456,inf,,0.7082885230586072
525,,0.0,0.0,1.7020199274984436,1.6880894891415552,0.7033225911461994,2.1017464640247123,1.7870015573093774,,,0.6357360191111145,inf,,,0.8407587347216003
526,5.703782474656201,-0.4753152062213501,0.0,1.6088252928438682,1.570519175204317,0.6630116843092565,2.300127010629163,1.859755098484098,,,0.6180765742263259,8.1886891244442,inf,,0.8626085746422522
527,,0.0,0.0,1.6165718810911853,1.5896688778627686,0.678383417116251,2.960486501684208,1.8221507422351428,,,0.648888643467878,inf,,,0.8142424103128071
528,5.703782474656202,-0.49432781447020413,0.0,1.7577250184396602,1.7017009009477064,0.8341308294712065,2.919645955152451,2.502405738605144,,,0.6509067234006624,8.14946841129092,inf,,0.7864126819929147
529,,0.0,0.0,1.4020766373427447,1.3746010096615369,0.6803445605040025,3.05790549987512,2.8018994257316328,,,0.6038851895711802,inf,,,0.7611431772390308
530,5.447061296671035,-5.373525655030777,-0.019065028673547448,1.1840840196757585,1.1485374592621902,0.7073358240161518,3.604235570465674,3.493893762732825,6.024007457730234,,0.6038851895711802,5.3768796890511386,6.030685260261263,inf,0.609956136422525
531,5.576705491553542,-1.1153410983107086,0.0,1.7633960708490293,1.741002231092713,0.7798974839913562,3.9233896053040964,4.262784731139025,,,0.6566669596287297,7.144885072271086,inf,,0.7591421906441439
532,5.7037824746562,-1.292857360922072,0.0,1.7411378743462806,1.7028009875514822,0.7570897702499152,3.2980298688602954,3.3346587966574406,,,0.6357360191111145,7.188057244136296,inf,,0.815740708416758
533,5.6174985932586985,-4.512723869917821,0.0,1.598016296524641,1.596517727172691,0.7885106246650823,3.756967095759002,8.685652290525566,,,0.6380535849069913,5.805446128432701,inf,,0.8177122143015602
534,4.840691515491758,-4.53411438617728,0.0,1.4283131192371843,1.4150225413419864,0.7497820118201569,3.9552560151748044,2.211258903510159,,,0.6333676938231112,4.857914207078592,inf,,0.7298891241965997
535,4.004652959921248,-3.9779552735217734,0.0,1.525581202306191,1.4919001676737635,0.7411046302340162,3.3780338707232387,4.577164176470716,,,0.6309483474627791,3.933927840816196,inf,,0.6389574990637036
536,4.885442328640681,-4.462037326825155,0.0,1.711548065879862,1.7200008093840928,0.7572688859063007,4.273688877505957,7.105241334681799,,,0.6357360191111145,4.840892519509161,inf,,0.6029431565344187
537,5.617139077086208,-2.2468556308344834,0.0,1.684204247103341,1.6394587547754644,0.8266243639274612,4.775133600028573,31.242283630235214,,,0.6357360191111145,6.502290170873972,inf,,0.5714422411809565
538,4.836807393885182,-4.836807393885182,0.0,1.743595306464693,1.7349218433174207,0.73582028265751,3.7563275360277473,5.293751006011705,,,0.6403206450210053,4.668228321955228,inf,,0.6939284518050083
539,4.359242381094874,-3.3711474413800357,0.0,1.7087001822982504,1.7020216199431724,0.7541891842192857,3.5996480229789016,1.9729211941660312,,,0.648888643467878,4.530268877814973,inf,,0.5911398654207652
540,5.140843827992839,-3.907041309274558,0.0,1.5148826175586039,1.4834432070728651,0.6650271700120673,3.8399368631061574,5.158648211629919,,,0.6425374456860184,5.381698975487088,inf,,0.6775755822830599
541,4.521634440432926,-3.9790383075809754,0.0,1.7268098848299887,1.6711176296540606,0.7260679079090953,4.457338527019661,3.5531020440599903,,,0.6425374456860184,4.615220521841593,inf,,0.43482513394787725
542,5.445506367493745,-2.7409048716385183,0.0,1.6713870675697762,1.5619733661193163,0.7416437808386432,2.24685329653342,1.1056655259249988,,,0.6233814453054027,6.018493219495901,inf,,0.6417173414933568
543,4.392505730568072,-2.161897375763021,-2.230608354805051,1.6403174412281256,1.63501886293777,0.7167241055871755,3.3985047857772592,1.8989742909068879,2.445331143749912,,0.6584896970785714,4.320827014801825,2.324563999712821,inf,0.7897895487767321
544,4.871130700296244,-4.757470983955998,0.0,1.6100955783608173,1.6051486016753997,0.6472972211323035,2.7148784986673324,1.9426216546043458,,,0.6333676938231112,4.855057062277812,inf,,0.7900889983032993
545,4.695909689410507,-4.101094462085176,0.0,1.6916936281269401,1.6911371898301346,0.8072348840769102,3.6961211437159474,2.94563169518244,,,0.6528756675646988,4.689760254288711,inf,,0.6495601806239981
546,5.195467581804326,-5.195467581804326,0.0,1.6609889209822764,1.6341414269591545,0.6758644996987534,3.180852171073494,2.253444598668601,,,0.6380535849069913,5.103116146890421,inf,,0.6350697875175509
547,4.851481674531889,-4.7059372242959325,0.0,1.2467430213519974,1.20539595114751,0.7330045361293187,3.0551738206858854,1.9992713111311846,,,0.6180765742263259,4.85078659315436,inf,,0.5417390638023577
548,5.292553357193978,-5.292553357193978,0.0,1.4716188048683407,1.4332149983573008,0.6873311990319355,2.4320523076976674,1.8705075235808408,,,0.6125606311107803,5.2030071867437115,inf,,0.7138937637686612
549,4.782977254204267,-4.782977254204267,0.0,1.6958722908484414,1.7013348538264845,0.6883166982563407,3.5203212988218713,2.999419911548019,,,0.6509067234006624,4.678936336227701,inf,,0.83448752560946
550,5.238458095944292,-4.278074111687839,0.0,1.5505103392960466,1.5482143227821419,0.7400616216326178,3.2780102261544815,2.995849619675499,,,0.62595550513784,5.357831494080444,inf,,0.7981375279665225
551,5.165500619654724,-4.270147178914572,0.0,1.3290741400927382,1.3002069521387443,0.7467431794653764,3.4212542958598204,2.9740079917166535,,,0.62595550513784,5.2234160583749185,inf,,0.5307513862957752
552,4.699592037025917,-4.0259838450522025,0.0,1.4772166745397726,1.435248563784046,0.6896983776152499,3.7158939176448316,3.0623805191826645,,,0.6403206450210053,4.75728590072498,inf,,0.7733115850772889
553,4.943617145759631,-4.943617145759631,0.0,1.3614389614601476,1.3285385906896465,0.7238305238690441,3.328618138157218,4.722070038064649,,,0.6333676938231112,4.853631545286591,inf,,0.784987330292551
554,4.966067373096842,-2.6651228235619717,0.0,1.7641467408251859,1.773184643258885,0.7536440226835129,3.4360702027473673,3.0913703739915976,,,0.6528756675646988,5.313995179267266,inf,,0.8516642377407436
555,4.727314911665898,-3.000185753717273,-0.7816661756154454,1.5236351008792715,1.4797053957245343,0.744350965925959,2.6564982128766057,2.4051886713605786,3.099402528191827,,0.6333676938231112,4.717965680133436,2.9760272024746586,inf,0.558498582948991
556,5.465646019985298,-2.9696676708586787,0.0,1.3289956234445093,1.2804227808092334,0.6779294356442923,2.6969324716969445,2.8500977391269298,,,0.6528756675646988,6.018493219495901,inf,,0.7419513552061433
557,5.003234369541777,-4.4862334846891265,0.0,1.6306904423591735,1.6155288110605335,0.752979363472196,3.4639841470016455,1.9537144595667661,,,0.6547956803312163,5.030838001413775,inf,,0.7224224391783642
558,5.122362272893568,-5.122362272893568,0.0,1.5510118968585118,1.5013457207699985,0.5965872767458653,2.6770325779193893,1.9704795483254816,,,0.6180765742263259,5.06720564558465,inf,,0.7647806056160823
559,5.021749966875471,-5.021749966875471,0.0,1.6369345553572199,1.6297103939619082,0.7878692528868741,3.4726186544765167,1.2923811842299293,,,0.6333676938231112,5.008970014777194,inf,,0.6387459699807477
560,4.739716952955449,-4.297343370679608,0.0,1.7347595150262527,1.7227235634090192,0.7764364965660034,3.011398945929366,2.1707188490735883,,,0.6357360191111145,4.704376836071539,inf,,0.46207288626386517
561,5.019607821398524,-4.333594752474059,0.0,1.7558739820920257,1.7434268050949155,0.740539403234712,3.630345880952879,2.6948552044164793,,,0.6380535849069913,4.9973900673462355,inf,,0.7772246060076975
562,5.143587191715542,-4.526356728709677,0.0,1.6995573120797571,1.6762220005562989,0.7889060049407283,4.193536788105572,4.103989974333259,,,0.6380535849069913,5.181028280024937,inf,,0.7013486649778966
563,5.600384828937314,-3.37889884679218,0.0,1.499256338530118,1.4090736954329544,0.6930443411212057,2.9755211914019086,1.902626762537757,,,0.6380535849069913,6.070026869611084,inf,,0.6192859901340576
564,5.020733145526895,-4.6358102710365,0.0,1.7386257858994183,1.712313217244292,0.812500135563756,3.930956586081224,2.9657116008228637,,,0.62595550513784,4.866534950122499,inf,,0.4640905831921392
565,5.066510927888671,-5.066510927888671,0.0,1.6940683518286386,1.6970895762590927,0.7332462581297327,3.584987383201045,4.137520921018303,,,0.648888643467878,4.955515994875176,inf,,0.6088144046143515
566,4.197311565698247,-4.197311565698247,0.0,1.4505422964851753,1.40046418836857,0.7034628359711236,3.656787868235151,2.0116218044740757,,,0.6380535849069913,4.187191112588453,inf,,0.601083025676404
567,5.164386105273316,-2.341188367723903,0.0,1.1628393005428692,1.1390474338718608,0.7180508281872741,3.4075232884322135,2.85158361046712,,,0.6233814453054027,5.835410917134637,inf,,0.6597520533462005
568,5.2988314511680175,-3.8681469593526527,0.0,1.464725240361159,1.421175236616176,0.7704193854193635,3.6574311809345605,2.4228746270217623,,,0.6447042257417027,5.5270319629117015,inf,,0.5706526942384625
569,5.327817103026938,-5.061426247875591,0.0,1.6299137891563777,1.5996495620898032,0.6784125121580126,3.687652624208827,2.7928914575688326,,,0.6403206450210053,5.320790222400095,inf,,0.4731650354134584
570,5.703782474656202,-0.7034665052075982,0.0,1.4268596674513314,1.4037471009613172,0.7648617458503755,3.6142055160513835,5.941916228359056,,,0.6447042257417027,7.796647036668178,inf,,0.8506258458742815
571,5.703782474656201,-0.09506304124427002,0.0,1.663481768456633,1.59449292427355,0.709579086775387,3.519355413336051,2.4695964121715615,,,0.6403206450210053,9.798127036878302,inf,,0.7617693682385897
572,5.4998428664840455,-2.841585481016757,0.0,1.7449469337699548,1.7265225107551219,0.7637537546434974,3.923113672081976,3.117681660838479,,,0.6309483474627791,6.0796887805228215,inf,,0.710381181301458
573,4.945758848984698,-4.088493981827351,0.0,1.7047094543373835,1.6594001776071956,0.7961676211207586,3.2455097209535233,1.9406121301930597,,,0.648888643467878,5.094016903035307,inf,,0.7049311351173762
574,4.446645768231747,-4.372535005427884,0.0,1.6875182390540406,1.6576595822577032,0.7940422119847845,4.183037550831473,4.854576313238926,,,0.6619902821573977,4.189388110908995,inf,,0.6213760128674819
575,5.277304281721776,-4.731982839277193,0.0,1.6974959020892357,1.6688177817817875,0.7481199576925942,4.03913018030894,6.230379330223437,,,0.6509067234006624,5.327631754216812,inf,,0.6708946999788755
576,5.666814625026336,-5.666814625026336,0.0,1.6565394990029891,1.6289898941524696,0.6644761597445084,3.7357202102819875,7.625140330800072,,,0.6357360191111145,5.65182273572549,inf,,0.8083772479888325
577,5.403700463560126,-2.9540229200795354,0.0,1.695635344353135,1.7006283114147132,0.7203759431396057,3.268276168283754,2.9623674807198044,,,0.6333676938231112,5.947979435168243,inf,,0.5955339267980988
578,4.833787940849151,-4.769337434971162,0.0,1.725020438755386,1.7059446637356792,0.8001341422736757,3.0142589254245356,1.8146338700378206,,,0.6652988471865258,4.692181562977721,inf,,0.6054620508629509
579,4.5727941003257655,-3.9478455732812443,0.0,1.445246329990507,1.3737589062448226,0.7220778613255098,3.084183871629587,1.6451396350898446,,,0.6447042257417027,4.663505763001055,inf,,0.6629364141317623
580,5.642977496074679,-5.041059896493381,0.0,1.5090117282786666,1.5073366651824267,0.7280851937144648,2.551044343063728,2.744145826567994,,,0.6309483474627791,5.72398518197372,inf,,0.5978760009653409
581,5.274691362880994,-1.1076851862050088,0.0,1.7285732763662152,1.7096207281276008,0.6025466745489951,2.004073080537626,2.2061471548698983,,,0.6008849035917525,6.782592136028131,inf,,0.42349542902304993
582,5.343222209707865,-4.381442211960449,0.0,1.6645432079991132,1.619251053585395,0.6971288182861193,2.3745724738513436,1.6741542986076472,,,0.6425374456860184,5.451727579847571,inf,,0.5107819877095056
583,5.124908388874931,-4.69783268980202,0.0,1.3675480211649746,1.3544592520351684,0.6692603933028216,2.9329999526020893,4.247657671055608,,,0.6097226960127671,5.144166686720778,inf,,0.44178762586791215
584,5.428325589286094,-3.2027120976787953,0.0,1.739782137200184,1.6922602794193082,0.8269374175000049,3.060672979230606,2.5336473448385064,,,0.6403206450210053,5.787164083595252,inf,,0.6818866341705576
585,5.380313790394891,-1.3450784475987227,0.0,1.6703222238590594,1.6689665820582118,0.8492653578012989,4.765299573365354,21.547032843956814,,,0.6425374456860184,6.707084583519986,inf,,0.7498826114881421
586,5.133306846792722,-3.644647861222833,0.0,1.6812424752297763,1.6526410161556382,0.7337451495134403,3.9221939799256256,4.672183827233802,,,0.6333676938231112,5.379286429081704,inf,,0.5142120545858543
587,5.455178275923574,-4.073199779356269,0.0,1.4390052460896672,1.4320668482050565,0.7783755683129481,3.8898834149632244,7.861701103713486,,,0.6008849035917525,5.683979847360021,inf,,0.5973382226271654
588,5.4161695366645235,-4.350989527787167,0.0,1.6110421324602548,1.5718568604044496,0.7549189891048795,3.5877774337613997,11.369780625943115,,,0.6207552362147116,5.575682472028885,inf,,0.656299972841711
589,5.703782474656203,-2.034349082627379,0.0,1.4845530628990564,1.4374775448055923,0.6935417378570703,3.1786917384637143,3.560803182147621,,,0.62595550513784,6.734736114850496,inf,,0.7217975522221034
590,5.291372324215516,-4.92097626152043,0.0,1.6249046626847456,1.6177766978696733,0.6420273836090643,3.3859487822501793,1.7562704266945048,,,0.6125606311107803,5.309490667146162,inf,,0.8134359169880252
591,5.637768457460017,-3.5517941281998104,0.0,1.7189002776012108,1.7141716321433516,0.6778920581813661,3.0453387830900005,3.265281951574481,,,0.6180765742263259,6.074846156047033,inf,,0.6667859805603183
592,,0.0,0.0,1.2443736878528808,1.2040706565684416,0.7101733562173006,2.6641221026689914,2.307251957680178,,,0.6068309995095971,inf,,,0.7202292526071712
593,5.668053238544864,-3.6653410942590123,0.0,1.4727801420779465,1.4312040137093631,0.6817482215204156,2.673379489190569,2.5166545340148225,,,0.62595550513784,6.089444955468186,inf,,0.6224295602938512
594,5.211779488609751,-0.7920222532365696,-0.6672760035741606,1.7073885711785304,1.6946771783532837,0.5331604258377916,2.904527208600422,3.202274167019973,1.5645388970828733,,0.6447042257417027,6.370612346898773,1.4816045409242156,inf,0.7454362952336518
595,5.703782474656201,-3.5173325260379906,0.0,1.7342810617274074,1.7341388227849797,0.6955777293793509,3.2410284039041346,3.3972547854343125,,,0.6468212168108125,6.187209124234077,inf,,0.7635405168070958
596,5.592174030328754,-4.39917690385862,0.0,1.4728328948392233,1.4717416436927608,0.6534845509588044,3.4898772244808303,5.090899957873257,,,0.6068309995095971,5.794436842924332,inf,,0.7639404135262372
597,4.596310354852898,-2.71182310936321,0.0,1.5873241036049117,1.5909775400273165,0.7341494078687442,3.519215911049447,1.8812001167906964,,,0.6357360191111145,4.9682145782123035,inf,,0.7401768710089978
598,4.974541452319155,-3.96305135701426,0.0,1.6541141453410655,1.6251749508972522,0.7835326672694518,4.112207227365029,5.570588786388585,,,0.6380535849069913,5.0206856299497575,inf,,0.5163233721712528
599,4.389714686541392,-2.1216954318283396,0.0,1.701588607993822,1.6905355738586074,0.7004547744127182,3.761328347097911,14.64748155982586,,,0.6357360191111145,5.049722682804303,inf,,0.7341419351761624
600,4.767373639756083,-4.640243676029254,0.0,1.6988025061882093,1.6295716116822327,0.7158912386397622,3.589226781208349,2.680733566568356,,,0.6403206450210053,4.386480985023262,inf,,0.8584188793303076
601,4.122626234248296,-4.122626234248296,0.0,1.722637851407142,1.7101923652901097,0.7607171618031112,4.231374133931248,8.5652745655809,,,0.6547956803312163,4.003285831275134,inf,,0.49801494509262
602,5.6135499834001115,-2.6009448256420518,0.0,1.5684543749145237,1.5126181285054459,0.7748608159255665,3.7831849694517867,5.40917222814276,,,0.6547956803312163,6.332391134078575,inf,,0.6326318496858544
603,4.963313554338093,-4.715147876621188,0.0,1.6716201815958769,1.6634849951488204,0.7953557895689974,4.736196873387292,10.424211673026207,,,0.6380535849069913,4.815891217303744,inf,,0.6849173023723295
604,5.355090517917643,-3.5879106470048208,0.0,1.7410014288881952,1.7028874774654925,0.7481794800128363,3.4831345608553517,4.169542364433696,,,0.6380535849069913,5.658171963404149,inf,,0.6752089698251352
605,4.532645091113986,-4.049162948061827,0.0,1.4911148467138138,1.443931725229155,0.5786586790561644,3.452006783366572,6.271499994166302,,,0.6233814453054027,4.410883461135864,inf,,0.6014457619714755
606,4.573462950545229,-4.573462950545229,0.0,1.7566712002279652,1.7281121618014332,0.822580290578886,3.5453394260523305,1.97859733845922,,,0.6125606311107803,4.425630272156013,inf,,0.5477812844485256
607,4.3705355689866545,-1.7014315546900116,-2.669104014296643,1.4394728099181657,1.4225229902501362,0.7581659239303862,5.164022499347208,15.358301148881562,2.1854053753047715,,0.6403206450210053,4.347947321021019,2.117975205682079,inf,0.5651013189590748
608,5.592878925766611,-1.8642929752555368,0.0,1.6296282313476467,1.6072551215083295,0.7423020259614919,4.265232418569997,4.525398479390385,,,0.6447042257417027,6.653974758206037,inf,,0.5294042496812242
609,4.849863643377574,-4.849863643377574,0.0,1.7082664298935573,1.7076372676025844,0.8001304564220727,4.4858512094525205,17.78839140591299,,,0.6447042257417027,4.6096245363374715,inf,,0.532583329191053
610,4.353618950828412,-4.353618950828412,0.0,1.724934677923015,1.698814952475396,0.8288665642345613,3.3646516789502967,2.1953240957256814,,,0.62595550513784,4.089688750685907,inf,,0.520440703561382
611,4.7924660391824165,-3.402650887819516,0.0,1.5169058742053938,1.4913564802235921,0.7709554499740792,3.4619027320777827,3.4073297397793043,,,0.6380535849069913,5.060175739656392,inf,,0.47553837511886976
612,5.501649407695581,-3.2579601045632494,-0.6482109749006132,1.6801646703328967,1.6716256868274981,0.7038593612608685,3.324080728361564,4.031888534948402,2.237571713450053,,0.6380535849069913,5.762118051669164,2.119086373027076,inf,0.5540246124234922
613,5.540046920193225,-2.3452865295484653,0.0,1.5165953781874835,1.476822804014192,0.7742871908787226,3.6918678996316805,4.496038787905249,,,0.648888643467878,6.351319143964094,inf,,0.8128879915206926
614,5.703782474656199,-2.56670211359529,0.0,1.7257018202003418,1.7136078924002158,0.6018738113980824,3.265635534264892,5.24287757790404,,,0.6403206450210053,6.502290170873972,inf,,0.6768333921031164
615,4.984590913533889,-3.2966464034637424,-0.07626011469418979,1.7071462858866013,1.697411684904238,0.7400181067304101,3.4721661234625487,2.574876162229512,,,0.6333676938231112,5.03424515973539,4.987025428457122,inf,0.5180992682679278
616,4.254065488811026,-1.4018985931628347,-1.9446329247018392,1.5459882821625142,1.5317203510915938,0.6638896211502278,4.1082337913556355,4.186142085401068,2.638852041589847,,0.648888643467878,4.28469829071332,2.4978938453148114,inf,0.6880346951987828
617,5.503201422406253,-5.007913294389691,0.0,1.4470993013645261,1.4192018293967152,0.742989049704629,3.956908475001106,13.789422895451908,,,0.6425374456860184,5.543933773714305,inf,,0.5844463841510664
618,5.017031685007968,-5.017031685007968,0.0,1.5420403688020623,1.514115675634238,0.7265038613126147,3.5642962830718936,3.899474753968616,,,0.62595550513784,4.897306608789252,inf,,0.7401235345037629
619,5.107860660303696,-4.597074594273327,0.0,1.6103819222246338,1.5870422606340269,0.6737399763389968,2.636707611183882,2.2499656610555894,,,0.6180765742263259,5.032540129484306,inf,,0.8119483005831001
620,4.757947943020974,-4.186994189858457,0.0,1.6442616002766721,1.6293239040896377,0.7240491796975299,2.9588186512658443,2.5562961853149053,,,0.6008849035917525,4.767689115485866,inf,,0.7507801746547185
621,5.025827300910125,-4.288705963443307,0.0,1.6627375869907541,1.6321318904993631,0.7991067246430282,4.99161706760539,39.56503790956475,,,0.6468212168108125,4.958675555165545,inf,,0.5176995870998873
622,5.703782474656204,-1.9582986496319632,0.0,1.7026787288702425,1.6867910461433304,0.7729629743244253,3.499316384377436,4.430295890912901,,,0.6207552362147116,6.772835961082766,inf,,0.8307263417067373
623,5.4847218091018775,-3.8758700784319937,0.0,1.6726267060280027,1.6267864223316248,0.7736278035097451,4.045699124256294,12.255533617468021,,,0.6425374456860184,5.7763531674910364,inf,,0.6105251601724045
624,5.587041896877684,-3.5384598680225334,0.0,1.49969572198093,1.502982331550895,0.6012439396876,2.5176943326544383,2.289454074175325,,,0.6207552362147116,6.0048875674401225,inf,,0.7815978591357002
625,4.795138866575862,-4.52341433080323,0.0,1.6770861124475922,1.6238929155718267,0.6267820879487116,3.336422832483658,2.0627757301402827,,,0.6403206450210053,4.755993075722675,inf,,0.654961268885871
626,5.186794706740996,-5.117637443984449,0.0,1.7098658363019994,1.6500001656146315,0.8092045842632454,3.5172084003453135,4.701976111533834,,,0.6333676938231112,5.053194908515052,inf,,0.7095364881040226
627,5.093365923364468,-4.5401993435190375,-0.4003656021444964,1.6521867826725571,1.596601362623357,0.6723903282162483,2.772096629404094,2.5003214981095625,,,0.6333676938231112,5.056679232597663,3.3063632789913164,inf,0.4673358988565842
628,4.941488336213426,-3.8214176466717156,0.0,1.6943210985942976,1.6801437443997116,0.7545901263210211,4.5521400157817755,2.5928207758986215,,,0.6357360191111145,5.049722682804303,inf,,0.44605765983509704
629,5.111640094279891,-3.6974196681957876,0.0,1.7498643788557782,1.7434817733798498,0.781462232272411,4.619322685649665,3.4600482990185277,,,0.6528756675646988,5.367310238034988,inf,,0.6341599927705553
630,5.7037824746562,-2.490651680599874,0.0,1.495841966075679,1.5179396922361497,0.8160270107780689,2.939038773184043,2.046214289722801,,,0.6528756675646988,6.532367626111251,inf,,0.6392684352204846
631,,0.0,0.0,1.5829255436511,1.5805496894142819,0.7199295902236074,3.44818373177377,3.0086284385810123,,,0.6584896970785714,inf,,,0.6315900995871182
632,5.703782474656201,-1.540021268157174,0.0,1.7357666718614908,1.7167823895607346,0.7650945669313536,3.903283043846021,15.55817818337679,,,0.6153451465759925,7.013115794639964,inf,,0.850619739180693
633,5.124294726649091,-4.270245605540909,0.0,1.6368269633523056,1.5905764705362215,0.7546233837429766,3.530224999689934,2.197586574403809,,,0.6619902821573977,5.186974779212663,inf,,0.8055510568929775
634,4.860060280434133,-1.8468229065649704,0.0,1.6672218527984557,1.6536774165943182,0.8073259899231354,4.241164355212369,3.541919817932137,,,0.6468212168108125,5.6486631754351215,inf,,0.5182860764774879
635,4.779901736506814,-4.748035724930102,0.0,1.681196145595158,1.6366201873830868,0.7342586642053064,3.6129927189595668,2.6465976739264847,,,0.6468212168108125,4.584278826956715,inf,,0.8477082049137447
636,4.742757579461167,-4.062962326405066,0.0,1.6535437940586983,1.6135466714251454,0.7888387861171737,3.048082953089778,1.794708326164038,,,0.6547956803312163,4.713002890791307,inf,,0.581658329693796
637,5.6426745793704995,-3.2727512560348897,0.0,1.2191307335213455,1.1689849682014044,0.7017547119234451,4.087989753728124,5.407556159559876,,,0.6125606311107803,6.155291521265772,inf,,0.48232413949970354
638,5.703782474656204,-2.0913869073739413,0.0,1.5126053016140129,1.4811146508157318,0.7936072113648449,3.5338297688438773,2.8794425901479537,,,0.6468212168108125,6.707084583519986,inf,,0.6575907868107898
639,4.768937323948943,-3.767460485919665,0.0,1.6912464432134091,1.6648812893796114,0.7696682492085566,3.388750823367575,2.045731275719126,,,0.6357360191111145,4.875230657090053,inf,,0.6006524070072188
640,5.486626755443575,-4.3893014043548595,0.0,1.7209404772191634,1.6458670473054438,0.7285670782371203,3.0684012657406194,2.6157550618895966,,,0.6233814453054027,5.636123826182386,inf,,0.740781104189173
641,4.938329050503725,-3.7366689815478185,0.0,1.473439443408311,1.458819329392106,0.757649426760767,2.8148521448139086,1.9239728359622768,,,0.6309483474627791,5.097646671085886,inf,,0.8051086333647903
642,4.524955918720708,-3.6652142941637735,0.0,1.377289723137999,1.3188341985283742,0.762734505569912,3.306037106155672,3.221244417127593,,,0.6380535849069913,4.681331546953656,inf,,0.5478150403759696
643,5.137660146646402,-5.137660146646402,0.0,1.7361610990869822,1.72357331748208,0.749584741914554,3.2098589418742844,2.3413507874997843,,,0.6333676938231112,5.058425957932604,inf,,0.7038134524666433
644,5.2962327736961115,-1.959606126267561,0.0,1.3441943564211507,1.3207498543769465,0.7690273572328492,3.3204134460238373,2.9273702364377443,,,0.6425374456860184,6.214608098422191,inf,,0.7162238433547172
645,5.457426057971526,-4.129452383865122,0.0,1.7763864408423538,1.719459032611565,0.7181012014514699,2.6748229834368433,1.87940124013886,,,0.6125606311107803,5.667772037133168,inf,,0.5313008571497866
646,5.7037824746562,-1.121743886682386,0.0,1.5336336596467273,1.5201270312816082,0.5869864720414165,2.288500107815069,2.535115146663823,,,0.6180765742263259,7.330027505406683,inf,,0.8219380187596662
