,bvp+hr_XAp0,bvp+hr_XAp1,bvp+hr_XAp2,bvp+hr_XCond1,bvp+hr_XCond2,bvp+hr_XDist,bvp+hr_XFuzz1,bvp+hr_XFuzz2,bvp+hr_XK2_1,bvp+hr_XK2_2,bvp+hr_XPermEn,bvp+hr_XSamp0,bvp+hr_XSamp1,bvp+hr_XSamp2,bvp+hr_XSpec
0,5.703782474656203,-0.38025216497708014,0.0,1.7306227240450145,1.689621059081066,0.6056530715095366,0.9916535732113135,0.9609386486677072,,,0.6357360191111145,8.411832675758411,inf,,0.8303787238495617
1,,0.0,0.0,1.5458441436418104,1.552829276687695,0.817342657382906,0.9139147401717329,1.0690074249607515,,,0.6233814453054027,inf,,,0.9282805737421181
2,5.703782474656201,-0.19012608248854004,0.0,1.4854245066378617,1.4822192107540724,0.745016065166876,0.5986812195212211,0.6963911125017954,,,0.6180765742263259,9.104979856318357,inf,,0.9766088264337677
3,,0.0,0.0,1.5460679396588883,1.527977245087719,0.8310210741571664,0.6260279599347285,0.6890125554050935,,,0.6153451465759925,inf,,,0.946049105128577
4,,0.0,0.0,1.7182272170941768,1.7147755657160906,0.9415545241632756,0.5786378620653834,0.6466680306143993,,,0.6207552362147116,inf,,,0.9331530255226368
5,,0.0,0.0,1.4637785060409527,1.4189049304589842,0.862094201904706,0.4929810245887895,0.6018520742260529,,,0.581717464821069,inf,,,0.8814017745190007
6,,0.0,0.0,1.7126778892896424,1.4835000156087497,0.6951196284569682,0.8692042657711405,0.7661775505866103,,,0.6333676938231112,inf,,,0.6018697887931945
7,5.703782474656201,-0.13308825774197802,0.0,1.5053285856539387,1.4726291872476835,0.5806116074879762,0.856860352741683,0.8292265814108146,,,0.6068309995095971,9.461654800257088,inf,,0.6286047207131029
8,,0.0,0.0,1.6805414281916198,1.610730377999486,0.9457900412753227,1.0852172588239106,1.1012825905026633,,,0.6380535849069913,inf,,,0.9506570542681476
9,,0.0,0.0,1.5488678262555728,1.5393449918332094,0.791062079987905,0.7955177403532956,0.8460609302601125,,,0.6125606311107803,inf,,,0.964297258694274
10,,0.0,0.0,1.6364597699140493,1.6144141364547895,0.8854526710024004,0.7958067560167899,0.8095479072223838,,,0.6309483474627791,inf,,,0.9392914734160376
11,5.703782474656199,-0.9886556289404079,0.0,1.7220722334728582,1.7057151669495907,0.6705868980176524,1.1703673259529273,1.1441525327585242,,,0.6425374456860184,7.456321230730975,inf,,0.5983583588882891
12,,0.0,0.0,1.5447750742114983,1.5042612891094096,0.5122430451453792,1.285231112614951,0.9740931908508073,,,0.6333676938231112,inf,,,0.6645509323659496
13,,0.0,0.0,1.6275672693386687,1.5805365120810175,0.7766554294761249,1.6069065946198073,1.2114680344440305,,,0.62595550513784,inf,,,0.9304574019884154
14,,0.0,0.0,1.6273556675259089,1.5647618747694132,0.8262396109994358,1.3263087972366623,1.104062820857721,,,0.6333676938231112,inf,,,0.9549655910912103
15,5.703782474656203,-0.3992647732259342,0.0,1.668220424515763,1.6637282270884255,0.5895435639174538,1.6740417374123633,1.2382226649557542,,,0.6468212168108125,8.36304251158898,inf,,0.9358454486256634
16,5.703782474656202,-0.34222694847937213,0.0,1.3630162446748222,1.3443874472144453,0.666087196054271,1.2634968364121415,1.136127204935072,,,0.6403206450210053,8.517193191416238,inf,,0.7636650811603822
17,5.468749809983575,-3.1718748897904736,0.0,1.4204439201544132,1.380914521065385,0.6702160613115806,1.7389871518590014,1.2981447336580185,,,0.6380535849069913,5.956526495746702,inf,,0.6939095481990496
18,5.555250935964787,-2.33320539310521,0.0,1.256677971710866,1.173958162022877,0.6645492384070838,1.5121803697471587,1.017189934608853,,,0.6357360191111145,6.3771270279199666,inf,,0.7010367468542578
19,,0.0,0.0,1.673570215058982,1.6333657402200032,0.8868053204765921,0.24104865745116205,0.3361857183927659,,,0.5329562494928909,inf,,,0.9045164375427369
20,,0.0,0.0,1.7456125308791772,1.7494369602147863,0.8963072679138,0.31261917999774347,0.3168696643847403,,,0.581717464821069,inf,,,0.9247952238175162
21,,0.0,0.0,1.6334422598022877,1.6286387032617669,0.6053580630009058,0.3747332655496331,0.3322325742752566,,,0.5947193981915972,inf,,,0.9569175258663183
22,,0.0,0.0,1.5850929427675833,1.5515252197812377,0.858941202110261,1.3170804175450153,1.1858519285469376,,,0.6333676938231112,inf,,,0.9007445316177797
23,,0.0,0.0,1.7722193226077154,1.7267822105355646,0.8972455093631309,1.5971392849576127,1.5033581347339506,,,0.6509067234006624,inf,,,0.9414678962341533
24,5.703782474656202,-0.34222694847937213,0.0,1.7006233709257015,1.682432925852675,0.7390156457882076,1.3025584199487135,1.0462311883499533,,,0.6547956803312163,8.517193191416238,inf,,0.6977717663376194
25,,0.0,0.0,1.4684062495701338,1.4052160100690807,0.5231954404993229,0.8162594022844627,0.9321924951212917,,,0.5567373465730988,inf,,,0.7256092022440281
26,,0.0,0.0,1.6535009633045874,1.6015450044231696,0.7625618420799006,0.3459891965675439,0.4367656701415482,,,0.552929491858785,inf,,,0.9176142420676626
27,,0.0,0.0,1.6681719864875135,1.555895458843011,0.8752200566883038,0.6261566301675859,0.7152338736503105,,,0.5883313578629602,inf,,,0.9465469807088399
28,,0.0,0.0,1.7036941749808254,1.7387492842025651,0.8038446310007802,0.4762841163118923,0.6501952791176614,,,0.5604843169999094,inf,,,0.948834368766086
29,,0.0,0.0,1.604469171542172,1.6070527501577312,0.7290216007349709,0.5046111329888071,0.7188080236506461,,,0.5451288209179292,inf,,,0.9505095528760431
30,,0.0,0.0,1.6795205482105686,1.6566857130552821,0.7673996069875509,0.628476576921909,0.8797827519359482,,,0.5370774965580548,inf,,,0.9324029535881125
31,,0.0,0.0,1.7409426330047963,1.6800174474860712,0.7847367229293567,0.9801045993195452,0.9744657394678066,,,0.5641709578113449,inf,,,0.9473591390565298
32,,0.0,0.0,1.630069318741017,1.5888937229480395,0.9102126402292995,0.9302074325526553,0.9005653912127065,,,0.6333676938231112,inf,,,0.939784049325392
33,,0.0,0.0,1.5973174302352677,1.5595245180441273,0.9107017483329376,0.8120472610788787,0.7686899175977646,,,0.6468212168108125,inf,,,0.9537959373331985
34,,0.0,0.0,1.1199046366360177,1.1100517699516033,0.656072072730805,0.3380462881433645,0.42032924593922305,,,0.5677978065141052,inf,,,0.9420597744005681
35,,0.0,0.0,1.4135693433016523,1.3408462187802737,0.803444882384984,0.3219212286365667,0.3952302623488615,,,0.524519217297268,inf,,,0.9258916974511953
36,,0.0,0.0,1.7238533368411586,1.7302417283348344,0.6009422534017588,0.5052802385919039,0.6294543268750987,,,0.5641709578113449,inf,,,0.9596541600013135
37,,0.0,0.0,1.6943093710764803,1.6395212026893484,0.902503277050785,0.607278189902165,0.7713034513514525,,,0.5022576003740722,inf,,,0.9296642103815658
38,,0.0,0.0,0.9653864518188036,0.8118245203546043,0.6903885625182072,0.6255428874051449,0.6684094657030327,,,0.5329562494928909,inf,,,0.9488132842816596
39,,0.0,0.0,1.6829343393200624,1.6170929489782295,0.8892846065225201,0.40483672397470233,0.3913183124090658,,,0.6153451465759925,inf,,,0.9539471466329393
40,,0.0,0.0,1.7486269865043904,1.7470520321750176,0.9278162855997376,1.127220832378468,1.1692296312417818,,,0.6528756675646988,inf,,,0.9670743596119766
41,,0.0,0.0,1.7052074058651308,1.6686626121415242,0.6092372562020217,1.3323584177073553,0.8536081259158808,,,0.6509067234006624,inf,,,0.8166921946295913
42,5.703782474656203,-0.4182773814747882,0.0,1.6329577611325983,1.6192196276837134,0.7497183654499917,0.9431821762286616,0.8784411008092603,,,0.6180765742263259,8.316522495954086,inf,,0.7991470879943817
43,,0.0,0.0,1.7642324624476917,1.7595415073811438,0.8470961314203224,1.3922366340835843,1.3504929852162542,,,0.6528756675646988,inf,,,0.9526408736541581
44,,0.0,0.0,0.9156326302503164,0.8483771262398286,0.6757291872181014,0.71887295159657,0.672227801686667,,,0.5915533975974677,inf,,,0.826371623777326
45,,0.0,0.0,1.5942931145831185,1.5406711098795203,0.9105831572523491,0.6827849644563584,0.7087755287947277,,,0.6425374456860184,inf,,,0.6560321531065686
46,5.7037824746562,-1.121743886682386,0.0,1.720599575323668,1.7070808035496812,0.3942520572608317,1.2154171912666878,0.9485310757956187,,,0.6509067234006624,7.330027505406683,inf,,0.9515071310790583
47,5.703782474656203,-0.5893908557144742,0.0,1.2355409138959774,1.1829637356213338,0.6110840840337347,0.6245277376908914,0.5043314050245231,,,0.5947193981915972,7.973577744827256,inf,,0.6125020628695907
48,,0.0,0.0,1.564732415128766,1.579273435716986,0.7514305306370398,1.2095309763676052,1.0121843049785275,,,0.5978297680564633,inf,,,0.9387615143427143
49,5.703782474656201,-0.8555673711984302,0.0,1.6514279948865895,1.6629342339858515,0.6252579337015358,1.5142193312549554,1.239707572112929,,,0.6207552362147116,7.600902459542082,inf,,0.6056348065978631
50,,0.0,0.0,1.6533247161548772,1.6531360040353902,0.6383814422597539,2.2178031144819457,1.7657037149030756,,,0.6468212168108125,inf,,,0.6863006411954642
51,5.703782474656201,-0.13308825774197802,0.0,1.6872602961847762,1.6675502678503826,0.8042642258304694,2.1998969251596514,1.8417085902460406,,,0.6619902821573977,9.461654800257088,inf,,0.9604061873105317
52,5.703782474656201,-3.4032568765448663,0.0,1.4090370403374426,1.3631239846970553,0.5166230088947894,2.000032402841606,1.435775621857499,,,0.6447042257417027,6.220179143471647,inf,,0.5188651817996032
53,,0.0,0.0,1.4463903116966776,1.3880200421549118,0.7911451362442979,1.5245695245890982,1.248942303938561,,,0.648888643467878,inf,,,0.9371090032673167
54,5.679880847740341,-2.745275743074498,0.0,1.533433279181013,1.509334081092689,0.7447210390129392,2.435280259110051,2.041608994740799,,,0.648888643467878,6.396929655216146,inf,,0.6726024459480167
55,5.368388677611068,-0.554733496686477,0.0,1.571112173796219,1.4816009666182994,0.7719677843009789,1.735453627382018,1.3765016078730992,,,0.6528756675646988,7.578923552823307,inf,,0.6322253853555648
56,,0.0,0.0,1.5613470384848278,1.5201440166744287,0.7176783915742562,1.650049499092814,0.9763241523285942,,,0.6357360191111145,inf,,,0.739272463612691
57,5.189511985853662,-0.09775391237995379,-0.4384956594915913,1.630218798731641,1.6412034303888299,0.4986227843549438,1.2570266418801925,0.8804853581400838,1.0378672648668046,,0.6425374456860184,7.418580902748128,0.8534898306351247,inf,0.6872028592652658
58,,0.0,0.0,1.727749894611108,1.7344635314420291,0.8285720591655843,2.3256031202242076,1.7300682026845422,,,0.6425374456860184,inf,,,0.9566980625775293
59,,0.0,0.0,1.5229973835610697,1.4520946048817696,0.836475632123185,1.3909214451992769,1.0454800012772816,,,0.6333676938231112,inf,,,0.9498905825970393
60,5.703782474656201,-0.019012608248854004,0.0,1.6169645131949335,1.5815303869624615,0.7197990603546424,2.961297532074932,2.7670647839652482,,,0.6425374456860184,11.407564949312402,inf,,0.8864930230207899
61,4.931239603474793,-4.931239603474793,0.0,1.613544473112422,1.5825761886240612,0.7256251063190756,3.186277699601926,1.9543720176054262,,,0.6468212168108125,4.783499721512508,inf,,0.479690038646619
62,,0.0,0.0,1.4592225929530198,1.3756389832803912,0.71635913235504,1.952671910351342,1.7012887887478123,,,0.6509067234006624,inf,,,0.9060982539535533
63,,0.0,0.0,1.5564190735952186,1.5419956186794446,0.7085315530177031,1.5394654118010886,0.954618322558584,,,0.6357360191111145,inf,,,0.9497348776279411
64,,0.0,0.0,1.4761987760154263,1.4703000477004105,0.606727016003546,1.409176555270539,1.4049980582098394,,,0.62595550513784,inf,,,0.7276756918335816
65,,0.0,0.0,1.4369188763766614,1.4385209310634797,0.7013262677275164,1.39274832714948,1.3579553394765194,,,0.6447042257417027,inf,,,0.9034873084975602
66,,0.0,0.0,1.399576407791856,1.3582800431591733,0.8231001614632184,1.0015844299367116,1.0927980802482489,,,0.6380535849069913,inf,,,0.9330044437216247
67,,0.0,0.0,1.509951400388332,1.4304342414025537,0.7406804840453015,1.6399765887345534,1.3869259734071877,,,0.648888643467878,inf,,,0.9466706443609998
68,,0.0,0.0,1.7576609333588469,1.7308039401958994,0.7599897533927314,1.0503685345155724,1.221339428332436,,,0.6068309995095971,inf,,,0.950722186258217
69,,0.0,0.0,1.3157745140862511,1.2251494372591323,0.7227962126770319,1.1561983336216557,1.2624242621907185,,,0.6068309995095971,inf,,,0.9494908056499638
70,,0.0,0.0,1.7314289421583453,1.687615691689233,0.7184082364514847,1.0465124391393883,0.876864127956678,,,0.6447042257417027,inf,,,0.6724266953277921
71,,0.0,0.0,1.645026759607557,1.6126231997349225,0.7742814501047707,1.2015583804011105,1.2756957630781105,,,0.6153451465759925,inf,,,0.9527977561299417
72,,0.0,0.0,1.3499333295564033,1.3274781488574654,0.7385941246253411,1.325348715053844,1.5531094040587274,,,0.5677978065141052,inf,,,0.9422126038476711
73,,0.0,0.0,1.5900647642560306,1.5208297024094592,0.811096229829248,1.104957829263855,1.1306025134782764,,,0.581717464821069,inf,,,0.94421104760566
74,,0.0,0.0,1.70806242549372,1.7251286517675524,0.7703734594607828,0.773796098838352,1.1513644821869073,,,0.5068466436745385,inf,,,0.9176903628115748
75,5.68860406924248,-2.597795858287399,0.0,1.584561322082778,1.5738616542277888,0.47037300021541506,1.0830515088193426,1.0518129170312438,,,0.6468212168108125,6.465922526703098,inf,,0.6128951289791016
76,,0.0,0.0,1.6514812242299204,1.6408591822643752,0.8747175539885332,0.9326141808188066,1.2833863143486322,,,0.5490601803369085,inf,,,0.8938480707550057
77,,0.0,0.0,1.521816646371304,1.5199189880982984,0.8653688489102171,0.6204057431168093,0.9489938396532875,,,0.4732203808476458,inf,,,0.9215632400670276
78,,0.0,0.0,1.5856353254603777,1.5446196793833427,0.8099991876874013,0.7403308993486417,0.8809585326547245,,,0.5329562494928909,inf,,,0.9423761927187038
79,,0.0,0.0,1.7548249652596204,1.7312545434232962,0.8463131131163832,0.4765341614609774,0.5965096273297696,,,0.5677978065141052,inf,,,0.9358896966215711
80,,0.0,0.0,1.6280316546767968,1.5884931345839794,0.39153702913942273,1.719687400095804,1.7201080090187273,,,0.6008849035917525,inf,,,0.8333753700882354
81,,0.0,0.0,1.7296005970924275,1.6962786032975699,0.9017322161566818,1.3838057400052413,2.1213905183977566,,,0.524519217297268,inf,,,0.9168138002655469
82,5.130143428675554,-1.4877415943159107,0.0,1.555296929568535,1.464318545172062,0.5661834351839776,1.1727276165567786,1.1851590666416827,,,0.5915533975974677,6.33866074709217,inf,,0.6384782877361954
83,5.703782474656201,-0.6464286804610362,0.0,1.4472923272713467,1.40248882003218,0.4519762767560183,0.9857871574677557,1.0018012656097048,,,0.5451288209179292,7.881204424696241,inf,,0.6779212436558851
84,5.703782474656202,-4.410925113734129,0.0,0.9006876663882195,0.8506228408232138,0.44591220846185864,1.9080839526925326,3.0821175428420755,,,0.5883313578629602,5.960827577646092,inf,,0.5661153502689152
85,5.703782474656201,-0.3232143402305181,0.0,1.2566184929017052,1.2177210907594131,0.5581767464934816,0.8400785206222481,0.6077534475359357,,,0.6038851895711802,8.574351605256187,inf,,0.8692634956265949
86,5.586394645690406,-2.309043120218701,0.0,1.5170105440071249,1.4843300483189072,0.6584119606762122,1.5432181923723012,1.1112086692852334,,,0.6468212168108125,6.430831206891828,inf,,0.6869486785383956
87,,0.0,0.0,1.4329522591189185,1.3985382383525573,0.7964586167268516,0.8565879200058139,0.8013084704258978,,,0.6357360191111145,inf,,,0.9528088069075513
88,5.5707542278820705,-3.6766977904021663,0.0,1.70864792361102,1.635578820573646,0.7744253843305594,1.534342890703575,0.97147670526467,,,0.6509067234006624,5.943733144286792,inf,,0.4462349972141515
89,5.3294829971538284,-0.8882471661923048,0.0,1.6812891576758369,1.6669946431368787,0.6997774924079564,2.854378641914452,2.2448949453834777,,,0.6357360191111145,7.063759527458719,inf,,0.7488853559605639
90,5.61136285058154,-3.086249567819847,0.0,1.6629570043372848,1.62848042663585,0.5670402255391239,1.87071451431563,1.3346166318625805,,,0.6468212168108125,6.176456332457816,inf,,0.7407854667198763
91,5.43695148036985,-4.095836781878621,0.0,1.5367849781575131,1.5078373665584064,0.6568930687401295,1.8090173297810994,0.95518861510416,,,0.6566669596287297,5.661361758772249,inf,,0.6646921838251766
92,,0.0,0.0,1.4014322655575184,1.392273742250671,0.7348826029312782,0.7601206461124372,0.8196504023860167,,,0.6008849035917525,inf,,,0.7969080603790325
93,,0.0,0.0,1.7753605344547123,1.723206176476091,0.49769833141914605,0.8365187190440997,0.5776090500806565,,,0.6125606311107803,inf,,,0.7068187707515053
94,,0.0,0.0,1.662341986244562,1.6297599390651198,0.5602104630657592,0.8816121231707345,0.758727991517007,,,0.6125606311107803,inf,,,0.782394035712901
95,,0.0,0.0,1.434235328597879,1.3649074166298922,0.7606023159868406,1.354404121864138,0.8192550650878669,,,0.6125606311107803,inf,,,0.9583655642275791
96,,0.0,0.0,1.6121116448524875,1.5787676968632471,0.8460607176627938,1.7473930142281762,1.399999389011214,,,0.6380535849069913,inf,,,0.9415655987388581
97,5.7037824746562,-3.118067752812056,0.0,1.66897605718937,1.608637859636412,0.6716950277281681,1.9153424556570737,1.4273975103722707,,,0.6403206450210053,6.307698521488204,inf,,0.8041107151819105
98,,0.0,0.0,1.6680490729219266,1.6463324543639906,0.8056578851353119,1.0238213840799701,0.8492107810184075,,,0.6333676938231112,inf,,,0.953448289092903
99,5.703782474656204,-2.3575634228578974,0.0,1.6715323646404348,1.612552198349754,0.5180458060175496,0.9867896871787424,0.7523561768029925,,,0.6447042257417027,6.587283383707366,inf,,0.5749058098264672
100,,0.0,0.0,1.6641568160039775,1.6453146514617782,0.6034372962232146,0.5947261568938229,0.4029295630098434,,,0.5915533975974677,inf,,,0.9373514444084113
101,,0.0,0.0,1.7204285199533742,1.7016850971219397,0.7777088973089515,0.7163694939672061,0.637835800299326,,,0.6008849035917525,inf,,,0.9405485016154514
102,5.69759366054406,-4.254203266539565,0.0,1.4254237504589071,1.2754050950128222,0.648427687787479,0.9124020596166115,0.4974696256237774,,,0.6284777104787076,5.9870299500401165,inf,,0.8977420350127077
103,,0.0,0.0,1.5907322457988506,1.5538132762752668,0.8245242587975221,0.507364921721665,0.3650556192455625,,,0.6038851895711802,inf,,,0.9362907501449762
104,,0.0,0.0,1.5156559528835036,1.4954693256914993,0.7453830435652772,0.9706924198731607,0.9109806527179691,,,0.6284777104787076,inf,,,0.9517721878650159
105,5.703782474656201,-1.387920402166342,0.0,1.635212234671718,1.5643262793320623,0.6047389623548541,1.1083029307502261,0.7579154101188232,,,0.6153451465759925,7.117105508164011,inf,,0.9292673417629904
106,,0.0,0.0,1.7421606078236096,1.7654829842927522,0.5052465399871714,1.1350004393849327,0.6900158131817098,,,0.6207552362147116,inf,,,0.7191656733319844
107,5.703782474656201,-2.7948534125815385,0.0,1.381954190531578,1.3577956182771436,0.7257021807034196,2.0756374364912458,0.7566118799005173,,,0.6333676938231112,6.417132362533666,inf,,0.8697697358976123
108,5.703782474656201,-1.0837186701846782,0.0,1.5472590710182295,1.4633429585585185,0.5554080890121172,2.6588602441326303,1.8589878164365938,,,0.6447042257417027,7.3645136814778525,inf,,0.7272347030644586
109,,0.0,0.0,1.704558141000636,1.6973959995953727,0.39668939156144317,0.8677571189116747,0.7000012030278877,,,0.5978297680564633,inf,,,0.870774256874468
110,,0.0,0.0,1.6340856227228642,1.6150848419190553,0.6553722155843952,0.834694517558963,0.8503954959532509,,,0.6380535849069913,inf,,,0.8076508246731933
111,5.703782474656201,-1.6921221341480062,0.0,1.1140967925682979,1.0155115301931368,0.5131266221598645,1.2675130141244535,1.1301052923606525,,,0.5978297680564633,6.918928579580262,inf,,0.7406517855568432
112,5.703782474656199,-1.311869969170926,0.0,1.5055049994277045,1.4539904559895245,0.5421268879554955,1.6051835491664939,1.3159200515735683,,,0.6425374456860184,7.173458444715143,inf,,0.724988175271979
113,4.968630186489708,-4.968630186489708,0.0,1.67066487512896,1.644547801528475,0.7151897588140954,3.234046733596265,2.5523673582289588,,,0.6528756675646988,4.85078659315436,inf,,0.7223629962355073
114,5.6760565874338065,-2.365023578097419,0.0,1.747067551923413,1.7472125699082297,0.6864086775011008,3.035142317162843,3.2234638716172603,,,0.6403206450210053,6.54003049885682,inf,,0.846586857212905
115,4.977224700098404,-4.313594740085284,0.0,1.6877540647126206,1.6568938153172872,0.6900260752990837,3.6319653404458507,3.3454519678607095,,,0.6584896970785714,5.060175739656392,inf,,0.8656832568364164
116,5.60674186937781,-1.8689139564592698,0.0,1.576808327529518,1.5311229645211113,0.7169112630762161,1.116282699332304,0.4557576866915827,,,0.6425374456860184,6.671366500917907,inf,,0.6411963978000673
117,5.038843670814094,-4.107808059761929,-0.3431705161238541,1.6872270437947392,1.6569382729116144,0.6807271816459245,3.431742554634414,2.5435398329960393,,,0.6547956803312163,5.090400262565118,3.4267929288511194,inf,0.47136256439210467
118,5.703782474656202,-0.8175421547007222,0.0,1.6284416587730917,1.6337249531498976,0.7639318596822323,3.822500889869235,3.6539565036978945,,,0.6447042257417027,7.64636483361884,inf,,0.8817866535638269
119,5.703782474656203,-0.3992647732259342,0.0,1.6836072975312129,1.6901623311010912,0.6878532761107476,2.020288359951392,1.4791047176497996,,,0.6468212168108125,8.36304251158898,inf,,0.9258066049268656
120,,0.0,0.0,1.6420936483716877,1.6140296564853756,0.5706984327501679,2.2439733435477174,1.607154096099018,,,0.6284777104787076,inf,,,0.9491779033503563
121,,0.0,0.0,1.5360793325210151,1.4880003084278153,0.3391351901592861,0.38509411874968846,0.3274498654161541,,,0.5370774965580548,inf,,,0.8389471588325138
122,5.475009759890111,-3.704756604192308,0.0,1.5928427368118034,1.5829901527135088,0.6348354104913521,1.066386590493063,0.46307984628397225,,,0.6233814453054027,5.809142990314028,inf,,0.6166677882251903
123,,0.0,0.0,1.6928161527644114,1.6695831057278026,0.6125554444601257,0.551251017945388,0.6379286111845317,,,0.5604843169999094,inf,,,0.9450206173275855
124,,0.0,0.0,1.765307053698794,1.7280001573288368,0.8836942138871201,0.4289841504385273,0.4687036492025784,,,0.585052858160615,inf,,,0.9469597250351591
125,,0.0,0.0,1.6060319290720946,1.5787459594622135,0.3871700761932501,0.5390148689582415,0.42910913170264253,,,0.5641709578113449,inf,,,0.7991744143115685
126,,0.0,0.0,1.5065269005989101,1.4613851692710282,0.7756894810863553,1.9097194886444517,1.4339841603184722,,,0.6380535849069913,inf,,,0.9474822565327705
127,,0.0,0.0,1.7055346655908226,1.6773361685332187,0.9153029933612913,0.9939136547810127,0.9095557670731774,,,0.6380535849069913,inf,,,0.9500704040718696
128,,0.0,0.0,1.6794506877206787,1.6758432037181268,0.8084996159337368,1.116454400488412,0.8456032946821856,,,0.6333676938231112,inf,,,0.952273133982285
129,,0.0,0.0,1.7583928422054838,1.7642966899001722,0.8935235776072479,1.0078337337092276,0.9627345392467781,,,0.648888643467878,inf,,,0.9478470094825483
130,,0.0,0.0,1.7526265342738332,1.7309831240546274,0.8136556599951265,1.1865986997589306,1.0617515876429753,,,0.6333676938231112,inf,,,0.9533610623512133
131,,0.0,0.0,1.4988500233722373,1.5268397669561709,0.859919759419177,1.0327772435517295,0.8941488820708074,,,0.6425374456860184,inf,,,0.9595314349849853
132,,0.0,0.0,1.4274009333350182,1.397101626939387,0.7011164087310765,0.8223320322895159,0.6571736558362911,,,0.648888643467878,inf,,,0.9717506222834308
133,5.647200275754075,-4.49893621968408,0.0,1.4377240275248027,1.3452721850922615,0.5920366040463749,1.7071410259876618,0.9827603507137321,,,0.6207552362147116,5.843044541989709,inf,,0.651092118041604
134,5.542873307740499,-1.0346696841115597,0.0,1.5514071476576694,1.5174179574641558,0.6911138279820365,2.6190061014086603,1.1819571944765679,,,0.6509067234006624,7.173458444715143,inf,,0.7855631596230017
135,5.7037824746562,-1.1027312784335321,0.0,1.4629850160620448,1.4461792462983134,0.6840421063780082,3.215866341200753,2.2164032987441566,,,0.648888643467878,7.347121938765983,inf,,0.7501211496521104
136,5.703782474656204,-2.395588639355606,0.0,1.7456118730660024,1.6579376998388033,0.8576635772535154,2.090647265841416,0.9790491018180059,,,0.648888643467878,6.571283042360924,inf,,0.8170538586240538
137,5.502072977667857,-3.4663059759307497,0.0,1.7562255063440406,1.730328288322321,0.7203557779185737,3.4437823240499594,2.770889528981898,,,0.6380535849069913,5.910396724019201,inf,,0.8324551958762907
138,5.576081014596326,-4.702494988976235,0.0,1.6437874318906822,1.6216277023744412,0.6216252575940998,1.7080063617586776,0.9584949324439005,,,0.6357360191111145,5.608472294851876,inf,,0.8824090145431954
139,5.703782474656201,-0.07605043299541601,0.0,1.4075071136975557,1.306590337701273,0.6812653076709757,1.9866186673369337,1.0900526786436862,,,0.6180765742263259,10.021270588192511,inf,,0.839177738474305
140,5.703782474656201,-0.05703782474656201,0.0,1.0135486838115313,0.9664440644845372,0.5226654516760642,0.9628749518015317,0.897544658461194,,,0.6038851895711802,10.308952660644293,inf,,0.9666365552904095
141,5.703782474656198,-1.0266808454381158,0.0,1.3897434775694955,1.1383870584432443,0.6738395085965101,1.0631416033992913,0.6695125405967943,,,0.585052858160615,7.418580902748128,inf,,0.6923942740087482
142,5.7037824746562,-1.406933010415196,0.0,1.4168382819632204,1.2901910362429654,0.6252720592136124,1.5284917354437242,1.4596486210152353,,,0.6008849035917525,7.1034998561082325,inf,,0.8029596257228718
143,,0.0,0.0,1.5189673558880736,1.4804448480230872,0.8718212935792361,0.4519825267705141,0.8147943724511705,,,0.49759852643134905,inf,,,0.9043329107007726
144,,0.0,0.0,1.5815241162952236,1.560689034808834,0.9140918815315607,0.2454685582632148,0.4885271868054088,,,0.3685265678147087,inf,,,0.872156555006945
145,,0.0,0.0,1.5147267057819744,1.500556270696854,0.844953386915992,0.19676572427881747,0.38743983514356783,,,0.44144624493110796,inf,,,0.8760129627215736
146,,0.0,0.0,1.6602026316416223,1.6433226245854804,0.9321936489180035,0.25006674880476143,0.5069817233475162,,,0.44694259446804574,inf,,,0.8866578208500409
147,,0.0,0.0,1.5900265772058175,1.585346109045422,0.6541929248495617,0.2810097850768422,0.48786024991995325,,,0.44144624493110796,inf,,,0.9257768982034785
148,,0.0,0.0,1.6332528579430077,1.608020009188295,0.9113475450126926,0.3295105663321124,0.561434042101963,,,0.41861278947482794,inf,,,0.923885874349185
149,,0.0,0.0,1.3975238467772204,1.3877962328563054,0.8540236511069618,0.46419726594576954,0.7180183418813552,,,0.38804190201132227,inf,,,0.9286243407669443
150,,0.0,0.0,1.616288593930706,1.580193179283901,0.9251261698523193,0.6290107312832622,0.8757688362160064,,,0.541134803179459,inf,,,0.9235922631650435
151,,0.0,0.0,1.6158904655009074,1.5818302457891849,0.7210719652592792,0.9215659919685094,1.2901138188137713,,,0.6233814453054027,inf,,,0.9422293236136647
152,,0.0,0.0,1.610338057233497,1.5997408800536974,0.896180586191417,0.8822591128008327,1.2826104273900358,,,0.5287703885177266,inf,,,0.903968339898526
153,,0.0,0.0,1.6879435391023583,1.669497274614204,0.5886887856610339,0.6938709737968554,1.0008991071248172,,,0.5641709578113449,inf,,,0.9562306772523795
154,,0.0,0.0,1.6682943368322403,1.6630703959823183,0.42459974088798497,0.6458890141763574,0.9238276637353662,,,0.552929491858785,inf,,,0.6143164925989686
155,,0.0,0.0,1.6793672577427707,1.671150137625517,0.5816933263440488,0.7049912091223898,0.8785699586690551,,,0.5641709578113449,inf,,,0.6684213267022318
156,,0.0,0.0,1.3359614143755483,1.3016555294155994,0.4613999084288377,1.9033993265475646,1.8996687396601293,,,0.5947193981915972,inf,,,0.8665238052593256
157,,0.0,0.0,1.5461154076283803,1.5152135790293397,0.49363472695126376,0.48946214162919455,0.5531737607169374,,,0.5677978065141052,inf,,,0.934675722683381
158,,0.0,0.0,1.6897800185357839,1.6445329394670705,0.8482985876287514,1.4967864030736147,1.7700009335566707,,,0.5713653840954815,inf,,,0.9105176483899384
159,,0.0,0.0,1.7327957518637427,1.685261405802081,0.8416208531384185,2.33296750586404,1.657017685722519,,,0.6403206450210053,inf,,,0.9252536416928022
160,,0.0,0.0,1.6192279062645814,1.5930717035495099,0.8641165564613904,3.611142139708999,2.985415528497957,,,0.541134803179459,inf,,,0.9342086110442717
161,,0.0,0.0,1.6929263797278038,1.6457678850856576,0.896238113706307,3.1700316262323054,7.44978924657474,,,0.5370774965580548,inf,,,0.8866405942835734
162,,0.0,0.0,1.69685145170791,1.6783733842700148,0.9115512826746603,3.7569466860298384,4.250846975260082,,,0.5567373465730988,inf,,,0.926090727652252
163,,0.0,0.0,1.6672858460318007,1.6408762988172914,0.9255737820620817,3.7661032328613024,8.425039028676512,,,0.4928685327679205,inf,,,0.9181800581483027
164,,0.0,0.0,1.4062666941286743,1.3433158051784222,0.5703133081163126,1.8985322925845791,1.7247439436665382,,,0.5783247308855777,inf,,,0.7301649365213407
165,,0.0,0.0,1.5163611380722006,1.5088656948580228,0.7579684205536897,1.0810952985438895,1.5286030864552416,,,0.5490601803369085,inf,,,0.8996157548029822
166,,0.0,0.0,1.6636850625765764,1.656424657898698,0.8890240798236029,1.3743420120206205,1.94116106338005,,,0.6097226960127671,inf,,,0.947338671923777
167,5.7037824746562,-3.156092969309764,0.0,1.4898894260811804,1.4261376437411954,0.45836300132761915,1.5117593789443038,1.7768453977673597,,,0.6207552362147116,6.295577160955859,inf,,0.7748368552173978
168,,0.0,0.0,1.6567432862418237,1.6175878908648675,0.6744783545622121,0.559962712807453,0.6804027931927016,,,0.6468212168108125,inf,,,0.6266626520936387
169,,0.0,0.0,1.1140200299226632,1.0692943083751723,0.7744955316181628,0.6131777602131878,0.7213537309631757,,,0.6528756675646988,inf,,,0.9339920631965503
170,,0.0,0.0,1.20961760509278,1.160647357605779,0.771217190051438,0.7357578003892233,0.8683553972012202,,,0.6668815377411301,inf,,,0.9491761397883532
171,5.394341769049082,-1.006943796889162,0.0,1.028851490324662,0.9947621423074436,0.43842522244906673,0.8854640582734382,0.817519932440572,,,0.6403206450210053,7.013115794639964,inf,,0.7751864343214669
172,,0.0,0.0,1.5694087284412692,1.528455213180315,0.8870694731958177,0.4943424673971524,0.6604439676139667,,,0.6180765742263259,inf,,,0.9541335511054847
173,,0.0,0.0,1.612083628807644,1.5289442476404662,0.8187816058143276,0.7055547992676514,0.7808336452990187,,,0.6125606311107803,inf,,,0.822762728400494
174,,0.0,0.0,1.676858810573049,1.6236286891717218,0.8400098373354931,1.8792830869402113,1.3376099395765704,,,0.6584896970785714,inf,,,0.8957778314412232
175,,0.0,0.0,1.7629327281879859,1.7158357663153623,0.7109858024187773,1.6670212147354098,1.5310822835283278,,,0.5748741956352443,inf,,,0.8406353399460346
176,,0.0,0.0,1.6443215886994678,1.6059511464607068,0.9017006023340992,0.8887857051403172,1.3450753149643633,,,0.41268473150466,inf,,,0.8193361814375826
177,,0.0,0.0,1.4866824322099674,1.3323589476050026,0.791213346333627,0.8541996324562546,0.958105671912989,,,0.4928685327679205,inf,,,0.9325405643304955
178,,0.0,0.0,1.7289804131103987,1.7029862853632363,0.9306557106199006,0.4617203010899109,0.7965434803507966,,,0.4732203808476458,inf,,,0.8916512110456912
179,,0.0,0.0,1.643411982943389,1.6052555064528264,0.9553347557848758,0.3319105065000601,0.5646424505910621,,,0.5202020156036558,inf,,,0.8596705489698997
180,,0.0,0.0,1.7552211386219827,1.714237725519308,0.9067991831404473,0.3662944600890242,0.5301934857937818,,,0.581717464821069,inf,,,0.8524653409859093
181,,0.0,0.0,1.0673019237293386,1.0194290004145858,0.4571379019447722,0.4918595042745912,0.6092905539947364,,,0.5113665138247345,inf,,,0.7223761305513294
182,5.703782474656199,-1.1407564949312399,0.0,1.5188445880035466,1.4174855638614565,0.4735104622540268,0.7845015412979356,0.8833941755515095,,,0.524519217297268,7.313220387090301,inf,,0.8610209664103625
183,,0.0,0.0,1.6515752215907362,1.6398755974298533,0.43716725520042676,1.4390320858769825,0.8461438533800612,,,0.581717464821069,inf,,,0.6646842414354841
184,,0.0,0.0,1.680021862107876,1.6345610669037673,0.7265240615377782,2.1445293079445378,1.7264864253783139,,,0.6309483474627791,inf,,,0.9448083091683673
185,,0.0,0.0,1.5326211792112172,1.5147261672523946,0.6466348982704859,1.876278522626413,2.2539413573417555,,,0.6233814453054027,inf,,,0.9500475320544692
186,,0.0,0.0,1.6790690218888789,1.678545603638312,0.5437147484948888,1.92547615676443,2.5735069644742126,,,0.6333676938231112,inf,,,0.7524909843118363
187,5.7037824746562,-2.9849794950700783,0.0,1.3391120345033451,1.2818414219694152,0.7376230552033742,2.7820331719958764,2.156696273146679,,,0.648888643467878,6.351319143964094,inf,,0.7161905928378651
188,,0.0,0.0,1.5921790570115557,1.598473516541822,0.8113774758071937,2.99177702640872,2.248398836504881,,,0.6333676938231112,inf,,,0.9235603664674731
189,,0.0,0.0,1.629148736725365,1.6286949458957722,0.6896005421175174,2.8615897667876196,2.3602046474890943,,,0.6652988471865258,inf,,,0.9307092385732583
190,,0.0,0.0,1.7234852715466535,1.719410374238233,0.6271893596315585,3.1460022011953006,3.65254490827247,,,0.6233814453054027,inf,,,0.9478783355179109
191,,0.0,0.0,1.7363360363917284,1.7307725171713069,0.7414566828910913,2.878538422240284,2.6805333089782577,,,0.648888643467878,inf,,,0.948400242701788
192,,0.0,0.0,1.6664276924857204,1.5736556328427884,0.8325467907833816,3.110140483998283,3.1653779858286835,,,0.6153451465759925,inf,,,0.9370431303116443
193,5.703782474656202,-0.6844538969587443,0.0,1.6490628107262295,1.6188506337282473,0.639571430503388,3.049824021826613,3.618854180194558,,,0.6602640781246099,7.824046010856292,inf,,0.8451910719636002
194,,0.0,0.0,1.5119480583508182,1.4768691142449812,0.8846585836033933,1.5036230523851006,2.80898133050043,,,0.49759852643134905,inf,,,0.8830775900904858
195,,0.0,0.0,1.717844654881788,1.6850514514448591,0.8990790523945678,1.6451888125664296,2.95641011040971,,,0.49759852643134905,inf,,,0.8647310228553177
196,,0.0,0.0,1.5153058404880755,1.484068173883612,0.759097357607031,1.264390572586982,1.1406180880224122,,,0.6180765742263259,inf,,,0.9373917378308411
197,,0.0,0.0,1.4104954293742307,1.3937404181176973,0.800227749000382,1.0111692171127418,1.1305449525372622,,,0.6125606311107803,inf,,,0.9336768460022082
198,,0.0,0.0,1.7036311556544321,1.7024961809183792,0.8643527322602549,1.0035380652144539,1.3532732325614811,,,0.5677978065141052,inf,,,0.9192586315432822
199,,0.0,0.0,1.6609540354614016,1.6364833112902015,0.8813195165389863,0.8947712305731429,1.2510257033627687,,,0.5158180382284114,inf,,,0.9140574286877297
200,,0.0,0.0,1.4277395128311479,1.3227776244691156,0.6369461505253142,0.9115430544261465,1.4604036851657431,,,0.4732203808476458,inf,,,0.8923124885861663
201,,0.0,0.0,0.9098499453977914,0.8686212229980707,0.6365875636060998,0.541000406407896,0.9398865447979732,,,0.4880666971167561,inf,,,0.6956463534641963
202,,0.0,0.0,1.6677479774807058,1.6293594072198332,0.5057358256178923,0.5177551605619676,0.8317918527638576,,,0.4928685327679205,inf,,,0.9437636746108066
203,,0.0,0.0,1.1722652637745838,1.0661300490204122,0.7165203937772726,0.7719480920649118,0.8973273572473262,,,0.524519217297268,inf,,,0.9408138227799221
204,,0.0,0.0,1.6713597074692697,1.6056840893528892,0.7158454970819833,1.0800909510451864,1.716068445124193,,,0.5158180382284114,inf,,,0.946467673029898
205,,0.0,0.0,1.7392250394424218,1.7214428931800387,0.9247737750461272,0.6868781485883828,1.1603497063203903,,,0.5202020156036558,inf,,,0.9027422361947506
206,,0.0,0.0,1.6589783851529698,1.634369264910368,0.955633139603373,0.6791441361360565,1.192362013021877,,,0.47824363442641393,inf,,,0.9146264660430075
207,5.703782474656202,-0.3612395567282261,0.0,1.6584499341598116,1.6531137488031677,0.23211528210050955,0.622445936962806,0.9503528911482314,,,0.5490601803369085,8.463125970145962,inf,,0.7633062703709307
208,,0.0,0.0,1.6631166294441913,1.670476901251346,0.7335989445524667,1.237949399808853,1.3203647736145745,,,0.648888643467878,inf,,,0.6999576617162627
209,,0.0,0.0,1.7085103300465625,1.7044940022504822,0.8539292858411409,1.0035443314542738,1.1860232435583036,,,0.6068309995095971,inf,,,0.9051518029314125
210,5.703782474656201,-0.6274160722121821,0.0,1.633130259773682,1.5495243942510768,0.6135550522959538,1.9477981897535037,1.219851647160088,,,0.648888643467878,7.911057387845922,inf,,0.9281114609892595
211,5.26123465937562,-4.559736704792204,0.0,1.73592085111936,1.7269615349251353,0.7893342087303146,3.447083764838076,3.528773787447394,,,0.663668482632973,5.353125603043032,inf,,0.942162120661852
212,5.635065297273104,-4.357783829891201,0.0,1.4700957511186261,1.4469815510087556,0.7589882228356166,4.593962457111491,12.294453179297161,,,0.6619902821573977,5.866301404153976,inf,,0.8200291732693894
213,,0.0,0.0,1.6934343899401387,1.6679076019937256,0.7932021459780846,4.161318405977646,4.718251265701888,,,0.6668815377411301,inf,,,0.945013238548042
214,,0.0,0.0,1.2876507610238344,1.2315465866370328,0.7633685841222367,2.4797736961553754,1.3514481685633006,,,0.6468212168108125,inf,,,0.6892414853299174
215,,0.0,0.0,1.1030564354646986,1.0262099879609603,0.5367985768923818,0.5461951999422708,0.6134730328252325,,,0.5947193981915972,inf,,,0.9448685417653214
216,,0.0,0.0,1.6332916806495885,1.6101092851088954,0.8664736747438627,0.42333899240355893,0.5207121287242972,,,0.6038851895711802,inf,,,0.860324330766935
217,,0.0,0.0,1.6591223038500127,1.6400078802763989,0.7328918396196669,0.29329389551779844,0.31273394862678094,,,0.5451288209179292,inf,,,0.947011164493127
218,,0.0,0.0,1.5419611298461455,1.5345569220696018,0.4638448261946212,0.12140750144814656,0.1268168950027146,,,0.5202020156036558,inf,,,0.9533069373435564
219,,0.0,0.0,1.7153554439505787,1.7041936958286534,0.9145151418733015,0.0694402799442377,0.09194205853209045,,,0.5287703885177266,inf,,,0.8720857318815443
220,,0.0,0.0,1.6882338642696102,1.6849088181190541,0.7615608315390993,0.0629288800543365,0.08830332607391894,,,0.5370774965580548,inf,,,0.9035977945386879
221,,0.0,0.0,1.5503268581519536,1.5522628628631396,0.578388184009855,0.36852744156231204,0.27276781233378544,,,0.5641709578113449,inf,,,0.9183270613697632
222,,0.0,0.0,1.5887520921838763,1.5579566614995815,0.47949211505849887,0.7477715878699839,0.524478513578024,,,0.6038851895711802,inf,,,0.9571742222805733
223,,0.0,0.0,1.5738270939429755,1.5424893054913051,0.6809022462076924,0.3264465317728502,0.3641495430095157,,,0.5883313578629602,inf,,,0.9390643788637375
224,5.626766121260651,-0.13067292629072463,-0.038130057347094896,1.0933169417299529,0.9732674814902375,0.36435285996152617,0.22547048605323297,0.19061875673122916,,,0.5677978065141052,9.104979856318357,1.6094379124341003,inf,0.8708661984711603
225,5.703782474656201,-2.4526264641021664,0.0,1.0995485482871157,1.0679965698233225,0.606717387003984,2.440707678764119,0.6373573205799645,,,0.6008849035917525,6.54775254495073,inf,,0.8888274342797777
226,5.7037824746562,-3.118067752812056,0.0,1.613058326614166,1.617272567020167,0.6455270309566811,2.606903082291715,1.8852024510358225,,,0.6619902821573977,6.307698521488204,inf,,0.7428863678601927
227,,0.0,0.0,1.447952081835811,1.3411622202851692,0.5697652501821011,1.8695533834673868,1.3311432183336669,,,0.6333676938231112,inf,,,0.8895622644641562
228,5.703782474656201,-0.30420173198166406,0.0,1.7456541188574213,1.6955567488364198,0.8247730697837796,3.085856316540814,2.392196802780879,,,0.6566669596287297,8.63497622707262,inf,,0.7677978026988338
229,,0.0,0.0,1.561162958773802,1.505423152154682,0.8681195085156362,1.7809359143383416,1.7648048014589812,,,0.6668815377411301,inf,,,0.9499157504708021
230,,0.0,0.0,1.5734788404799016,1.5407225426223128,0.7788960776474925,1.7525255138863711,1.5499594711861202,,,0.6468212168108125,inf,,,0.9503659906740952
231,,0.0,0.0,1.1317905361052922,1.0980007813309847,0.7886975080480657,2.087807190710009,2.5164715938791464,,,0.6284777104787076,inf,,,0.9380475423088168
232,,0.0,0.0,1.7170152921489164,1.6937741037282146,0.8460484303395701,2.0685746314999913,2.6280835867431476,,,0.6447042257417027,inf,,,0.9353288832673123
233,,0.0,0.0,1.6764076670232475,1.670510454563288,0.8495662224777639,1.9696276640531953,1.6603579478670958,,,0.6357360191111145,inf,,,0.9349699553647176
234,,0.0,0.0,1.763463861526917,1.7013310561650759,0.8058286861654765,1.8192854681012716,1.5684273827879107,,,0.6425374456860184,inf,,,0.9376528103670422
235,,0.0,0.0,1.7077988333688043,1.6907176345615762,0.8995049422872916,1.7986119608694808,1.5225762272233456,,,0.6447042257417027,inf,,,0.9402774368789754
236,,0.0,0.0,1.6989773990762485,1.692392298423513,0.8875231099958474,1.1906821283459836,1.3318966877616214,,,0.5748741956352443,inf,,,0.9118961360815868
237,,0.0,0.0,1.6219733699335963,1.586709451826654,0.7848692666152974,1.9011826538786765,2.7385574177546923,,,0.6425374456860184,inf,,,0.9425851104797869
238,,0.0,0.0,1.4177100515448458,1.3289086368397567,0.7766353346784175,1.8213963495398027,1.1856717550459277,,,0.6468212168108125,inf,,,0.9503509689396606
239,,0.0,0.0,1.675486443851646,1.6536327665677604,0.8012473010992319,1.5900377834855586,1.1373994845148292,,,0.6547956803312163,inf,,,0.9475229474549964
240,,0.0,0.0,1.7279018138790454,1.6133978785179484,0.8599218091086557,1.6021845901923215,1.0432641300102559,,,0.6713451011121618,inf,,,0.9336718460806696
241,,0.0,0.0,1.6933046119730975,1.7045978751739332,0.7874045713946204,1.3945515000982527,0.8401497590441269,,,0.6547956803312163,inf,,,0.9443933933089841
242,,0.0,0.0,1.6563135686866906,1.537782621124546,0.8234543071945122,1.214837480073198,0.690184884884101,,,0.6528756675646988,inf,,,0.9456227487007631
243,,0.0,0.0,1.4335023460704117,1.379095981888851,0.8311837623175901,0.6817983453515543,0.6185357693735413,,,0.6584896970785714,inf,,,0.9450573419370852
244,,0.0,0.0,1.619888904131387,1.585740879475215,0.8110973202132049,0.8018908720946198,0.5784862489990522,,,0.6425374456860184,inf,,,0.9487735019082779
245,,0.0,0.0,1.6256787184769514,1.6236325466984212,0.7125948442559407,1.1564674482605546,1.082132253370702,,,0.6125606311107803,inf,,,0.9535826435569693
246,,0.0,0.0,1.508944129574299,1.4793823742064607,0.7883136246390658,0.8593821458677043,0.9787295329641301,,,0.6309483474627791,inf,,,0.9493487638884875
247,5.703782474656199,-1.4829834434106117,0.0,1.6384540221250585,1.588650734539779,0.5687521654107663,1.392778235121684,1.102041735846682,,,0.6207552362147116,7.05085612262281,inf,,0.5906873109470806
248,,0.0,0.0,1.5134266301636297,1.5042666145447967,0.6854528327319783,1.9026094159352485,1.6714487970313876,,,0.6509067234006624,inf,,,0.6351073291285017
249,,0.0,0.0,1.5451881169237283,1.517806817162091,0.5516261208316984,1.0337142166603666,0.7087320037438554,,,0.6547956803312163,inf,,,0.9354202349961287
250,,0.0,0.0,1.6259595327027423,1.604983609098017,0.7273148456163134,1.3350671716801021,1.1412198232208492,,,0.6509067234006624,inf,,,0.7622266233330474
251,,0.0,0.0,1.6128157553592022,1.6129718834599123,0.8053959936917783,0.8934583194437503,0.7116543503508755,,,0.648888643467878,inf,,,0.9105773892305776
252,5.703782474656203,-0.38025216497708014,0.0,1.7320835884530679,1.6722394852885076,0.6554091080228837,1.2640878979560828,0.8372571641880064,,,0.6403206450210053,8.411832675758411,inf,,0.7480142010640853
253,,0.0,0.0,1.6094850703475923,1.4728922850430641,0.7651785576895941,1.6841346093353222,1.4727803810464786,,,0.6333676938231112,inf,,,0.8169066783897583
254,5.703782474656201,-1.6731095258991522,0.0,1.5147024301263705,1.5075574590462661,0.392426576761578,1.272367915608914,1.1823048158658955,,,0.6038851895711802,6.930228134834196,inf,,0.9458403539729748
255,5.5635929476653665,-2.8374324033093368,0.0,1.636529527457159,1.5734506647739976,0.7257660318639573,2.087203740103766,1.4468088945716926,,,0.6180765742263259,6.155291521265772,inf,,0.786131034132239
256,,0.0,0.0,1.5188321319821088,1.5033618474430452,0.7108135464813444,1.820680869561703,1.54208035286253,,,0.6403206450210053,inf,,,0.7063663811993169
257,,0.0,0.0,1.0656725753705496,1.046410665216888,0.5053001961847684,1.4183971838526992,1.4963687622048663,,,0.5783247308855777,inf,,,0.9656031992886523
258,,0.0,0.0,1.7135082513544586,1.6779098810557977,0.5475982678599328,1.8374303061866977,1.492085015044387,,,0.6153451465759925,inf,,,0.7218875530172337
259,,0.0,0.0,0.9372626695584038,0.8744130594489469,0.6048927627607424,0.3416398759023284,0.4121903420227978,,,0.524519217297268,inf,,,0.9166303032931887
260,,0.0,0.0,1.5281770940058306,1.5153656825979105,0.7981734599327039,0.33330010672044125,0.4405810671565021,,,0.5915533975974677,inf,,,0.9530092293474541
261,,0.0,0.0,1.6288097934197445,1.586187738719829,0.7578966420767188,0.20349029544931782,0.2542763730426365,,,0.5490601803369085,inf,,,0.9122276346270329
262,,0.0,0.0,0.8852561068687477,0.8182330652872193,0.6874087444400937,1.1140325022372453,0.8221811519639666,,,0.6333676938231112,inf,,,0.9652947048474231
263,,0.0,0.0,1.6835993548381176,1.6346008062485915,0.8379513422848388,1.8387616475253976,1.5425615176667078,,,0.6380535849069913,inf,,,0.9175225424353015
264,,0.0,0.0,1.44173756347798,1.3890940939814949,0.8116890809650571,1.1746447117882715,1.0641582733124488,,,0.6468212168108125,inf,,,0.8592911356542342
265,,0.0,0.0,1.6647020262620096,1.650765815202734,0.896170975693877,1.4201456729126256,1.1694181206024128,,,0.6425374456860184,inf,,,0.9478827601656936
266,,0.0,0.0,1.669534009474622,1.62639443107092,0.9077515856470162,1.2606979114357815,1.1711947498327915,,,0.6528756675646988,inf,,,0.930724260452259
267,,0.0,0.0,1.6280676630781747,1.5145734888859013,0.8246453090314929,1.4864456039650558,1.3416825698519725,,,0.6380535849069913,inf,,,0.9529241564778331
268,,0.0,0.0,1.2892031738680814,1.2915775865447308,0.679375764380165,1.1599860717460277,0.954395208737483,,,0.6309483474627791,inf,,,0.9324113479206646
269,,0.0,0.0,1.723964061383132,1.724031006322624,0.8214515090054334,1.4224906258340801,1.1198538512533898,,,0.6668815377411301,inf,,,0.7916355578555266
270,,0.0,0.0,1.3218997194165087,1.3179169163881697,0.7285238785459095,1.3064077444615512,1.147917491627992,,,0.6380535849069913,inf,,,0.8082610518744937
271,,0.0,0.0,1.67886133495682,1.6673830659261772,0.8983117266587662,1.2622415122722634,0.9839932477589197,,,0.6566669596287297,inf,,,0.9390303813082801
272,5.703782474656201,-0.7795169382030142,0.0,1.5110263653458966,1.4786423313856676,0.5234381372553017,0.9526420864482613,0.675561358814593,,,0.6509067234006624,7.693992882608094,inf,,0.6267708699569919
273,5.703782474656201,-2.4716390723510204,0.0,1.5881415608290204,1.5404574147475265,0.5988527986778752,1.5361122717169515,0.8892819565602847,,,0.6509067234006624,6.54003049885682,inf,,0.7108357697191661
274,5.63615835947962,-1.540549951591096,0.0,1.4916990725059982,1.470152482628606,0.6386987338750065,1.3937190665719332,0.778824598989851,,,0.6547956803312163,6.907755278982137,inf,,0.6470795942045954
275,5.703782474656201,-2.775840804332684,0.0,1.5802942100244828,1.5769233693584104,0.7479053118194583,2.2231567854595977,1.6491763510387525,,,0.6602640781246099,6.4239583276040655,inf,,0.7855680117531881
276,,0.0,0.0,1.549368520303638,1.3425918373063208,0.7403290645490312,0.9163174478933586,0.5780144757361764,,,0.648888643467878,inf,,,0.9546995373404208
277,,0.0,0.0,1.764557159211879,1.7605379912269723,0.9120969791491988,0.663592153312984,0.7090517387295014,,,0.6584896970785714,inf,,,0.9463469032519508
278,,0.0,0.0,1.773597333286539,1.7708369349557431,0.9282096075478089,0.5243532535348158,0.5405838862909643,,,0.6357360191111145,inf,,,0.9159424485380431
279,,0.0,0.0,1.771719306244872,1.7502961805987458,0.4140781694136099,0.8965966685311443,0.8168164066700686,,,0.62595550513784,inf,,,0.9473974854778852
280,,0.0,0.0,1.7535560441815268,1.7241447388041968,0.8810450116616074,0.7997517437943992,1.035957221281999,,,0.6068309995095971,inf,,,0.8937435132002018
281,,0.0,0.0,1.7578847162957696,1.7162306702563022,0.4408368749493999,1.0514689984335612,0.9522964243366983,,,0.6038851895711802,inf,,,0.5916092852843685
282,,0.0,0.0,1.6467261756162248,1.6295257221703188,0.5230231521691178,1.4401321142790653,0.9436572842954762,,,0.6097226960127671,inf,,,0.6844182828925336
283,5.629565430892498,-2.3081218266659245,0.0,1.5207780146182535,1.4945363000694802,0.6279960398868909,1.6223773579929837,1.0240491973959835,,,0.6357360191111145,6.487584023484278,inf,,0.6702173425729033
284,5.703782474656201,-0.17111347423968604,0.0,1.4897738167929648,1.4546881527148872,0.7214377024748132,2.9668930785959358,2.0732461598792824,,,0.6509067234006624,9.210340371976182,inf,,0.8744984003868402
285,5.188605516131915,-1.279856027312539,0.0,1.6053485668762073,1.6080526617525333,0.7222259323365487,4.171596836861804,9.45389584676358,,,0.6403206450210053,6.54775254495073,inf,,0.7154117109933693
286,,0.0,0.0,1.5044221493170675,1.4466889338287747,0.8156635109360435,1.6227504173082228,1.3138565118779006,,,0.6333676938231112,inf,,,0.807027137864618
287,,0.0,0.0,1.5664742908287312,1.5546305309085224,0.9112713804559444,0.8707183465599352,1.0060797505737655,,,0.6566669596287297,inf,,,0.8708986340925541
288,,0.0,0.0,1.6360625068424262,1.5514133764587452,0.7756183607288046,1.0963924432500693,1.109043696158797,,,0.6425374456860184,inf,,,0.9486218416556047
289,,0.0,0.0,1.7216342082023015,1.7340936995485534,0.7294980054401716,3.6446469947411906,8.92857971862049,,,0.6566669596287297,inf,,,0.6286083052881227
290,,0.0,0.0,1.1889927477968623,1.1790370733555582,0.6812484946361229,3.4530148051170957,2.6266469845449403,,,0.6403206450210053,inf,,,0.7897157493695789
291,,0.0,0.0,1.7358396801071836,1.7222758943726486,0.683636212427163,3.239480480242603,3.2052152546570727,,,0.6333676938231112,inf,,,0.6695823687767679
292,5.107971208829732,-5.107971208829732,0.0,1.7783680210087631,1.765024987076511,0.7860118254704032,3.2107411556319967,2.5271476675962075,,,0.6425374456860184,4.98757002116526,inf,,0.6729668245861361
293,,0.0,0.0,1.6263964552621522,1.5567107441907369,0.6673886591349251,2.3905834367198775,2.0107306025638,,,0.6403206450210053,inf,,,0.7047594789145902
294,5.7037824746562,-1.6160717011525898,0.0,1.6687299553496109,1.6700608633522402,0.6185219647865532,3.4853227229095034,2.104201057760567,,,0.6180765742263259,6.964913692822086,inf,,0.9277211968010232
295,5.703782474656201,-1.387920402166342,0.0,1.6884941388378087,1.6770525154587623,0.7468462132717179,2.5856359665471604,1.6815444090229863,,,0.648888643467878,7.117105508164011,inf,,0.7378856065344289
296,,0.0,0.0,1.6222186649113908,1.57266768813149,0.8712338381563336,3.008217435701041,3.2439719975095436,,,0.6380535849069913,inf,,,0.9320512947529063
297,5.703782474656201,-0.7605043299541602,0.0,1.6564767228194086,1.6630977479426983,0.6459551734231138,2.7268406820093958,1.776420857595821,,,0.6447042257417027,7.718685495198466,inf,,0.8133151107224613
298,5.703782474656199,-1.1597691031800939,0.0,1.6650193758867435,1.595917920182786,0.7687320184610706,3.2794799596658257,1.4812978177910034,,,0.62595550513784,7.2966910851390905,inf,,0.7986355527765284
299,5.703782474656202,-0.6654412887098902,0.0,1.543429072585267,1.5375423860016544,0.6421846809389017,1.9298793792590623,1.1829138107953607,,,0.6284777104787076,7.852216887822989,inf,,0.8876978582549744
300,,0.0,0.0,1.4115146588924081,1.3810141177899105,0.6738243765926369,0.5965740982960651,0.5822139839195981,,,0.6038851895711802,inf,,,0.9509179939542595
301,,0.0,0.0,1.4789423511537039,1.436571046800672,0.6734590659471448,0.5456630410634801,0.5452808239049678,,,0.585052858160615,inf,,,0.9579645529263738
302,,0.0,0.0,1.4877643783906502,1.4828259081392916,0.5892825551587929,0.6793188811031988,0.607462453203829,,,0.5947193981915972,inf,,,0.7998976262198468
303,,0.0,0.0,1.727411034608016,1.7270550051670095,0.4966398275570187,0.8830476431277513,1.1592986965802026,,,0.5567373465730988,inf,,,0.9480013538453606
304,,0.0,0.0,1.4800198165249467,1.4985806312719832,0.608706534275958,0.7985873727591601,0.9831077721853806,,,0.541134803179459,inf,,,0.9274917684328976
305,,0.0,0.0,1.592936501828654,1.5591196394435942,0.6497419111985699,1.8834353756983369,1.0316840240030738,,,0.6284777104787076,inf,,,0.8974340139898039
306,,0.0,0.0,1.6685185244018088,1.594389587809931,0.649096914778917,2.0123275048351275,1.4879230187644472,,,0.6584896970785714,inf,,,0.7780401199274241
307,5.557699417640808,-2.659605261246416,-0.2859754301032117,1.5246288237626164,1.470197364873312,0.6206059475923286,2.423250187358707,1.7769759292687968,2.627264426417459,,0.6284777104787076,6.134565390748655,2.5649493574615367,inf,0.6373337044317988
308,,0.0,0.0,1.7162559001204285,1.6318840462087054,0.685159232746396,2.0963282544280983,1.509365191814938,,,0.6403206450210053,inf,,,0.8704666304468383
309,,0.0,0.0,1.7644356134598067,1.785974225387561,0.5120820375664883,0.9538478434906904,0.901819919160018,,,0.6008849035917525,inf,,,0.6186108672589352
310,,0.0,0.0,1.5834569773515832,1.5629255094956853,0.7787940699503746,1.0327987468174276,0.8745415964652994,,,0.6425374456860184,inf,,,0.9382398895680901
311,,0.0,0.0,1.40577674512727,1.3800731082666176,0.8244342068395957,1.941858790094974,1.7781333537484139,,,0.6403206450210053,inf,,,0.9581720577297338
312,,0.0,0.0,1.769468617207201,1.6990404597428364,0.870732938940097,2.5818112701296116,2.4784738982279264,,,0.6284777104787076,inf,,,0.7514175957501943
313,5.383143382636327,-2.1173697305036216,0.0,1.4775706492314886,1.4423061687888252,0.7435434362287417,1.7302117111771125,0.8689553980602347,,,0.6528756675646988,6.254273354814623,inf,,0.5807543545770322
314,,0.0,0.0,1.751088042130489,1.7225003494097535,0.7033688188332748,1.5358582524082438,1.3924472866684043,,,0.6284777104787076,inf,,,0.5804902962090682
315,,0.0,0.0,1.6166537330767354,1.622378292472033,0.4827544961339178,1.2189903377397966,0.9064559274892221,,,0.6207552362147116,inf,,,0.9217160071790418
316,,0.0,0.0,1.132813469979739,1.0914940766639916,0.4715764135393834,0.6959689768526515,0.7558337444065462,,,0.5748741956352443,inf,,,0.9646767076553939
317,,0.0,0.0,1.6034711776012762,1.582483662763425,0.8135148943827749,1.064406607161603,1.2348262805912154,,,0.6097226960127671,inf,,,0.9323109575100509
318,,0.0,0.0,1.7195363655093083,1.6987779987764045,0.5087616545807078,0.9740669905527221,1.4300040824226645,,,0.5567373465730988,inf,,,0.9522855772016096
319,,0.0,0.0,1.7088537430804052,1.7227514184757464,0.6593129015036073,0.538488391219998,0.5048943235246879,,,0.5978297680564633,inf,,,0.9534054744911317
320,,0.0,0.0,1.7462255869072327,1.6989433661082347,0.4689881066841953,0.9121620347038267,0.6439956733255792,,,0.6125606311107803,inf,,,0.6842661509936019
321,5.703782474656201,-0.6274160722121821,0.0,1.4561597698507351,1.4283454456895541,0.6259988138534226,1.8316066330410106,0.8910739220067541,,,0.62595550513784,7.911057387845922,inf,,0.7311829587465019
322,,0.0,0.0,1.5617362678965725,1.5179038415869401,0.6861269834892818,0.6146780767889797,0.6340056083665987,,,0.5947193981915972,inf,,,0.9526628493691189
323,,0.0,0.0,1.5805502980536312,1.4942238106621997,0.7250921824776189,0.8647826673584669,0.6565722476691119,,,0.6333676938231112,inf,,,0.9489717906893886
324,,0.0,0.0,1.631359280164149,1.6024526389069709,0.56908741572797,0.6897357603890516,0.5852643756856535,,,0.6097226960127671,inf,,,0.7790828308472869
325,,0.0,0.0,1.5821117627088828,1.5516477142175464,0.461407332761317,0.5057817998013707,0.4436053825233578,,,0.5947193981915972,inf,,,0.6497670488775621
326,5.703782474656203,-0.5893908557144742,0.0,1.7456465375681,1.671318291799534,0.8042930553404051,1.4905425725808765,0.7139203849061946,,,0.6447042257417027,7.973577744827256,inf,,0.9118066016076987
327,5.703782474656202,-0.6844538969587443,0.0,1.7646208758358528,1.7006784825459451,0.6619026302818969,1.2837475089907155,0.718152140757677,,,0.6333676938231112,7.824046010856292,inf,,0.9479127701131356
328,,0.0,0.0,1.733686158257153,1.753903256655494,0.8728577623992508,0.40890308764065436,0.43294073123457183,,,0.6447042257417027,inf,,,0.9622203788998246
329,5.703782474656201,-0.19012608248854004,0.0,1.47557105575746,1.4615751341043377,0.5527485127920877,0.7001281801044194,0.7918837639176008,,,0.5978297680564633,9.104979856318357,inf,,0.8700340979769916
330,,0.0,0.0,1.5878255144146882,1.551358877461067,0.8997208928683527,0.7591385485602413,1.3264245621445159,,,0.47824363442641393,inf,,,0.8933320900372467
331,,0.0,0.0,1.3805830491859112,1.3757242037842399,0.5002814557666685,0.7055047412368731,0.7777232000534238,,,0.5451288209179292,inf,,,0.5982566110177254
332,,0.0,0.0,1.5349417655291604,1.5320113851986858,0.5382876007568215,0.5938701771198882,0.5737763333218572,,,0.5915533975974677,inf,,,0.96174665850534
333,,0.0,0.0,1.6849839234963713,1.6663974670341184,0.6924547362697133,0.715163128598279,0.4166870084522081,,,0.5915533975974677,inf,,,0.7717539805343793
334,,0.0,0.0,1.3945949997824205,1.3632454957082296,0.598153224269337,0.5599341239878104,0.5087757239836431,,,0.6180765742263259,inf,,,0.8938494203363261
335,5.703782474656201,-0.3232143402305181,0.0,1.622775628544145,1.4891576572365632,0.5293526606118714,0.9261808464410328,0.6266302488998267,,,0.5783247308855777,8.574351605256187,inf,,0.8119448158318742
336,,0.0,0.0,1.4199050438305238,1.3642044330578598,0.4083401608930014,0.34565953202115196,0.367409493410479,,,0.5567373465730988,inf,,,0.9362720104653776
337,,0.0,0.0,1.7132649143033278,1.700896143917473,0.8648870261439316,0.26606493226141004,0.41937282169379053,,,0.5022576003740722,inf,,,0.9367575572246121
338,5.703782474656201,-3.1941181858074725,0.0,1.4610215877481587,1.4188391349289868,0.4772919977841547,0.8897985016661141,0.7216221710096578,,,0.5451288209179292,6.283600969909143,inf,,0.6744559681442408
339,5.703782474656202,-3.7454838250242393,0.0,1.6751345168078622,1.6609435061661484,0.5948202904021308,2.796481574902173,2.8646280590231403,,,0.6125606311107803,6.124361220574413,inf,,0.807828937937475
340,5.0168798632904865,-1.8562455494174799,0.0,1.737190270444899,1.719909254043071,0.7835768033000823,2.4168077553455887,1.5169878149537142,,,0.6068309995095971,6.009402247794649,inf,,0.9522301842888603
341,,0.0,0.0,1.6225765564830923,1.5889368778436141,0.8232260889855378,0.8864658966499189,0.841881059517047,,,0.6528756675646988,inf,,,0.9512034028432257
342,5.419311666449517,-3.125136394319222,0.0,1.712911806447388,1.6974446290402445,0.6740421522856428,1.9703420930611633,0.9622626741756186,,,0.6425374456860184,5.910396724019201,inf,,0.6024756890395465
343,5.703782474656201,-1.3689077939174883,0.0,1.6627222292052937,1.6164460681021504,0.6213710964701582,1.8102275229633267,1.1077512692553602,,,0.6447042257417027,7.1308988302963465,inf,,0.737241836484162
344,5.651469479896957,-0.9984262747817958,0.0,1.3871395175042247,1.335075030107699,0.5124430588754676,1.0926754862783334,1.0019405335173939,,,0.6233814453054027,7.3645136814778525,inf,,0.7639250446399741
345,,0.0,0.0,1.4683094615441046,1.4020430540081574,0.5241543614603122,1.0373659216008488,0.9087037141622436,,,0.6233814453054027,inf,,,0.854983826647743
346,5.507390773497549,-5.507390773497549,0.0,1.6446972404450317,1.657203899188663,0.5366512648305,1.9321889635026561,1.3559737212728045,,,0.6357360191111145,5.454321615024618,inf,,0.8827677010326398
347,4.663022382367033,-3.7304179058936264,0.0,1.7092556202097853,1.6776407775532194,0.7895102252200492,2.5346919876052696,1.529641526420841,,,0.663668482632973,4.822773556926686,inf,,0.6486620877383178
348,,0.0,0.0,1.6551262632654784,1.5748873411352025,0.5661463525577556,1.357294293077867,1.0909195081797098,,,0.5947193981915972,inf,,,0.9285092398922397
349,5.703782474656201,-0.03802521649770801,0.0,1.6138226941283598,1.589944748812736,0.8469401098850624,3.495535586475922,6.358216947573505,,,0.6528756675646988,10.714417768752456,inf,,0.8647421519884236
350,,0.0,0.0,1.6856808641032468,1.6543238894601977,0.7850323322251638,4.154782762304081,3.6247865385755134,,,0.6547956803312163,inf,,,0.907739395516667
351,,0.0,0.0,1.7449448269611114,1.7516395173432824,0.8188331322455948,2.6899990276256593,2.914727624482713,,,0.6528756675646988,inf,,,0.7786464557968298
352,,0.0,0.0,1.389950072160753,1.304398575904259,0.6171492259007878,0.8335900161576923,0.7254798152073577,,,0.5915533975974677,inf,,,0.7141084776200134
353,,0.0,0.0,1.0780559844658504,1.036222364939273,0.512643183884954,0.5244260076196613,0.3363003420313736,,,0.5287703885177266,inf,,,0.7016214505458144
354,,0.0,0.0,1.6057167281915279,1.5406659040343347,0.6840241084568781,1.2083001030361191,1.0587616504353456,,,0.5978297680564633,inf,,,0.7781124217702812
355,,0.0,0.0,1.579996356540106,1.5463137687536455,0.7639546646602714,1.3133504576904924,1.2889533405597062,,,0.6180765742263259,inf,,,0.9460501526261
356,,0.0,0.0,1.7030696289531837,1.6981977780972102,0.7995443694691328,1.0968754814620916,1.3097869391980257,,,0.62595550513784,inf,,,0.9400458601731407
357,,0.0,0.0,1.6980192458014949,1.680732092716131,0.6246041736396132,1.0017085946256545,1.0617097520593393,,,0.6153451465759925,inf,,,0.6818542920927487
358,,0.0,0.0,1.2784810815868777,1.2746780705610525,0.6366148429907101,1.0157667084652493,1.1581686980953385,,,0.581717464821069,inf,,,0.955512099673969
359,,0.0,0.0,1.3492072457251028,1.3082483458921907,0.7445578186088195,0.9892201616987863,0.9250882882121704,,,0.6038851895711802,inf,,,0.9484042727690329
360,,0.0,0.0,1.6928316100898646,1.681103938676858,0.7807744301021466,1.160628159612633,1.1642683287117446,,,0.6207552362147116,inf,,,0.9452386630297621
361,,0.0,0.0,1.4679866148965273,1.4612328747168448,0.8211656489814204,1.1024079788383891,1.0090097105978806,,,0.6333676938231112,inf,,,0.9556364042245828
362,,0.0,0.0,1.1762550804787621,1.1351730589712468,0.6256212874833287,0.8189361495601337,0.9134751155088907,,,0.6097226960127671,inf,,,0.9526392948922303
363,,0.0,0.0,1.533837480317251,1.544583305906468,0.719095002907232,0.6571140505728379,0.6828541807958087,,,0.5604843169999094,inf,,,0.9440092889011157
364,,0.0,0.0,1.6574741242026372,1.641520313572552,0.5598900246110883,0.7073577771592304,0.8133473550638556,,,0.5490601803369085,inf,,,0.9502158921637861
365,,0.0,0.0,1.585049098633836,1.5548938239716368,0.5202258136257237,0.9086161549082563,0.9361814665804256,,,0.552929491858785,inf,,,0.9504250581033521
366,,0.0,0.0,1.6915633191329942,1.6708524786828454,0.8112535251725983,0.26762394604126394,0.33802912673939167,,,0.6068309995095971,inf,,,0.9477828656790225
367,,0.0,0.0,1.4352734917903116,1.393009383811566,0.7542526024481987,0.9348267287020939,0.6204404062735713,,,0.6380535849069913,inf,,,0.9637922108058973
368,,0.0,0.0,1.6009799151275619,1.5550224721581714,0.8606344683387178,0.686856368199414,0.708988869212088,,,0.6357360191111145,inf,,,0.9561608997771714
369,,0.0,0.0,1.1920465124318793,1.1703843877694025,0.750992706241025,0.5354008512908315,0.7372149136981155,,,0.6333676938231112,inf,,,0.941931789020265
370,,0.0,0.0,1.5992179496662824,1.5862113966213403,0.6832091778493734,0.34687550916885407,0.38268439066765886,,,0.6180765742263259,inf,,,0.9508084036100148
371,,0.0,0.0,1.1612166604852485,1.1205744019675972,0.46146835657599355,0.4266146239912033,0.6667307147833453,,,0.48319206230712763,inf,,,0.5897601943478235
372,,0.0,0.0,1.7349494446740477,1.6935856111650551,0.9342613980839647,0.275105827807054,0.5405008317692364,,,0.468121228110369,inf,,,0.8890421713161525
373,,0.0,0.0,0.9477587171935197,0.7113901160626508,0.7395126774777516,0.37687059326548134,0.5131132470044851,,,0.468121228110369,inf,,,0.8892011415373611
374,,0.0,0.0,1.559763044506955,1.4063532413176496,0.9344162847102909,0.772988968009111,1.1189763622685691,,,0.5202020156036558,inf,,,0.885775556371842
375,,0.0,0.0,1.7460954368297361,1.7014246007744571,0.9116357355159549,0.27825938728881994,0.5451305502230428,,,0.47824363442641393,inf,,,0.8902745584812302
376,,0.0,0.0,1.7200513194769496,1.7038491440694024,0.9095192758136625,0.2220578126141957,0.45832647018853934,,,0.43586655696697996,inf,,,0.8370675927993589
377,,0.0,0.0,1.7668538578008253,1.7545959296795806,0.9133548301651107,0.22927201750401535,0.47412089151898923,,,0.3943459996787778,inf,,,0.8648030186023563
378,,0.0,0.0,1.479056790855556,1.441957038030487,0.909014006178491,0.2706675931925854,0.561260059189125,,,0.3685265678147087,inf,,,0.8223019914709072
379,,0.0,0.0,1.7228108193764824,1.7071926572679872,0.8719895978034982,0.28112446409127145,0.5492910908077143,,,0.42445136339222655,inf,,,0.8836821945632108
380,,0.0,0.0,1.7122756856215682,1.6841856114521327,0.9079266028779303,0.2902335147376426,0.5828809925072214,,,0.3943459996787778,inf,,,0.8500776146016704
381,,0.0,0.0,1.6491496479126169,1.6346045725979157,0.9253355230154097,0.2960851175620193,0.575190483910965,,,0.42445136339222655,inf,,,0.8366517169729216
382,,0.0,0.0,1.5637701216327322,1.5048157259871364,0.9375128114483348,0.6174450887429638,0.8535484689586443,,,0.5451288209179292,inf,,,0.8897656217947498
383,,0.0,0.0,1.5271459639354057,1.502338442467884,0.8582699400317304,0.48511117662378667,0.8029663987196389,,,0.5641709578113449,inf,,,0.910751935362995
384,,0.0,0.0,1.7476035225655768,1.6713140374967945,0.92773266146252,0.4062572615571796,0.6690265289812867,,,0.5490601803369085,inf,,,0.9217507563574519
385,,0.0,0.0,1.7562541109811132,1.7190419591153925,0.9494391784589395,0.3936384488023566,0.6587630401238325,,,0.5641709578113449,inf,,,0.8487367621481419
386,,0.0,0.0,1.7029903667041482,1.7068624774987098,0.5950710816614195,1.0501971481983081,0.8015062055053519,,,0.6207552362147116,inf,,,0.9337283477445528
387,5.703782474656201,-0.8555673711984302,0.0,1.3754231256053742,1.3410021204514466,0.4040997422358356,0.8526795127721096,0.8180803599966369,,,0.6180765742263259,7.600902459542082,inf,,0.7702793318175842
388,,0.0,0.0,1.728038431299081,1.7104292530671306,0.8651935649454181,0.5321420267770486,0.7963682233129714,,,0.5713653840954815,inf,,,0.9126553760478315
389,,0.0,0.0,1.5656248859375888,1.5414305659153105,0.8943161209600322,0.5085583501946598,0.7853884501767822,,,0.5713653840954815,inf,,,0.897009199727086
390,,0.0,0.0,1.6988155831860978,1.6878204129005099,0.8858343552002754,0.522754900934482,0.8505155344351306,,,0.5490601803369085,inf,,,0.9070218429325113
391,,0.0,0.0,1.6304670368387009,1.5709844728532436,0.7415787143735634,1.362346269954552,1.4572297596154706,,,0.6038851895711802,inf,,,0.9532215350006882
392,,0.0,0.0,1.4958871216646863,1.4596868999049775,0.8686780157044774,1.0268190851027041,1.8921136289926614,,,0.5113665138247345,inf,,,0.9208749084822458
393,,0.0,0.0,1.7068579164639779,1.6607594802922294,0.9181689675084092,0.7038319200492333,1.2036493820295888,,,0.4066654671944331,inf,,,0.9006666873486654
394,,0.0,0.0,1.7138684394956831,1.6830498839408679,0.9165095855531589,0.7382848357518687,1.3237605405031654,,,0.468121228110369,inf,,,0.8367781544816798
395,,0.0,0.0,1.662862960791206,1.641137302183183,0.9005051812453776,0.6493588609650639,1.2811770255760484,,,0.4732203808476458,inf,,,0.8174643386203145
396,,0.0,0.0,1.6809053335754063,1.6558063073846885,0.9045394855637243,0.7972496417837702,1.6317148616831143,,,0.4302020962658841,inf,,,0.8641739815508394
397,,0.0,0.0,1.6720332112523668,1.6494568112695995,0.9126971340701306,0.9160353816165967,1.7920701760227131,,,0.4732203808476458,inf,,,0.8717746129029487
398,,0.0,0.0,1.6222302697336628,1.6052127548658877,0.911862857776001,0.9560832063969597,1.7962292223340055,,,0.48319206230712763,inf,,,0.8916652238391554
399,,0.0,0.0,1.7346508397736908,1.7155717743019945,0.926524559951453,0.8583343959544898,1.5831980065621287,,,0.5113665138247345,inf,,,0.8585998049421656
400,,0.0,0.0,1.6363929616627937,1.617121570363005,0.9091741750357113,0.7473382988667785,1.4032866072598664,,,0.4732203808476458,inf,,,0.9024179126204659
401,,0.0,0.0,1.752622242232273,1.7264631236171253,0.9177749235173747,0.9895130899568945,1.795274550718156,,,0.5202020156036558,inf,,,0.8687130954092859
402,,0.0,0.0,1.5729117397700194,1.5165646020789512,0.6788676302394868,1.47162558999037,1.8232638799062804,,,0.6153451465759925,inf,,,0.9443332309678634
403,,0.0,0.0,1.721094689359923,1.7137654486371712,0.8707156512746483,2.0561900727067255,2.710135801105086,,,0.5947193981915972,inf,,,0.9384572610941908
404,,0.0,0.0,1.5607047701655494,1.5163494465142606,0.866958574533047,2.0230595328995564,2.5488135136083994,,,0.5783247308855777,inf,,,0.9393904871537118
405,,0.0,0.0,1.484941531050933,1.4486922320178628,0.8595106787250841,1.6395585060377158,2.212480873582633,,,0.5370774965580548,inf,,,0.9201841730034183
406,,0.0,0.0,1.62166024614692,1.5955676822880598,0.8634205376328663,1.640095903633352,1.6602122990072516,,,0.6008849035917525,inf,,,0.9376703361140603
407,,0.0,0.0,1.5600098025572404,1.521294583574781,0.5175557168068926,1.0293150621957543,1.177554872052746,,,0.5329562494928909,inf,,,0.8041408572418743
408,,0.0,0.0,1.6375687071364462,1.6127736264812063,0.8790874395636874,1.947539162990702,1.623272050930556,,,0.6284777104787076,inf,,,0.9419334611246901
409,,0.0,0.0,1.6325662879479141,1.5703679768897092,0.9246455106845612,2.013437116822558,1.6293494738031784,,,0.62595550513784,inf,,,0.9190650698698722
410,,0.0,0.0,1.638703176588372,1.6274719466176362,0.8545798828300889,2.5481886682645274,10.378033333736699,,,0.5677978065141052,inf,,,0.8899826568633354
411,,0.0,0.0,1.654819351950676,1.5661460072185729,0.7443572031251916,0.6773985136148822,0.9604522665486547,,,0.5068466436745385,inf,,,0.9094961019995951
412,,0.0,0.0,1.5294266829615006,1.5155671641068407,0.7193467227188708,0.3743356948640192,0.4837253871897388,,,0.5641709578113449,inf,,,0.9501670488591588
413,,0.0,0.0,1.652315378652836,1.6361205229061844,0.8671887205100556,0.2789164976166524,0.4359887280559757,,,0.5158180382284114,inf,,,0.8365374667864534
414,5.703782474656199,-1.463970835161758,0.0,1.681328980246279,1.6754876707399324,0.6127372467988875,1.9579095936935589,1.84381931383683,,,0.6403206450210053,7.063759527458719,inf,,0.5382831377671563
415,,0.0,0.0,1.6979135672784045,1.6653155532906827,0.9251303476193203,0.9054066358396977,1.424315942456917,,,0.4302020962658841,inf,,,0.854150220333578
416,,0.0,0.0,1.4939939774571747,1.484793725819206,0.5881370501543987,0.76868325827561,0.9587973430731325,,,0.524519217297268,inf,,,0.9237017634358465
417,,0.0,0.0,1.2363097698341143,1.128368658193257,0.8121963756501652,0.3705448237251515,0.49321884068789495,,,0.5748741956352443,inf,,,0.8845714116057144
418,,0.0,0.0,1.697776864980206,1.6658826392367974,0.7407569548760153,0.3758582608771899,0.4284218234344656,,,0.5713653840954815,inf,,,0.9398432046090794
419,,0.0,0.0,1.5507189756333082,1.5453396105794996,0.8465466747323819,0.25762966343819227,0.414546604250375,,,0.47824363442641393,inf,,,0.8056968069550103
420,,0.0,0.0,1.6931044184293467,1.6805323072810128,0.7901769020792381,0.2167182484260823,0.2695941879709748,,,0.5287703885177266,inf,,,0.8744641079857942
421,,0.0,0.0,1.635551470921298,1.6348560113509378,0.7471731389192359,0.15809719603759526,0.2153152967709117,,,0.541134803179459,inf,,,0.8610813538122581
422,,0.0,0.0,1.672136772759096,1.6445103638831347,0.8821745494557619,0.1649992707322965,0.25734713779103535,,,0.5022576003740722,inf,,,0.8218663853459902
423,,0.0,0.0,1.68492074435034,1.6842839422466345,0.921439813462973,0.24840871590388666,0.36143520496417353,,,0.5783247308855777,inf,,,0.8553396573916489
424,,0.0,0.0,1.1733838262501486,1.1076299684329476,0.6461664317378039,0.6435681099946078,0.5288299997459621,,,0.5490601803369085,inf,,,0.6912831566117196
425,,0.0,0.0,1.5101015881085713,1.4534121348291906,0.8509500983323159,0.9257197781150833,0.8852323158801544,,,0.524519217297268,inf,,,0.9301069171866747
426,,0.0,0.0,1.5644671689394847,1.5150939232971503,0.5309927612251572,0.7945030955711145,0.9623084566312761,,,0.47824363442641393,inf,,,0.9409221224291604
427,,0.0,0.0,1.7138058921122514,1.6756405829845864,0.8319124706851767,0.5752260723770029,0.8748291023562755,,,0.44694259446804574,inf,,,0.8569516077112262
428,,0.0,0.0,1.613493112667071,1.5546480981418151,0.8915876180659094,0.8812753649727773,0.9386901206622283,,,0.5158180382284114,inf,,,0.9187153604901012
429,,0.0,0.0,1.6134650239644277,1.6118152713110039,0.40389989480181016,0.8501246257742556,0.8469524259353978,,,0.5677978065141052,inf,,,0.6779910939245188
430,5.703782474656201,-2.7378155878349766,0.0,1.6476906853249123,1.642852277082333,0.32067476431738323,0.664070923312024,0.7925148991307954,,,0.5451288209179292,6.437751649736401,inf,,0.6104804250305764
431,5.703782474656201,-3.4222694847937207,0.0,1.132437948267763,1.123802785736833,0.5730073914742212,0.808340608607125,0.9014648044085514,,,0.581717464821069,6.214608098422191,inf,,0.7914744055839938
432,,0.0,0.0,1.751551580871365,1.7291696641618826,0.40551296590708463,0.6899976685387493,0.6588717803418028,,,0.6233814453054027,inf,,,0.6535461357611515
433,,0.0,0.0,1.6913118420864128,1.6365244591267347,0.5412133228810059,1.0758113472208652,0.9937399784762084,,,0.6333676938231112,inf,,,0.767093670751929
434,,0.0,0.0,1.6797274956275503,1.6785218950218357,0.6653558874149897,2.2475817605305455,3.481245081703136,,,0.648888643467878,inf,,,0.9241587406438916
435,5.703782474656202,-3.270168618802889,0.0,1.4517559987568496,1.4090458047885834,0.5539667610795018,3.0642374930823806,2.8278733665711937,,,0.6528756675646988,6.260070472498949,inf,,0.8636736245845077
436,5.703782474656202,-1.7301473506457143,0.0,1.707289317811197,1.703694849773677,0.4762599431835355,3.093791960055268,2.90533315265143,,,0.648888643467878,6.896705442795552,inf,,0.8741867181122136
437,5.703782474656202,-1.8632356083876926,0.0,1.5680563176650713,1.5581895771372802,0.7111897899127437,3.271838607064442,2.3989744626381673,,,0.6425374456860184,6.82259747064183,inf,,0.7421013847931014
438,,0.0,0.0,1.7192360410127319,1.6726832392338227,0.6983292446439977,3.078555521816794,7.263133290696817,,,0.6528756675646988,inf,,,0.9242825956032948
439,,0.0,0.0,1.533578115827855,1.4555104755855899,0.7283083064232204,1.1363229635679128,0.9889166713450732,,,0.5567373465730988,inf,,,0.6096982569445194
440,,0.0,0.0,1.6869027996856882,1.6692697262686773,0.838075109567083,0.22909148226600137,0.39730794676865033,,,0.41268473150466,inf,,,0.8477335480917552
441,,0.0,0.0,0.9773890037834654,0.9556780614522491,0.20730292027376054,0.23356448442438404,0.273091630874802,,,0.4880666971167561,inf,,,0.943210337160477
442,,0.0,0.0,1.3636465199081893,1.3465935544969971,0.8165949821175933,0.17228029297081313,0.26350122934298914,,,0.5490601803369085,inf,,,0.7198393055531731
443,,0.0,0.0,1.5427757779649545,1.5222681102021276,0.40741487440136853,0.2552499959811241,0.2796216953876861,,,0.5567373465730988,inf,,,0.6514153279716886
444,,0.0,0.0,1.724483411822197,1.682934076209993,0.8977667633129335,0.1958165153597696,0.30112448687646975,,,0.4880666971167561,inf,,,0.8580350832771207
445,,0.0,0.0,1.6992051646463997,1.682428916362165,0.9317728683254631,0.204716765555955,0.3481918439941283,,,0.47824363442641393,inf,,,0.8590566794511302
446,,0.0,0.0,1.6923325555690547,1.6848669876550093,0.8986152688222531,0.24700539401449206,0.4471621529338531,,,0.43586655696697996,inf,,,0.820605079848897
447,,0.0,0.0,1.6132837914906106,1.6034016535467892,0.8960769168447336,0.254366676043449,0.48235270970068994,,,0.41861278947482794,inf,,,0.8509502342178766
448,,0.0,0.0,1.6217101107002507,1.477954260888846,0.4765936860235472,0.7380676263123164,0.7135285367033789,,,0.5370774965580548,inf,,,0.6140485322915967
449,,0.0,0.0,1.6905270076432486,1.5852639042815448,0.932213920173245,1.08258256981175,1.2530160878407275,,,0.5329562494928909,inf,,,0.8731044319928212
450,,0.0,0.0,1.7492318691945135,1.6949541529977494,0.47249086984701505,1.2920097674832285,1.7766443810407408,,,0.5113665138247345,inf,,,0.9514844998348925
451,,0.0,0.0,1.316662552097395,1.2718393770757737,0.8129714385847512,1.07740968830892,1.6659165591769673,,,0.524519217297268,inf,,,0.9195789347167614
452,,0.0,0.0,1.7290141962327277,1.6480552984137307,0.819686525334818,0.5319808645705848,0.8163623957673355,,,0.4732203808476458,inf,,,0.9061708877408999
453,,0.0,0.0,1.660847246515587,1.5910116783902406,0.3260466254504236,0.4861285088517513,0.598551975122261,,,0.5068466436745385,inf,,,0.5926506627462262
454,,0.0,0.0,1.188943037289311,1.158231438125651,0.4216480788935309,0.2867307481928736,0.4833711121042071,,,0.44694259446804574,inf,,,0.9664192515880029
455,,0.0,0.0,1.771792342550002,1.7324002042949633,0.9148961464955548,0.27619414822109706,0.5333367867950869,,,0.3943459996787778,inf,,,0.8291762381849125
456,,0.0,0.0,1.6869801920480922,1.6695254976005987,0.42726679859189964,0.38245910105936876,0.5650836490775261,,,0.4928685327679205,inf,,,0.9569827924709172
457,,0.0,0.0,1.6048191347109038,1.5331336195936855,0.8159248439045306,1.4079835949378683,0.8449718770830872,,,0.6038851895711802,inf,,,0.9372182773391103
458,,0.0,0.0,1.6304186593174972,1.5657720127839563,0.8336762578981648,2.4301881966433334,5.027966840138401,,,0.6097226960127671,inf,,,0.8776122042538745
459,,0.0,0.0,1.6187341042978511,1.5308618107854564,0.8776455941386395,2.5113455633192254,3.61474727204221,,,0.6333676938231112,inf,,,0.8791829671106134
460,,0.0,0.0,1.509346151117158,1.4961820176083633,0.7022749995667067,2.2905209439717353,3.1711868096357168,,,0.6357360191111145,inf,,,0.9183557583992129
461,,0.0,0.0,1.0371007416447513,0.9535808073902374,0.7309620978956933,0.8263392538038384,0.7888763506681513,,,0.5641709578113449,inf,,,0.8901728738136605
462,,0.0,0.0,1.697277114401062,1.6998486228336531,0.6872260557926819,0.8306472039475771,0.8937373638864089,,,0.5915533975974677,inf,,,0.880766572614178
463,,0.0,0.0,1.550345200764853,1.5371943169648965,0.8239143885939456,1.2513161729460518,1.2112580741630137,,,0.6207552362147116,inf,,,0.9449256349990057
464,,0.0,0.0,1.4713232709037558,1.4323473990655216,0.7535673294532614,0.6607886041846601,0.639368649733382,,,0.663668482632973,inf,,,0.95520016310909
465,,0.0,0.0,1.672782021188709,1.6086136606215835,0.7748475099264435,0.522323984066808,0.4865134817385044,,,0.6584896970785714,inf,,,0.9547102108350308
466,,0.0,0.0,1.2848471546371847,1.2622378065867872,0.8001237054657455,0.717299108553899,0.9249911925683827,,,0.6068309995095971,inf,,,0.9486774154754745
467,,0.0,0.0,1.771038736067181,1.7512653291200813,0.893654921722802,0.7762262875442637,1.341573278943092,,,0.5677978065141052,inf,,,0.9258243576659134
468,,0.0,0.0,1.7384686568440895,1.6902933174004477,0.841220815616462,0.9487155019353355,1.236006060795624,,,0.5915533975974677,inf,,,0.7349083455634684
469,,0.0,0.0,1.4771122073607896,1.4625254293942755,0.7018106867109859,1.4136102485739035,2.358484521995977,,,0.5604843169999094,inf,,,0.7652818109908263
470,,0.0,0.0,1.443865550523106,1.4170070377072541,0.8303320175677287,1.016628627255792,1.3857908147421654,,,0.6008849035917525,inf,,,0.9283381906480621
471,,0.0,0.0,1.1781026273008472,1.1330510094316177,0.7298216707389821,0.8905844097177819,1.095508299388308,,,0.5490601803369085,inf,,,0.9514613413333908
472,,0.0,0.0,1.7197683536339807,1.6665138168033395,0.7933187579495092,0.6411483635254475,0.8253418955019929,,,0.524519217297268,inf,,,0.9452436350741155
473,,0.0,0.0,1.5459109576571612,1.532217918827796,0.8526697533716491,0.4073484797762825,0.5444405990506325,,,0.5287703885177266,inf,,,0.9466841924983684
474,,0.0,0.0,1.6655513272156224,1.6186619385776577,0.800679324375972,0.570792133626324,0.7872433119960272,,,0.5604843169999094,inf,,,0.9447590089629814
475,,0.0,0.0,1.5710083087937898,1.5564322545698193,0.78205436662699,1.0236397787043494,1.1354496385642998,,,0.5641709578113449,inf,,,0.9453026110010494
476,,0.0,0.0,1.6714249582090708,1.665856942066032,0.7802687755192039,0.521927225686415,0.8677517799390756,,,0.4880666971167561,inf,,,0.9053769383345179
477,,0.0,0.0,1.5608149490672694,1.5312133551178706,0.8561545831592176,0.45581803759712153,0.5646403342037094,,,0.524519217297268,inf,,,0.8356077367078768
478,,0.0,0.0,1.6519093750663159,1.6646589625242163,0.8857371243264254,0.2994947067521368,0.431224528650526,,,0.4880666971167561,inf,,,0.9181011726604662
479,,0.0,0.0,1.685381181222407,1.6869259170835322,0.804391482435283,0.3798148212151798,0.4603582409471638,,,0.5202020156036558,inf,,,0.9504696515314692
480,,0.0,0.0,1.661203288537482,1.6457810018732828,0.7845141422907679,0.575364976588539,0.7674360341132157,,,0.541134803179459,inf,,,0.8624334959525531
481,,0.0,0.0,1.6664263966100026,1.6223220678628167,0.7450184576974842,1.4185439796698822,1.090416771472401,,,0.6584896970785714,inf,,,0.93186564741658
482,,0.0,0.0,1.4872650594135908,1.4722060215780985,0.4480973114089085,2.113033219425057,1.7461828189898858,,,0.6333676938231112,inf,,,0.6947501458002935
483,,0.0,0.0,1.6115659715093986,1.621022716733377,0.87425705780507,1.9605719423359795,1.9014554865475841,,,0.6380535849069913,inf,,,0.9531026129837591
484,,0.0,0.0,1.6818521934704505,1.6951460986042384,0.8721286432157563,1.8160005922979194,1.759303291479072,,,0.6403206450210053,inf,,,0.955921439060951
485,,0.0,0.0,1.573172002145583,1.4981805075890906,0.6999994070930101,1.4390235415875658,1.0271572875506982,,,0.6309483474627791,inf,,,0.7692801895493089
486,,0.0,0.0,1.4947214206829447,1.5099347961720968,0.5137766634111901,0.9134652113244293,0.5433563630496913,,,0.6284777104787076,inf,,,0.6217311811675273
487,,0.0,0.0,1.6334679117119697,1.6163287582825987,0.7217664202652391,1.0425841794620516,0.9600064042622649,,,0.6403206450210053,inf,,,0.6824898844609998
488,5.7037824746562,-0.969643020691554,0.0,1.7073555952801625,1.678030094898498,0.40485813568876405,0.8938718154485924,0.9574036203962629,,,0.5978297680564633,7.4757393165880766,inf,,0.7342689613865718
489,5.703782474656203,-0.43728998972364225,0.0,1.6633748303761449,1.506137203129044,0.6695694828888851,1.0155154019350303,0.6015819108767406,,,0.6068309995095971,8.272070733383252,inf,,0.653121305263274
490,4.897813685408677,-4.146815586979346,0.0,1.5293487875041687,1.4857236332436157,0.759564720025711,2.0404707576987047,1.0256855189997127,,,0.648888643467878,4.957094527168226,inf,,0.7776888113110405
491,,0.0,0.0,1.365940210582846,1.2459398760873088,0.8823209334343377,2.234037843240111,1.7471303786235421,,,0.6125606311107803,inf,,,0.9598354757578293
492,5.703782474656201,-0.30420173198166406,0.0,1.7123206127526323,1.5896717428774512,0.837687385180093,2.368649433920321,1.3993379073149756,,,0.6380535849069913,8.63497622707262,inf,,0.8437638278970314
493,,0.0,0.0,0.8134863692028,0.801229777969636,0.5601152891637119,0.844703549015289,1.020721615777148,,,0.5947193981915972,inf,,,0.961389576089819
494,,0.0,0.0,1.700589833136647,1.6717192067260112,0.7030885196958099,0.37768064336272184,0.5197147725056039,,,0.48319206230712763,inf,,,0.9426184161488884
495,5.50228620123761,-1.5773220443547815,0.0,1.6755117759445746,1.6726180018212635,0.5624247719663769,1.518341223962341,1.0648323432652944,,,0.6380535849069913,6.698034748000068,inf,,0.5745622214810656
496,,0.0,0.0,1.460066469813948,1.436641807655506,0.4400231652570696,1.014729456228925,1.0048040843085853,,,0.5947193981915972,inf,,,0.6185730851133092
497,,0.0,0.0,1.4676624304215085,1.3737115211208715,0.6638468076953398,1.1126157058202715,0.6883758850726998,,,0.6125606311107803,inf,,,0.9496343216018542
498,5.703782474656203,-1.806197783641131,0.0,1.3638213273494668,1.3422500289978128,0.5436097546045976,1.2424877896810527,0.7209572961448047,,,0.5748741956352443,6.853688057711861,inf,,0.6913267738414577
499,,0.0,0.0,1.2763106884293016,1.242600782280832,0.8467093082864712,0.5585413432425459,0.848433991948101,,,0.5370774965580548,inf,,,0.929282484550924
500,,0.0,0.0,1.5773707208403815,1.531122462346775,0.3769744835460035,0.7204346442035903,0.7513066109775355,,,0.5604843169999094,inf,,,0.5730843909724657
501,,0.0,0.0,1.4200259987199686,1.3944083322837277,0.45528363112507286,0.5476766364798454,0.5825219936671816,,,0.585052858160615,inf,,,0.6389245486173207
502,,0.0,0.0,1.5961262641680243,1.5745865007696966,0.827723111397344,0.4832272507620928,0.5851789338474234,,,0.5713653840954815,inf,,,0.9396690849497048
503,,0.0,0.0,1.6244173965917637,1.6155863855166102,0.8666368845577493,0.31980905445475066,0.41146638083077514,,,0.6284777104787076,inf,,,0.914971909949902
504,,0.0,0.0,1.5656763944396124,1.4950515299314568,0.6476773711094898,1.256374891786762,0.8216282183806185,,,0.6333676938231112,inf,,,0.7323396876176514
505,5.703782474656203,-1.939286041383109,0.0,1.6115911718119644,1.5816073002606406,0.5289223018002969,1.8862723241060688,1.4771990826942103,,,0.6125606311107803,6.782592136028131,inf,,0.6197375575685327
506,,0.0,0.0,1.6358299132197596,1.630309308877346,0.843849470577219,0.9718744701726786,0.9384564717877376,,,0.6309483474627791,inf,,,0.9562334351433153
507,,0.0,0.0,1.6793224718564495,1.6607629972996125,0.8015631188562801,1.245049179292798,1.1692859805232656,,,0.6425374456860184,inf,,,0.957874325735771
508,,0.0,0.0,1.5124422277314409,1.4623049653971247,0.7686543294953044,0.830222858768095,0.7526410371356057,,,0.6068309995095971,inf,,,0.9441132384796292
509,,0.0,0.0,1.7055908321957118,1.6898768885824216,0.8497247683857634,1.0654883314650891,1.0112971087927765,,,0.6068309995095971,inf,,,0.9460692927034691
510,,0.0,0.0,1.543306192219483,1.5034414613667728,0.6435310680501837,1.0775393526906638,1.0887411718412838,,,0.5748741956352443,inf,,,0.9385142452846029
511,,0.0,0.0,1.6968123993761661,1.6299189926599706,0.5293404732632615,1.1803548089847544,1.1815473497206674,,,0.5748741956352443,inf,,,0.8520948564998402
512,,0.0,0.0,1.7557374570539759,1.7061249964558014,0.7476036512642797,1.3825872273072406,1.0407856522869803,,,0.6403206450210053,inf,,,0.6821503155863353
513,5.703782474656201,-0.7795169382030142,0.0,1.6401415984486307,1.5575372811342825,0.6992726381474434,1.5864137989035805,0.8830767744700596,,,0.6403206450210053,7.693992882608094,inf,,0.8499636185441479
514,,0.0,0.0,1.4864197944556379,1.4730968698162732,0.590557031540306,1.737566928881072,1.2232180843220242,,,0.6403206450210053,inf,,,0.6775137936745373
515,,0.0,0.0,1.745800398510877,1.655018386935381,0.7215323028473357,1.2854815487726836,0.8920190037759863,,,0.6333676938231112,inf,,,0.7859244303107944
516,,0.0,0.0,1.6489800282494413,1.6285876342204249,0.5011325357161047,1.297505507086696,0.9876829439929036,,,0.6309483474627791,inf,,,0.6619069980542054
517,,0.0,0.0,1.741283697477177,1.7090831991705147,0.6930098622674986,1.2108885781724101,0.8985220568709804,,,0.6038851895711802,inf,,,0.9272953159353581
518,,0.0,0.0,1.5990575545652803,1.6029610630030844,0.518242147577036,0.7510240067478696,0.6030222491093663,,,0.6180765742263259,inf,,,0.9301724257190715
519,,0.0,0.0,1.762680286502912,1.7607031875853383,0.6528962437335049,0.866342303545332,0.8726827558364294,,,0.6008849035917525,inf,,,0.9319927285243467
520,,0.0,0.0,1.7301127383243333,1.7037670625415096,0.8112455115255122,1.669347450960707,1.4157652604209747,,,0.6509067234006624,inf,,,0.9123475830151527
521,5.033009217233222,-4.345164624211349,0.0,1.5845347806069812,1.5703033520802956,0.7395569014508824,3.185159181671462,2.2506949419916134,,,0.6333676938231112,4.9032767757757565,inf,,0.6876412824804154
522,5.342302493396444,-3.3122275459057953,0.0,1.6625036613951336,1.630376570464196,0.7674449444152945,3.299341575165014,3.4059078756985968,,,0.6509067234006624,5.762118051669164,inf,,0.5943333466246331
523,5.181504019503204,-3.955214734887446,0.0,1.3900680371070127,1.3253507309915293,0.7182595657963188,3.0436685716800524,2.3525133131633473,,,0.6357360191111145,5.381698975487088,inf,,0.6500689219225629
524,,0.0,0.0,1.6664491369307806,1.6697545401494602,0.5257225351141336,2.7044230230785793,2.962601446419648,,,0.6468212168108125,inf,,,0.7018364779888849
525,,0.0,0.0,1.2403043412080828,1.2349516767147994,0.5605077966309002,1.5285173114052257,1.4867669928351104,,,0.6509067234006624,inf,,,0.9516252290294256
526,,0.0,0.0,1.5707590372910933,1.576616639667983,0.6723585022120885,1.4373704240255432,1.2411924369442453,,,0.6125606311107803,inf,,,0.9471568873080619
527,5.0294049899668725,-4.459405757770626,0.0,1.425900366043075,1.168505401114761,0.7203734736492089,1.9522870318857217,1.4914727917505064,,,0.6180765742263259,5.06720564558465,inf,,0.6332589681283807
528,5.703782474656201,-0.20913869073739402,0.0,1.2797644712162852,1.2330429958765003,0.5744812576723548,1.947113941927091,1.225393692405932,,,0.6097226960127671,9.009669676514031,inf,,0.9197201698897052
529,5.7037824746562,-1.6160717011525898,0.0,1.608518286822534,1.588591217198159,0.7501454420487396,2.3837790042463656,1.6359938156135772,,,0.6468212168108125,6.964913692822086,inf,,0.5572712384475383
530,5.190673522813123,-2.6645457417107368,0.0,1.6984260918998717,1.6932597862008834,0.6733062132551142,2.6850441011361124,1.7332497068380954,,,0.6425374456860184,5.816577968801545,inf,,0.6852491274755229
531,5.520302338625627,-0.6256342650442377,0.0,1.5296246933415296,1.4993412294882624,0.6643148773544262,2.024993062470428,1.858876179872659,,,0.6380535849069913,7.64636483361884,inf,,0.647621480687157
532,5.703782474656201,-3.2131307940563265,0.0,1.7544080495326415,1.7173475758508707,0.7150316658978201,2.229597288016173,1.4355531103227794,,,0.6566669596287297,6.277666234389328,inf,,0.7273576276370749
533,5.634467756600206,-3.19286506207345,0.0,1.6343297981825242,1.638402958288923,0.7841216811548655,2.8092235898961055,1.8079857369522228,,,0.6468212168108125,6.176456332457816,inf,,0.5920256607611528
534,4.8505122909454155,-4.8505122909454155,0.0,1.67321855848114,1.6387627829726858,0.8684677995779048,4.776678317543601,14.841451453687377,,,0.6403206450210053,4.731741727677554,inf,,0.6232184746027081
535,4.519112707830931,-2.2595563539154657,0.0,1.6652115206318279,1.5611938222991253,0.8032581851918008,2.407831414238429,1.3369025821150728,,,0.648888643467878,5.119706389150617,inf,,0.82202374197197
536,3.9493920105962133,-3.9493920105962133,0.0,1.5673280990157323,1.5586306488523005,0.6750639010173604,4.745173818001801,115.23073045306015,,,0.6403206450210053,3.8454033180867504,inf,,0.7704987713674519
537,3.8813656295499155,-3.8813656295499155,0.0,1.7067631517764645,1.6917188278431894,0.9087344705175047,6.617556737705951,38.443207085814755,,,0.6468212168108125,3.8335199439402023,inf,,0.9017554617931018
538,4.158584833984136,-2.2594977597980477,0.0,1.343595146641998,1.0747646636709622,0.7900178965065474,1.9799787481084183,1.7677043953185159,,,0.6333676938231112,4.526153645669867,inf,,0.8525953529084123
539,,0.0,0.0,1.766984606623423,1.7604127423538958,0.6714952047938835,1.2524434900840924,1.1832381019957559,,,0.6284777104787076,inf,,,0.9495576638241235
540,,0.0,0.0,1.6829327128905005,1.6376701735665251,0.7632771135299506,1.5046742595019293,1.4597173008895987,,,0.6068309995095971,inf,,,0.9288663483483229
541,,0.0,0.0,1.488235826517046,1.4384785490429173,0.6272820167255184,1.396170596890837,1.3880222049248014,,,0.6233814453054027,inf,,,0.8994034973790548
542,,0.0,0.0,1.3170435605525108,1.2723382572454274,0.6727076817528657,1.7078756151649706,1.734111994980399,,,0.6357360191111145,inf,,,0.9484096488932651
543,,0.0,0.0,1.5465962478803579,1.492670147164578,0.6622123958161565,2.074029164465464,2.33376307469235,,,0.6509067234006624,inf,,,0.9214976808124161
544,2.7568333192403793,-2.7568333192403793,0.0,1.123925943008321,1.0255982511552655,0.8848492519400845,4.946582865086562,22.29159542399883,,,0.6425374456860184,2.7525246912040395,inf,,0.7661039425210916
545,2.504106870907191,-2.504106870907191,0.0,1.6816791405291849,1.665925713178769,0.9224002645992697,5.722869410669781,60.773853685432904,,,0.6357360191111145,2.495630613150976,inf,,0.8235258873762638
546,2.517563791525345,-2.517563791525345,0.0,1.5814839157922878,1.5732330010107036,0.9277501718735618,4.76430327358437,172.4702670554053,,,0.6619902821573977,2.515365857272709,inf,,0.7205705192426753
547,2.880582393862482,-2.880582393862482,0.0,1.6016001373563489,1.5587772480760351,0.8738794665257502,4.451634691924241,72.8851054848929,,,0.6403206450210053,2.8697851242877763,inf,,0.8650889670634946
548,5.5285326289219405,-2.7642663144609703,0.0,1.5584766597679691,1.2094284570037293,0.7700340824650845,1.965795167219855,1.7744280188932848,,,0.6309483474627791,6.160540877151916,inf,,0.6959402617233261
549,,0.0,0.0,1.4708125182793603,1.4339337775952106,0.8435923058794303,0.5060308460073507,0.7858876522797714,,,0.5490601803369085,inf,,,0.9234499799563188
550,,0.0,0.0,1.5765027266698093,1.5379508442979442,0.9311727786531449,0.5099063276754519,0.942841128200535,,,0.5068466436745385,inf,,,0.8675292874623145
551,,0.0,0.0,1.7312834755545654,1.7145946109562846,0.9366396505270173,0.6890637499005916,1.1846468200670996,,,0.581717464821069,inf,,,0.8873629148921395
552,,0.0,0.0,1.642546738072479,1.5959738537147163,0.9436596470859705,0.5513488325670524,0.9227508971309427,,,0.524519217297268,inf,,,0.8819410691406295
553,,0.0,0.0,1.7016578070495636,1.6767120716968353,0.9292035521223582,0.36744567204172923,0.6337421281084232,,,0.5329562494928909,inf,,,0.913952706596803
554,,0.0,0.0,1.7261421315827823,1.6632567259925461,0.8929220845808608,0.4729144337357063,0.7851589433585101,,,0.5370774965580548,inf,,,0.9090377003101926
555,,0.0,0.0,1.6521185113079058,1.6547140384834043,0.7321094367952217,0.4844517975335731,0.6961109173266389,,,0.5113665138247345,inf,,,0.9520435156726278
556,,0.0,0.0,1.6619318200627196,1.6333068509895066,0.5820371143488353,0.45584204730243494,0.6226432431373483,,,0.5748741956352443,inf,,,0.9484814841530939
557,,0.0,0.0,0.9513274731972851,0.8601452958578548,0.29949580549092175,0.4384803622366687,0.5883279104883072,,,0.5490601803369085,inf,,,0.7439279272744638
558,5.381165584165165,-3.892376439212803,0.0,1.6087970550403106,1.6140884767306583,0.8206411612123047,3.728306061431917,2.330517985150356,,,0.6380535849069913,5.645513566532225,inf,,0.7503022660609544
559,,0.0,0.0,1.6860428473222526,1.637471686964697,0.9362815822152277,4.229665126044888,2.167246904706042,,,0.6309483474627791,inf,,,0.939435539087271
560,,0.0,0.0,1.181142380796802,1.0526621559372953,0.8747591104864912,4.0562189116980125,15.328193349763275,,,0.62595550513784,inf,,,0.8055758895200976
561,,0.0,0.0,1.6718665347202168,1.6880016192018432,0.682357271870469,2.227830685512321,2.4132722570948957,,,0.6447042257417027,inf,,,0.7220193673213563
562,,0.0,0.0,1.589440899127253,1.5733889576438764,0.8533106644441375,1.360034098332869,1.5884792069772857,,,0.5748741956352443,inf,,,0.8690118369562859
563,,0.0,0.0,1.5819764427361322,1.5707752775020987,0.4174781503558409,1.3847770796340364,2.2625089821515987,,,0.5451288209179292,inf,,,0.49675855064516045
564,5.703782474656199,-1.3498951856686336,0.0,1.7100876961092257,1.6969212336640793,0.687008553716551,2.7225810708993103,1.9801490714201253,,,0.6425374456860184,7.144885072271086,inf,,0.5268220227594048
565,5.703782474656202,-0.8365547629495762,0.0,1.6565562021879958,1.6227449235964315,0.6099265830793668,2.2358147768976635,1.5474454818808354,,,0.6668815377411301,7.623375315394141,inf,,0.6574266857963474
566,,0.0,0.0,1.6163867548610404,1.5547193285879883,0.8164169214467478,2.0591942008557274,1.3465989554106423,,,0.6425374456860184,inf,,,0.7397145521540276
567,,0.0,0.0,1.2324586533404298,1.195452110749042,0.649748997572902,1.1932437338806205,0.9342039563416646,,,0.6528756675646988,inf,,,0.9139870344750691
568,,0.0,0.0,1.451564164111559,1.4181274059311464,0.8089747465449691,1.315982131568834,0.9942282976260275,,,0.6425374456860184,inf,,,0.9563147896363736
569,,0.0,0.0,1.5813371850868192,1.534608933449825,0.6190156712531506,1.905061286916376,1.6999302980546116,,,0.6425374456860184,inf,,,0.7781009337049799
570,5.614151373721727,-2.1708051978390674,0.0,1.5837055876236588,1.502799536657124,0.6874628813326817,2.282777164725216,2.1430531682467815,,,0.6447042257417027,6.532367626111251,inf,,0.8191873292907506
571,,0.0,0.0,1.4454540428333778,1.387668645849153,0.6453035882587977,1.7826792753860108,1.5669345814897002,,,0.6309483474627791,inf,,,0.895836809711719
572,5.703782474656203,-0.38025216497708014,0.0,1.5666887850536488,1.4978976059038775,0.562290028906359,1.4269789179565577,1.049485628029213,,,0.62595550513784,8.411832675758411,inf,,0.8525733107530723
573,,0.0,0.0,1.1865737330100696,1.1562747003807567,0.553508433064082,1.3879587357675636,1.4328254083912253,,,0.6180765742263259,inf,,,0.9209808585184069
574,,0.0,0.0,1.5626058762618047,1.543035154855489,0.24989578727610337,1.7720501392067176,2.0822163258037225,,,0.5978297680564633,inf,,,0.9658395948029763
575,,0.0,0.0,1.4895347213361168,1.45272587432347,0.6522647435306214,1.6323085335765253,1.4731875774563898,,,0.6380535849069913,inf,,,0.9513027903482808
576,,0.0,0.0,1.2394590974532838,1.2291577593899699,0.748503135695221,1.089540428203028,1.0282568493422988,,,0.6447042257417027,inf,,,0.949956619501571
577,,0.0,0.0,1.5958717970223153,1.5169947377527069,0.7958296688940171,2.9454684482091595,2.404739413040416,,,0.648888643467878,inf,,,0.9578827751551122
578,5.585440273097186,-0.7633435039899488,0.0,1.3983635590093628,1.3089656071255344,0.785726172643713,3.6943645577592217,8.053370589247534,,,0.6207552362147116,7.536363938404511,inf,,0.7915963536995325
579,,0.0,0.0,1.5605800444351852,1.582366112280467,0.7220317666290572,3.230796925302947,3.11629014318554,,,0.6528756675646988,inf,,,0.8575543462188365
580,,0.0,0.0,1.555852699452918,1.5020104487585142,0.7514755549143656,1.8449613658124344,1.2208471851060752,,,0.6584896970785714,inf,,,0.8220774368887317
581,,0.0,0.0,1.5148423759647989,1.462719789719289,0.8187377390918712,1.1689190077740383,1.4223865656885577,,,0.62595550513784,inf,,,0.8284094933928918
582,,0.0,0.0,1.7421215554631277,1.7035309237064533,0.8730338508578064,0.9218369050746512,1.448279781761964,,,0.5641709578113449,inf,,,0.8643271805655582
583,5.703782474656201,-0.6464286804610362,0.0,1.5863696073274562,1.5670464073508321,0.8016887107414391,2.2949822491523175,1.6653345029214996,,,0.6468212168108125,7.881204424696241,inf,,0.7269008967801146
584,5.11001427914424,-5.058914136352797,0.0,1.7211932368153584,1.6814220697873097,0.7956437913281816,4.705374393049306,14.947368374597223,,,0.6284777104787076,4.990832666800076,inf,,0.7925478210594049
585,5.2432668820924,-2.5517232159516348,0.0,1.6176836968146144,1.5857759714962572,0.7332987272984399,3.3132144077029295,4.7091565971114875,,,0.6309483474627791,5.914503505971854,inf,,0.7463725747566464
586,,0.0,0.0,1.3560517687982327,1.3103544945414507,0.7826382438440262,2.3028393719426323,1.5147784108435025,,,0.6309483474627791,inf,,,0.8373813323609932
587,,0.0,0.0,1.7587589934128456,1.7290428902811958,0.48223398313463306,1.941126594533898,1.9573328676167074,,,0.6180765742263259,inf,,,0.6584713682358655
588,,0.0,0.0,1.4964838886639504,1.4750627903739997,0.8968910957109724,2.5181799960341142,2.2682339170286117,,,0.6309483474627791,inf,,,0.9626313648838751
589,,0.0,0.0,1.4668270502344556,1.335492428723302,0.7362474238517243,2.6205782898142074,2.4601918492782437,,,0.6425374456860184,inf,,,0.6983642222456181
590,5.703782474656201,-0.8555673711984302,0.0,1.4613247619833505,1.3307500787793964,0.7283449457750684,2.58142962917631,1.6163279441550538,,,0.6333676938231112,7.600902459542082,inf,,0.8501344130752144
591,5.703782474656201,-0.05703782474656201,0.0,1.3528367605471348,1.281428936157285,0.7807505193885271,2.7855929221540987,2.501695254212184,,,0.6447042257417027,10.308952660644293,inf,,0.6343582527052982
592,,0.0,0.0,1.7574898062440412,1.7768159179491867,0.7415507065177266,2.64203494116586,2.0891058342943176,,,0.6468212168108125,inf,,,0.8597869036639113
593,5.641709592815012,-3.7799454271860577,0.0,1.5131738454000345,1.4784848362821323,0.5071918394639477,1.852547650203928,1.4147901600076525,,,0.6403206450210053,6.018493219495901,inf,,0.7748273691254715
594,,0.0,0.0,1.5899772486684465,1.603869752004591,0.6741081457872643,1.5910583838910837,1.7866134747013713,,,0.6153451465759925,inf,,,0.9565556776361682
595,5.7037824746562,-0.9506304124427,0.0,1.7450189451171403,1.6974856247143209,0.5910762640314765,1.379230616093161,1.2126489968451482,,,0.6125606311107803,7.495541943884256,inf,,0.8122316479945686
596,5.703782474656204,-2.2625003816136275,0.0,1.7441701196893993,1.6742291313834021,0.7268808625008012,1.9205580250460628,1.1406871204694047,,,0.6619902821573977,6.628441456200873,inf,,0.5073957758908547
597,5.636703715247176,-2.3298375356354994,0.0,1.5664810474024304,1.5381167344122,0.6817910593177254,2.191367870229757,1.95287981800344,,,0.6468212168108125,6.49491006357635,inf,,0.6043572202061469
598,,0.0,0.0,1.2143658265540958,1.1720327640050452,0.6461899725734286,1.8615196846856576,1.486425683948639,,,0.6447042257417027,inf,,,0.9514162658324282
599,,0.0,0.0,1.6518462586173408,1.550151746926097,0.6279086991056491,1.6969903170983947,0.9607843361449817,,,0.6619902821573977,inf,,,0.717100846347626
600,,0.0,0.0,1.5977248700117108,1.5050302836951337,0.6127039382491964,1.0363281172862253,0.8329862541604538,,,0.6233814453054027,inf,,,0.6746664732526372
601,,0.0,0.0,1.6624332389711611,1.6543889487965797,0.46385500390233436,0.7484329766691799,0.9340362795581336,,,0.5883313578629602,inf,,,0.9553747931747273
602,,0.0,0.0,1.3764459942982015,1.3695304530565462,0.6100321129297264,0.835524543227546,1.3545378556973242,,,0.5370774965580548,inf,,,0.8845202710929789
603,,0.0,0.0,1.749005868079919,1.7573103893543833,0.9177070165274451,0.8003672098161845,1.4437027205760968,,,0.5113665138247345,inf,,,0.8919650444840846
604,,0.0,0.0,1.6949748990585904,1.6940213349377977,0.738165494437158,0.8962555812467592,1.0281490126639858,,,0.6207552362147116,inf,,,0.9470363976500927
605,,0.0,0.0,1.7311760938691316,1.7041727565816958,0.7796961083924392,0.9772787005560589,1.1543260303185572,,,0.5883313578629602,inf,,,0.9354794477881316
606,,0.0,0.0,1.7063284468936222,1.6675554398024701,0.8739600879085073,0.9818321497741196,1.5256545629882263,,,0.5202020156036558,inf,,,0.9152562240473393
607,,0.0,0.0,1.5728295158327157,1.5603287889891093,0.600075790985426,0.6229975976609343,0.6595388991847133,,,0.5978297680564633,inf,,,0.9353229430490068
608,,0.0,0.0,1.6270205923056011,1.5832961426528251,0.6963739905310007,0.5385474877971355,0.5814389046352627,,,0.5713653840954815,inf,,,0.9458155235088166
609,,0.0,0.0,1.5795910017260693,1.5878596815752446,0.8324635331565933,0.5975490659778203,0.6268026637336315,,,0.6207552362147116,inf,,,0.9466484293636975
610,,0.0,0.0,1.4979414677386584,1.4577454677767383,0.592619231897472,0.7190586882306118,0.7071430896406968,,,0.6180765742263259,inf,,,0.942017682570976
611,,0.0,0.0,1.7478981336992891,1.741398182074395,0.8146379059913078,0.6623955333463234,0.6498973469879573,,,0.6068309995095971,inf,,,0.9369069354990939
612,,0.0,0.0,1.383901276398768,1.2984869812814626,0.6996308833902342,0.8538037916438098,0.6689223982189598,,,0.6403206450210053,inf,,,0.948564295244424
613,,0.0,0.0,1.6654842692506069,1.6553350490389886,0.6698703257185359,0.6839272278845269,0.6581885749771007,,,0.5915533975974677,inf,,,0.9586074427777518
614,,0.0,0.0,1.3122174530152924,1.2176548441024833,0.7740110117316574,1.213299716194826,1.1188822878134626,,,0.6403206450210053,inf,,,0.9538916189339399
615,,0.0,0.0,1.7715328559848644,1.7353027618573045,0.7792448876678012,2.1268794604368813,1.397083655806831,,,0.6380535849069913,inf,,,0.7776467303100825
616,5.703782474656202,-1.8822482166365466,0.0,1.4022353838196757,1.404933090524146,0.6846739077084216,2.4340137451354424,1.3063136983136738,,,0.6468212168108125,6.812445099177812,inf,,0.6228608634990859
617,5.703782474656201,-0.07605043299541601,0.0,1.358240245636924,1.3268008196990082,0.7533934410810461,1.3855656303660353,1.0888629172841353,,,0.6333676938231112,10.021270588192511,inf,,0.7397984264782267
618,,0.0,0.0,1.692075221488496,1.6716578469322056,0.6565821018107735,1.0081284312358056,0.8232033407056356,,,0.6097226960127671,inf,,,0.9494128779525493
619,,0.0,0.0,1.5532227230734434,1.553618108035533,0.6794464613143082,0.5251394348170642,0.5727132124099416,,,0.552929491858785,inf,,,0.9519269587260505
620,5.7037824746562,-1.6160717011525898,0.0,1.6206616146077193,1.5825672625143077,0.572546968443807,1.57918706386553,1.273918185739891,,,0.6447042257417027,6.964913692822086,inf,,0.5362726508038873
621,,0.0,0.0,1.6730493750862765,1.6306017615540784,0.7084762358677442,1.582632641856313,1.403432548562573,,,0.6380535849069913,inf,,,0.6206027976540379
622,,0.0,0.0,1.2206338479700518,1.2080007864009132,0.5680711576499193,0.741380217080339,1.1953528104864637,,,0.5113665138247345,inf,,,0.9511634264748091
623,,0.0,0.0,1.6276985140117328,1.63530596382666,0.8874630650826919,0.6685042326164017,1.0461473724012635,,,0.48319206230712763,inf,,,0.9168669972519714
624,,0.0,0.0,1.716828487088357,1.690502209428878,0.9179686155306878,1.0615219598780314,1.8184802582792121,,,0.585052858160615,inf,,,0.9160590569050772
625,,0.0,0.0,1.6754723723882485,1.691944918805431,0.7190614718477225,1.2802707633283725,2.0316807118781774,,,0.6068309995095971,inf,,,0.8874474299438138
626,5.703782474656201,-0.9316178041938461,0.0,1.7542283827007477,1.7345237394755832,0.7196406493700485,1.365715935842676,1.0705537228571733,,,0.6509067234006624,7.515744651201776,inf,,0.6343991717223282
627,,0.0,0.0,1.3029818274945961,1.2758351974858873,0.8048694021596132,1.7808981343291035,1.5405438937902003,,,0.6447042257417027,inf,,,0.9205972825069576
628,,0.0,0.0,1.5855797909509475,1.5497364451359361,0.7791415093084665,1.0296132474512978,1.174389651428332,,,0.5329562494928909,inf,,,0.9346731198695184
629,,0.0,0.0,1.652444978219423,1.637495062129675,0.8089805523590009,1.021065281414611,1.1561388208078867,,,0.6068309995095971,inf,,,0.911523993303505
630,,0.0,0.0,1.5572181737933855,1.545131649754361,0.6008780385292629,1.0259823180347962,0.9677930211737913,,,0.5978297680564633,inf,,,0.6392792521334975
631,5.674286849951523,-0.8889716064924053,0.0,1.6584890616758579,1.6303046306702664,0.7265344380682791,2.469616456269735,1.766531412829504,,,0.6309483474627791,7.515744651201776,inf,,0.8373590833410722
632,4.549956455683139,-4.170793417709544,0.0,1.7137877753997812,1.5882751968444413,0.6570908024568098,3.3568755132963783,4.969517073738029,,,0.6425374456860184,4.49283405659384,inf,,0.8475664079537152
633,,0.0,0.0,1.6235380633829486,1.588997234023845,0.6858567039633371,2.974233219398599,2.977451210325127,,,0.6403206450210053,inf,,,0.8721097407918471
634,5.703782474656201,-0.6274160722121821,0.0,1.625117910114639,1.5873381475468584,0.629097882790386,1.8718855494008604,1.1689694839081919,,,0.6602640781246099,7.911057387845922,inf,,0.5840717624439209
635,5.703782474656203,-4.22079903124559,0.0,1.5494426137879471,1.3751570171946135,0.6528263188188512,1.4873177536481403,0.9137915751356476,,,0.6309483474627791,6.0048875674401225,inf,,0.9506960987209438
636,5.247785435739532,-5.247785435739532,0.0,1.7181166596662487,1.5936758532453608,0.7193981698615746,1.4870227438907402,0.7248243704155382,,,0.6425374456860184,5.184988681241033,inf,,0.9023843217680602
637,4.6190867084797285,-2.371131177019594,0.0,1.690264078811847,1.56104875505434,0.6655520202560002,1.296154941474239,0.7384279610095084,,,0.6566669596287297,5.129043525146558,inf,,0.8924388018410158
638,5.685298549841268,-2.842649274920634,0.0,1.6745038058548376,1.6723004080849224,0.6758193460731234,2.273978946398467,1.1122586562586299,,,0.6380535849069913,6.370612346898773,inf,,0.6541845262433221
639,,0.0,0.0,1.1144951044462328,1.097086673841754,0.5621246329902607,0.69733837793257,0.8071467776538244,,,0.5978297680564633,inf,,,0.9517667913765413
640,5.7037824746562,-1.1027312784335321,0.0,1.530503994448137,1.4634133505856894,0.6779236833415833,1.2761092871250854,1.0672118505043153,,,0.6447042257417027,7.347121938765983,inf,,0.6471706490520353
641,4.9567792655736,-1.8988178886929066,-0.3813005734709489,1.6358640919656453,1.5573592956979772,0.5670261811098325,1.2389104090348377,0.7616163976492034,3.0843646508272866,,0.6403206450210053,5.608472294851876,2.803360380906535,inf,0.8602259740415654
642,,0.0,0.0,1.5794562730265889,1.533526929797081,0.659901143919131,0.7813687361883331,0.8878294741901088,,,0.6125606311107803,inf,,,0.62323752422453
643,5.703782474656202,-4.12573599000132,0.0,1.6613849061282737,1.5689028838836445,0.37530080041207503,0.46118186927379606,0.57766349734901,,,0.5641709578113449,6.027667595771942,inf,,0.7657027467354266
644,5.703782474656201,-0.4753152062213501,0.0,1.5928231863098736,1.5807428355666289,0.5594767898043267,0.7263144812549679,0.715228873611403,,,0.5783247308855777,8.1886891244442,inf,,0.5812794372242285
645,,0.0,0.0,1.7650499988026038,1.7682792448519375,0.19261059335389225,0.5506906922449384,0.8170070582578755,,,0.5604843169999094,inf,,,0.9695759214997458
646,,0.0,0.0,1.7348229475633825,1.7073633878944254,0.888719048524736,0.35240137817990835,0.6709149996314115,,,0.5329562494928909,inf,,,0.870671453402689
647,,0.0,0.0,1.7178891247486814,1.6940806575555902,0.8384009568794393,0.37240969730800394,0.6469989776129264,,,0.5490601803369085,inf,,,0.9000216716369194
648,,0.0,0.0,1.7184197466134967,1.7082076572084661,0.879835698760246,0.4464620421370787,0.7013710233925223,,,0.5604843169999094,inf,,,0.8881940778375892
649,,0.0,0.0,1.5630547254186582,1.5338672389690537,0.7595040473403326,0.5370761961033969,0.8651442969998379,,,0.4880666971167561,inf,,,0.9454598765386798
650,,0.0,0.0,1.6517378225407056,1.6365258329712786,0.4265570845397501,0.5991248800047063,0.9604538847037289,,,0.5202020156036558,inf,,,0.9417256639978128
651,,0.0,0.0,1.6864619988126472,1.6773264052693886,0.7623300399469628,0.4584056181186809,0.7796977777719633,,,0.4732203808476458,inf,,,0.9312211698223254
652,5.703782474656201,-3.0610299280654947,0.0,1.4317327952371024,1.3989487432287677,0.4682904006554552,1.310851094916038,0.9067903031906901,,,0.6068309995095971,6.326160584327939,inf,,0.8878863867434613
653,,0.0,0.0,1.48133105174787,1.44456514824824,0.7413565804310224,1.5774902644487874,1.9092930611096683,,,0.6068309995095971,inf,,,0.8379854884749548
654,,0.0,0.0,1.6928907572337528,1.6259051530692847,0.4633020620131778,1.3115315807633416,1.3969618788204465,,,0.6380535849069913,inf,,,0.9552860868467775
655,,0.0,0.0,1.6478043038054881,1.6021639771004945,0.8782217563330202,1.0585960688501361,1.3847793623317646,,,0.6125606311107803,inf,,,0.9325679568649001
656,5.703782474656201,-0.6274160722121821,0.0,1.7220908294411013,1.7091645899092063,0.27421655473349577,1.8705894821518663,3.0084173503989096,,,0.581717464821069,7.911057387845922,inf,,0.6612299084562568
657,,0.0,0.0,1.449855317406342,1.4440369124774952,0.6475645997303157,2.565324614599063,3.7026341631119033,,,0.6447042257417027,inf,,,0.7588552904189558
658,,0.0,0.0,1.7695903377312125,1.7527242511073153,0.5955761872250082,2.23900944147474,1.437929837906502,,,0.6357360191111145,inf,,,0.6164344635847429
659,,0.0,0.0,1.6056736013271204,1.5973826487060492,0.7122014702477908,1.27955959322283,1.1568204497111927,,,0.6333676938231112,inf,,,0.953380613901519
660,,0.0,0.0,1.5890262853378154,1.5755045610841987,0.6932002011260813,1.6386062634740883,1.2935372798299074,,,0.648888643467878,inf,,,0.8776050074196375
661,,0.0,0.0,0.849035907083483,0.8384992924690163,0.6769106215257804,0.9550448457331476,1.2796787297250682,,,0.581717464821069,inf,,,0.9250641341161502
662,,0.0,0.0,1.675110483829181,1.6875196020715868,0.7518558407491509,0.7528239785260087,1.2561015313802724,,,0.5567373465730988,inf,,,0.9402142818080245
663,,0.0,0.0,1.2180456629856438,1.2009817509655396,0.45383296029696846,0.6780954156750925,0.8325454525418358,,,0.5677978065141052,inf,,,0.8439540570436832
664,,0.0,0.0,1.5467583551560558,1.5106386710607067,0.48411878611509934,1.438833876665472,1.5964678756462003,,,0.6038851895711802,inf,,,0.6380110728442229
665,,0.0,0.0,1.735257314053107,1.7177818044275137,0.31528267898416906,1.245632972968133,1.7438618986862142,,,0.5677978065141052,inf,,,0.6766958078400026
666,,0.0,0.0,1.5266264431635945,1.4834831416368097,0.3602171458776702,1.8979800124068824,1.0664195682977886,,,0.6207552362147116,inf,,,0.6776042997782876
667,,0.0,0.0,1.47329883252445,1.4499718468665772,0.7741155968562952,0.5200709273629679,0.6691447024933104,,,0.5783247308855777,inf,,,0.8998465522747678
668,,0.0,0.0,1.6887490663438336,1.672111487806924,0.6782815745672705,0.5597649980600565,0.5877297536428795,,,0.6180765742263259,inf,,,0.9446760105195326
669,,0.0,0.0,1.29797881803811,1.253449894174244,0.5709979918696473,0.7844321314400792,0.8973477825620716,,,0.6233814453054027,inf,,,0.9464233688891733
670,,0.0,0.0,1.4797511693603131,1.4914399142966375,0.8003890692351217,0.5559756462573946,0.7787365717572619,,,0.5677978065141052,inf,,,0.9291687350048669
671,,0.0,0.0,1.7512076165814519,1.7512596577524155,0.5534583654257248,0.8594419496438019,0.8858472774089754,,,0.5915533975974677,inf,,,0.6626566350565491
672,,0.0,0.0,1.7518518499833857,1.7336490748200515,0.7951157987945797,0.789203105747877,0.8647080587623059,,,0.6008849035917525,inf,,,0.9315035356385416
673,,0.0,0.0,1.5228911504969536,1.499203084259866,0.7411999407129581,0.7850960480970749,0.9499100139999019,,,0.5713653840954815,inf,,,0.9395255208803711
674,,0.0,0.0,1.5045409879020675,1.498398021881746,0.70784172961352,1.9568477498494135,2.0769247548469396,,,0.6153451465759925,inf,,,0.9341046949079719
675,,0.0,0.0,1.7084295237158105,1.6836807212240381,0.8249848129768272,1.2781080309834973,1.4781122158157567,,,0.5748741956352443,inf,,,0.9142918025130347
676,,0.0,0.0,1.6273846289410208,1.5983771360726113,0.8527554024264749,0.8851996503632672,0.9889716860514663,,,0.5677978065141052,inf,,,0.8732711268153145
677,,0.0,0.0,1.6692599973863873,1.6609897160093547,0.7105093428898323,1.281216196155182,1.557531656566228,,,0.5567373465730988,inf,,,0.9085782852934547
678,,0.0,0.0,1.7338321545621227,1.6848848973570698,0.803906469344492,1.0693289071761014,1.0328878121717318,,,0.5947193981915972,inf,,,0.9423899829256012
679,,0.0,0.0,1.1530939443304042,1.1265696565882921,0.6501942449912083,0.9573114733428517,0.9264364415391817,,,0.6097226960127671,inf,,,0.9566319611220975
680,,0.0,0.0,1.6588635286566005,1.6523959481762225,0.8575497140561644,0.3643843307103657,0.5024988486789969,,,0.5783247308855777,inf,,,0.9097419656332489
681,,0.0,0.0,1.5086041978714724,1.480461134898086,0.793179189895021,0.3022098979536737,0.36973327602616857,,,0.5113665138247345,inf,,,0.9148173091887991
682,,0.0,0.0,1.7436009506520649,1.7008819855944153,0.8829767105457486,0.361519553208245,0.48409728171863403,,,0.552929491858785,inf,,,0.8624608884275509
683,,0.0,0.0,1.537411678790869,1.5023373782357838,0.8891601614224347,0.37610646398977143,0.5660833080642289,,,0.48319206230712763,inf,,,0.8423372783808146
684,,0.0,0.0,1.5109026749066792,1.48004798763929,0.8514453836203636,0.4497462887621539,0.693761026311757,,,0.43586655696697996,inf,,,0.8749738334335946
685,,0.0,0.0,1.6317495691416033,1.5899150581702584,0.8541386020873597,0.37424999096522205,0.5561332987859613,,,0.4928685327679205,inf,,,0.8414346444515108
686,,0.0,0.0,1.3892598889494423,1.333891155001157,0.3660879740730095,0.7821105225920297,0.8649979837167122,,,0.5641709578113449,inf,,,0.823535551704486
687,,0.0,0.0,1.4839728806285302,1.441848568661852,0.850076290673796,0.3135692709195985,0.46786944333038605,,,0.5370774965580548,inf,,,0.9078081173544735
688,,0.0,0.0,1.7718012082393662,1.7189745076126672,0.9002486931599344,0.4090224690543182,0.6811099717248765,,,0.541134803179459,inf,,,0.9018584046631579
689,,0.0,0.0,1.7190885172332675,1.6761883673846087,0.9671450730549537,0.5247782036587338,0.8058863945623596,,,0.5329562494928909,inf,,,0.9073171988118054
690,,0.0,0.0,1.721973757788971,1.696204184795601,0.2228042100904129,0.74429954268208,0.9027999952295788,,,0.5783247308855777,inf,,,0.5503187295474999
691,5.447159281853473,-4.7571857728187,0.0,1.4315456113475162,1.4041447830066527,0.7026660205491723,3.5594467108944468,5.623700234106856,,,0.6652988471865258,5.524242560824123,inf,,0.7348984804741288
692,,0.0,0.0,1.6648314043436967,1.625783382355088,0.8338942723153204,5.163780435643074,3.9255461093496855,,,0.6713451011121618,inf,,,0.9320758376120232
693,3.8773751914917574,-3.8773751914917574,0.0,1.7694875038411655,1.7281562718048062,0.8502511246499157,4.414794268594845,37.69071364637518,,,0.6584896970785714,3.8459232037236224,inf,,0.9067030245031344
694,3.3697755105335028,-3.3697755105335028,0.0,1.4250134373758496,1.3723042657343525,0.9119899517326491,5.739205142392531,6.498632911418273,,,0.6619902821573977,3.286084574561651,inf,,0.9133378257325596
695,3.4430039536893826,-3.4430039536893826,0.0,1.6637627821754335,1.6462477049334407,0.8796298166873702,4.898617484873549,57.99022990234598,,,0.663668482632973,3.434754165190998,inf,,0.8819347288517541
696,2.9957243497245196,-2.9957243497245196,0.0,1.638190928626348,1.6324404182981516,0.8578554530679918,6.602920770158662,37.72979021380715,,,0.663668482632973,2.979640225654347,inf,,0.8706512033061271
697,3.882740440283591,-3.882740440283591,0.0,1.5223927197235887,1.4958183833200618,0.8845081289368117,6.724460817930468,82.75130727588788,,,0.6584896970785714,3.7413430236496774,inf,,0.8985830953818286
698,4.781021627411738,-2.91642319272116,0.0,1.5534861823872337,1.2088344176685566,0.7865303901510612,1.9230221182986562,1.4688305270347346,,,0.6447042257417027,5.032540129484306,inf,,0.836457716499542
699,,0.0,0.0,1.7002075060577164,1.6759702844324662,0.8948386923864231,0.5727021486566316,0.6722414608606011,,,0.5883313578629602,inf,,,0.8904202087920364
700,,0.0,0.0,1.6597164373743487,1.6393827650468646,0.897273646877387,0.27677601910304667,0.4244080220207563,,,0.49759852643134905,inf,,,0.8748151159632512
701,5.411635222407645,-1.3348700215272191,0.0,1.3267490300307907,1.2996660226342238,0.7407129537503432,0.8720255978829037,0.7304512368664661,,,0.6425374456860184,6.698034748000068,inf,,0.7157347877344215
702,5.3904902207174095,-3.9709944625951583,0.0,1.5335258731488282,1.5099069175384014,0.6172177610037353,1.355633201542807,0.8504173125608281,,,0.6153451465759925,5.593434417487336,inf,,0.6803442035741621
703,5.703782474656203,-0.5893908557144742,0.0,1.489433536843272,1.3337536331568156,0.782733114879443,1.2226941322860672,0.8793401245408126,,,0.6038851895711802,7.973577744827256,inf,,0.7669340772334168
704,5.703782474656201,-0.3232143402305181,0.0,1.7664982168190355,1.7443941693188638,0.7134580585658732,2.371993043718808,1.3831789260215706,,,0.6425374456860184,8.574351605256187,inf,,0.9078142265440247
705,,0.0,0.0,1.5524041007183214,1.5475754231716252,0.6684474220030018,1.7499055653412143,1.2643058010123993,,,0.6547956803312163,inf,,,0.6378364347800537
706,,0.0,0.0,1.4185483357986577,1.3868073727424661,0.5516549655870203,1.463178350982493,1.0336738917752213,,,0.6380535849069913,inf,,,0.682562144402835
707,,0.0,0.0,1.6654842024117058,1.640250748059866,0.5990560305052376,1.7584737134847217,1.176971425716346,,,0.663668482632973,inf,,,0.6501539112698848
708,,0.0,0.0,1.3966832812629464,1.3370964911707037,0.776454952763177,1.2517373184912057,0.9953730857998264,,,0.6233814453054027,inf,,,0.9321037976735416
709,5.703782474656202,-0.6654412887098902,0.0,1.6950289237074894,1.6863844215354924,0.6417394701058144,1.8572543221326068,1.384395025736385,,,0.6584896970785714,7.852216887822989,inf,,0.9530134908173288
710,,0.0,0.0,1.6072618998784016,1.5451442377116587,0.689462425053748,1.63244728457606,1.0680806288866387,,,0.6153451465759925,inf,,,0.807293259416029
711,,0.0,0.0,1.7192905078963459,1.7050485769005226,0.7552345949616229,1.853258226420874,1.7996542400535884,,,0.6380535849069913,inf,,,0.9500479380844729
712,,0.0,0.0,1.642257449055701,1.6348519065198204,0.690996620234229,1.9009200598450067,2.0598506286101164,,,0.6125606311107803,inf,,,0.7637431662342178
713,,0.0,0.0,1.6487047332625133,1.645238638459367,0.7539090218746655,1.3541771197428454,1.4850977858416885,,,0.6357360191111145,inf,,,0.7948280104972952
714,,0.0,0.0,1.6466072022011273,1.6346399676697452,0.8043209755718972,1.6005113538336277,1.9192050296595649,,,0.5978297680564633,inf,,,0.9367687934488206
715,,0.0,0.0,1.6621764849111447,1.6130312275000336,0.6929235588769098,1.55496575303757,1.9878416007231352,,,0.6207552362147116,inf,,,0.9509596167713563
716,,0.0,0.0,1.6228841936951146,1.6001135952441206,0.7333251890571294,1.2487995088248056,1.295059941611277,,,0.6309483474627791,inf,,,0.9567362166392892
717,,0.0,0.0,1.5949052627778357,1.5747992300136986,0.7620502262979295,1.0065951849638661,1.0596377220463193,,,0.6284777104787076,inf,,,0.9568581953987269
718,,0.0,0.0,1.6877930883308765,1.6535575843147223,0.6810934714642737,1.129990857870688,1.1263127084174798,,,0.6357360191111145,inf,,,0.9483885134958058
