,bvp+hr_XAp0,bvp+hr_XAp1,bvp+hr_XAp2,bvp+hr_XCond1,bvp+hr_XCond2,bvp+hr_XDist,bvp+hr_XFuzz1,bvp+hr_XFuzz2,bvp+hr_XK2_1,bvp+hr_XK2_2,bvp+hr_XPermEn,bvp+hr_XSamp0,bvp+hr_XSamp1,bvp+hr_XSamp2,bvp+hr_XSpec
0,,0.0,0.0,1.7450770332081753,1.7284400457441844,0.5880693657250861,1.2826408117468413,1.3739277081505463,,,0.5713653840954815,inf,,,0.9057324427144263
1,,0.0,0.0,1.7054193790058951,1.7111156220756294,0.8404550481116391,2.260681294477444,2.9710031529129406,,,0.6180765742263259,inf,,,0.9240879823864697
2,,0.0,0.0,1.6418494590781534,1.6171117615271302,0.7821875592624061,2.338633896430478,2.5507736659236344,,,0.6008849035917525,inf,,,0.911081609486812
3,,0.0,0.0,1.677098653531897,1.591088264404697,0.4830484533123248,1.8285055134980075,2.226591967785883,,,0.552929491858785,inf,,,0.9480895045694738
4,,0.0,0.0,1.5819457178773413,1.5425978807852698,0.8022900752599668,2.8035712437977764,2.5209226950894816,,,0.6380535849069913,inf,,,0.8953816608400095
5,,0.0,0.0,1.6883155317667207,1.6689856970419135,0.657291345816923,2.4553486938499915,2.2712479073699563,,,0.648888643467878,inf,,,0.8491313970673431
6,,0.0,0.0,1.398637622256447,1.3697119473009107,0.6288929283098132,2.5230308135005473,5.662708666563034,,,0.6008849035917525,inf,,,0.7269180701325503
7,,0.0,0.0,1.7336384237203415,1.6816638183334025,0.47030418357899667,2.007934297362068,4.052956749993747,,,0.5883313578629602,inf,,,0.9165000200857604
8,,0.0,0.0,1.6589835242235882,1.6304002421023023,0.49712539868065625,2.2123705269316787,3.478454786144461,,,0.5604843169999094,inf,,,0.7884698322625527
9,,0.0,0.0,1.4934424642182809,1.4745144853711687,0.56727989336857,1.711014119096564,1.7210683407191028,,,0.5641709578113449,inf,,,0.7938588453150963
10,,0.0,0.0,1.6070466598374389,1.560996128473958,0.5027012676457324,1.8159152098128795,2.2758505946985284,,,0.468121228110369,inf,,,0.6781319985488498
11,,0.0,0.0,1.551659893264966,1.5338530217032298,0.7972618858533053,1.8902200171127383,2.0808894230116555,,,0.5287703885177266,inf,,,0.9481241483283335
12,5.703782474656202,-0.6844538969587443,0.0,1.7583193331260416,1.7102571567655327,0.6054681373430582,1.2731744483671217,1.561004273261695,,,0.5883313578629602,7.824046010856292,inf,,0.7205246889606335
13,,0.0,0.0,1.545224164028534,1.5122803757842649,0.8821925881779035,0.5025583429217979,0.9577781132481554,,,0.44694259446804574,inf,,,0.8937457431323946
14,,0.0,0.0,1.5397726227115986,1.492547488224241,0.9296058677314427,0.2633189531699262,0.49066179469596083,,,0.43586655696697996,inf,,,0.8709550873674488
15,,0.0,0.0,1.6503791265787804,1.6391969240901678,0.938201910877119,0.30361429091594067,0.6194941145489088,,,0.44144624493110796,inf,,,0.8577195343506505
16,,0.0,0.0,1.623009956084045,1.6161718281857584,0.8495420923996534,0.4890017797241939,0.9103710118975441,,,0.4629450596409901,inf,,,0.816811670629024
17,,0.0,0.0,1.6223348184691597,1.605522520522903,0.7681586720297509,0.40369404390246866,0.7000925040750163,,,0.4576907132971797,inf,,,0.8631557143825583
18,,0.0,0.0,1.3951928662824358,1.4176579263911402,0.8497163475413475,0.9570339424262099,1.9135863360142926,,,0.5370774965580548,inf,,,0.8859590263147767
19,,0.0,0.0,1.7037705515222905,1.6621057764068898,0.9301738239318169,0.9617301785219982,1.769494526226628,,,0.541134803179459,inf,,,0.901750583606299
20,,0.0,0.0,1.6316358021637916,1.5918439478769826,0.9575460998227331,1.058842268078759,1.7531614704394063,,,0.5202020156036558,inf,,,0.8960204515281077
21,,0.0,0.0,1.6337116933703504,1.5990856527397665,0.94123239118409,1.1701389118075591,2.607567741722602,,,0.5641709578113449,inf,,,0.8838708978902046
22,,0.0,0.0,1.6433640830371825,1.6099927911046814,0.8873963497440978,1.2899576621381896,2.982497186450888,,,0.5883313578629602,inf,,,0.8726739805507381
23,,0.0,0.0,1.5995877859654892,1.5686954581815789,0.9083067619459724,1.5313107320640573,2.241845112804917,,,0.5947193981915972,inf,,,0.8516203853803466
24,,0.0,0.0,1.5306947459194822,1.5031577682465338,0.6094055106712604,1.3354676560321341,1.3048203830127076,,,0.6403206450210053,inf,,,0.6596092287730394
25,,0.0,0.0,1.5944474092374288,1.5933281780825403,0.8753515692795297,1.2200717876819644,1.0925437088122834,,,0.6652988471865258,inf,,,0.9221380469021883
26,,0.0,0.0,1.5805460746215685,1.541242314860238,0.483867590008026,1.6231566621325524,1.2098988156435602,,,0.6652988471865258,inf,,,0.6545935637922348
27,,0.0,0.0,1.7045297725258863,1.6975185709288505,0.8590173597155553,2.1113266728292865,2.117317877710561,,,0.6509067234006624,inf,,,0.911976979730214
28,,0.0,0.0,1.600902557075959,1.5802679997578482,0.8414180457002126,2.1321400422895738,2.36104032222532,,,0.6284777104787076,inf,,,0.9127531782014244
29,,0.0,0.0,1.6637887029229246,1.6038025957915292,0.9124686268362007,2.100569907839437,2.9429745625018215,,,0.6309483474627791,inf,,,0.9265299669159263
30,,0.0,0.0,1.641751719483253,1.6037567625353388,0.8654001574316944,2.1531212161306734,2.53265435384751,,,0.6284777104787076,inf,,,0.929081348700318
31,,0.0,0.0,1.7125612771346765,1.6908941794492376,0.7284301377797295,1.3865031793760347,1.2098183169558383,,,0.6125606311107803,inf,,,0.9323466542438738
32,,0.0,0.0,1.5091565561244331,1.4573189093211616,0.7634744563122363,0.9094994902116096,1.052024246452221,,,0.5677978065141052,inf,,,0.9061816534883897
33,,0.0,0.0,1.5033802047669838,1.4868663921206282,0.6577379898072188,1.036732390677515,1.021433011392414,,,0.581717464821069,inf,,,0.9465825400992877
34,,0.0,0.0,1.7775701842180187,1.7604446264744862,0.6423776519429794,2.4215082074875807,1.735532384965643,,,0.663668482632973,inf,,,0.9519740318979102
35,,0.0,0.0,1.4640193276191065,1.4448430200263696,0.582127989872815,1.4519085772729194,2.1091476179217556,,,0.42445136339222655,inf,,,0.9421994068535757
36,,0.0,0.0,1.701706211386846,1.6785655304794422,0.9192006538399538,1.650951374967763,2.331781639459897,,,0.3751344627501719,inf,,,0.8898929817061619
37,,0.0,0.0,1.6333178426372443,1.60080172157406,0.9276973298983904,1.927300520294342,2.6568346798024547,,,0.4880666971167561,inf,,,0.9072560196721078
38,,0.0,0.0,1.6417980263965468,1.6175205476194257,0.9341063765143995,2.0948220787131913,2.455855594754015,,,0.4928685327679205,inf,,,0.8839103284046799
39,,0.0,0.0,1.5011423253218044,1.4613496921150195,0.4999340566460173,0.8276691595372079,0.41922989012919143,,,0.5567373465730988,inf,,,0.951791562730465
40,,0.0,0.0,1.5719621086162048,1.5062461856369258,0.9044241525402704,0.22494319731748078,0.4164701129102588,,,0.468121228110369,inf,,,0.8949003274262468
41,,0.0,0.0,1.4666599863707037,1.3859835712095956,0.8757192334782231,0.6907661983371445,0.6810662540226339,,,0.6125606311107803,inf,,,0.9024712120899514
42,,0.0,0.0,1.5564140829909876,1.5205081870688235,0.9130504444023342,0.812609761771941,1.3119565363687973,,,0.5915533975974677,inf,,,0.9009918971836339
43,,0.0,0.0,1.6349313927510316,1.5975782750433078,0.9593091357442418,0.7425664852152507,1.203342234596244,,,0.581717464821069,inf,,,0.8848377608880341
44,,0.0,0.0,1.6413655265726184,1.6150308801609714,0.9274481475346643,0.4052290412708777,0.5471981606091416,,,0.5604843169999094,inf,,,0.9395622658212947
45,,0.0,0.0,1.6964783591161297,1.649134563610592,0.9566436421593596,0.4950236054132025,0.7950675722656522,,,0.5329562494928909,inf,,,0.8732488768206446
46,,0.0,0.0,1.707486819003728,1.6679924456602988,0.6558950791220316,0.4033618606387265,0.48040698898886164,,,0.581717464821069,inf,,,0.964122808341185
47,,0.0,0.0,1.6028087635265864,1.5932310696609646,0.9244052777838975,0.38025998524646376,0.44591319964955306,,,0.6309483474627791,inf,,,0.9024855630867671
48,,0.0,0.0,1.6901742694886677,1.6591523528178733,0.6645792484798425,0.813123593562623,0.846748988462693,,,0.6008849035917525,inf,,,0.9382645331253883
49,,0.0,0.0,1.5779105836684952,1.5711395367222816,0.8689953145942813,1.0122226491764315,0.901051153050515,,,0.6357360191111145,inf,,,0.8615488392401027
50,,0.0,0.0,1.5796701152093602,1.5741730205124012,0.8941303136623215,0.621284944539765,0.908296350557458,,,0.6038851895711802,inf,,,0.9151544790588103
51,,0.0,0.0,1.601371330961483,1.5596875260047087,0.7573431661143664,0.8582820240803425,1.067682704706839,,,0.5978297680564633,inf,,,0.9491044229540699
52,,0.0,0.0,1.6731459132610587,1.617120784094997,0.9074468742214684,1.4521322178882978,1.6124982514428283,,,0.6008849035917525,inf,,,0.8680939929825915
53,,0.0,0.0,1.5500013813871327,1.5110078386142967,0.8636724734840734,1.2719395862020781,1.9437304083836942,,,0.62595550513784,inf,,,0.8979060858931153
54,,0.0,0.0,1.5460627717387903,1.4917781515561577,0.799214548778481,1.30353398571433,1.0869767208532557,,,0.648888643467878,inf,,,0.9595168101426413
55,,0.0,0.0,1.6884419514789646,1.64989758572302,0.9173630922953234,1.8088217261105302,2.7895025144342913,,,0.5978297680564633,inf,,,0.9180945056857566
56,,0.0,0.0,1.7149807030988242,1.701885272579725,0.6458403436711319,1.3588905331103946,1.0424576032600894,,,0.6447042257417027,inf,,,0.9495150123555591
57,,0.0,0.0,0.6245283591397145,0.580367479839085,0.593760160010481,0.1575672964661372,0.308964920129306,,,0.4066654671944331,inf,,,0.9086635727306901
58,,0.0,0.0,1.4800441099418775,1.4778526426658571,0.7300717983783236,0.11507736006986422,0.21414995331132847,,,0.42445136339222655,inf,,,0.7963604530659378
59,,0.0,0.0,1.774038662264946,1.7388080879529866,0.6253205215116366,0.15691084134099023,0.2285751186078558,,,0.44694259446804574,inf,,,0.9089739249252491
60,,0.0,0.0,1.7358661297647555,1.6990295090607952,0.9676932091260937,0.22058506297394287,0.48043574861880745,,,0.41268473150466,inf,,,0.8769867142475724
61,,0.0,0.0,1.622353358326127,1.588084664942646,0.9125173960134413,0.2863847359529143,0.6395872157945666,,,0.44144624493110796,inf,,,0.8670083361221864
62,,0.0,0.0,1.715430998090174,1.6866824940874823,0.9207976174232319,0.37891208762203266,0.8498906174369553,,,0.4302020962658841,inf,,,0.8183583176954173
63,,0.0,0.0,1.4572953666741115,1.436161648800594,0.64536824917242,0.40302162083660575,0.6595272574396605,,,0.5329562494928909,inf,,,0.9686924932062083
64,,0.0,0.0,1.5556214682255536,1.5127246947337372,0.7964585433940058,0.46499364133338494,0.6101423526788443,,,0.552929491858785,inf,,,0.9453733743581161
65,,0.0,0.0,1.5172161154472703,1.4949617068927354,0.8654084729601773,0.5092936075735424,0.8628703516398818,,,0.42445136339222655,inf,,,0.8724249527133324
66,,0.0,0.0,1.6723845852855195,1.6621614603346395,0.7307701020460909,0.26174134105354496,0.34543094810390096,,,0.49759852643134905,inf,,,0.9612005585556089
67,,0.0,0.0,1.7572248614834551,1.7271956026687691,0.9639826235693885,0.08667797363624992,0.19130209382090102,,,0.48319206230712763,inf,,,0.868773593958588
68,,0.0,0.0,1.6966793046838604,1.6916922246674628,0.9303651260716883,0.148853696268295,0.301679513324622,,,0.43586655696697996,inf,,,0.8797379513550019
69,,0.0,0.0,1.6823334208552723,1.6528733495037828,0.9407407855866766,0.25473276332176825,0.5169485344128355,,,0.44144624493110796,inf,,,0.8913677983235788
70,,0.0,0.0,0.9997891525441729,1.0031812600524515,0.7630146202898286,0.27627015664950055,0.5845618985126817,,,0.4302020962658841,inf,,,0.8625916921692907
71,,0.0,0.0,1.657673167210045,1.651232588172323,0.8430514831562502,0.3181418351524158,0.6404886771060785,,,0.41268473150466,inf,,,0.9059624720897453
72,,0.0,0.0,1.6898808142921118,1.6592470884691644,0.5694443407766852,0.42810888581474926,0.5068478915965426,,,0.5202020156036558,inf,,,0.9550649265488771
73,,0.0,0.0,1.699488556081234,1.6714099540562253,0.7115703269945026,0.37257663380099615,0.49630276320725186,,,0.5022576003740722,inf,,,0.9498579062238375
74,,0.0,0.0,1.7008811076931232,1.6691643622657129,0.940752886772246,0.674710683624279,1.194258580601737,,,0.5604843169999094,inf,,,0.8906958465031163
75,,0.0,0.0,1.654772566423064,1.6308729532151862,0.7252914165327929,0.4652354705115626,0.6257948219143008,,,0.552929491858785,inf,,,0.9526358883820824
76,,0.0,0.0,1.5242110534389877,1.5116194313114613,0.6583102948488393,0.3162722278080285,0.4007992060690189,,,0.524519217297268,inf,,,0.9627657282595187
77,,0.0,0.0,1.67446759558413,1.6383987891627172,0.957068229039962,0.35532293941296555,0.6148298027816872,,,0.44144624493110796,inf,,,0.854054087763665
78,,0.0,0.0,1.7238409627985576,1.7028373260780907,0.9205186162518252,0.4732628809772595,0.9351270766718978,,,0.468121228110369,inf,,,0.8376214363208274
79,,0.0,0.0,1.4220466929330688,1.4094384842944423,0.47213433553721734,0.25158379832424194,0.30576910313107025,,,0.5451288209179292,inf,,,0.9724010643616668
80,,0.0,0.0,1.3629230175482179,1.3236757899095655,0.6097366421675043,0.137638214563368,0.1811578124802737,,,0.5748741956352443,inf,,,0.9641043554343106
81,,0.0,0.0,1.5136969936085278,1.474565361514,0.8833462267075348,0.14720701658767157,0.3105647367376455,,,0.4066654671944331,inf,,,0.8657001486378954
82,,0.0,0.0,1.486513492829367,1.4786368206374416,0.8817673490870479,0.18783571154709083,0.4158885517162425,,,0.3265551233283096,inf,,,0.8599120574648321
83,,0.0,0.0,1.7376702427340112,1.6865501535291916,0.7976974813010783,1.662337969326324,1.107074458249305,,,0.6468212168108125,inf,,,0.9576916070328693
84,,0.0,0.0,1.6901376340011758,1.677502942601547,0.7721900255028922,1.6208222340813896,1.2330636471188632,,,0.6207552362147116,inf,,,0.9541310705230377
85,,0.0,0.0,1.7758517477865876,1.7382895458937322,0.782276038166901,1.075990262585975,0.8107085463133274,,,0.6425374456860184,inf,,,0.9549576927094291
86,,0.0,0.0,1.6968559792611622,1.6834073699249095,0.8186945998310171,1.2041637631268853,1.0609271016860093,,,0.6309483474627791,inf,,,0.9498279556915674
87,,0.0,0.0,1.6831374288697731,1.6700741878917695,0.7696830912263349,1.3693470524858868,1.1126982681776365,,,0.6380535849069913,inf,,,0.9390516234587074
88,,0.0,0.0,1.642783058789839,1.6256649446137887,0.8650334996326363,1.1997307027941264,1.0680658724258039,,,0.6425374456860184,inf,,,0.9450988978168954
89,,0.0,0.0,1.6689253723502178,1.646785981206297,0.7587912266634099,1.1320818681286773,0.921362491580108,,,0.6509067234006624,inf,,,0.9478948531750816
90,,0.0,0.0,1.3289929619419165,1.287090536400674,0.7940638611578534,1.562668628081656,1.189762436910907,,,0.6357360191111145,inf,,,0.9645113832491893
91,,0.0,0.0,1.2505785703065317,1.2460218656104878,0.7442972769983754,1.949589657006036,1.464588337679685,,,0.6425374456860184,inf,,,0.937194318775718
92,,0.0,0.0,1.6781305520252716,1.6670175299841468,0.6935192464620257,2.0890903564778265,1.950584909592032,,,0.6403206450210053,inf,,,0.7484069707927196
93,,0.0,0.0,1.6153554600548656,1.5743406197198955,0.8116199910764856,1.7417042443465625,1.8223736986242443,,,0.6380535849069913,inf,,,0.6011868024996766
94,,0.0,0.0,1.3784920110970718,1.3732165979556,0.7403390373290186,1.5823437903320738,2.000152114480918,,,0.6357360191111145,inf,,,0.7731764271337919
95,,0.0,0.0,1.5985952128042646,1.5893108704786736,0.7043317346161929,2.541693518484422,1.9277941508358158,,,0.6403206450210053,inf,,,0.8595528813545429
96,,0.0,0.0,1.70872833950067,1.682397680939024,0.7646183661468343,1.9524252768994235,2.180732910892732,,,0.6309483474627791,inf,,,0.9464273291748917
97,,0.0,0.0,1.743735741505712,1.72765119814742,0.8408545961280451,1.326539198029985,1.0534636348011301,,,0.5883313578629602,inf,,,0.949773108807798
98,,0.0,0.0,1.2592929401764859,1.244153348867623,0.6423482434368266,0.9772030869372123,0.6774451374246097,,,0.6584896970785714,inf,,,0.953621706963978
99,,0.0,0.0,1.5837689627761589,1.5911464171162668,0.6986887285017849,1.1573597502641897,0.7860008363364117,,,0.6468212168108125,inf,,,0.9432883909600547
100,,0.0,0.0,1.5588453172475758,1.5188015321017767,0.7338454254388324,1.5115886144663808,1.3122980076873172,,,0.62595550513784,inf,,,0.9401566132006132
101,,0.0,0.0,1.4527922456137032,1.3994575238415539,0.7975498225895622,1.4230977850172928,1.0903050677904549,,,0.6403206450210053,inf,,,0.9635246079857716
102,,0.0,0.0,1.1655136157907697,1.168474427108869,0.6718111158908483,1.038453652931538,0.7995340506102684,,,0.6447042257417027,inf,,,0.9690697496164836
103,,0.0,0.0,1.70155866169584,1.6654926017951694,0.7944403976202916,0.9493825524373255,0.5867772354503838,,,0.62595550513784,inf,,,0.9555279916379785
104,,0.0,0.0,1.4965250668457697,1.4685754633120645,0.7900341634305802,1.6558219358804585,1.1324353686882906,,,0.6566669596287297,inf,,,0.9080670182097252
105,,0.0,0.0,1.6531236558115705,1.6481090929546423,0.8713336457915495,1.9875604492655559,1.5292847183899616,,,0.6425374456860184,inf,,,0.9127784039638327
106,,0.0,0.0,1.6389237837697206,1.6302520883270457,0.844736678415713,1.8603194482794503,1.4188495887187835,,,0.648888643467878,inf,,,0.9138617731692874
107,,0.0,0.0,1.491234316721744,1.4328685630657982,0.6188827346557113,0.742285844854381,0.5739552069512497,,,0.6233814453054027,inf,,,0.9379260842307867
108,,0.0,0.0,1.6428012243053205,1.6201676236674327,0.8357481871008654,0.45653774167283595,0.41350429639895053,,,0.6097226960127671,inf,,,0.9539352495531851
109,,0.0,0.0,1.3469154783130244,1.230467505884691,0.7558340526386542,0.9874461902864626,0.6649889252668532,,,0.6468212168108125,inf,,,0.8653297338811512
110,,0.0,0.0,1.7462992998238085,1.6611982556325449,0.8683297944313662,1.5580792009953992,1.3314197899793356,,,0.6447042257417027,inf,,,0.9081840455768043
111,,0.0,0.0,1.694098003714244,1.5977936572927258,0.7964425667546638,1.4499650842191336,0.7737813350252696,,,0.6447042257417027,inf,,,0.9389191925339515
112,,0.0,0.0,1.5040348882745485,1.4746643292422197,0.8265633844552713,1.7989750597865974,1.5078324319582228,,,0.62595550513784,inf,,,0.9351618174594948
113,,0.0,0.0,1.6437920117669838,1.6128815545163473,0.6859196880436109,0.8867970928570973,0.6642783330389455,,,0.6468212168108125,inf,,,0.6581500209679645
114,,0.0,0.0,1.6327263792912503,1.6463501775614835,0.8310767099785016,0.9672071492732982,1.0460519722011985,,,0.6008849035917525,inf,,,0.9346768211790856
115,,0.0,0.0,1.447135618366482,1.435890811202906,0.7411436151107873,1.3362336936004537,0.9884164970740847,,,0.6233814453054027,inf,,,0.9472421338602292
116,,0.0,0.0,1.360765466544536,1.3389757044399755,0.6375870110166949,0.884285762784495,0.43106019250518834,,,0.5490601803369085,inf,,,0.955168104260884
117,5.703782474656202,-0.5133404227190581,0.0,1.4027154005793514,1.402886456205314,0.6449299535465722,1.9531567412663264,0.9449615713951267,,,0.6038851895711802,8.111728083308073,inf,,0.7552748043421779
118,5.703782474656202,-0.8175421547007222,0.0,1.6624475726713301,1.610090599664958,0.7494122367028986,1.4090979047698757,0.6735153780018273,,,0.6125606311107803,7.64636483361884,inf,,0.8232544273450692
119,5.703782474656201,-3.2131307940563265,0.0,1.1587281263661393,1.0990608827117943,0.780613598675804,2.5037234290295096,1.7226754548050933,,,0.5604843169999094,6.277666234389328,inf,,0.6450305225704326
120,,0.0,0.0,1.5190408535343867,1.497070326863932,0.49128230814714874,1.15257368603889,0.6960770427264913,,,0.6153451465759925,inf,,,0.9172357450556576
121,,0.0,0.0,1.542789248944131,1.5338102460799599,0.6229209637792406,1.278705161373073,0.7171437697815763,,,0.6180765742263259,inf,,,0.6857517670265711
122,,0.0,0.0,1.7239017308274183,1.7043577906961096,0.88696786383925,0.7269194764285587,0.6862090616183598,,,0.6447042257417027,inf,,,0.9478200043807902
123,,0.0,0.0,1.6878456316588326,1.651478274256888,0.7305566571677873,0.46240567806420063,0.4856777129900495,,,0.5915533975974677,inf,,,0.9548024940594786
124,,0.0,0.0,1.4590553295037558,1.4435627495939736,0.6625332778087198,0.8117428281271536,0.9216891639491618,,,0.5883313578629602,inf,,,0.9373387535442538
125,,0.0,0.0,1.5839813781238052,1.5338043070719314,0.6664719555604063,0.9946542749542485,0.9213971364125253,,,0.6207552362147116,inf,,,0.9479525215017762
126,,0.0,0.0,1.7033913840762949,1.6748469696187862,0.7231389007940816,1.1292547117996177,1.0014828668273914,,,0.5947193981915972,inf,,,0.9499427656618935
127,,0.0,0.0,1.5222160789390122,1.5305462742958797,0.4686143076834196,1.1196614236979814,1.2361395013422298,,,0.5677978065141052,inf,,,0.9625799138535936
128,5.703782474656201,-1.6731095258991522,0.0,1.5627006396782228,1.4817039413313602,0.6374345182109663,1.246289618353265,0.7867239992085897,,,0.585052858160615,6.930228134834196,inf,,0.8119940768616495
129,,0.0,0.0,1.5904648425433363,1.576626677054235,0.5585826626798477,0.33058157701111657,0.3126917238953357,,,0.6233814453054027,inf,,,0.9511346399224624
130,,0.0,0.0,1.710699029915574,1.7101758060922587,0.5826489769692161,0.143737223340209,0.1820967242839571,,,0.552929491858785,inf,,,0.9435989180049627
131,,0.0,0.0,1.6982947005082156,1.6978408700892156,0.9343456035201976,0.06341664688774976,0.10931453190865566,,,0.5567373465730988,inf,,,0.875004690483481
132,,0.0,0.0,1.6171923285091834,1.6088345345150052,0.8986300903146629,0.06089655988992115,0.11683606973928468,,,0.5158180382284114,inf,,,0.8969119866925224
133,,0.0,0.0,1.6650919492792484,1.670169242596475,0.8923105921203033,0.06989414738434312,0.12767379383408245,,,0.5329562494928909,inf,,,0.8644451592486012
134,,0.0,0.0,1.1977830160187373,1.1438128676339816,0.7012959357028677,1.0395978365008203,1.0533370589793507,,,0.5287703885177266,inf,,,0.8949255596477319
135,,0.0,0.0,1.5998370877152865,1.5907172340260027,0.40696451736706063,0.8255174717386171,0.9730202843105282,,,0.47824363442641393,inf,,,0.9088349610128766
136,,0.0,0.0,1.5650958934369572,1.5265043174628787,0.5115405474058266,0.6002744904701056,0.5409555346706846,,,0.5567373465730988,inf,,,0.94354577515486
137,,0.0,0.0,1.5483406929508803,1.531265004904351,0.8420773004528324,0.08097930149284267,0.13556024682184772,,,0.6068309995095971,inf,,,0.7902872137412291
138,,0.0,0.0,1.6550207573054452,1.6160285016999247,0.9127032941841585,0.10508152063027192,0.17589379546106348,,,0.5604843169999094,inf,,,0.887107751924865
139,,0.0,0.0,1.7638732063228946,1.7231963237905417,0.9093159097545567,0.12724853316371676,0.1955180319613009,,,0.5567373465730988,inf,,,0.8811718312987332
140,,0.0,0.0,1.6134213597600313,1.6104029307788996,0.4777030249245707,0.5811236414604234,0.6578010011448271,,,0.5022576003740722,inf,,,0.9459949588387456
141,,0.0,0.0,1.0769038484138622,1.008178188155207,0.5910732207362833,1.1598531361590758,1.174945219409631,,,0.5947193981915972,inf,,,0.9579169426767042
142,,0.0,0.0,1.4330661748376212,1.3579793767416324,0.7352981817843947,0.6642355407749992,0.5447872268282404,,,0.6233814453054027,inf,,,0.9618191945754511
143,,0.0,0.0,1.6690227493813679,1.548270217769078,0.9478063816983441,0.6839825451586659,0.8410846699613759,,,0.5713653840954815,inf,,,0.9328079935873432
144,,0.0,0.0,1.6529255923432091,1.6198645816672932,0.8569294267591215,0.1930087576209531,0.23757706367749232,,,0.5915533975974677,inf,,,0.9251941663856993
145,,0.0,0.0,1.6282578486681172,1.6162179727433936,0.921045916066023,0.16626545045868577,0.21537110841687537,,,0.6566669596287297,inf,,,0.8992569247911538
146,,0.0,0.0,1.653680403766479,1.644772307779141,0.9137397380731048,0.12961094075925403,0.18484107866895477,,,0.5947193981915972,inf,,,0.8823641988505047
147,,0.0,0.0,1.7168061569810211,1.6855403587654254,0.9500042116556874,0.12038662968821032,0.1964960444456944,,,0.5883313578629602,inf,,,0.9372008855029036
148,,0.0,0.0,1.7524205931330479,1.729498444795261,0.9375248712201931,0.1109196718928394,0.20615831669520296,,,0.5370774965580548,inf,,,0.9023745598166404
149,,0.0,0.0,1.6948407847147973,1.7085300564762858,0.9419839267066107,0.12105833173761103,0.21564278708651158,,,0.49759852643134905,inf,,,0.9044299574103608
150,,0.0,0.0,1.3980807366770474,1.2615199242758128,0.8498547369878166,0.321283760594133,0.3614448005720479,,,0.581717464821069,inf,,,0.9221929600790104
151,,0.0,0.0,1.705778704467909,1.6737208877857692,0.9051056518527177,0.4293967824785584,0.5804206873726098,,,0.5915533975974677,inf,,,0.9000087844577741
152,,0.0,0.0,1.4817349534653665,1.4491614399746073,0.830425589794831,0.21644185037085206,0.26010012494450335,,,0.5783247308855777,inf,,,0.9494271714441209
153,,0.0,0.0,1.6354949451223535,1.589410063027405,0.9223237458830134,0.12574304088119723,0.23613926786226766,,,0.5451288209179292,inf,,,0.8694469243094495
154,,0.0,0.0,1.6257360896955568,1.612810453118072,0.6982934430929745,0.18384685288367367,0.28302420270827394,,,0.5158180382284114,inf,,,0.9317065593158947
155,,0.0,0.0,1.7527648237591573,1.7080225003388905,0.9507173572784223,0.2533008975662789,0.42294553066426166,,,0.5113665138247345,inf,,,0.9102851812375017
156,,0.0,0.0,1.628787732286992,1.5943417311149384,0.9237236196265475,0.3780153502096421,0.6935687089581466,,,0.5202020156036558,inf,,,0.8918007721066981
157,,0.0,0.0,1.7207014331448338,1.6851111508872583,0.8922073910348406,0.36038921973069404,0.6920885041565115,,,0.5202020156036558,inf,,,0.8784630930689333
158,,0.0,0.0,1.3958662006952272,1.3913158915397879,0.8425588739984463,0.29983936171639386,0.4349291189683225,,,0.581717464821069,inf,,,0.9263204832937344
159,,0.0,0.0,1.53269448106097,1.4965287136980194,0.761265320328651,0.1736258481512619,0.2587373395616622,,,0.552929491858785,inf,,,0.9218556377235012
160,,0.0,0.0,1.383379626952851,1.3465224696660811,0.82425399923419,0.380719407630065,0.7076316534717015,,,0.5158180382284114,inf,,,0.8572208079421177
161,,0.0,0.0,1.569923049565748,1.5272762378516898,0.8356834649414423,0.35924180938037437,0.5401277822829194,,,0.552929491858785,inf,,,0.9502491622908054
162,,0.0,0.0,1.2297054424145741,1.2195109331922884,0.5316054177666513,0.16693162217739327,0.24319975302980806,,,0.5370774965580548,inf,,,0.9695926237749555
163,,0.0,0.0,1.6434298046062175,1.6255841114136629,0.8969474441224987,0.09974712940171228,0.19773462896220684,,,0.47824363442641393,inf,,,0.8991514512225246
164,,0.0,0.0,1.464959240130489,1.446086519350775,0.7081276307906953,0.2696956406333757,0.30755981978613695,,,0.5567373465730988,inf,,,0.9451947834690563
165,,0.0,0.0,1.6146736559695536,1.5422426385673556,0.9143230295525083,0.27693139551947754,0.44992582651945084,,,0.524519217297268,inf,,,0.8800451218543167
166,,0.0,0.0,1.6409807096820952,1.5877044456825098,0.8928390830825607,0.5689186224779195,1.0117937355112459,,,0.5158180382284114,inf,,,0.8682389892305808
167,,0.0,0.0,1.7331427782032627,1.6889254731840366,0.8356889808348847,0.7790542070366486,0.6028603676216701,,,0.6233814453054027,inf,,,0.9500723071929851
168,,0.0,0.0,1.7251915611123791,1.7067845741503291,0.6142507178874981,0.07749212801927347,0.09621615091008917,,,0.49759852643134905,inf,,,0.9250243296763574
169,,0.0,0.0,1.7367952330479823,1.6790624347768384,0.9000114212861662,0.04641429354242086,0.07792081908976287,,,0.541134803179459,inf,,,0.7964052545164284
170,,0.0,0.0,1.5744218851098544,1.5390476706947793,0.8553595062054514,0.04399633950264232,0.06826926122021396,,,0.5113665138247345,inf,,,0.7687074918184257
171,,0.0,0.0,1.6080650876761058,1.589817545414542,0.8632478264458648,0.05849344642189831,0.09478659041976614,,,0.541134803179459,inf,,,0.7933099314049727
172,,0.0,0.0,1.6849702776485254,1.673948065900593,0.8296539688977987,0.06401627808439116,0.09728302945117227,,,0.5113665138247345,inf,,,0.8217692134986252
173,,0.0,0.0,1.5790791509670814,1.334241419821502,0.9343564748292634,0.3441801089804407,0.4650912425954868,,,0.44694259446804574,inf,,,0.8683506900115416
174,,0.0,0.0,1.5346336910649159,1.5070146054168643,0.8845287790766709,0.17857438282499738,0.31258710008385693,,,0.4066654671944331,inf,,,0.8297441219336115
175,,0.0,0.0,1.6517219887562244,1.6397629346261005,0.9243431698988822,0.16130173504183845,0.30484905255031824,,,0.43586655696697996,inf,,,0.8499337022428607
176,,0.0,0.0,1.1682142226930916,1.1537492913668699,0.734935292265556,0.11676904511151365,0.22555645702715316,,,0.4629450596409901,inf,,,0.8341833428416385
177,,0.0,0.0,1.4135274580451695,1.412656643267915,0.718412776474105,0.27362599148319555,0.30570118898633253,,,0.5490601803369085,inf,,,0.8370485461064766
178,,0.0,0.0,1.5535184944519904,1.562075603644806,0.6487437755965056,0.12731419838569485,0.16201754253836942,,,0.5022576003740722,inf,,,0.771299477191288
179,,0.0,0.0,1.7214146436439226,1.7355876260821397,0.7752583945383156,0.256579713546639,0.3613448097479235,,,0.4629450596409901,inf,,,0.9421728825317863
180,,0.0,0.0,1.4304113433141965,1.394935431666368,0.8102351838398284,0.21763226070402006,0.30496408153396626,,,0.5287703885177266,inf,,,0.8723114882425167
181,,0.0,0.0,1.6386403550431619,1.6288280053977608,0.9392282201741986,0.34871128524616074,0.6665142875802226,,,0.4732203808476458,inf,,,0.9077305269894917
182,,0.0,0.0,1.466283474549598,1.4389028389751897,0.8517786209063433,0.1859260344707175,0.38625279513895083,,,0.38804190201132227,inf,,,0.851487693190189
183,,0.0,0.0,1.5434033803971874,1.5301785770304586,0.8462558957675287,0.22939906005902957,0.4261926397830792,,,0.4629450596409901,inf,,,0.6764356974585118
184,,0.0,0.0,1.7491121986114384,1.6892124616243014,0.7753385905425121,0.36331329405801227,0.41261602641358175,,,0.5748741956352443,inf,,,0.8425507374986921
185,,0.0,0.0,1.5654699661015965,1.5079721437273375,0.8418816067843068,0.3582558154801052,0.548561733844665,,,0.5158180382284114,inf,,,0.9173069206976943
186,,0.0,0.0,1.6403036827667776,1.6192145362951953,0.8854159572887064,0.4521801015497223,0.6654436375306991,,,0.5068466436745385,inf,,,0.9168634860600581
187,,0.0,0.0,1.397829393478316,1.3022179653820178,0.7205512538986495,0.6133980172847309,0.3308515807401188,,,0.62595550513784,inf,,,0.9397976303336656
188,,0.0,0.0,1.4219145684444903,1.3209461051448568,0.7969037235662353,0.34633600664184727,0.5000574158484412,,,0.47824363442641393,inf,,,0.850906684516869
189,,0.0,0.0,1.4968858172507138,1.4193981211710112,0.6745578568748241,0.22372288170039475,0.2798144682287199,,,0.5202020156036558,inf,,,0.9483534432714428
190,,0.0,0.0,1.4529968669675413,1.443167258429495,0.7614504299424636,0.13052853589850752,0.1612520102049321,,,0.5370774965580548,inf,,,0.9048614556621434
191,,0.0,0.0,1.551798209997706,1.5346395181634067,0.8518901292430292,0.09000399257669547,0.1394705465705141,,,0.524519217297268,inf,,,0.8668022211850012
192,,0.0,0.0,1.5715724362069516,1.5317205764877129,0.9066474290293657,0.11809493799414968,0.1738063203695055,,,0.5677978065141052,inf,,,0.8744628238180211
193,,0.0,0.0,1.279967885643924,1.2207273015787314,0.6293897838753353,0.18608449681241968,0.2004004067941472,,,0.581717464821069,inf,,,0.9646974191143661
194,,0.0,0.0,1.213052220413811,1.0522293401109346,0.6080045648627512,0.2089402859846831,0.17721570807453302,,,0.5202020156036558,inf,,,0.953018448015085
195,,0.0,0.0,1.6539466029945928,1.5777578345947818,0.8065975274891095,0.364014452885773,0.27223911912996696,,,0.6153451465759925,inf,,,0.9488324453220783
196,,0.0,0.0,1.6066731865277433,1.601115148489327,0.8484487433932859,0.14489003852663487,0.22761916712474417,,,0.5329562494928909,inf,,,0.9475573730319169
197,,0.0,0.0,1.5235690499138257,1.513167274336308,0.6853566115472582,0.2086942466058839,0.22382274264591118,,,0.5567373465730988,inf,,,0.958999686025734
198,,0.0,0.0,1.7724990263563138,1.7208011654847257,0.9415316200275226,0.1118865883667491,0.14403008540611706,,,0.5713653840954815,inf,,,0.9305499697194849
199,,0.0,0.0,1.1317682790109513,1.1249062596741153,0.7633726222727184,0.061613264169333215,0.11184832998079264,,,0.5329562494928909,inf,,,0.9156483297748331
200,,0.0,0.0,1.7290324917596673,1.646303626343239,0.9606831739868325,0.13633831931013146,0.2080281818384631,,,0.5883313578629602,inf,,,0.8956703001918045
201,,0.0,0.0,1.5104911546769604,1.4621636291064237,0.8294493608965605,0.21977467601522796,0.25795750175231774,,,0.5713653840954815,inf,,,0.8469817637993632
202,,0.0,0.0,1.6609172948794872,1.6439729331668034,0.8155149857832837,0.4553741105182999,0.5355253568925611,,,0.5748741956352443,inf,,,0.8869820068692998
203,,0.0,0.0,1.7617509318221394,1.7351507746262365,0.82565101190789,0.45933293513365747,0.5378002127486406,,,0.6097226960127671,inf,,,0.8823157811086036
204,,0.0,0.0,1.564762003477568,1.5178196572279379,0.8419942547735043,0.4543440320489981,0.5341709629686733,,,0.5783247308855777,inf,,,0.8492990150969272
205,,0.0,0.0,1.71579009049422,1.6891167028826004,0.863674563185472,0.4586037176746839,0.6281979172156422,,,0.5370774965580548,inf,,,0.8561405034162024
206,,0.0,0.0,1.16862145108749,1.0678584618342057,0.6300213352433752,0.49651128378178383,0.6151246070650767,,,0.5202020156036558,inf,,,0.9378218046031876
207,,0.0,0.0,1.5115726233738205,1.4860437602676702,0.5238170373048594,0.1984094352187121,0.28768587913343435,,,0.5202020156036558,inf,,,0.9569291573568238
208,,0.0,0.0,1.4778108896179618,1.4434902233134945,0.8296952004852247,0.033228963415811066,0.05586898827783489,,,0.5490601803369085,inf,,,0.8338242929117595
209,,0.0,0.0,1.318725878291945,1.25254159741805,0.708548832531788,0.1765596110514636,0.1773498996826725,,,0.5158180382284114,inf,,,0.9473222085943765
210,,0.0,0.0,0.5445664850410432,0.5059753893945185,0.5537430669071436,0.09987791369947156,0.1693061877160556,,,0.5490601803369085,inf,,,0.8240765037814177
211,,0.0,0.0,1.7270350843046407,1.711855891680987,0.8529436918387657,0.09410473798303838,0.11927150772007684,,,0.5567373465730988,inf,,,0.8681804383094293
212,,0.0,0.0,1.755776421255615,1.7581846301543398,0.851441975575196,0.0793978581272974,0.12084107188506689,,,0.5783247308855777,inf,,,0.9018726815241108
213,,0.0,0.0,1.559317272269696,1.4801183026419311,0.8142650502345941,0.6766306636576092,0.5492343662501908,,,0.581717464821069,inf,,,0.9228304489081832
214,,0.0,0.0,1.7158370281975541,1.728861889594643,0.8620570156628453,0.796370789078132,0.744046258780621,,,0.6068309995095971,inf,,,0.9143374362929074
215,,0.0,0.0,1.3130378833383012,1.2522193856252337,0.7371640673163806,1.5524327363301056,0.9526618360542476,,,0.6207552362147116,inf,,,0.949707523412985
216,,0.0,0.0,1.5292473988417215,1.4908923872534625,0.8261705014445039,1.64715120647122,1.034603131187546,,,0.6468212168108125,inf,,,0.9647223364490001
217,,0.0,0.0,1.679316448505264,1.6610880704859226,0.7203938135588266,1.964802865162886,1.3167385600739643,,,0.6233814453054027,inf,,,0.9384408895059022
218,,0.0,0.0,1.393718877952452,1.3798339883136108,0.7129528052182876,1.5581807482972165,0.9981358574188748,,,0.6380535849069913,inf,,,0.9412821713347846
219,,0.0,0.0,1.3865708448391831,1.2347364483055203,0.6074249373499482,1.8164464337663697,1.6021974344252663,,,0.6357360191111145,inf,,,0.8501494529154215
220,,0.0,0.0,1.4198742698183393,1.3835375406549166,0.8455207287253811,1.4731794051383373,1.7650844210038255,,,0.5641709578113449,inf,,,0.9158102472897948
221,,0.0,0.0,1.6830757630177038,1.6640249409877712,0.8859566069282386,1.201068204998088,1.449234264068355,,,0.5947193981915972,inf,,,0.9042407843707828
222,,0.0,0.0,1.057419690619958,1.0403951954239659,0.6568054910553949,1.0474994778272055,1.278426417081241,,,0.6207552362147116,inf,,,0.9015903148399605
223,,0.0,0.0,0.9671494234789189,0.9449738962010494,0.6559624621491013,1.1166787853745894,1.3035559447812606,,,0.5748741956352443,inf,,,0.9001180310359874
224,,0.0,0.0,0.7048096647198538,0.6929555043610897,0.5932123849028776,0.9227909363855473,1.0668465178547166,,,0.5713653840954815,inf,,,0.9489067059805163
225,,0.0,0.0,1.6404074881808584,1.6234534388694524,0.8753676307995201,1.1397744226943147,1.0727555862122853,,,0.6068309995095971,inf,,,0.9472670737354297
226,,0.0,0.0,0.8373144757960569,0.8142705582758765,0.5389746167733854,1.0033010798685784,0.9404047940590976,,,0.581717464821069,inf,,,0.9274499709911814
227,,0.0,0.0,1.5982029722997795,1.5953420604929733,0.8781905797094309,0.7296633409990562,0.8336058613287417,,,0.6097226960127671,inf,,,0.92721420961998
228,,0.0,0.0,1.3422893062377594,1.2819090615947333,0.7454108700617474,1.1481272655039263,1.024511094609702,,,0.6153451465759925,inf,,,0.95697403413883
229,,0.0,0.0,1.6691165534936054,1.6595636234964828,0.8401739388556769,1.754063194256481,1.3027185834778583,,,0.6403206450210053,inf,,,0.9650894961051623
230,,0.0,0.0,1.6405059638391204,1.603519701355376,0.8785654420871584,1.520732805229177,1.2797246865241687,,,0.6233814453054027,inf,,,0.9536587925044462
231,5.703782474656201,-0.20913869073739402,0.0,1.6840438299223095,1.6782023019420897,0.5382607760243344,2.0755956230527315,1.9044353437574255,,,0.6357360191111145,9.009669676514031,inf,,0.8747172426997314
232,,0.0,0.0,1.4088400994802504,1.3986289265299958,0.8704531802596416,2.4285042944874045,2.2824521173027272,,,0.648888643467878,inf,,,0.9238685231820029
233,,0.0,0.0,1.627772697202438,1.5634305319344934,0.8232928459775075,2.023459052963409,1.0371700165462583,,,0.6333676938231112,inf,,,0.9436016330814128
234,,0.0,0.0,1.7301435237354867,1.7126923496670061,0.8956080961262997,2.339682655302935,2.347035630167054,,,0.648888643467878,inf,,,0.9424386374690671
235,,0.0,0.0,1.6555339247391063,1.6520665411890907,0.761964979884342,1.7942039101267486,1.626805293133237,,,0.6380535849069913,inf,,,0.9399718451252511
236,,0.0,0.0,1.532621564218376,1.504037504892832,0.8696825693751536,1.7799782345118882,1.3914857857065246,,,0.6180765742263259,inf,,,0.9416900093751936
237,,0.0,0.0,1.6352554440764497,1.6340054508357282,0.8143304982577703,2.1062115103546577,2.0420718472153974,,,0.6547956803312163,inf,,,0.949365482617325
238,,0.0,0.0,1.4558043359538169,1.4544885481748613,0.523052338791067,1.630344210559069,1.4368395252041437,,,0.6447042257417027,inf,,,0.7309354230779019
239,,0.0,0.0,1.641896190981205,1.5942419937493402,0.8282569711865483,1.9668154009658532,1.6493573133879056,,,0.648888643467878,inf,,,0.9021154147135892
240,,0.0,0.0,1.598764341146789,1.5515073906282832,0.6752938114074802,1.2565866565277355,1.2207032729204574,,,0.6125606311107803,inf,,,0.7927666453399042
241,,0.0,0.0,1.5026371623613701,1.4663341997817714,0.8598465075282246,0.8120633402865001,0.9934078649902331,,,0.6153451465759925,inf,,,0.9257564193746524
242,,0.0,0.0,1.641247739398469,1.6529599611452452,0.6983494397050057,1.2481414174526801,1.002331974645808,,,0.6333676938231112,inf,,,0.6881227018302588
243,,0.0,0.0,1.7583331332146659,1.7158446930040607,0.723537986559276,1.09339294273894,0.584904496032814,,,0.6447042257417027,inf,,,0.6544420706240749
244,,0.0,0.0,1.636705339381522,1.6152204998719784,0.8160999298189476,0.9550477591402978,0.850685607459407,,,0.6528756675646988,inf,,,0.9129101124991671
245,5.703782474656198,-1.0266808454381158,0.0,1.6920593689444228,1.6661292021954857,0.7598102403994327,2.0768911619120245,0.8931464551299384,,,0.6425374456860184,7.418580902748128,inf,,0.7757190575700029
246,,0.0,0.0,1.651562498723965,1.6468641182722665,0.774361513069742,2.5703034831846177,2.460068525091937,,,0.6547956803312163,inf,,,0.9510829471540814
247,,0.0,0.0,1.2271332204615488,1.174861175796742,0.7229069220844866,1.4506761428282382,0.9425031171935738,,,0.62595550513784,inf,,,0.9356730887031591
248,,0.0,0.0,1.6351124301060687,1.6247844733814254,0.8273102890215484,0.7732370064018874,0.7197448861957229,,,0.6468212168108125,inf,,,0.9530751398616365
249,,0.0,0.0,1.7025947783702708,1.7288069142492974,0.7407922373042638,1.5025389481066067,1.2357290023651921,,,0.6233814453054027,inf,,,0.9535541149062396
250,,0.0,0.0,1.4383621834032894,1.3962107437379798,0.8233532342712359,1.8963992245986352,1.410881527346022,,,0.6309483474627791,inf,,,0.9371397917161706
251,,0.0,0.0,1.552915850161974,1.5654325946088326,0.7919863871506662,0.43055009759047275,0.48838041522556824,,,0.6357360191111145,inf,,,0.929612481119458
252,,0.0,0.0,1.5596192574331011,1.5566435602457536,0.6843188988562707,1.3487496286007328,0.9839461045140534,,,0.6528756675646988,inf,,,0.9585521710440829
253,,0.0,0.0,1.647374463967712,1.649292332017607,0.5979886399323384,2.448127607130879,2.058051977836237,,,0.6380535849069913,inf,,,0.6985522808200556
254,,0.0,0.0,1.7205913573366514,1.7239918708443855,0.9130971002465722,2.1785727319041803,2.1348719165753076,,,0.6619902821573977,inf,,,0.9403567131788401
255,,0.0,0.0,1.5619195475884893,1.5524105564902864,0.7683463469565458,1.9241812058411303,2.065349924890751,,,0.648888643467878,inf,,,0.9235788295252001
256,,0.0,0.0,1.4498299720167016,1.3948298844207996,0.7202666512206335,1.7981461542408848,1.2534860807111623,,,0.6333676938231112,inf,,,0.9518903435260837
257,,0.0,0.0,1.5703926437952742,1.5175347657581755,0.8703616309016828,1.8094676230957458,1.6325376446767952,,,0.6403206450210053,inf,,,0.9299803361655334
258,,0.0,0.0,1.360548532675348,1.3735591402096181,0.7411311054859802,1.2026699964716654,1.1502395090598123,,,0.6333676938231112,inf,,,0.9367503734176712
259,,0.0,0.0,1.7040164867445244,1.6950339534399226,0.6655920316585624,0.9762538290868088,0.7638456212857582,,,0.6125606311107803,inf,,,0.9486789960571211
260,,0.0,0.0,1.4543297272697124,1.4236543632127974,0.6861589781262472,1.4098442006672782,1.444708543643185,,,0.585052858160615,inf,,,0.9497953739515957
261,,0.0,0.0,1.4574527616681274,1.3888374069858247,0.753189215524047,1.5759849440040168,1.1053360189901005,,,0.6333676938231112,inf,,,0.9339187669529405
262,,0.0,0.0,1.4435077232433269,1.393910745113673,0.7720590314794427,1.0748260147584663,0.8205774467774858,,,0.6233814453054027,inf,,,0.9232364079468206
263,,0.0,0.0,1.7064728017713415,1.6919199302422325,0.7913641859676365,0.7793600219971943,0.60543379638909,,,0.6097226960127671,inf,,,0.9542360639456715
264,,0.0,0.0,1.0199680260777124,0.9730128972147328,0.6352636127251675,0.7535857682677218,0.5174760249300497,,,0.6380535849069913,inf,,,0.9552769699122942
265,,0.0,0.0,1.6971255768691238,1.6844362972507998,0.6077454117547234,0.6719419196180635,0.5826207422234339,,,0.6153451465759925,inf,,,0.8839484282358
266,,0.0,0.0,1.6019206689072687,1.5624245855952572,0.7909762097285147,1.6667223431047127,1.5860160458765642,,,0.6403206450210053,inf,,,0.9080658137792534
267,,0.0,0.0,1.63835116659516,1.5548284486045867,0.9067596104891383,0.9917339937413316,0.8257460659912197,,,0.6619902821573977,inf,,,0.9240484126155386
268,,0.0,0.0,1.6390261218953661,1.5964654528046078,0.8591960482687043,0.6141408086536345,0.5818272594922906,,,0.6207552362147116,inf,,,0.9436793799133917
269,,0.0,0.0,1.7384545709473262,1.7038232390136134,0.7179836701523288,0.7230793210909054,0.5971089567151221,,,0.6425374456860184,inf,,,0.9310173176444522
270,,0.0,0.0,1.4965286411049756,1.4885518723756463,0.7847095071181968,0.9925086676551133,0.8969079619699554,,,0.6233814453054027,inf,,,0.9380386467143725
271,,0.0,0.0,1.7075772659346182,1.6984616004164832,0.7546327056099812,0.539476883485205,0.42077783880699615,,,0.6207552362147116,inf,,,0.9516350878934255
272,,0.0,0.0,1.6200771010912063,1.545589750824995,0.5498865066017221,1.241516548891796,0.6112455097512315,,,0.6403206450210053,inf,,,0.9580364860323266
273,,0.0,0.0,1.5568991488512895,1.5073568630971141,0.7070780033363736,1.1386768918590056,0.7581365179325545,,,0.6425374456860184,inf,,,0.9493382359877869
274,,0.0,0.0,1.7251605477129144,1.705217259130189,0.6971526646871278,0.8986494785015201,0.6465165250836559,,,0.6038851895711802,inf,,,0.9443850334314841
275,,0.0,0.0,1.5304019041817587,1.5166851107278527,0.6437984221706606,0.7272695112778987,0.5285965751893763,,,0.5915533975974677,inf,,,0.9546194665476035
276,,0.0,0.0,1.711991272043782,1.7279871164535265,0.7798823523843228,1.1040483971514303,0.6755542025814649,,,0.6309483474627791,inf,,,0.9527339744768615
277,,0.0,0.0,1.1684483150556928,1.1060785810181957,0.7022251645221489,1.0057524653951562,0.7288528722441965,,,0.6380535849069913,inf,,,0.9575240372433272
278,,0.0,0.0,1.6735048925743166,1.6355474005893238,0.8289984951155573,1.111159884612771,0.6872179746374658,,,0.6566669596287297,inf,,,0.949870188648178
279,,0.0,0.0,1.7002680175712364,1.6456439731565249,0.7859641919415012,3.073583201557179,2.9386936950582143,,,0.648888643467878,inf,,,0.9529144084026181
280,,0.0,0.0,1.6077299756925136,1.5546657882822363,0.8008074275861753,2.2073004599253876,1.8642935729442938,,,0.6333676938231112,inf,,,0.9576889226753986
281,,0.0,0.0,1.5145852800876916,1.4827416433816272,0.7799699914754018,1.9591109766922297,1.394954393926941,,,0.6668815377411301,inf,,,0.7264906458814777
282,,0.0,0.0,1.387634484329393,1.366386771990121,0.8148171103201524,1.4839896362785838,1.2315008551008835,,,0.6380535849069913,inf,,,0.9514970172373617
283,,0.0,0.0,1.6046075219894607,1.5900346420536084,0.6988929049228212,1.1686251918945398,0.6285659876590537,,,0.6619902821573977,inf,,,0.9048258004728076
284,,0.0,0.0,1.565282513576176,1.5125691380973467,0.5698358150369329,1.4311766821894882,0.8023275685668094,,,0.62595550513784,inf,,,0.8461073686042507
285,,0.0,0.0,1.5962314852056918,1.601420155110815,0.6595209579561169,2.337135933055551,1.4596042938619198,,,0.6309483474627791,inf,,,0.874507740869618
286,,0.0,0.0,1.4293335760307997,1.4293408181071923,0.46383887690609105,1.033758079519517,0.7233330166611418,,,0.6153451465759925,inf,,,0.9640797089221691
287,,0.0,0.0,1.518319865514989,1.513556481204715,0.7585109287154893,1.0224473657778268,0.664877506517757,,,0.6333676938231112,inf,,,0.9302776520058816
288,,0.0,0.0,1.4232535703017355,1.3517723724415276,0.7421929894814764,1.3384604916265086,0.694290327391786,,,0.6125606311107803,inf,,,0.9548360144863897
289,,0.0,0.0,1.5177772234326665,1.4970485365970356,0.6642764927452512,1.4354956297971946,1.0593452799531966,,,0.6447042257417027,inf,,,0.6307098412168896
290,,0.0,0.0,1.747983854654214,1.7415330453271656,0.9014842244367729,1.6832902630077167,1.5135845021361871,,,0.6547956803312163,inf,,,0.9608307620002333
291,,0.0,0.0,1.732037381344114,1.7244000429865254,0.42882584457047707,0.9409015635521424,0.5822737805358782,,,0.6180765742263259,inf,,,0.6836310741617457
292,,0.0,0.0,1.7227478814820225,1.7165391468958329,0.5701984038826399,1.1017947798724195,0.9096635920542515,,,0.6447042257417027,inf,,,0.9586332969925953
293,,0.0,0.0,1.6436980662947445,1.5694422034577102,0.8112861998997453,1.275432855457619,0.9916021275919829,,,0.6509067234006624,inf,,,0.9109417441200218
294,,0.0,0.0,1.5553028299555351,1.506320846904038,0.7716408276930127,1.0288510599412517,0.6893895776353804,,,0.6403206450210053,inf,,,0.9198109989852999
295,,0.0,0.0,1.5374961309391402,1.4488842170936322,0.8289867697104325,1.3386085109835177,0.9506347616117428,,,0.6468212168108125,inf,,,0.9551423115078419
296,,0.0,0.0,1.4407544325197412,1.3497603709321297,0.7548002813391084,1.553658000298738,0.7729309458466815,,,0.6509067234006624,inf,,,0.9272684002195588
297,,0.0,0.0,1.5731072709727356,1.5253840378006887,0.6717839112679016,1.2449806755000365,0.6595110210395139,,,0.6468212168108125,inf,,,0.8392140032669378
298,,0.0,0.0,1.7759561889215725,1.734267305000581,0.7712826546670071,1.2574689045919298,0.8997784100568242,,,0.648888643467878,inf,,,0.9488241461462666
299,,0.0,0.0,1.6978079954539778,1.6453315595001208,0.7837155884034188,1.0363172370037301,0.7947163138499069,,,0.6425374456860184,inf,,,0.9474054642007358
300,5.7037824746562,-1.292857360922072,0.0,1.6094933643072133,1.5883353699206095,0.663167430567362,1.5078012006182187,0.9671750364292009,,,0.6509067234006624,7.188057244136296,inf,,0.8377043561081601
301,,0.0,0.0,1.4462969156629495,1.452731771942997,0.6039439287247885,2.0839602284502643,1.5884515708100113,,,0.6333676938231112,inf,,,0.944505656971614
302,,0.0,0.0,1.3727529026997236,1.332847785438381,0.8494906311153979,2.6091531913199897,2.1108691538642965,,,0.6447042257417027,inf,,,0.9486441370938027
303,,0.0,0.0,1.662217880816967,1.6700942136593389,0.7067161186840007,1.8948339420444804,1.2411216205975406,,,0.6233814453054027,inf,,,0.9530541977034217
304,,0.0,0.0,1.6957027191683576,1.6433645556492462,0.7933241636865307,1.5755827721666458,1.130766656343238,,,0.6380535849069913,inf,,,0.816700254432335
305,,0.0,0.0,1.7103535152293734,1.6807998483674487,0.7990417444088754,1.3136002543025216,0.7647054614210609,,,0.6125606311107803,inf,,,0.9113505967463081
306,,0.0,0.0,1.663622424533869,1.6316883040549701,0.8262194887957705,1.9084938100267044,1.4013266943385678,,,0.6233814453054027,inf,,,0.6808565557812317
307,,0.0,0.0,1.6700622197523023,1.6588713902712025,0.8601756205735498,2.626709481137537,2.6590130393716636,,,0.6403206450210053,inf,,,0.732593236568618
308,,0.0,0.0,1.6651147001198008,1.5776131558100954,0.8769833860723358,2.2484865031478667,1.9876961721306752,,,0.6309483474627791,inf,,,0.9042512391878013
309,,0.0,0.0,1.7822214594564174,1.7349326529171134,0.8349075778414539,1.9840326564520427,0.9962964987612004,,,0.6547956803312163,inf,,,0.9531249462484795
310,,0.0,0.0,1.7261591755739356,1.6718574555858157,0.7579966335608295,2.0205189552692078,1.2249067964143276,,,0.6602640781246099,inf,,,0.9541564546747509
311,,0.0,0.0,1.5062136171245126,1.4413025471298946,0.8183764157820939,1.1198433052185603,1.0648302572185941,,,0.648888643467878,inf,,,0.9622210899274248
312,,0.0,0.0,1.3545280470653698,1.332331632771438,0.6995312077853597,2.111110684212281,1.698321882360462,,,0.6284777104787076,inf,,,0.95244547047297
313,,0.0,0.0,1.6240569204278978,1.6155707511585917,0.8299648138358746,2.835825970318365,2.7105980244581285,,,0.6309483474627791,inf,,,0.9440992292663352
314,,0.0,0.0,1.686653851431172,1.6732792547562463,0.8570483594330182,2.4162539069224973,2.066713686884074,,,0.6547956803312163,inf,,,0.9389577690444887
315,,0.0,0.0,1.4535847898978396,1.4131290125452876,0.7960744472237677,2.361139481633305,2.7212261946510234,,,0.6233814453054027,inf,,,0.9464783609086258
316,,0.0,0.0,1.6995373089776025,1.6289064537967872,0.7932897686269866,1.3358136379893955,1.1470072130394444,,,0.6380535849069913,inf,,,0.9473150604210345
317,,0.0,0.0,1.7022699661363616,1.662835385010492,0.7187263537742676,2.025207221484429,1.4429053631941957,,,0.648888643467878,inf,,,0.7408099182715083
318,,0.0,0.0,1.7521892616379389,1.749516028856966,0.6441528837197905,2.0160144793856616,2.0338527250435647,,,0.6357360191111145,inf,,,0.8535078499680728
319,,0.0,0.0,1.6886171590741472,1.6845277889288421,0.47422754625819713,1.8276685852162537,1.1998634126093928,,,0.6403206450210053,inf,,,0.5964582458975438
320,,0.0,0.0,1.6588765260885519,1.6455385111983087,0.8849821307770376,1.3820726525899818,1.4025760500401558,,,0.6333676938231112,inf,,,0.9533702496030964
321,,0.0,0.0,1.4252992029225748,1.3984490341466729,0.7120159246217302,1.678847396310904,1.780535312568491,,,0.6357360191111145,inf,,,0.9509169370973679
322,,0.0,0.0,1.6934051679796762,1.622171683022933,0.690263145135597,2.3991240276910535,2.0775307271750654,,,0.6425374456860184,inf,,,0.8628060593431948
323,,0.0,0.0,1.540677492485913,1.5149816032395638,0.8203843530637301,1.8912534463778279,1.8117019169879962,,,0.6380535849069913,inf,,,0.8966828404203395
324,,0.0,0.0,1.7754263687896503,1.7874601963408165,0.831529535983768,1.254133638115664,0.9731347553398937,,,0.6668815377411301,inf,,,0.945500008339932
325,,0.0,0.0,1.1795203690443536,1.1483638013015613,0.6286656781132349,1.7974065802554366,1.6771106175805894,,,0.6233814453054027,inf,,,0.9530406570348946
326,5.703782474656201,-0.3232143402305181,0.0,1.5878231213561267,1.596300047587301,0.524272411056508,2.082555123912489,1.7708026343367114,,,0.6309483474627791,8.574351605256187,inf,,0.7651644913372031
327,,0.0,0.0,1.68691215623803,1.632372514272896,0.741638493775652,1.7930872394468846,1.375028481779164,,,0.6380535849069913,inf,,,0.9396767444240893
328,,0.0,0.0,1.642613046882982,1.6019622871573924,0.7666675883662275,1.3928178154395703,0.9051013986341594,,,0.6547956803312163,inf,,,0.9514502196218716
329,,0.0,0.0,1.6311072404165543,1.6281773231937922,0.8717447036854185,0.9183807989063272,0.8626046676362312,,,0.6357360191111145,inf,,,0.949768483299987
330,,0.0,0.0,1.438798857897279,1.392468674386719,0.7722833589007972,1.1596740519849906,0.9922494198818455,,,0.6380535849069913,inf,,,0.9507737416993763
331,,0.0,0.0,1.7632896667335833,1.7658513760914962,0.8311444477074535,1.0909362588055953,0.8680046412768485,,,0.6425374456860184,inf,,,0.9471069074743141
332,,0.0,0.0,1.4601834739262802,1.4027359289178873,0.747197792773187,0.7197154556063613,0.7703467213050101,,,0.6008849035917525,inf,,,0.9552961462453787
333,,0.0,0.0,1.7394617143911346,1.6631669168634418,0.8352015764522727,1.0044852866539127,0.964965156434473,,,0.6309483474627791,inf,,,0.9480270496792756
334,,0.0,0.0,1.62978045599891,1.575995299475059,0.7746693875857618,1.2777146875344705,1.1295192222397858,,,0.648888643467878,inf,,,0.9407798148150446
335,,0.0,0.0,1.74624650155083,1.704553645643878,0.737435662736884,1.547125008167564,1.3349877559500947,,,0.6309483474627791,inf,,,0.9470835811854978
336,,0.0,0.0,1.4013401290552845,1.3753258694486177,0.7314981061008062,1.6584257285467712,1.0652469253127608,,,0.6528756675646988,inf,,,0.9360084409481788
337,,0.0,0.0,1.275653584073012,1.229887823933027,0.6663618686418795,1.538758196094727,1.1020279333447391,,,0.62595550513784,inf,,,0.9210432236933109
338,,0.0,0.0,1.7561809065377696,1.7568800736238464,0.8429503369469963,2.082925943398414,1.7510138676197005,,,0.6380535849069913,inf,,,0.9321132997119534
339,,0.0,0.0,1.722119043123149,1.7121218606179727,0.9177315437017856,2.532250356491513,2.2018885197067206,,,0.6425374456860184,inf,,,0.9118965899988725
340,,0.0,0.0,1.7606930582969371,1.7473746231124572,0.8070165427555931,1.533387252686297,1.28764511609301,,,0.6447042257417027,inf,,,0.9309855244908543
341,,0.0,0.0,1.4970574064325,1.4467116919142824,0.8748409246141157,1.3757504667368987,1.2594383641851388,,,0.6468212168108125,inf,,,0.9520280653150462
342,,0.0,0.0,1.649315221099842,1.5393193325165715,0.7723569263496408,1.186794969977551,1.0260545363518334,,,0.6509067234006624,inf,,,0.9486266588459943
343,,0.0,0.0,1.6309174546299396,1.6036294613340543,0.6911123690032979,1.6012243037766662,1.1626722071558633,,,0.6380535849069913,inf,,,0.7982928215742388
344,,0.0,0.0,1.6646832990335492,1.6486089271018751,0.7249952875052126,1.9150394630550331,1.3287451435501414,,,0.6566669596287297,inf,,,0.9329694205715928
345,,0.0,0.0,1.6217089145207235,1.611447552760438,0.7957934758490091,1.782853729166516,1.515890503768335,,,0.6233814453054027,inf,,,0.9538724110684706
346,,0.0,0.0,1.538304608649467,1.502234092801868,0.7061221597793403,1.9540904366618985,1.370159613592874,,,0.6284777104787076,inf,,,0.9531587686550992
347,,0.0,0.0,1.6128323546919214,1.6046173992788524,0.5630410709539809,1.687679537828196,1.6312272898862346,,,0.6380535849069913,inf,,,0.6337265489699925
348,,0.0,0.0,1.7022278841524598,1.653054817750026,0.8859528325301206,1.8337360081988914,1.7497958134228004,,,0.6207552362147116,inf,,,0.9065048676379264
349,5.703782474656201,-0.6084034639633281,0.0,1.558272562948169,1.5323055479141865,0.7328499603743838,2.402150967519855,1.5751972771946767,,,0.663668482632973,7.941829046512676,inf,,0.6270251513062925
350,,0.0,0.0,1.525253631980831,1.5324080159425222,0.7144835343705485,1.9608769482593496,1.425255655448516,,,0.6333676938231112,inf,,,0.9470130879230143
351,,0.0,0.0,1.6681204802845224,1.6006636249061914,0.7601821413644948,1.5352749582374723,0.9986505512801203,,,0.6447042257417027,inf,,,0.9465171581742273
352,,0.0,0.0,1.7114145658534614,1.6761313415337322,0.9248172350183431,1.1443211754225862,1.113582198098496,,,0.6284777104787076,inf,,,0.9465231962803438
353,,0.0,0.0,1.6886893839032258,1.6548174707790841,0.7341760847564855,1.232057893030126,1.0085100282865325,,,0.6380535849069913,inf,,,0.7589143280573651
354,,0.0,0.0,1.251772644244809,1.2571916629137454,0.6978835685456865,0.9680195324523581,0.7115781345060785,,,0.6425374456860184,inf,,,0.95647691648353
355,,0.0,0.0,1.5543036614990746,1.5133994791038912,0.7649529902435187,1.859965865336385,1.4672101706704366,,,0.6468212168108125,inf,,,0.9480829659468734
356,,0.0,0.0,1.750925752497387,1.730684006998786,0.7892988391279496,1.9544208188241836,1.6689703760269428,,,0.6602640781246099,inf,,,0.9503818183645701
357,,0.0,0.0,1.398053266163555,1.4087118615596461,0.7196387059713735,2.1643943527924785,1.6303719770159222,,,0.6602640781246099,inf,,,0.6732674864463228
358,,0.0,0.0,1.6248688826103415,1.5262109327514257,0.9110184099956566,1.8414045916214516,1.681264800244081,,,0.6333676938231112,inf,,,0.955252306699513
359,,0.0,0.0,1.4463692130814507,1.3616025510164764,0.444446806418733,1.540328857963424,1.1241635279243731,,,0.6468212168108125,inf,,,0.6797519775643989
360,5.669613247445499,-2.6836169371242025,0.0,1.4816945253442177,1.4424441408987192,0.6257509702823937,2.803183758190235,2.7078488930529554,,,0.6309483474627791,6.403618643366943,inf,,0.8192426236570844
361,,0.0,0.0,1.6362875045111127,1.5959153174492913,0.8847037023861626,1.7453951437896136,1.4840131104064485,,,0.648888643467878,inf,,,0.9567308723556899
362,,0.0,0.0,1.379117101180624,1.362473566903922,0.7273150034840313,1.521017669756262,1.1803984706920814,,,0.6380535849069913,inf,,,0.9450497486097021
363,,0.0,0.0,1.732715568030512,1.6941995792302618,0.7826270326733648,1.7720885773690827,1.4592870426302555,,,0.6333676938231112,inf,,,0.9243479659500046
364,,0.0,0.0,1.679980006151583,1.6555594598897876,0.827537949412895,2.2646622714432567,2.0863646407969805,,,0.6284777104787076,inf,,,0.9444245910735543
365,,0.0,0.0,1.7544888095594768,1.7344822548959222,0.7597045553085248,2.4313453108897622,1.4879623941190694,,,0.663668482632973,inf,,,0.9547978339172314
366,,0.0,0.0,1.5753995425251905,1.5667744399151502,0.8921026384718217,1.8824142451450843,1.4843681402646967,,,0.648888643467878,inf,,,0.9512401733011181
367,5.703782474656202,-0.7224791134564522,0.0,1.6377435409583807,1.6002145399620284,0.6321699888593435,2.0288309523331103,1.5081619042026264,,,0.6547956803312163,7.769978789586016,inf,,0.6337712970629519
368,,0.0,0.0,1.542079381339771,1.538045931615248,0.5972049800773188,1.687576391618091,1.5181841443239021,,,0.6425374456860184,inf,,,0.8808455462149812
369,,0.0,0.0,1.523464526090694,1.4695018195523561,0.8055362057610731,2.003526420789947,1.6896471480718263,,,0.6333676938231112,inf,,,0.946128306417762
370,,0.0,0.0,1.6944065825478436,1.6645221985617766,0.7140324951220927,1.9349906663966454,1.7352317607903909,,,0.6284777104787076,inf,,,0.6320049504052644
371,,0.0,0.0,1.6813064623097942,1.6587960881211796,0.8870416431902549,1.4353265623299198,1.2521843622497797,,,0.6602640781246099,inf,,,0.9265880498496865
372,,0.0,0.0,1.6841401644964638,1.670995685920309,0.7383792459603606,1.571774405027272,1.167779849636756,,,0.648888643467878,inf,,,0.9503804815772762
373,,0.0,0.0,1.7252476756042103,1.7098898660873854,0.9210746123606377,2.0461168937461442,1.7015026802683155,,,0.6584896970785714,inf,,,0.9480245685878547
374,,0.0,0.0,1.682370618047464,1.6682884599471426,0.7651404087322969,2.122628497258651,1.8189742412094563,,,0.648888643467878,inf,,,0.9132415368205589
375,,0.0,0.0,1.6788675709984535,1.6758775861187782,0.6556172010664335,1.5581867508604144,1.586446504384704,,,0.6068309995095971,inf,,,0.9527189768404805
376,,0.0,0.0,1.6418934804418766,1.565280492529011,0.8279476081774155,1.929544214470084,1.8455874142292361,,,0.6468212168108125,inf,,,0.9540249387799212
377,,0.0,0.0,1.5595004756154696,1.5497955757031834,0.8303970747660206,2.2554217507504095,1.939317440255155,,,0.6309483474627791,inf,,,0.9127182843975084
378,,0.0,0.0,1.6326181972383234,1.6034885787160327,0.7859918077462875,2.1455955384802996,1.687700596733372,,,0.6602640781246099,inf,,,0.9084748999759124
379,,0.0,0.0,1.563013998524907,1.5012273640806888,0.6370186786405958,1.9167987129983386,1.1903648295592626,,,0.648888643467878,inf,,,0.914703440392514
380,,0.0,0.0,1.5569956974384713,1.4470578262494898,0.7586574449658755,1.3100131386180978,1.0971304595223614,,,0.648888643467878,inf,,,0.9152277793948576
381,,0.0,0.0,1.5745364319639197,1.5624425596841487,0.7341022515525978,2.0679267914824697,1.798042180831109,,,0.648888643467878,inf,,,0.9105616760742828
382,5.703782474656201,-0.6464286804610362,0.0,1.567339902485171,1.4967411587174086,0.7009280197891277,2.641938129742212,2.3146579515074013,,,0.6447042257417027,7.881204424696241,inf,,0.6084756522921316
383,,0.0,0.0,1.3776256690276782,1.3724679036332679,0.811610556825803,2.3435356041027617,1.8911432352328172,,,0.6403206450210053,inf,,,0.76288329397278
384,,0.0,0.0,1.5861141722393972,1.567821035781117,0.4570551633779988,2.075205476282909,1.7179965192291915,,,0.6509067234006624,inf,,,0.6667771846495748
385,,0.0,0.0,1.5031484002675464,1.517479201063641,0.7871443928924702,1.3437060010058905,1.1337224944205395,,,0.6528756675646988,inf,,,0.9412087436963223
386,,0.0,0.0,1.390988193066726,1.3631811878275888,0.6121912672467459,2.3022451247277225,2.1780074589317886,,,0.6403206450210053,inf,,,0.8182981604851913
387,,0.0,0.0,1.6303302712290653,1.6100158131832178,0.8482525001396379,1.652683185040966,1.265531029370972,,,0.6528756675646988,inf,,,0.9436440631647774
388,,0.0,0.0,1.6843683174140405,1.6771961878128931,0.7245099482480545,2.454644433799931,2.5719056816921078,,,0.6447042257417027,inf,,,0.951124886200084
389,,0.0,0.0,1.6573235350681872,1.6412340375990124,0.855954504695366,2.3185370294460195,2.1123728446238803,,,0.6509067234006624,inf,,,0.9480177663574237
390,,0.0,0.0,1.6236295293725251,1.5700002225393517,0.8142788769196437,2.0033999788580696,1.5058568196183302,,,0.648888643467878,inf,,,0.9471814311757657
391,,0.0,0.0,1.626851061404185,1.6148172760803612,0.7645600537914876,1.9014795665776452,1.5630799486669624,,,0.6207552362147116,inf,,,0.9484251886070498
392,,0.0,0.0,1.729160027230279,1.6871926315341363,0.8398571102445599,1.6399184108167524,1.721293310714645,,,0.6153451465759925,inf,,,0.9422848847562131
393,,0.0,0.0,1.698399387956268,1.6746852136444363,0.8182983750555064,1.7465396080720947,1.9476503164365446,,,0.6425374456860184,inf,,,0.9509840719840496
394,,0.0,0.0,1.2290792705038658,1.2017836961367805,0.645271509604657,1.1103028991863144,0.5395927103040554,,,0.5113665138247345,inf,,,0.9508787162981949
395,5.7037824746562,-2.8518912373281,0.0,1.617551711246225,1.5453277576363522,0.6886065086949555,1.8861145901196419,1.316591729516963,,,0.6509067234006624,6.396929655216146,inf,,0.9255144132300618
396,,0.0,0.0,1.5053563300958117,1.4719131172986033,0.6699920572509235,1.717978929419871,1.205508369731455,,,0.6333676938231112,inf,,,0.7286068382357936
397,,0.0,0.0,1.58433699603436,1.572752839797764,0.7791994126162918,2.7668526747536797,1.9405283352083527,,,0.6309483474627791,inf,,,0.9201447477291128
398,5.7037824746562,-1.1027312784335321,0.0,1.7151925275899333,1.7253495024423005,0.5530610172105812,1.905448643442202,1.1099359023758166,,,0.6207552362147116,7.347121938765983,inf,,0.8545357538544835
399,,0.0,0.0,1.6557836613002732,1.6239441874512577,0.8453832395127144,1.6897813559479964,0.9699106887094444,,,0.6468212168108125,inf,,,0.8415189976682846
400,,0.0,0.0,1.3189063304859785,1.0823517428570177,0.6137645592029043,0.6561297551514674,0.4035786902416878,,,0.6038851895711802,inf,,,0.8220144194031915
401,,0.0,0.0,1.3379388431244617,1.3026833665492858,0.8024445364078217,0.29033436788807176,0.39228391661416967,,,0.6153451465759925,inf,,,0.9331980979128744
402,5.703782474656201,-0.15210086599083203,0.0,1.5393243957924236,1.5115459225921204,0.5988160062071826,0.8326500133844393,0.732470276186733,,,0.5947193981915972,9.328123407632566,inf,,0.964583036488933
403,,0.0,0.0,1.5777618102537851,1.5690988140766813,0.7096960085746298,0.1828347886283968,0.20761189888382514,,,0.5451288209179292,inf,,,0.9529087293561734
404,,0.0,0.0,1.6869178756102756,1.6627887604761689,0.8355096678427687,0.09930042941131395,0.12238250014427689,,,0.5915533975974677,inf,,,0.9455852578477932
405,,0.0,0.0,1.6451094052202189,1.6311255459631557,0.9208241144909688,0.0780714460682427,0.14786491934735274,,,0.6233814453054027,inf,,,0.8864248128598545
406,,0.0,0.0,0.7816647454157826,0.7664493766159817,0.63505173504486,0.14876680387356814,0.19281998937839825,,,0.62595550513784,inf,,,0.8808932899526426
407,,0.0,0.0,1.145081080825851,1.1213105564863144,0.5976560739585385,0.16566501339423062,0.15460363627826249,,,0.6233814453054027,inf,,,0.8719816802033448
408,,0.0,0.0,1.7154260888615416,1.706758024530824,0.9281683087189335,0.052854211510632576,0.13295663488027407,,,0.6207552362147116,inf,,,0.8519381428946676
409,,0.0,0.0,1.693003838096319,1.6786607477054547,0.92645038828603,0.05245447471039328,0.13295140347085507,,,0.5641709578113449,inf,,,0.8525222314105022
410,,0.0,0.0,1.309333087502775,1.284157817180234,0.728532265957475,0.29381516094868954,0.2921995189141823,,,0.5748741956352443,inf,,,0.8501165457284376
411,,0.0,0.0,1.569080842513591,1.543322076135323,0.9169431235199013,0.09761562114575767,0.16656746849996132,,,0.5978297680564633,inf,,,0.8764604435079789
412,,0.0,0.0,1.7288780578527987,1.6784929986800277,0.6316192582447149,0.4943531042345664,0.3335030064480384,,,0.5883313578629602,inf,,,0.9564138072574828
413,,0.0,0.0,1.4019681184305839,1.3555376351899282,0.8106441022965077,0.018096091199434363,0.036359784073196975,,,0.5490601803369085,inf,,,0.8367850894185297
414,,0.0,0.0,1.6797348825030278,1.6564318216537752,0.8036389936764815,0.12877671165514118,0.10776723711080746,,,0.6068309995095971,inf,,,0.9538560081274002
415,,0.0,0.0,1.5924923806638007,1.4927841428701967,0.8700073931425978,0.049656478875566755,0.10274342355498824,,,0.5068466436745385,inf,,,0.853268623387626
416,,0.0,0.0,1.7645091369193822,1.7606604216042394,0.48177234786179823,0.16065407595370457,0.20758221831741885,,,0.5113665138247345,inf,,,0.9411538822820869
417,,0.0,0.0,1.7273211316086576,1.7133304894128436,0.7742748676835494,0.20350430230945507,0.26036986776050003,,,0.5451288209179292,inf,,,0.9007907930499899
418,,0.0,0.0,1.7129169730485745,1.6958859437277791,0.9443160417550062,0.31885964870061234,0.5952441318441597,,,0.5490601803369085,inf,,,0.9114560788490268
419,,0.0,0.0,1.7063276974752672,1.7058592716370566,0.8433465315530408,0.23200915632820396,0.4126452703013256,,,0.5287703885177266,inf,,,0.9085901291945453
420,,0.0,0.0,1.5789919922374964,1.534686254739169,0.7108068706522781,0.7943157369469532,0.839059852968276,,,0.5113665138247345,inf,,,0.8895362184198805
421,,0.0,0.0,1.706608066745615,1.6491191678501216,0.8505831393992209,0.9182887319106613,0.9654658136519814,,,0.5158180382284114,inf,,,0.8674338206512426
422,,0.0,0.0,1.6754244342109386,1.632909620460551,0.7219720914623277,0.16837375022647447,0.12397981400805794,,,0.5641709578113449,inf,,,0.9135151128371636
423,,0.0,0.0,1.6419192431084326,1.626881046081532,0.9009478843215345,0.03845228398640997,0.07392954584342096,,,0.5329562494928909,inf,,,0.8726745895124701
424,,0.0,0.0,1.6247568725171888,1.6013270816328586,0.8985310751792684,0.049788218210891445,0.10622138685350718,,,0.468121228110369,inf,,,0.8535026048426004
425,,0.0,0.0,1.6285313490799478,1.5512517240882864,0.9275429273421631,0.17084972527260853,0.3024365767888805,,,0.5068466436745385,inf,,,0.8732711078645182
426,,0.0,0.0,1.4230070182214516,1.359660245869954,0.862874904320895,0.05939211638184834,0.12404714794494508,,,0.4928685327679205,inf,,,0.8787281407866021
427,,0.0,0.0,1.5752348656667745,1.5541694481303363,0.8604513520464099,0.05679027060483424,0.1076833463207123,,,0.4928685327679205,inf,,,0.8733766088027826
428,,0.0,0.0,1.7092897399700957,1.6649616114294126,0.8983074519710377,0.22142027431969333,0.27199104575089905,,,0.5068466436745385,inf,,,0.8282785817951551
429,,0.0,0.0,1.6713610974928725,1.6331399610245718,0.8384265284395733,0.32600754520221203,0.3899091266966273,,,0.5022576003740722,inf,,,0.8532754553119435
430,,0.0,0.0,1.7105099648379212,1.6557476905871509,0.7873214721779038,0.17074737227165415,0.16871156721992756,,,0.5604843169999094,inf,,,0.9438074882245722
431,,0.0,0.0,1.574756903475665,1.5497057792159228,0.904624351844686,0.026806732697955363,0.062202075977678906,,,0.45235697871908603,inf,,,0.8850948422196435
432,,0.0,0.0,1.7028747406419853,1.6757291110588375,0.9488869202208972,0.0354097759477418,0.07370127282006701,,,0.5022576003740722,inf,,,0.8625869113057966
433,,0.0,0.0,1.385200588279484,1.1246642254308736,0.8353457864632466,0.24608557665993394,0.2953393764532376,,,0.5641709578113449,inf,,,0.9121349909220585
434,,0.0,0.0,1.576746793625768,1.545834513313362,0.8923600133925884,0.41207219369771114,0.7511189973316956,,,0.4928685327679205,inf,,,0.8944067330413906
435,,0.0,0.0,1.1329808456664148,1.0093817721180047,0.6833011981815454,0.17045660692120068,0.2432493714663036,,,0.5641709578113449,inf,,,0.9407148283501764
436,,0.0,0.0,1.6597313578582638,1.6536660656730515,0.7426251546781113,0.032132422157857866,0.03686340409533347,,,0.5490601803369085,inf,,,0.9041783736996324
437,,0.0,0.0,1.7013268553614136,1.6849362321122578,0.9289606949547339,0.03310093947518946,0.06941407911676076,,,0.5604843169999094,inf,,,0.8472637783031093
438,,0.0,0.0,1.5830205962823896,1.581578416735329,0.7049886155698198,0.16362631654508214,0.1630659695270143,,,0.5883313578629602,inf,,,0.9018001975220176
439,,0.0,0.0,1.627910661573678,1.615365074520801,0.8977922084935688,0.12769380059419044,0.2144012221594959,,,0.5490601803369085,inf,,,0.9208586999514974
440,,0.0,0.0,1.5520786601566046,1.551634352941823,0.876484503806369,0.10514059088526873,0.16780105513456156,,,0.581717464821069,inf,,,0.9007444991940284
441,,0.0,0.0,1.612925193653899,1.5812988278610862,0.9189219419150833,0.07190356936523008,0.10884016911344352,,,0.5883313578629602,inf,,,0.8752499398592732
442,,0.0,0.0,1.7454342351960919,1.731311452547482,0.8793924250354971,0.12983270795659885,0.13314328896856226,,,0.6097226960127671,inf,,,0.9459479625630178
443,,0.0,0.0,1.6533080102821578,1.6587515724098614,0.9023777316538782,0.07242962781244118,0.09186031762718311,,,0.6068309995095971,inf,,,0.8587421338888954
444,,0.0,0.0,1.4941166357778086,1.423934560002957,0.7371224156903321,0.287450185274462,0.31432216199986546,,,0.5677978065141052,inf,,,0.9048546707111826
445,,0.0,0.0,1.4158695330599216,1.2934073132189863,0.751707869660152,0.179175975089994,0.3077246024809511,,,0.4576907132971797,inf,,,0.7342668154427898
446,,0.0,0.0,1.3901903018005668,1.226059777839831,0.8525749173622114,0.6557842297855466,0.7536163186915961,,,0.44144624493110796,inf,,,0.8545436425967736
447,,0.0,0.0,1.6683373105096173,1.6320164749132007,0.7408150706293656,1.2055298063962703,0.6955649370458088,,,0.6038851895711802,inf,,,0.9471158346285015
448,,0.0,0.0,0.7970431147498698,0.7506174115285473,0.6215468508161572,0.23629974630326614,0.27048425959326294,,,0.6125606311107803,inf,,,0.8910671544686702
449,,0.0,0.0,1.7169561983605208,1.6988011291432399,0.9254154850783582,0.311329306306312,0.35458793683944195,,,0.6284777104787076,inf,,,0.9032175639695861
450,,0.0,0.0,1.6153535913356696,1.6066477796386345,0.8898334974734309,0.2799336099040355,0.28333268113078924,,,0.6233814453054027,inf,,,0.8679310598241317
451,,0.0,0.0,1.6342673103626222,1.6229511092536582,0.8911444381382595,0.31724006979817265,0.3599702661953109,,,0.5978297680564633,inf,,,0.849459668421999
452,,0.0,0.0,1.5875733004895145,1.5390996592018542,0.8374961833758114,0.24807094712382202,0.23811098246435747,,,0.6284777104787076,inf,,,0.8816214023503869
453,,0.0,0.0,1.5296228486807668,1.5160167386191552,0.911660956607494,0.3015459460804605,0.36676548244232565,,,0.5329562494928909,inf,,,0.8925947898101133
454,,0.0,0.0,1.6685375766064068,1.6603665115635358,0.8750262958205722,0.2912798584460112,0.36823604436043905,,,0.6097226960127671,inf,,,0.8861125139083141
455,,0.0,0.0,1.7288607514267036,1.7277873888323796,0.4628593527308609,0.3776754815144109,0.4458108631984381,,,0.5451288209179292,inf,,,0.9531839985602052
456,,0.0,0.0,1.617162952984469,1.6150203526330278,0.7946339662731058,0.5327217639038916,0.645245290764884,,,0.5490601803369085,inf,,,0.8887935480104465
457,,0.0,0.0,1.583501809374211,1.5915921752145084,0.5932638966980469,0.09569207535340958,0.094646206702626,,,0.5947193981915972,inf,,,0.9585025945781209
458,,0.0,0.0,1.741335694918024,1.7353849972391715,0.9205819637839169,0.026985088279398713,0.05002824896691509,,,0.4928685327679205,inf,,,0.8454633268402081
459,,0.0,0.0,1.3945635549758848,1.3775890324896292,0.6780673937328996,0.07777430718251244,0.07468816270272438,,,0.5567373465730988,inf,,,0.9495570005241764
460,,0.0,0.0,1.5304312328012104,1.5338784172271227,0.5868929190509817,0.18148875651223084,0.21913611970554214,,,0.5287703885177266,inf,,,0.905040316439815
461,,0.0,0.0,1.567382482917063,1.5282387324595412,0.8812969447733626,0.2230450872992841,0.35632220023364203,,,0.524519217297268,inf,,,0.8113034188812015
462,,0.0,0.0,1.4013147935676424,1.3644166218314429,0.6763419338009553,0.3366996636515831,0.370082542799452,,,0.5915533975974677,inf,,,0.9392980641657559
463,,0.0,0.0,1.6083809549298094,1.580772015606023,0.8852752999465162,0.1950361983012903,0.25701592393901335,,,0.6008849035917525,inf,,,0.8568634715010922
464,,0.0,0.0,1.687559003102411,1.6610217825095894,0.8941228585000073,0.2190516935224338,0.24316896303060584,,,0.5677978065141052,inf,,,0.876786783819253
465,,0.0,0.0,1.3794797107086327,1.3712139135631305,0.8328902987365879,0.20039047162534776,0.23149942497558573,,,0.5978297680564633,inf,,,0.8652946972492448
466,,0.0,0.0,1.677490680799227,1.6417989998454963,0.900436321234929,0.2840331919964636,0.3570800488131679,,,0.6153451465759925,inf,,,0.8939314281941232
467,,0.0,0.0,1.6380210934011068,1.6234846184950558,0.924436438541732,0.4953851936626742,0.6643347602970081,,,0.5978297680564633,inf,,,0.9254967872124732
468,,0.0,0.0,1.1961780393390773,1.1152522756945416,0.5388300256024064,0.36285440630273835,0.35257957174468063,,,0.6125606311107803,inf,,,0.9418546509033695
469,,0.0,0.0,1.5370446204634116,1.4799715737289862,0.855315404222375,0.7668980550746582,0.5987100807755354,,,0.5783247308855777,inf,,,0.8879624952764412
470,,0.0,0.0,1.2031029144981447,1.154213800224471,0.8062652030012433,0.6577592632124719,1.0038728808059183,,,0.4066654671944331,inf,,,0.8177333603342188
471,,0.0,0.0,1.5630315445025456,1.502999594690673,0.9481436908313359,0.7737357118762993,0.9762857224190702,,,0.44694259446804574,inf,,,0.9100259241152473
472,,0.0,0.0,1.372478584798639,1.273764398068347,0.6705686856726987,0.18603039116279071,0.1651406158924123,,,0.5567373465730988,inf,,,0.8969368920284742
473,,0.0,0.0,1.689724720758677,1.6912481758610611,0.9087454269056376,0.08912006753848493,0.14009740987954616,,,0.5113665138247345,inf,,,0.8438044945639632
474,,0.0,0.0,1.700276253692825,1.6694359682282214,0.9407751089013047,0.08836706914355177,0.1667475999017519,,,0.47824363442641393,inf,,,0.8238690513218105
475,,0.0,0.0,1.7018089088227106,1.704480644111111,0.3621472693618269,0.41197541626780465,0.39833094797126,,,0.5713653840954815,inf,,,0.6038658611079633
476,,0.0,0.0,1.4534026794117225,1.3334962015489376,0.8370132158877807,0.761278381269111,0.6589476097397149,,,0.5202020156036558,inf,,,0.8657417370293928
477,,0.0,0.0,1.4359737822798082,1.4025921139620003,0.8980875651146458,0.6854804237700877,0.9116886696938173,,,0.47824363442641393,inf,,,0.8865983139850058
478,,0.0,0.0,1.7398548864485022,1.6818416019904405,0.8600152854653672,0.7348742463259571,0.8880899301070407,,,0.4880666971167561,inf,,,0.8743028226139372
479,,0.0,0.0,1.0650044544459911,0.9767753714687721,0.6750130341142964,0.4071788443885254,0.5392806650544228,,,0.5022576003740722,inf,,,0.8808030645072131
480,,0.0,0.0,1.3089059430447387,1.2930279303917689,0.4594737127343783,0.4119347558662503,0.46514058122037594,,,0.5604843169999094,inf,,,0.9691771315922189
481,,0.0,0.0,1.7257037595204072,1.6850421792533692,0.6601201091482826,0.8584724877175769,0.7386810414686116,,,0.6038851895711802,inf,,,0.954708484883071
482,5.703782474656201,-0.05703782474656201,0.0,1.3233578640817916,1.2935676285002582,0.5711507208847525,1.3125629415187767,1.365278616574245,,,0.6180765742263259,10.308952660644293,inf,,0.6146654331731508
483,5.45971656600833,-0.7964421751097377,-0.49569074551223363,1.7685625090812842,1.7505523157185527,0.5239353329722091,1.7897013219121396,1.454144263316432,1.3387945640686063,,0.663668482632973,6.843216757844566,1.3062516534463542,inf,0.7203451352518073
484,,0.0,0.0,1.67110517098845,1.6459780242388855,0.8551799636047421,1.5097492560650907,1.2376256203713667,,,0.6566669596287297,inf,,,0.9386314672141411
485,,0.0,0.0,1.7330525462590507,1.7248227561437295,0.6999845704156922,2.530310919760217,3.0183802022616466,,,0.648888643467878,inf,,,0.675115429287931
486,,0.0,0.0,1.631013225327154,1.5580631894538641,0.8630653748815785,2.0122985394257142,1.7008750322131894,,,0.6509067234006624,inf,,,0.9324919297320036
487,,0.0,0.0,1.54667894859263,1.50265514533155,0.8365949627240232,1.2949349771870158,1.693902754271709,,,0.5022576003740722,inf,,,0.8790790337980088
488,,0.0,0.0,1.620792912452952,1.5922916491484571,0.907966467010305,0.6434896124266196,0.7911578845097665,,,0.581717464821069,inf,,,0.8195721136660099
489,,0.0,0.0,1.0555066925091894,1.0495160509610768,0.49333149907710233,0.7776170291535197,0.6840821633810205,,,0.6284777104787076,inf,,,0.9419275593949699
490,,0.0,0.0,0.7956057243501647,0.776297292991678,0.5666277708462637,0.726414676122288,0.6896062260593526,,,0.5883313578629602,inf,,,0.9315246187584896
491,,0.0,0.0,1.6417493882562109,1.6333847948700067,0.8483755244984694,1.0411193116200923,1.1161185229466446,,,0.6008849035917525,inf,,,0.9453547671824427
492,,0.0,0.0,1.7803127721223468,1.7238308992605176,0.9365856793289683,0.911740525546224,1.1231496196743116,,,0.6425374456860184,inf,,,0.9546453800577013
493,,0.0,0.0,1.5288319528678547,1.5282149176745665,0.8505701245473192,0.46956654987017105,0.6237690822633819,,,0.6125606311107803,inf,,,0.918482000467144
494,,0.0,0.0,1.4037602415368555,1.3836170612227,0.808205655865012,0.6155963029052164,0.6772492423162554,,,0.6380535849069913,inf,,,0.9562780574496756
495,,0.0,0.0,1.3213546117802268,1.2221817251885652,0.7545614021369811,1.1839483927562382,0.7040482985463878,,,0.6180765742263259,inf,,,0.9564654562539406
496,,0.0,0.0,1.4771668650551009,1.468658218733254,0.8240526187723365,2.0006760915667816,1.6753773228113082,,,0.6357360191111145,inf,,,0.7461715255315903
497,5.7037824746562,-1.254832144424364,0.0,1.7212850425995534,1.7327098749883545,0.5962924155387849,1.643114459191641,1.3875103499486752,,,0.6566669596287297,7.217910207285977,inf,,0.5258104567436979
498,,0.0,0.0,1.496381139552096,1.4731573756076943,0.7800038438647382,1.9002074488696126,1.6756170246008852,,,0.6309483474627791,inf,,,0.9453822499997572
499,,0.0,0.0,1.7629211298439347,1.752877161924276,0.7445461855849255,1.6671764330872225,1.2866749012377383,,,0.6233814453054027,inf,,,0.9425573688549853
500,,0.0,0.0,1.572407405496673,1.543729420377482,0.843605928199121,2.4841427419713495,2.119555036236397,,,0.6207552362147116,inf,,,0.9372749464038502
501,,0.0,0.0,1.7174430800491904,1.7008768790752982,0.8355948784764059,2.045142856539896,1.4480166761950812,,,0.6357360191111145,inf,,,0.9468144743905103
502,,0.0,0.0,1.5152577812705554,1.4962180965382024,0.760888455130205,1.675280092367757,1.427682422256253,,,0.6284777104787076,inf,,,0.9485040199509639
503,,0.0,0.0,1.6942464151118897,1.6207693829974987,0.8186176960821653,2.5199652426953465,1.9154139318129153,,,0.6509067234006624,inf,,,0.948928763659334
504,,0.0,0.0,1.5658299190436282,1.5257946247173682,0.7098622171650912,1.714126402014599,1.5231201026733405,,,0.6284777104787076,inf,,,0.9466170373270023
505,,0.0,0.0,1.77766601477638,1.7516270481281808,0.5741287824290017,1.8972868950310102,1.3207360820704024,,,0.6584896970785714,inf,,,0.6818780939411146
506,,0.0,0.0,1.616560020110641,1.5680872230362735,0.6894993945594203,2.29820649757693,2.264710429852585,,,0.6468212168108125,inf,,,0.6072154727792254
507,,0.0,0.0,1.699728723393998,1.695804808506421,0.7683556846397748,1.8767672193138625,1.686594283042258,,,0.6403206450210053,inf,,,0.950950952308655
508,,0.0,0.0,1.6784043942694267,1.6147933290652063,0.8228382889779325,2.114637650721057,1.9438378631172246,,,0.6380535849069913,inf,,,0.9525322522453155
509,,0.0,0.0,1.6360250110569936,1.634701227171973,0.7238918521346311,1.6034666042714907,1.3359367863375053,,,0.6547956803312163,inf,,,0.6691231309268151
510,,0.0,0.0,1.6085212389453758,1.5782781516406272,0.8777252351794759,1.0335554946768406,0.98467477246998,,,0.6380535849069913,inf,,,0.949891621759396
511,,0.0,0.0,1.7122710386050137,1.6869533337710003,0.8112957130428301,2.050473674535319,2.1678229096134944,,,0.6509067234006624,inf,,,0.8918482225073996
512,,0.0,0.0,1.40552837353889,1.3815786147485831,0.7321741575755253,1.6783607114783738,1.3093342734682283,,,0.5329562494928909,inf,,,0.84014778839926
513,5.703782474656201,-0.05703782474656201,0.0,1.3887406662535144,1.3602750426831063,0.6869508640463963,2.269369938189225,1.5802361671724783,,,0.4928685327679205,10.308952660644293,inf,,0.7937925010034239
514,,0.0,0.0,1.5860338622836707,1.5797455446478306,0.6814890897909914,2.2253055643584965,1.6749213036914243,,,0.6403206450210053,inf,,,0.8401486460257377
515,,0.0,0.0,1.5902138235141996,1.5722916555857616,0.752389801649432,1.7637168207293508,1.4043471690364386,,,0.6528756675646988,inf,,,0.9366001965636701
516,,0.0,0.0,1.698058929919207,1.6601205956362586,0.8635923905922224,1.523479470713627,1.4840324739661732,,,0.6425374456860184,inf,,,0.9515886190668853
517,,0.0,0.0,1.4974339794607774,1.4907568202674242,0.7686374196957544,1.5522185958194763,1.3415792096743404,,,0.6333676938231112,inf,,,0.952732084514131
518,,0.0,0.0,1.739331467629625,1.682017708469437,0.7968319097747111,1.0284527611069583,0.8731356560826979,,,0.6180765742263259,inf,,,0.9510290344598692
519,,0.0,0.0,1.694125806952897,1.6938583116870933,0.8332148845833729,1.7270890752582246,1.193858340381936,,,0.6403206450210053,inf,,,0.8994904697873992
520,,0.0,0.0,1.6931593218532084,1.677397920232008,0.8103787220475136,2.0768989736753434,1.4715496310000238,,,0.6447042257417027,inf,,,0.8879241489572401
521,,0.0,0.0,1.66370702527128,1.6611377252078727,0.8849082677653399,2.014922938863326,1.783735868993904,,,0.6509067234006624,inf,,,0.942227886836335
522,,0.0,0.0,1.6790401082226936,1.6385445414897306,0.6713895992357437,2.478929881523519,2.195591589245547,,,0.6619902821573977,inf,,,0.6523201516708036
523,,0.0,0.0,1.5966395228799783,1.5606451926695446,0.6382952566621724,1.133966699211939,0.9579288244972617,,,0.6468212168108125,inf,,,0.7145381069067478
524,,0.0,0.0,1.719387543334515,1.6859115755209004,0.7593205046411529,1.2430897953558429,0.8861826720415431,,,0.6284777104787076,inf,,,0.9559497877582506
525,,0.0,0.0,1.3380130349183308,1.3286110179470831,0.7556475255470723,1.1361206721879666,1.0590354851485795,,,0.6309483474627791,inf,,,0.95212481962174
526,,0.0,0.0,1.5873626928849074,1.5685012887918532,0.8282656339625292,1.7175583640244203,1.9689530561302513,,,0.6333676938231112,inf,,,0.9594958726202132
527,,0.0,0.0,1.6203190989380356,1.5988140516162608,0.8720850159556448,1.4137419883550315,1.4027271814572837,,,0.6447042257417027,inf,,,0.9584016546574142
528,,0.0,0.0,1.289933866409329,1.284508397537778,0.7675879526928437,1.2186397623902068,1.0462174941945002,,,0.6468212168108125,inf,,,0.964065215357446
529,,0.0,0.0,1.702307239653301,1.6739690460057108,0.8045232362926249,1.2652835437081735,1.2835970524316553,,,0.6008849035917525,inf,,,0.9538608230723586
530,,0.0,0.0,1.728732525965032,1.743314640107772,0.8898456773128608,1.981412057358664,1.7508620950044331,,,0.6403206450210053,inf,,,0.9232961485218477
531,,0.0,0.0,1.697329076119807,1.6538521845687064,0.8743956310601494,1.8035926485751,1.2309779267635383,,,0.6207552362147116,inf,,,0.9398868347385586
532,,0.0,0.0,1.5472689628704708,1.5033461436865636,0.7113630398889331,1.3836323407837168,1.1674645428728132,,,0.6097226960127671,inf,,,0.939374389894405
533,,0.0,0.0,1.6096501969479735,1.5643869631381178,0.7124693291400139,1.146056680498014,1.0388066995683116,,,0.6233814453054027,inf,,,0.9446024594336675
534,,0.0,0.0,1.503259795597332,1.4989110270406258,0.8248243419962044,0.8770617957856377,0.6865439831063254,,,0.6284777104787076,inf,,,0.8783745365456196
535,,0.0,0.0,1.5632654573598987,1.5400323497964712,0.6773838616344313,0.796601267207114,0.6086685767797086,,,0.6180765742263259,inf,,,0.8944337657958613
536,,0.0,0.0,1.6662596592443997,1.6518081876034685,0.7470341367473787,1.6921584345495637,1.3435690939725968,,,0.6357360191111145,inf,,,0.948898893812709
537,,0.0,0.0,1.7172375895044407,1.6800395578541798,0.7839632620647934,0.5694585302626298,0.32864745617962554,,,0.6333676938231112,inf,,,0.9476699180160907
538,,0.0,0.0,1.766005508461916,1.673321495847098,0.8627377235657234,1.2868737609403362,0.9312932102895282,,,0.62595550513784,inf,,,0.8579585496652744
539,,0.0,0.0,1.1785836311624338,1.1495587635376394,0.6278089343500894,0.9806333361270705,0.8193715897956805,,,0.6125606311107803,inf,,,0.9322611190954809
540,,0.0,0.0,1.7212140476340874,1.660132615621411,0.8409033699106001,1.3105610685003195,0.9931688312251874,,,0.6468212168108125,inf,,,0.9511967175918764
541,,0.0,0.0,1.6863430874834298,1.6672054035664372,0.9062107821716893,1.173817386078968,1.043995749772222,,,0.6447042257417027,inf,,,0.9339301693414767
542,,0.0,0.0,1.6915250871734262,1.6716751058725086,0.836424013852906,1.031185572737489,0.80224983557758,,,0.6447042257417027,inf,,,0.9363277264881651
543,,0.0,0.0,1.712413205875043,1.6672234691872692,0.8561197216780735,0.9967724535791456,0.8148731936829556,,,0.6333676938231112,inf,,,0.9523982867694761
544,,0.0,0.0,1.445380395010036,1.4431413628045087,0.7160402425503186,0.9012968006564106,0.6592205515733256,,,0.6528756675646988,inf,,,0.9483927421672594
545,,0.0,0.0,1.6093907395048848,1.5921822319363208,0.812000675791383,1.333918562767522,0.9959015255355401,,,0.6547956803312163,inf,,,0.9485128578157109
546,,0.0,0.0,1.591734350141256,1.5793816576781872,0.7556686249009311,1.3107797917698194,0.8773839185589027,,,0.6284777104787076,inf,,,0.956210871734
547,,0.0,0.0,1.4344190910036614,1.4190883338710472,0.6835711281247464,1.7098499626101384,1.2771622626807024,,,0.6357360191111145,inf,,,0.95349032147131
548,,0.0,0.0,1.5553356150367177,1.5071964792744386,0.7138713957804707,1.898057047386004,1.2997743253886203,,,0.6357360191111145,inf,,,0.9634980932364964
549,,0.0,0.0,1.337218312342082,1.3440018289944324,0.7758375905403317,1.194777529000308,1.019217601260945,,,0.6309483474627791,inf,,,0.9544856695906743
550,,0.0,0.0,1.5838015066688633,1.5808451527042333,0.7861120867363794,1.7360534359008988,1.2977830971485407,,,0.6584896970785714,inf,,,0.9549724701800046
551,,0.0,0.0,1.5350833099795669,1.3711297806222162,0.7673391196388133,1.202286432113119,0.992097172974254,,,0.6333676938231112,inf,,,0.9252864097017918
552,,0.0,0.0,1.5426963863848215,1.527743444859831,0.7178258438562356,1.3696089644317766,1.0202838714572235,,,0.6153451465759925,inf,,,0.8946132311404077
553,,0.0,0.0,1.6596615935241399,1.6582472110257174,0.890040726574134,3.320369458502966,4.4833130437262065,,,0.6547956803312163,inf,,,0.9289526635924531
554,,0.0,0.0,1.6054157228144428,1.579022839597179,0.9219555896722014,2.308366482731859,1.623588571350235,,,0.6528756675646988,inf,,,0.9331871351688853
555,,0.0,0.0,1.6886111365229621,1.6894149694633047,0.9127794347522502,1.9479453978661838,1.8051564621865854,,,0.6403206450210053,inf,,,0.9419643963917604
556,,0.0,0.0,1.7008814639974363,1.6917468325890044,0.6847683901953274,2.874623614118677,2.4922652904896054,,,0.6309483474627791,inf,,,0.8587339043726988
557,,0.0,0.0,1.0496182025213487,1.0392843463920298,0.6556778344001051,2.1920115393798145,2.4944432113349477,,,0.6284777104787076,inf,,,0.9420633987836162
558,,0.0,0.0,1.572415344619872,1.5355708639405625,0.7382316314916204,2.130354106390008,2.114955022966206,,,0.6468212168108125,inf,,,0.956317942823975
559,,0.0,0.0,1.499732389473943,1.4676005704021209,0.8033434818652525,2.2452688144733957,2.124876465361002,,,0.6509067234006624,inf,,,0.9482809047622217
560,,0.0,0.0,1.7304261552454605,1.6846103041925764,0.8240337740448676,2.0295525767807807,1.714112590992499,,,0.6425374456860184,inf,,,0.9495032879934655
561,,0.0,0.0,1.723901093726092,1.6649890081520424,0.8654649676882661,1.0965601374304275,0.7925814891535867,,,0.62595550513784,inf,,,0.9341744914077275
562,,0.0,0.0,1.4817234704743623,1.450716661836769,0.8419397164022394,1.2141338446981493,1.3792978408152439,,,0.6233814453054027,inf,,,0.9475981569246557
563,,0.0,0.0,1.4815645891426126,1.4167768273802515,0.79789002450483,0.8882315678562838,1.0429846699368288,,,0.5641709578113449,inf,,,0.8781216996757564
564,,0.0,0.0,1.0438063520381287,1.0301377717385845,0.6594549560661663,0.6213241251205226,0.6081608791745329,,,0.6180765742263259,inf,,,0.8742417028354492
565,,0.0,0.0,1.5526720214387515,1.5505833155461117,0.7359791853609847,0.8544707646549677,0.6156502735862447,,,0.6097226960127671,inf,,,0.9528686466076675
566,,0.0,0.0,1.6712057639191633,1.6444076019691152,0.6100802776703522,1.2846256425284273,0.9995461840523701,,,0.6008849035917525,inf,,,0.9538627509192995
567,,0.0,0.0,1.7412394825912432,1.6680244461450493,0.5220938723200856,0.8885701657871244,0.6334700721788509,,,0.6284777104787076,inf,,,0.9548780292021547
568,,0.0,0.0,1.553061339491375,1.5447031408655103,0.6296107574123959,0.8758147382173628,0.874821628760046,,,0.5915533975974677,inf,,,0.6980218174349919
569,,0.0,0.0,1.7097867803017635,1.6927299058299787,0.547978653627574,1.6601011445599727,1.3828602594580703,,,0.6380535849069913,inf,,,0.5967525069574122
570,,0.0,0.0,1.5230350278861564,1.510377684027037,0.7139930207931826,0.888281787030353,0.5698291794768662,,,0.6309483474627791,inf,,,0.9417524253407684
571,,0.0,0.0,1.6980704027801297,1.6434064071391292,0.7756648792439315,1.1235623180558836,0.7851552115590525,,,0.62595550513784,inf,,,0.9520843480348093
572,,0.0,0.0,1.470945624888671,1.4474436338955567,0.8334735907209114,0.7701726076930594,0.7814826262668133,,,0.648888643467878,inf,,,0.9097057761362849
573,5.703782474656201,-0.7795169382030142,0.0,1.7157000173207786,1.6565770369701636,0.570688525061981,1.432647461506614,1.324279521972268,,,0.6547956803312163,7.693992882608094,inf,,0.8003489005293638
574,,0.0,0.0,1.2799486200367252,1.2159074721518126,0.7282424934797114,1.3889274728220273,1.1419797937011003,,,0.6425374456860184,inf,,,0.8919855551352184
575,,0.0,0.0,1.389401576096947,1.3406213071285864,0.6968875904577644,0.9656157863650235,0.783812334234934,,,0.6284777104787076,inf,,,0.9356861686544999
576,,0.0,0.0,1.7333491108529615,1.7257844939550782,0.8601999368434291,1.108772611253399,0.7078508248724518,,,0.6357360191111145,inf,,,0.9213794069866681
577,,0.0,0.0,1.6496182691994936,1.6531264832948669,0.8907791509272376,1.4627344851788995,0.9879688586016717,,,0.6380535849069913,inf,,,0.9270212801562924
578,,0.0,0.0,1.7114649383362392,1.6955525944588696,0.8926959807217392,1.770429754840278,1.3614381824565618,,,0.6566669596287297,inf,,,0.9457028925932333
579,,0.0,0.0,1.5160181862138589,1.4967891968381317,0.8425409393160143,2.1760002100612525,1.438499308722327,,,0.6284777104787076,inf,,,0.9457770152990858
580,,0.0,0.0,1.5318655578414848,1.539925894994747,0.8140102609050716,2.1700653577629088,1.2216920261573265,,,0.6380535849069913,inf,,,0.963929523916022
581,,0.0,0.0,1.296898594607083,1.2291434231718088,0.7256454112082223,1.4324451586817775,0.8649416034701178,,,0.6357360191111145,inf,,,0.8663245794540562
582,,0.0,0.0,1.6765267274391338,1.6904667625538834,0.7163224008706978,1.9961980286277958,1.4847129074074876,,,0.6333676938231112,inf,,,0.8631089101914481
583,,0.0,0.0,1.589132896312627,1.5351301613383712,0.8327305488015093,1.3678755356905326,1.2887941646545062,,,0.6509067234006624,inf,,,0.9426928219579018
584,,0.0,0.0,1.6819755034917026,1.6659982802450009,0.7455769528642613,1.9337761614699476,1.6027527854320314,,,0.6468212168108125,inf,,,0.6989709271451461
585,,0.0,0.0,1.6493144431905793,1.5962566827341924,0.8197024651831785,1.934436244889388,1.3507341675929525,,,0.6566669596287297,inf,,,0.9326274017869186
586,,0.0,0.0,1.5606556214991893,1.5102495565723288,0.8406093490339162,1.8411131716691955,1.4914312426981786,,,0.648888643467878,inf,,,0.9197164561361401
587,,0.0,0.0,1.3579347769058139,1.360278555179257,0.7374316463214283,1.7192357807361063,1.6454482568179927,,,0.6509067234006624,inf,,,0.9136636776124434
588,,0.0,0.0,1.618068807995573,1.5763260760014652,0.8490656046453716,2.222433359940364,1.9994907709892495,,,0.6309483474627791,inf,,,0.9535528141814364
589,,0.0,0.0,1.7519982978225956,1.682646571618427,0.6434857426491404,1.6467912656394708,0.9435884102299321,,,0.6233814453054027,inf,,,0.8505141780572811
590,,0.0,0.0,1.7276216531476438,1.7063648718570432,0.6464291248962091,1.788821961755685,1.1829673814169397,,,0.6468212168108125,inf,,,0.7596712699186969
591,,0.0,0.0,1.7318975739478326,1.6874312663326,0.7540364069842994,1.621249001629802,1.0340858808667355,,,0.6309483474627791,inf,,,0.9469197468792506
592,,0.0,0.0,1.074363241176534,1.0851816706347222,0.6395163195438726,1.468681725007486,1.2734114655248838,,,0.6425374456860184,inf,,,0.9428362811999045
593,,0.0,0.0,1.7227598010029164,1.6551112504509302,0.7940246207006076,0.7559392789236071,0.5056948154131445,,,0.648888643467878,inf,,,0.917133814763992
594,,0.0,0.0,1.7774486666054585,1.7474277001648577,0.8351979679598298,0.770591157544404,0.6128618044305603,,,0.6125606311107803,inf,,,0.8366489919871554
595,,0.0,0.0,1.722409681287326,1.7115092166645542,0.45720571672252525,1.4634908160411095,0.9660964615890115,,,0.6403206450210053,inf,,,0.9301141749703046
596,,0.0,0.0,1.4609629979978145,1.3879901353759154,0.7368153338946881,1.4440626011641564,1.3642202025211663,,,0.6038851895711802,inf,,,0.6862031772967125
597,,0.0,0.0,1.6844991755379208,1.656715279330272,0.8926528412026554,2.185877130039625,1.8163458942696034,,,0.6357360191111145,inf,,,0.9550320313508553
598,,0.0,0.0,1.661089253933063,1.652631294589314,0.7892932633854857,2.4960089157683116,1.4480057580277257,,,0.6509067234006624,inf,,,0.9542879301762539
599,5.703782474656202,-0.3612395567282261,0.0,1.6350780324384062,1.617176651413663,0.5095644156892727,2.2238128841550204,1.5661355476106191,,,0.6207552362147116,8.463125970145962,inf,,0.7693847203419603
600,5.703782474656202,-0.6654412887098902,0.0,1.5024992377795905,1.46956667930744,0.706037838472699,1.0932725176314375,0.8662548871686295,,,0.6403206450210053,7.852216887822989,inf,,0.7102464660601945
601,,0.0,0.0,1.3005871274753666,1.2670739174687655,0.6462090575109986,1.4160655909284396,1.0115209687811682,,,0.6528756675646988,inf,,,0.9556167470635029
602,,0.0,0.0,1.7122952287929962,1.7072294460717672,0.4883267037031174,1.308189747733909,1.0122316143298526,,,0.6309483474627791,inf,,,0.7000820861134064
603,,0.0,0.0,1.5253224635625027,1.4789478191760426,0.8581189743967109,1.0386468624050873,0.9017009387794646,,,0.6333676938231112,inf,,,0.902631129938181
604,,0.0,0.0,1.6740790073517138,1.6653059793441847,0.7695923478178243,1.080784487396901,0.8227398732209263,,,0.6097226960127671,inf,,,0.9540952614418304
605,,0.0,0.0,1.66405851111117,1.634417225502533,0.768718832796399,1.7260261694321273,1.227427743176784,,,0.6207552362147116,inf,,,0.9486513953438576
606,,0.0,0.0,1.281967795742622,1.2458677539730374,0.7772178064066254,1.1933517124570598,1.0288716521219619,,,0.6180765742263259,inf,,,0.9323604340717575
607,,0.0,0.0,1.7169511692478308,1.6876945727775263,0.8861275809203984,0.9769654616108385,0.8240937304879379,,,0.6357360191111145,inf,,,0.902599588462454
608,,0.0,0.0,1.7247569745928855,1.6805887931249164,0.8221452440653021,1.3252095388994516,1.0969712746506342,,,0.6008849035917525,inf,,,0.9291275468332069
609,,0.0,0.0,1.6114356926233495,1.6000060118767936,0.7707692961818545,1.3928517857293672,0.9681156703625384,,,0.6425374456860184,inf,,,0.9444612464346277
610,,0.0,0.0,1.5411371545253345,1.5222042652870755,0.714536121684845,1.8893887778901295,1.2011183422387495,,,0.6447042257417027,inf,,,0.9404359979686119
611,,0.0,0.0,1.4363078628376598,1.4052897026951927,0.7153278477091498,1.4480950318311363,1.121904961398237,,,0.6284777104787076,inf,,,0.9183526194419729
612,,0.0,0.0,1.7189606943419775,1.7117627249350746,0.8696798873939504,1.1321083817659607,0.8943667454547515,,,0.62595550513784,inf,,,0.9347743344308347
613,,0.0,0.0,1.7403122080745568,1.737436940541899,0.8519004874059539,1.1671682868627473,1.0023254191592361,,,0.6333676938231112,inf,,,0.9502285327411243
614,,0.0,0.0,1.6879002026343113,1.6875701876567055,0.7280493808390863,1.8896289048793262,1.22864911068231,,,0.6566669596287297,inf,,,0.9385118756919882
615,,0.0,0.0,1.4381866079406311,1.4180051777342286,0.8252998059082632,1.8736875427706328,1.059134700759656,,,0.6153451465759925,inf,,,0.9397036506117258
616,,0.0,0.0,1.7393477176775496,1.7330789072062176,0.8232306561612169,1.485979317438976,1.3296543479895195,,,0.62595550513784,inf,,,0.9453101797178178
617,,0.0,0.0,1.4231405126526584,1.4076958909449202,0.6299608223861995,1.036289524781753,1.0273546277016066,,,0.6403206450210053,inf,,,0.694157024193264
618,5.703782474656201,-0.4753152062213501,0.0,1.3134452866899762,1.2931974311598913,0.65145968911068,1.4853622749638973,1.1253805730039628,,,0.6207552362147116,8.1886891244442,inf,,0.8851188944306341
619,,0.0,0.0,1.7237622713241856,1.7306361722488324,0.8416410180701599,1.807234751911112,1.3297496424047288,,,0.6380535849069913,inf,,,0.9552999250170395
620,,0.0,0.0,1.4070578141305343,1.3537170914713514,0.7663869272738802,2.2081578047430077,1.5145618202826387,,,0.6180765742263259,inf,,,0.9607836300472972
621,,0.0,0.0,1.6369316237780365,1.5457269229644353,0.8749295677098868,1.611654737521732,1.4165182558409959,,,0.6447042257417027,inf,,,0.9563421461340491
622,,0.0,0.0,1.392108562042273,1.3985722468977078,0.7183590275383392,2.108984725102336,1.4178179996244618,,,0.6403206450210053,inf,,,0.9558264434100431
623,,0.0,0.0,1.7422018426350314,1.7079196787131756,0.9077594973447296,2.2966963234882543,2.00501629991908,,,0.6333676938231112,inf,,,0.9429669468572639
624,,0.0,0.0,1.6875561740351088,1.650398713064598,0.8224562951255239,1.8529983831280543,1.478949555502492,,,0.6509067234006624,inf,,,0.9406049353045137
625,,0.0,0.0,1.5894340092933525,1.5507465610098388,0.9154355482286612,2.1658240561254987,1.8127256382589296,,,0.6357360191111145,inf,,,0.9465523953929476
626,,0.0,0.0,1.7294283994701702,1.6840649290617093,0.8631187718549036,2.2255934108812827,2.3647733009234853,,,0.6447042257417027,inf,,,0.9567878073779108
627,,0.0,0.0,1.7038527083479442,1.7054332041815916,0.8219881579203673,2.091179216866211,1.8508936005271162,,,0.6468212168108125,inf,,,0.9190788257252068
628,,0.0,0.0,1.6762500616457734,1.6919251775675257,0.7394045049521076,1.4829183868480236,1.0801885267873872,,,0.6403206450210053,inf,,,0.9060467137442257
629,,0.0,0.0,1.6930967194307955,1.6838749203479395,0.8231929542912365,1.1459472766216192,1.0842259094080684,,,0.6447042257417027,inf,,,0.9598309430278492
630,,0.0,0.0,1.6737953706981286,1.5884155727060505,0.8041613043217091,2.312632391743008,1.5346905097805879,,,0.6333676938231112,inf,,,0.9530679168149738
631,,0.0,0.0,1.7404812740896611,1.7305443272413237,0.7674621470512032,2.003045548948599,1.8222484106067878,,,0.6447042257417027,inf,,,0.9524364694481006
632,,0.0,0.0,1.6228743633410914,1.5939939558218335,0.6406221497709017,1.948162326522603,1.3121176514510282,,,0.6509067234006624,inf,,,0.6782353877021978
633,,0.0,0.0,1.7262037593851796,1.7203568046946198,0.7372762660179972,2.4335630423282066,3.098388534834803,,,0.6380535849069913,inf,,,0.9412504377545217
634,,0.0,0.0,1.7145471665683278,1.683446587025983,0.858427933587342,2.1208220802631232,2.234145076798201,,,0.6038851895711802,inf,,,0.9481462161210787
635,,0.0,0.0,1.6218460587744394,1.5693187145722833,0.8177498948381791,0.9666069749249273,0.8804167674677162,,,0.6309483474627791,inf,,,0.9338803697956521
636,5.443159134765663,-2.267982972819026,0.0,1.3397370298462072,1.270793552755792,0.7484503398107103,0.8056215431331543,0.6511570655564067,,,0.6333676938231112,6.260070472498949,inf,,0.6696880351639084
637,5.703782474656201,-0.19012608248854004,0.0,1.5871338619645259,1.575519443976579,0.8802162567263476,2.4920496608900686,2.1021240028253683,,,0.6684167106117298,9.104979856318357,inf,,0.6083931840021446
638,,0.0,0.0,1.4497805625960765,1.3873376876777952,0.7874359619954933,1.8754679619051842,1.0904450506448586,,,0.6153451465759925,inf,,,0.9543692128938135
639,,0.0,0.0,1.4393541310333382,1.4090895967924568,0.7535916764493278,0.774627745854213,0.573995830877902,,,0.6357360191111145,inf,,,0.9446405954998824
640,,0.0,0.0,1.5981867876335913,1.563496723743481,0.763905137908001,1.707840980506596,1.621088542439056,,,0.648888643467878,inf,,,0.8453020792078355
641,,0.0,0.0,1.7435076558329539,1.7402166102528422,0.812371925009968,1.964543164548484,1.7227996191598915,,,0.6547956803312163,inf,,,0.8683734255341852
642,,0.0,0.0,1.632999941006342,1.6194956149303643,0.6896910906046974,2.1816909850683133,1.800914228883208,,,0.6333676938231112,inf,,,0.6797061598745657
643,,0.0,0.0,1.498026397226893,1.4552267796029117,0.8413056265357222,1.2506238013190938,0.7876271654696165,,,0.6068309995095971,inf,,,0.9292166064873811
644,,0.0,0.0,1.6357641472975812,1.5351572000988558,0.8590721950731931,1.3682147726632026,0.8085610290616803,,,0.6528756675646988,inf,,,0.9598246132404339
645,,0.0,0.0,1.5451160257641312,1.5310754967066282,0.8223626028843208,0.6160337348135986,0.47419683739983154,,,0.6447042257417027,inf,,,0.9539358242953718
646,,0.0,0.0,1.7283503269566292,1.7187477463588154,0.7906336147889805,1.1705736833715965,0.6500506193169884,,,0.6357360191111145,inf,,,0.942712471188551
647,,0.0,0.0,1.7254170117383503,1.7124573163926058,0.6717196380767919,2.4449818465388966,2.475010124198766,,,0.6380535849069913,inf,,,0.7344582048417974
648,,0.0,0.0,1.7270657436454955,1.7162253384930894,0.7953157295305053,2.058400601888379,1.1324028261360009,,,0.6584896970785714,inf,,,0.933286367674122
649,,0.0,0.0,1.7094928434610641,1.7116074546601132,0.8132668485131671,2.034792636132889,1.1752725491674525,,,0.6566669596287297,inf,,,0.9052326658021493
650,,0.0,0.0,1.614367496575996,1.6053873217869095,0.7998661917495032,2.076652788137464,1.2586748293734629,,,0.6180765742263259,inf,,,0.9069126987578241
651,,0.0,0.0,1.70238748999778,1.6512243564731042,0.768203434743357,2.561457794899201,1.814691308119079,,,0.6566669596287297,inf,,,0.945510684530059
652,,0.0,0.0,1.7116136135256608,1.693590350880899,0.8929693819754242,0.34451376999332867,0.6079960634990667,,,0.5068466436745385,inf,,,0.9144018255976776
653,,0.0,0.0,1.5903322390074395,1.5622367700624709,0.8288316630590767,0.2524161969119458,0.4095354165269016,,,0.524519217297268,inf,,,0.9182739309905578
654,,0.0,0.0,1.4513299198153768,1.4333729373815527,0.6866449332795134,0.2183803954682194,0.31050860658080737,,,0.5329562494928909,inf,,,0.9571204338638911
655,,0.0,0.0,1.7026228786849171,1.674844116480385,0.9236736350036702,0.1161757274132034,0.21480248453384176,,,0.5068466436745385,inf,,,0.8468326721899269
656,,0.0,0.0,1.6365508644082567,1.5826797693186463,0.9413805245378928,0.193201597458784,0.30301499849088853,,,0.524519217297268,inf,,,0.8977536431631166
657,,0.0,0.0,1.3800474281214106,1.3712738718092252,0.7591038219368058,0.12805509484829783,0.1937815787808292,,,0.4928685327679205,inf,,,0.887361964110512
658,,0.0,0.0,1.684747228195178,1.6835303953824075,0.8095065698703856,0.1850632612113331,0.3006097420259056,,,0.4928685327679205,inf,,,0.9068132237305232
659,,0.0,0.0,1.71728037521948,1.727935763796675,0.9043431785228812,0.22687592607624169,0.31373934266940307,,,0.5677978065141052,inf,,,0.8904250263849669
660,,0.0,0.0,1.5981332863966187,1.515214483484862,0.6564709504529435,1.0794995604243691,0.5559774252928051,,,0.5915533975974677,inf,,,0.9537141742489957
661,,0.0,0.0,1.1124071349789753,1.0621149619720542,0.7268252535226183,0.35847685117426814,0.44772469075861254,,,0.5604843169999094,inf,,,0.9115863354968555
662,,0.0,0.0,1.701274929970689,1.673856943603868,0.9080261482500106,0.06625579790203402,0.07610239745741076,,,0.5783247308855777,inf,,,0.8042832524991854
663,,0.0,0.0,1.4588854064502323,1.4589055651996474,0.8337042356196924,0.024787507395212703,0.03211810356151786,,,0.5113665138247345,inf,,,0.8257952280341859
664,,0.0,0.0,1.475845295657519,1.4506305611167247,0.8617264893873317,0.019541981050509517,0.02965828430470117,,,0.5567373465730988,inf,,,0.8157537360473968
665,,0.0,0.0,1.6924096630624386,1.6908307348049005,0.9070727498440533,0.041969094368098335,0.06638906121076789,,,0.5748741956352443,inf,,,0.8776290254243312
666,,0.0,0.0,1.4799127615477958,1.4689281830876788,0.8755787562189516,0.13573898782622257,0.17529473919532645,,,0.5713653840954815,inf,,,0.8646997798894425
667,,0.0,0.0,1.1904413936422293,1.187227196620247,0.7607690934168135,0.11139310603903362,0.16686470378413235,,,0.5713653840954815,inf,,,0.8406409381065173
668,,0.0,0.0,1.5267291704042496,1.5182122113723757,0.7038612576744183,0.1862071496442993,0.14934301879337397,,,0.6097226960127671,inf,,,0.9472539134861944
669,,0.0,0.0,1.7004659892933036,1.6471195134991932,0.9372431627292789,0.16583342128745898,0.24766579320968504,,,0.5567373465730988,inf,,,0.8870522005237119
670,,0.0,0.0,1.5917986930226022,1.5614609249345284,0.8871751074615448,0.12387766714208602,0.13962825257507944,,,0.6008849035917525,inf,,,0.8568733182901402
671,,0.0,0.0,1.6360257871391939,1.5760257724216755,0.8699043884930916,0.1047554130203875,0.13296811723957336,,,0.5567373465730988,inf,,,0.9095897368944121
672,,0.0,0.0,1.6347503512357062,1.6152171994276034,0.6270521672771203,0.17682647459544093,0.21941289495463032,,,0.5641709578113449,inf,,,0.9629974956576132
673,,0.0,0.0,1.4913983775227602,1.4949912107439483,0.6450023178842628,0.1546305310187076,0.18783162485508584,,,0.4928685327679205,inf,,,0.9353614802407525
674,,0.0,0.0,1.715860417164877,1.6956772369290147,0.7365804392283698,0.30442537816421866,0.2332103278229627,,,0.6233814453054027,inf,,,0.9393226820999181
675,,0.0,0.0,1.6926032880020996,1.685086120336784,0.8748693386216893,0.17410032990836138,0.2285671623361198,,,0.5567373465730988,inf,,,0.86092738735098
676,,0.0,0.0,1.7697115272674238,1.7225653087432666,0.9458782149626697,0.2236775571815659,0.2817029068076692,,,0.6097226960127671,inf,,,0.8742140086127653
677,,0.0,0.0,1.6482665121334246,1.623062588041879,0.41421100190321714,0.2672579916206635,0.2507275185795192,,,0.6068309995095971,inf,,,0.968187013403917
678,,0.0,0.0,1.5072017211141995,1.4994205846072695,0.8405566110027722,0.09696626550595999,0.12160216306591079,,,0.5451288209179292,inf,,,0.8222669276647647
679,,0.0,0.0,1.2178677710393817,1.0961524276249401,0.4636563873943426,0.34946501211952025,0.2133188486840572,,,0.5783247308855777,inf,,,0.9616104804269312
680,,0.0,0.0,1.5830088924172436,1.5546446683523778,0.49841464296626786,0.3062170611741005,0.3760978272507975,,,0.5329562494928909,inf,,,0.8243473677992348
681,,0.0,0.0,1.137047644520193,1.0616398957247286,0.571663931796436,0.19503740685534918,0.21585012343552762,,,0.5713653840954815,inf,,,0.6895652904044545
682,,0.0,0.0,1.7822014042457197,1.76459486726342,0.8997768341273225,0.07533739242635763,0.11279585352527532,,,0.581717464821069,inf,,,0.8094789452366374
683,,0.0,0.0,1.6191650955167993,1.6137805498474622,0.8929228411683952,0.09643832663423381,0.1431495907722915,,,0.5748741956352443,inf,,,0.8194154037965652
684,,0.0,0.0,1.6244848300995092,1.6169038364595028,0.8623388961509675,0.10280598440555416,0.15087318606529365,,,0.5022576003740722,inf,,,0.8499949043367818
685,,0.0,0.0,1.631463828446282,1.623735763948688,0.8849353362022013,0.11621912318567003,0.1841416963973308,,,0.5451288209179292,inf,,,0.840094272114148
686,,0.0,0.0,1.5818091515068227,1.5636510340938714,0.8984345123932672,0.18092057062167707,0.2698415711850791,,,0.5641709578113449,inf,,,0.8699567923412067
687,,0.0,0.0,1.5383076558769968,1.5235786145294319,0.8731991644570063,0.40811142046446114,0.7053552287693308,,,0.49759852643134905,inf,,,0.9042125239295224
688,,0.0,0.0,1.7225635254415421,1.7077599655865419,0.9605443387030148,0.27686249441286753,0.5084514523702317,,,0.5158180382284114,inf,,,0.8917566074000811
689,,0.0,0.0,1.319925836737654,1.2271576731322236,0.7325650559295637,0.26508683692664203,0.27939362336623785,,,0.5748741956352443,inf,,,0.927155292098225
690,,0.0,0.0,1.6877766582987384,1.6700978059387905,0.9271830385824157,0.2437234901966272,0.3647220408459802,,,0.541134803179459,inf,,,0.8814176784601949
691,,0.0,0.0,1.6286129435334167,1.52922179601363,0.7551342257580749,0.14375254172498614,0.15381611433292544,,,0.6038851895711802,inf,,,0.9433712744298594
692,,0.0,0.0,1.6598275311885102,1.6654393468963706,0.4873683827206495,0.3277756818184331,0.35472215841013194,,,0.5370774965580548,inf,,,0.9676790226240151
693,,0.0,0.0,1.7132491224482553,1.7145709581649253,0.9347346958063648,0.44330962986097905,0.6744161409507026,,,0.5451288209179292,inf,,,0.8904517777794873
694,,0.0,0.0,1.641131085787177,1.6386068022501514,0.8745093508975704,0.4835268551221809,0.7328103142809106,,,0.5451288209179292,inf,,,0.9155670432313704
695,,0.0,0.0,1.669074359661799,1.6455534358816126,0.9041023601111151,0.447689983569452,0.580832878899999,,,0.5783247308855777,inf,,,0.904606668660412
696,,0.0,0.0,1.5792938744621328,1.5570575100380106,0.8903435769724991,0.5065340250393515,0.6944485172867956,,,0.5883313578629602,inf,,,0.9075358127949593
697,,0.0,0.0,1.6598168189044125,1.6698057083114688,0.7298854524371614,1.3836131087856494,1.0327292083264907,,,0.6008849035917525,inf,,,0.7516902855810464
698,,0.0,0.0,1.5371086353756414,1.5101842650009234,0.868009526508739,2.242539914728769,3.2008546881786115,,,0.5978297680564633,inf,,,0.9456415752534985
699,,0.0,0.0,1.5783775373648914,1.590468565656021,0.731818390747974,1.74640905114487,2.5088861414211028,,,0.5713653840954815,inf,,,0.9088754287386397
700,,0.0,0.0,1.4784564884970581,1.475044513116934,0.5669635719879111,0.46251118806536096,0.5320499655336914,,,0.5947193981915972,inf,,,0.6337666625170683
701,,0.0,0.0,1.6680047716657616,1.6330821373447226,0.5159058212910844,0.6770620985186196,0.5146777801698778,,,0.5783247308855777,inf,,,0.8566906548577595
702,,0.0,0.0,1.6974336399492294,1.6593254719858068,0.7795413070855273,1.2023952633113906,1.062363798278425,,,0.6153451465759925,inf,,,0.9491492110213808
703,,0.0,0.0,1.6904020304435794,1.6370066677943196,0.7002574043249786,2.1475195747064957,2.340159857090492,,,0.6068309995095971,inf,,,0.9372909442493179
704,,0.0,0.0,1.6080711601654454,1.576755794290954,0.47041188696776304,1.7397577604672523,2.0969454383512467,,,0.5158180382284114,inf,,,0.9502806183078429
705,,0.0,0.0,1.591386416443854,1.5890944680617078,0.7730886887690772,1.2559263366048141,0.7970867491010245,,,0.6447042257417027,inf,,,0.9383589723994014
706,,0.0,0.0,1.707705421938222,1.6636586066164945,0.868681944208438,0.9162052828962424,0.6087824545602329,,,0.6309483474627791,inf,,,0.9512039103273079
707,,0.0,0.0,1.6901319524004796,1.6783117945836155,0.8765639289827398,0.4872333837511127,0.48890889037730806,,,0.6357360191111145,inf,,,0.9430901912439406
708,,0.0,0.0,1.5713806086832158,1.571086491242435,0.7212322725607709,1.2035427078827634,0.891204977343987,,,0.6380535849069913,inf,,,0.9400455612073274
709,,0.0,0.0,1.4447795292365628,1.409053038734479,0.8308751114516945,1.3522063632193564,0.9789505800780627,,,0.648888643467878,inf,,,0.9307556763667129
710,,0.0,0.0,1.7419667018866651,1.7188981226285953,0.7244002060276127,1.1515543537634163,0.9027086371605078,,,0.6097226960127671,inf,,,0.9416329557594572
711,,0.0,0.0,1.7378342766906605,1.7211643927678157,0.8681806296594144,0.706022190105649,0.6320680387476503,,,0.6309483474627791,inf,,,0.9455061196484318
712,,0.0,0.0,1.7309347548209364,1.72649349869246,0.8687060068418722,1.2106380123364293,0.7966856931135604,,,0.6357360191111145,inf,,,0.9543666208400479
713,,0.0,0.0,1.6120822263457943,1.6376238144555584,0.763344689465597,0.5653267577780701,0.4528553599444536,,,0.581717464821069,inf,,,0.9354909493299443
714,,0.0,0.0,1.632586057095852,1.6305109632312824,0.8204552915670552,1.3145301402979261,0.7276767902289907,,,0.6425374456860184,inf,,,0.9441599447005385
715,,0.0,0.0,1.7051025801822464,1.6718355281892001,0.8308361279054565,1.9013970018096833,1.9266920796508253,,,0.6528756675646988,inf,,,0.9355500956638304
716,,0.0,0.0,1.5023674334659567,1.483860845044959,0.7292258845085157,1.560044131296876,1.2750422208852978,,,0.648888643467878,inf,,,0.9478070619189547
717,,0.0,0.0,1.242596305268591,1.235273872948148,0.6952259647299113,1.6156665368657777,1.6345845524669733,,,0.6207552362147116,inf,,,0.9597904419109095
718,,0.0,0.0,1.6327605234035165,1.5833131507044231,0.657214821492195,1.1545462857879443,1.019427589382345,,,0.6153451465759925,inf,,,0.909313645122588
719,,0.0,0.0,1.6554674959895026,1.6377830083015321,0.7444560520733464,1.886101936201479,1.8947795794670697,,,0.6097226960127671,inf,,,0.9253793598076199
720,,0.0,0.0,1.5930126067893307,1.5437796225545277,0.865356696229099,2.220109145085415,2.090115229407991,,,0.6207552362147116,inf,,,0.9499197650232106
721,,0.0,0.0,1.4492319629026325,1.4014735744950748,0.7735941406386285,1.590168672056931,1.4775775154295745,,,0.6153451465759925,inf,,,0.9578900096829579
722,,0.0,0.0,1.1952637670928676,1.1167875659100552,0.6243182126187433,0.5527850127653929,0.4798126405253491,,,0.5567373465730988,inf,,,0.9511943138620195
723,,0.0,0.0,1.4158108474024618,1.3647401232028555,0.8272504116441783,1.0729852054129305,1.20271606302189,,,0.5978297680564633,inf,,,0.9164423117245524
724,,0.0,0.0,1.6308769637446,1.6189043131950076,0.7360979280767633,0.559458880409944,0.6794027821842449,,,0.5978297680564633,inf,,,0.9466134865537718
725,5.7037824746562,-3.1751055775586177,0.0,1.2807974216578653,1.2586552925272108,0.5515799839708991,2.5222009189336427,2.23754976927031,,,0.6309483474627791,6.289571136895647,inf,,0.7765252888578191
726,,0.0,0.0,1.6361234166716585,1.6228173718936638,0.7438475542843753,3.1316344159740463,3.3118411278866358,,,0.6380535849069913,inf,,,0.9016911173786722
727,,0.0,0.0,1.5079363850457592,1.4563303360289868,0.8042853955883735,2.4260829940883832,1.7525565306332829,,,0.6468212168108125,inf,,,0.9469584493969682
728,,0.0,0.0,1.5066273976317124,1.4286056529864846,0.7152084539493766,1.401350697638637,0.9795378924794906,,,0.6509067234006624,inf,,,0.9649135072641024
729,5.195549304132936,-2.564737375448086,-0.17158525806192704,1.6500816102489944,1.563306619377715,0.5711070854226887,1.2804947683676968,0.8465426992552749,3.8540519085095664,,0.6333676938231112,5.755075769043752,3.455264602932431,inf,0.711242418224953
730,,0.0,0.0,0.8432988489798663,0.8152420507578488,0.6952486884887678,1.2888957092987383,1.2552370040825906,,,0.5748741956352443,inf,,,0.9410098238970693
731,5.703782474656201,-0.45630259797249606,0.0,1.7148491457487707,1.6615828859262542,0.7906015968907791,2.3094379287662803,1.7231829600439221,,,0.6425374456860184,8.229511118964457,inf,,0.7707568650677559
732,,0.0,0.0,1.4055466846549904,1.3886580259918686,0.7271838291313206,1.8480307596665233,1.7201246474929688,,,0.6357360191111145,inf,,,0.945580862925002
733,5.646967131987351,-1.1482166501707614,0.0,1.4702018585343481,1.456999698611799,0.7692564319325053,3.0359316204714952,2.0512609481475734,,,0.5978297680564633,7.217910207285977,inf,,0.7556775246146126
734,5.703782474656201,-0.7985295464518681,0.0,1.7225185530161597,1.6912501618740274,0.7611315975607366,2.8023203890439574,1.908710236870879,,,0.6403206450210053,7.669895331029034,inf,,0.7877704742604822
735,,0.0,0.0,1.6760491542616576,1.6277433457574504,0.6923845537880728,2.576716576757991,1.747138438970346,,,0.6528756675646988,inf,,,0.9300915157787945
736,,0.0,0.0,1.6565222330058467,1.6596346403641329,0.5836352901171966,2.5479286349137906,1.7853183177185992,,,0.6468212168108125,inf,,,0.7675684485459372
737,,0.0,0.0,1.5420653639208879,1.5487205117624345,0.7324865820094986,2.8367972129938717,2.334311195874618,,,0.62595550513784,inf,,,0.7557859365158132
738,,0.0,0.0,1.6995652533191818,1.645279260326335,0.7831593385404774,2.068428364181542,1.232409325723678,,,0.6619902821573977,inf,,,0.9538841676307083
739,,0.0,0.0,1.6462384316649863,1.5859742606682898,0.6605298761541523,2.274441547269196,2.542152728738319,,,0.6333676938231112,inf,,,0.7287216494338103
740,,0.0,0.0,1.4041704607836851,1.3586832450818582,0.7782917729812302,1.7628117849663534,1.3131932135419457,,,0.6668815377411301,inf,,,0.9593178813765741
741,,0.0,0.0,1.578538852332492,1.5487232356938274,0.7440362208771291,2.941677964015237,4.009015575148068,,,0.648888643467878,inf,,,0.9482036023464848
742,,0.0,0.0,1.714603992234459,1.7058111577261577,0.8385886352960941,1.826959304503474,1.6990562553908637,,,0.6097226960127671,inf,,,0.896191524533682
743,,0.0,0.0,1.688850270169982,1.665453245659228,0.6889060353147249,2.544913725693434,1.764014391938355,,,0.6528756675646988,inf,,,0.8866488758418895
744,5.703782474656202,-0.8365547629495762,0.0,1.6658001121408885,1.629803450032151,0.6649987454956185,3.6099146017100217,3.455012053969372,,,0.6180765742263259,7.623375315394141,inf,,0.7959353918812567
745,5.703782474656201,-0.15210086599083203,0.0,1.4894180807857595,1.4642955518673857,0.6064171840714775,2.8508032261484217,2.0416181529046913,,,0.6403206450210053,9.328123407632566,inf,,0.8961584660051922
746,,0.0,0.0,1.7401402719204002,1.6563038627113487,0.8254777139724587,2.0781929233417404,1.4064930157997635,,,0.6509067234006624,inf,,,0.8950856985040426
747,,0.0,0.0,1.6191705600658184,1.5961109960641513,0.7974729947171595,2.1878020432071947,1.7688511661992141,,,0.6547956803312163,inf,,,0.9522870414597497
748,,0.0,0.0,1.605914279438355,1.5941702307209038,0.7372595508145507,1.8354126075544386,1.3251431589937064,,,0.6652988471865258,inf,,,0.9321465345113417
749,,0.0,0.0,1.6461917056038309,1.6169114584270197,0.632803872507894,2.503093217913333,1.9462747204930193,,,0.6584896970785714,inf,,,0.605472902085992
750,,0.0,0.0,1.6224943292961438,1.5961575501407068,0.7593404787699284,2.3908765512945145,0.9247520872719877,,,0.6333676938231112,inf,,,0.9269591844354923
751,,0.0,0.0,1.7426961148341271,1.7162192822778795,0.7812349598351397,1.7934614230145214,0.8750862293665629,,,0.6447042257417027,inf,,,0.9533697904491345
752,,0.0,0.0,1.7235111226982953,1.6738850916224444,0.7702087169605704,1.775304798963062,1.3836445702903195,,,0.6547956803312163,inf,,,0.9208315768129002
753,,0.0,0.0,1.697880725317912,1.6548086522674292,0.6861388659364782,1.4451035208299958,1.0235961045462745,,,0.6357360191111145,inf,,,0.8958986644685768
754,,0.0,0.0,1.7657342525181132,1.7609087593468011,0.8466636775730587,1.5851822130112314,1.0729032516855872,,,0.6425374456860184,inf,,,0.9213833216917984
755,,0.0,0.0,1.7263328114103667,1.7137084532010123,0.8048681343128135,1.151157471297713,0.9423759424594809,,,0.6425374456860184,inf,,,0.8928474457687159
756,,0.0,0.0,1.6496840506825527,1.5673001633117563,0.8298733358795142,1.8378199842508065,1.1415230290564744,,,0.648888643467878,inf,,,0.9351533084491663
757,,0.0,0.0,1.5554309777346107,1.482981928809583,0.753011760847994,1.9333991259203251,1.252004030138365,,,0.6584896970785714,inf,,,0.9458587350568148
758,,0.0,0.0,1.6455666735141008,1.6093766648101089,0.761727559838497,1.484618676895095,1.0357433491176262,,,0.6233814453054027,inf,,,0.9318361114204916
759,,0.0,0.0,1.7410417031486747,1.6987251549533802,0.7667930970071399,1.6540735095091266,1.0880201131733243,,,0.6447042257417027,inf,,,0.9000708973467415
760,,0.0,0.0,1.7362620079858604,1.6993932610371432,0.8226020796145871,1.7876304860320347,1.466709136454001,,,0.6309483474627791,inf,,,0.9355552661127767
761,,0.0,0.0,1.6751502216246532,1.6455278804670959,0.7720515181384917,1.2528586754877769,0.8420419461712438,,,0.6547956803312163,inf,,,0.9534879939976303
762,,0.0,0.0,1.7338701840381523,1.7006303323420715,0.77220236823568,1.6261812661590225,0.7655116836973253,,,0.6528756675646988,inf,,,0.9122987056142868
763,5.437858084630057,-2.8820647848539305,0.0,1.6438588192114993,1.5995821872228904,0.6437063369503953,3.3074118934275405,4.09366682186533,,,0.6509067234006624,6.013937402960041,inf,,0.6795849802111286
764,5.7037824746562,-1.292857360922072,0.0,1.5131020522972196,1.5140622988622328,0.6412776593075887,2.8617978919536062,2.8454812850605635,,,0.62595550513784,7.188057244136296,inf,,0.7899230613852353
