,bvp+hr_XAp0,bvp+hr_XAp1,bvp+hr_XAp2,bvp+hr_XCond1,bvp+hr_XCond2,bvp+hr_XDist,bvp+hr_XFuzz1,bvp+hr_XFuzz2,bvp+hr_XK2_1,bvp+hr_XK2_2,bvp+hr_XPermEn,bvp+hr_XSamp0,bvp+hr_XSamp1,bvp+hr_XSamp2,bvp+hr_XSpec
0,5.703782474656201,-0.874579979447284,0.0,1.507240137326047,1.4495826953105315,0.7368055867987956,3.26559921514538,3.7624826201493797,,,0.6403206450210053,7.578923552823307,inf,,0.6072615027307633
1,,0.0,0.0,1.5890891979693125,1.5596691599581771,0.6459364817638767,3.3150774845948785,3.263360635352916,,,0.6447042257417027,inf,,,0.8759334600882658
2,5.530651183418477,-4.5720049782926075,0.0,1.6346727282991291,1.597540964561257,0.6640665568178017,2.798344276811262,1.846997686665341,,,0.6380535849069913,5.6486631754351215,inf,,0.8515225610067106
3,4.121515103578389,-4.121515103578389,0.0,1.6647611754057414,1.6438543648585566,0.8043598451364395,2.4379991805836214,1.058576908429984,,,0.6425374456860184,4.060909786135864,inf,,0.7335640880574077
4,5.196042008189483,-3.11762520491369,0.0,1.6891263839432094,1.6552759462121756,0.723993454173109,2.7401214666446005,2.1650956145478677,,,0.6509067234006624,5.584519053829383,inf,,0.6567790790966354
5,5.703782474656201,-3.4222694847937207,0.0,1.6701084001337037,1.6822382689060633,0.7429835513102456,2.3666821103589664,1.7153074183043415,,,0.6468212168108125,6.214608098422191,inf,,0.615300714639702
6,5.473323341680648,-5.254390408013422,0.0,1.6265253123490075,1.6205108332757203,0.6957264327363006,3.0759206808340585,2.0433988570425408,,,0.6403206450210053,5.44914025628262,inf,,0.6933028849816184
7,4.650473321801101,-3.270832903000108,0.0,1.403372666784815,1.368145579476766,0.7635006997667643,3.24678881057289,2.057839910047398,,,0.6309483474627791,4.881070089741612,inf,,0.7341429425657002
8,5.020726886729637,-3.10991552339531,-0.5719508602064234,1.6680869862995213,1.6112316695235012,0.743716764644773,1.8172118141868798,1.2094073533480716,3.065594548145296,,0.6584896970785714,5.244250145277761,2.762117422372486,inf,0.5260764632949887
9,5.53177928540614,-4.978601356865526,0.0,1.75396935706743,1.706624281756736,0.6565571717698628,2.509582282628858,1.8449414392301406,,,0.6652988471865258,5.58748201896004,inf,,0.8980538824413193
10,5.689946494198842,-4.912320473325,0.0,0.6689041711404518,0.6600932951521381,0.5535470550141973,1.002446513229239,0.8815131959590102,,,0.6068309995095971,5.82783512332618,inf,,0.6187651725086264
11,5.703782474656201,-0.45630259797249606,0.0,1.6088917977674027,1.6032764897131242,0.5539149264867883,2.0428661207758005,1.5991318432914285,,,0.6357360191111145,8.229511118964457,inf,,0.7590122421162607
12,5.247319697214285,-1.4342673839052378,0.0,1.642535745874179,1.614155771255069,0.6992054850884982,2.259117284932652,1.6038555794144473,,,0.6403206450210053,6.49491006357635,inf,,0.47239971103243605
13,5.688206133520022,-3.3750023058885463,0.0,1.4752278588779781,1.409721652022447,0.6701662692470993,1.9284069248851536,1.7567946548525968,,,0.5783247308855777,6.203558262235607,inf,,0.7332102198787447
14,5.7037824746562,-1.273844752673218,0.0,1.552667456718991,1.5461281400454812,0.5413530195450652,1.3720909546096178,1.0353001879036774,,,0.6008849035917525,7.202872329921436,inf,,0.5647393963187035
15,5.094938444991353,-3.532490655194005,0.0,1.6465793205896446,1.6575967994418022,0.5461769609739249,1.5891029563683063,1.36459237209275,,,0.6207552362147116,5.364932115630021,inf,,0.8196718273241301
16,,0.0,0.0,1.5239194150245994,1.4996341710171488,0.4405119234030299,1.0622029894348781,1.0898834459285616,,,0.6207552362147116,inf,,,0.8628466333695485
17,5.6043436386265055,-4.427431474514939,0.0,1.3687433477429998,1.3682300071066578,0.7071807204472607,1.8410759540601773,1.4549399047541962,,,0.62595550513784,5.805446128432701,inf,,0.5865162081138892
18,5.703782474656201,-0.7985295464518681,0.0,1.4184817150115154,1.3973957083782858,0.668050161119902,1.6395910083743641,1.3074016567130577,,,0.5883313578629602,7.669895331029034,inf,,0.7710023525253766
19,,0.0,0.0,1.4659071381796374,1.4386997663088472,0.671412925591224,2.8077556931293386,1.3402654872100261,,,0.5947193981915972,inf,,,0.7336873890121338
20,5.340838994858816,-4.8601634853215225,0.0,1.5363846846040383,1.4924152938671607,0.6304126429271952,2.6518506888233744,2.3607395524045023,,,0.5978297680564633,5.291672823829368,inf,,0.7751835719529806
21,5.566954767312553,-3.8968683371187867,0.0,1.6303815598416027,1.633165409031066,0.5922889603817073,2.3764961502151913,2.0889428314312957,,,0.648888643467878,5.843044541989709,inf,,0.4407607380608056
22,5.703782474656202,-1.8632356083876926,0.0,1.780025297583448,1.7486358027322375,0.5654832887506406,2.0390066053865015,1.7341363802233016,,,0.6125606311107803,6.82259747064183,inf,,0.7687824764018816
23,4.896417948603378,-2.5951015127597903,0.0,1.6166193092647403,1.5884816442300358,0.8201439531261414,4.674742391904064,6.892211832062925,,,0.648888643467878,5.406150071351252,inf,,0.8604742473461924
24,4.887617108965491,-1.655213344251616,-1.2773569211276792,1.4752130707823192,1.4728655805669653,0.7482301605019609,3.062440500296301,2.947820703494984,1.9986557669950848,,0.6425374456860184,5.259096653394756,1.9437756765266807,inf,0.8181752799572601
25,5.215850990601274,-5.024603120945894,0.0,1.6584101452159543,1.6070472235631237,0.6885223723660069,2.4513785324908626,2.0688883626758425,,,0.6468212168108125,5.155661066146513,inf,,0.8672662354535311
26,5.459356883722741,-2.6932827293032187,0.0,1.6333710634055238,1.5276602702146733,0.7585049895747163,2.572206860645668,2.244809205931668,,,0.6207552362147116,6.0796887805228215,inf,,0.7771099001035604
27,4.918373156364316,-4.918373156364316,0.0,1.6270169312917588,1.5801543128189524,0.7989914928178671,3.811621954801801,1.7616281427302858,,,0.6403206450210053,4.7117660322539106,inf,,0.7120573191879813
28,5.469898456675851,-2.9719781614605454,0.0,1.6995217740052413,1.618988363408237,0.7298654714719934,2.1329428809036552,1.8296474331255452,,,0.62595550513784,6.023069886523313,inf,,0.8503957459629722
29,5.408513397585232,-3.7499026223257608,0.0,1.2931346010338718,1.2894530560785566,0.59940584012871,1.9944976361943476,2.071111078394295,,,0.5915533975974677,5.697137931937532,inf,,0.6437274729868306
30,4.938809492663461,-0.9054484069883011,0.0,1.737499173905944,1.7290624624469861,0.7432643404048307,2.8715673736018723,3.8952156687535124,,,0.6284777104787076,6.587283383707366,inf,,0.8290500301545085
31,4.243612437060042,-2.6364750230675336,-1.6071374139925083,1.2638677127646818,1.174068970553897,0.7573833051947094,3.6443660925835557,3.2677209882733758,2.6641282253988097,,0.524519217297268,4.204159428229307,2.5982353350950036,inf,0.6571325653980341
32,4.5535680933918155,-4.5535680933918155,0.0,1.651153531860606,1.638450703210175,0.8310228036967318,3.923304456048311,1.4037836669735801,,,0.6284777104787076,4.538550498646695,inf,,0.7075216615630077
33,4.684477253810735,-4.543942936196413,0.0,1.6615270488230758,1.6228100927393634,0.7725153461509686,4.431370591444563,3.888173870217803,,,0.6509067234006624,4.534401115099884,inf,,0.7607609024286266
34,5.007525662374183,-5.007525662374183,0.0,1.7461062432331087,1.730592736095323,0.8032582393712385,5.38462995728234,50.25398260822318,,,0.6447042257417027,4.935218654811502,inf,,0.7291786053438124
35,5.014135123709999,-4.111590801442199,0.0,1.7420505728290978,1.7327212693913245,0.7993644925935188,4.884468970269678,12.091379125261398,,,0.6584896970785714,5.165341683857237,inf,,0.43541733584980147
36,4.504120513139509,-4.504120513139509,0.0,1.6072747339350275,1.537022581724608,0.691614084772224,3.4556340660610756,4.33687573064257,,,0.6425374456860184,4.470250868088721,inf,,0.49421225989590817
37,5.118918799048448,-4.504648543162634,0.0,1.7411231355917123,1.7408275207360753,0.773062959700695,3.2677735432665838,1.6199136341211107,,,0.6584896970785714,5.110455629378467,inf,,0.7781682765190082
38,4.938719493084918,-4.658858721810105,0.0,1.6881109901429263,1.66851105430903,0.8023440071296521,3.452962717291335,2.94424607326184,,,0.6468212168108125,4.838083528898106,inf,,0.7216861925895173
39,3.4500483339066643,-3.4500483339066643,0.0,1.6857707467089014,1.648112699068534,0.7744975521114664,4.659430568484863,17.58572803126505,,,0.6403206450210053,3.400197881329072,inf,,0.7290507193093528
40,,0.0,0.0,1.416746160180177,1.3995880596988328,0.7603831939484197,2.4381843074546232,2.7799712660386144,,,0.541134803179459,inf,,,0.8592380679957087
41,5.470309452531411,-2.3339986997467355,0.0,1.6552653265112691,1.6224351014970488,0.6254600584566422,3.5965018403587607,3.8664216920894474,,,0.5490601803369085,6.220179143471647,inf,,0.6947522741830289
42,4.824991794627559,-4.316199465824689,-0.4766257168386862,1.6594711018161092,1.6600358588414175,0.7623556580824414,4.083888049810084,7.441560981934234,4.651506418742679,,0.5748741956352443,4.552156150702475,3.636532973741727,inf,0.7415237475560293
43,4.2825783006846025,-4.2825783006846025,0.0,1.467193893775035,1.4451161063911995,0.6633014555969738,3.3888967137366026,1.7854929938361512,,,0.6207552362147116,4.243618264969855,inf,,0.7339861384018512
44,,0.0,0.0,1.3875765037527068,1.3628134131936962,0.7484311341169575,2.697742161708662,1.7248299352768885,,,0.5202020156036558,inf,,,0.7976387152748684
45,5.703782474656201,-0.07605043299541601,0.0,1.6447166840956178,1.6287787299567436,0.7872378705083065,3.2042823938986817,4.980748372885823,,,0.468121228110369,10.021270588192511,inf,,0.7738821318019278
46,5.703782474656201,-1.7111347423968604,0.0,0.9719448193986144,0.9708816946914486,0.6445451033912587,3.0261908903005774,2.846594341410882,,,0.5022576003740722,6.907755278982137,inf,,0.7075149298703464
47,5.305222845834232,-0.7073630461112309,0.0,1.5496989970362627,1.5202989411027141,0.7328170008999602,2.83721697768578,4.308339137320793,,,0.552929491858785,7.264430222920869,inf,,0.7177415146498715
48,,0.0,0.0,1.4216714060129958,1.3933508936392611,0.5933473094039117,2.686849831637146,2.88862941111041,,,0.5370774965580548,inf,,,0.8065892609667885
49,5.466315385019923,-3.9357470772143444,0.0,1.6561302859335627,1.587651576020017,0.6735554761084039,3.611197862358387,4.075081054547536,,,0.6284777104787076,5.737684026331882,inf,,0.6358087136629234
50,4.224067783997599,-3.6186180682912763,0.0,1.698719812696566,1.6774250746879842,0.7568534680876768,2.882271845519718,1.2943185017465235,,,0.6125606311107803,4.021713871187194,inf,,0.7006998626831263
51,4.449450926245571,-4.123157858320895,0.0,1.7180124097518263,1.7286882841512325,0.837800845597102,3.77851231564224,10.420803891160137,,,0.6233814453054027,4.446268903402236,inf,,0.5158008497281343
52,4.990273284000116,-4.973639039720116,0.0,1.6088305478873544,1.5833367696625247,0.7794859275061775,4.289577338732113,4.212764137242045,,,0.6425374456860184,4.886943821753706,inf,,0.6497127150239531
53,4.697915636511548,-4.3847212607441115,0.0,1.5880920759512782,1.5909409215323105,0.8283133551006919,3.494938320800523,3.7572971154489494,,,0.6509067234006624,4.293608839746367,inf,,0.6267857685407824
54,5.7037824746562,-1.292857360922072,0.0,1.188431711172767,1.1535135040728215,0.5441717020961618,3.6602733023937404,8.026500361761942,,,0.45235697871908603,7.188057244136296,inf,,0.7553344266649289
55,,0.0,0.0,1.71097801602463,1.6839295413436912,0.9436962630735237,3.580493824796755,6.678059324361875,,,0.3685265678147087,inf,,,0.8211588711640662
56,,0.0,0.0,1.4698461974590025,1.4441672985743728,0.950932522119464,3.8240568856501174,7.986851189983296,,,0.43586655696697996,inf,,,0.8805734001204577
57,,0.0,0.0,1.6581595161557532,1.6523635611520826,0.9009492827680573,2.8126549071800673,3.6653289054809552,,,0.4302020962658841,inf,,,0.890274512220076
58,,0.0,0.0,1.7025338404015666,1.6532197332456007,0.9228843788964233,2.765680667838822,2.944385523755532,,,0.4576907132971797,inf,,,0.8777219134084502
59,,0.0,0.0,1.7134249136607536,1.7067419323929296,0.9358497563789633,2.730342849928168,2.231865644446252,,,0.43586655696697996,inf,,,0.9024114379080034
60,,0.0,0.0,1.267732070434917,1.2297009383121476,0.9184090868532567,3.1438126794724943,4.364958226453955,,,0.4732203808476458,inf,,,0.8952830320241726
61,,0.0,0.0,1.755853730590136,1.72450500877671,0.9393509885467219,2.840190263186403,3.22386838182397,,,0.35499006010413947,inf,,,0.8680230262454932
62,,0.0,0.0,1.342734460728153,1.2969350403800848,0.9304905258667571,3.1841614256956676,3.70993172787921,,,0.38163879478178075,inf,,,0.8657695566516488
63,,0.0,0.0,1.666548475925981,1.6407414940448874,0.8966731375707085,2.4738322418578793,2.382633519084611,,,0.45235697871908603,inf,,,0.8795039901609064
64,,0.0,0.0,1.7028156794981377,1.6955359050229168,0.8876705190632852,2.8370744341961456,3.1996222057433465,,,0.5604843169999094,inf,,,0.905381281877177
65,,0.0,0.0,1.3564669408878975,1.3465769031640384,0.9097044284086685,2.6927681639950154,2.7559587346856738,,,0.42445136339222655,inf,,,0.8917775290259886
66,,0.0,0.0,1.6853748312125991,1.6563051688931574,0.9266660439011167,2.3257356758588092,2.180274249517554,,,0.3943459996787778,inf,,,0.856487366705072
67,,0.0,0.0,1.6531550914325035,1.607775211409317,0.9004173163058641,2.216683193870917,1.7380126682505277,,,0.4576907132971797,inf,,,0.8613381783462033
68,,0.0,0.0,1.6298910338453128,1.6252919401124144,0.8715201404676926,2.1446348423480672,2.368377777178363,,,0.3943459996787778,inf,,,0.847708731731933
69,,0.0,0.0,1.665621632915328,1.6439743253497832,0.9312709454760089,2.003850931690881,2.8073026749005736,,,0.41861278947482794,inf,,,0.833635942747587
70,,0.0,0.0,1.6149735884385819,1.592274095510061,0.9421638421499813,2.051324148422928,1.8929681546133388,,,0.4302020962658841,inf,,,0.8454428893232684
71,,0.0,0.0,1.6163303209718163,1.5995535382346446,0.9721695374630714,2.126973215977872,2.4534695049170203,,,0.3943459996787778,inf,,,0.8729553957312546
72,,0.0,0.0,1.726043306744256,1.6818075128641934,0.8831244501935425,1.7958527383847194,1.7190958977645237,,,0.49759852643134905,inf,,,0.9102819867263887
73,5.703782474656202,-0.6654412887098902,0.0,1.7562003625189633,1.7183394477328038,0.6228906019931583,2.05927612942933,1.7130767374556015,,,0.5329562494928909,7.852216887822989,inf,,0.668967383427616
74,,0.0,0.0,1.536992389804246,1.4882029284133036,0.889466700555997,2.3527764768081423,3.676572413516319,,,0.49759852643134905,inf,,,0.895373844843889
75,,0.0,0.0,1.7453481293110795,1.6837685231222201,0.8000916369670354,1.7126522909727087,1.869743292145118,,,0.524519217297268,inf,,,0.8903420201743507
76,,0.0,0.0,1.7236558909247879,1.7191911039685666,0.7492269709009415,1.845715379382531,2.0346083202437395,,,0.5490601803369085,inf,,,0.877834052592207
77,,0.0,0.0,1.6387569062752592,1.636920534818533,0.7439764073131647,1.6437670498517185,2.098456024018465,,,0.5329562494928909,inf,,,0.893779438913638
78,,0.0,0.0,1.5984236604028483,1.5615168677169462,0.7209461070818187,2.5842322123849057,1.8523546562360904,,,0.47824363442641393,inf,,,0.8996289957317679
79,,0.0,0.0,1.4258805907847931,1.3833003547702445,0.9006638868941383,2.745499541193588,4.404183377216851,,,0.3685265678147087,inf,,,0.866494129861859
80,,0.0,0.0,1.643921867713,1.6520567768691934,0.9431553230581744,2.4975962721457816,3.1163199228087572,,,0.35499006010413947,inf,,,0.8623274896214683
81,,0.0,0.0,1.5164026941986266,1.4867635547582203,0.9228472894260431,2.06170740088148,2.573519273462983,,,0.3751344627501719,inf,,,0.8751575983968277
82,,0.0,0.0,1.5570911160598229,1.5429631876989829,0.9455338866300094,2.194238259168069,2.5814248947311915,,,0.3751344627501719,inf,,,0.8202312160769603
83,,0.0,0.0,1.731859367292886,1.712298686456551,0.9369510230160569,2.0048337191951835,2.2284399704941045,,,0.36181263880445963,inf,,,0.8032508354964301
84,,0.0,0.0,1.6470699546634042,1.5750656838450632,0.8708005778096874,2.141174783330573,2.4715838744028717,,,0.38163879478178075,inf,,,0.8387852780148239
85,,0.0,0.0,1.5563021998891464,1.553686014903051,0.9158208366915933,2.4015222586443024,3.0347094679563895,,,0.3751344627501719,inf,,,0.7705061228656225
86,,0.0,0.0,1.3459328665910744,1.3070685603163896,0.6878075772996203,2.9401526320947524,2.7575958122352504,,,0.4928685327679205,inf,,,0.8428584353214222
87,,0.0,0.0,1.4978783018500723,1.4919096499018605,0.9047421115479835,2.712065424917237,3.4787713675828957,,,0.3943459996787778,inf,,,0.8574018656357228
88,,0.0,0.0,1.6657124563822734,1.6371971262321656,0.8972275910073688,1.9240369307800638,1.7974119608550414,,,0.44144624493110796,inf,,,0.8293092868288306
89,,0.0,0.0,1.7438930519867595,1.7206879411029126,0.8391063734473055,1.984540994887729,2.250310311809862,,,0.524519217297268,inf,,,0.8329934041557191
90,,0.0,0.0,1.3791331296132223,1.3585111490601731,0.8661312340633593,1.899086554277521,1.8271914946730181,,,0.4629450596409901,inf,,,0.795955803009876
91,,0.0,0.0,1.6176060340487066,1.5967940650220387,0.9458410644768936,2.1498271181007604,2.3346405430748374,,,0.41268473150466,inf,,,0.8043026597518403
92,5.703782474656201,-3.4222694847937207,0.0,1.563162118340727,1.5389925191716782,0.6626894966682317,2.6711645011084113,3.4419109070383955,,,0.5068466436745385,6.214608098422191,inf,,0.7639380561736185
93,,0.0,0.0,1.564349950059617,1.5040152296979947,0.7833726007958078,2.1286831884756845,2.1826754814456555,,,0.4928685327679205,inf,,,0.8884731594093032
94,5.703782474656203,-0.5893908557144742,0.0,1.7125829146289266,1.7002008647743023,0.5851631549754142,2.244964385798511,1.8633701432221965,,,0.5329562494928909,7.973577744827256,inf,,0.7456367454885753
95,5.57206216868445,-5.200591357438821,0.0,1.6601366495726098,1.6555673201293137,0.9028312680766353,3.250191330216625,3.753512859294229,,,0.45235697871908603,5.566923291939004,inf,,0.724991827812508
96,,0.0,0.0,1.7099002909106777,1.6784877443711175,0.9478530703341357,3.4503690165717473,3.091203812960788,,,0.3943459996787778,inf,,,0.8731249533400267
97,5.559570645143729,-5.52250684084277,0.0,1.3537010654840298,1.3467113575620884,0.908373963240235,3.2139123561932945,4.4934360749919176,,,0.468121228110369,5.521460917862246,inf,,0.8913584146469067
98,,0.0,0.0,1.2505665445569807,1.1729861313848278,0.9022336306186352,2.4913242361846337,2.1552003550523557,,,0.40055318934786044,inf,,,0.8802584226914717
99,,0.0,0.0,1.5715600826456109,1.5365888111987804,0.8286167121523984,2.1085238351141666,2.4611173875980006,,,0.4732203808476458,inf,,,0.8461481098008523
100,,0.0,0.0,1.7616067559404258,1.783977407216213,0.6689076379977276,1.8113576700152325,1.6227556472287887,,,0.4732203808476458,inf,,,0.8083798795396068
101,,0.0,0.0,1.3196592394656952,1.2095212882712247,0.7738833562961992,2.4871447789755683,2.6297428839845565,,,0.47824363442641393,inf,,,0.755953309232588
102,5.2605248114662295,-5.2605248114662295,0.0,1.3973254429895137,1.3216505285930151,0.8439391451161934,3.394288623671896,3.152970220097806,,,0.44694259446804574,5.076063099418711,inf,,0.891574432699554
103,,0.0,0.0,1.3621172535621024,1.3470810867304954,0.927161267409759,1.8296541296610487,2.130165378064557,,,0.3751344627501719,inf,,,0.7770120611083964
104,,0.0,0.0,1.7415152818914348,1.7036633513588695,0.9173852480842498,1.8194725647955372,2.4775303714338097,,,0.40055318934786044,inf,,,0.8322773996120619
105,,0.0,0.0,1.5628846956776554,1.5617588297016023,0.790357091112038,1.8387567089571415,2.1735123156223732,,,0.44144624493110796,inf,,,0.8268052553189574
106,,0.0,0.0,1.587940338127864,1.5588849293819351,0.8980366186726902,1.6870401751656812,1.9112150659216338,,,0.4629450596409901,inf,,,0.8013356264733198
107,,0.0,0.0,1.601835486392196,1.5620411305364452,0.8499614816890633,1.4269691509523557,2.1455711695673916,,,0.43586655696697996,inf,,,0.8199922489125926
108,,0.0,0.0,1.7261077683422268,1.6875034011492376,0.9267816087630008,1.478116910672736,2.3744733351805385,,,0.42445136339222655,inf,,,0.7928422947698676
109,,0.0,0.0,1.66638382497488,1.632278684205876,0.9111953580288348,1.3967566365800974,1.5378862229491257,,,0.42445136339222655,inf,,,0.7634621948640162
110,,0.0,0.0,1.6866186174942435,1.6547438454678243,0.911074003522152,1.3873121291330552,1.888909414873123,,,0.45235697871908603,inf,,,0.832464034450711
111,,0.0,0.0,1.6392156579729553,1.6272229250611372,0.8576595817778316,1.4994742895172912,1.8519427958482992,,,0.41268473150466,inf,,,0.813337789104147
112,,0.0,0.0,1.7556653374612634,1.7388239149317264,0.8698312972930985,1.1330002331959879,1.2639715995026368,,,0.4576907132971797,inf,,,0.7846713136546623
113,,0.0,0.0,1.2445186403360848,1.2400604995917262,0.7202358821221186,1.379696603775581,1.4163239041880125,,,0.5158180382284114,inf,,,0.6218227114151913
114,5.5534354067523575,-4.51679413082525,0.0,1.1625216525423148,1.0983501480958164,0.6018221368604982,1.3461176613980477,1.1057213178202778,,,0.524519217297268,5.707121375921716,inf,,0.8225590408937593
115,,0.0,0.0,1.559192064618197,1.5212858723348792,0.8701593726640586,3.3865442814848774,5.161048813369615,,,0.468121228110369,inf,,,0.8585631987964931
116,,0.0,0.0,1.7153713064129383,1.7035435752764723,0.938903257512343,2.9327949255663843,3.1445700288649028,,,0.44694259446804574,inf,,,0.8408677659466303
117,,0.0,0.0,1.5845544052679177,1.541071713769679,0.8955260632090302,3.127106289199023,5.886701072265494,,,0.4732203808476458,inf,,,0.8795893261871507
118,,0.0,0.0,0.6325064483881259,0.5904055805772378,0.8305885847801381,3.0965215389079375,3.611012422918201,,,0.42445136339222655,inf,,,0.715185117048197
119,,0.0,0.0,1.030491449537263,0.97577445242438,0.7956619524774649,1.8999712013282528,1.6255358761198697,,,0.45235697871908603,inf,,,0.8798253830413626
120,,0.0,0.0,1.7444077211052211,1.7109643257593992,0.867444521024317,2.6675276692754717,2.04252608022142,,,0.49759852643134905,inf,,,0.9004949662016292
121,5.6733516228267415,-3.8767902755982733,0.0,1.5258102008429986,1.4786561875778699,0.6741483908187803,2.411219074226787,1.9892508765069477,,,0.5158180382284114,6.041588934290551,inf,,0.5995376165664367
122,,0.0,0.0,0.8576954423541148,0.8176958336565124,0.7568663890939343,2.0485586707435264,2.1882858962946043,,,0.45235697871908603,inf,,,0.6452832104810706
123,,0.0,0.0,1.0519559395612181,1.0370999220164219,0.8731802498777261,2.4479790971324533,2.177585719502723,,,0.42445136339222655,inf,,,0.8398473599286451
124,,0.0,0.0,1.7144304885437158,1.6930738535907235,0.8611264660150066,2.6702844902868335,3.1606617695449,,,0.38163879478178075,inf,,,0.8667772397205836
125,,0.0,0.0,1.7033519742242902,1.701516207294128,0.8988973203155125,2.9042364547225596,3.0213286935904144,,,0.45235697871908603,inf,,,0.8617037540068924
126,,0.0,0.0,1.6821971134098155,1.641401000593677,0.9499439897257299,2.933114837745732,3.7735224793368283,,,0.4629450596409901,inf,,,0.8481232465056708
127,,0.0,0.0,1.6823634771111555,1.6276756909844237,0.9322672922129207,2.6020592441241246,2.6458778981958555,,,0.41268473150466,inf,,,0.8188668511375784
128,,0.0,0.0,1.6954817518442957,1.6695517732727763,0.9382541206223654,3.225254925066721,4.726289521925111,,,0.41268473150466,inf,,,0.8646499698156654
129,5.7037824746562,-1.273844752673218,0.0,1.411791506003687,1.3648743167777713,0.6196868534737643,2.4257708256272714,2.5880628537193546,,,0.5158180382284114,7.202872329921436,inf,,0.8775951206267916
130,5.703782474656202,-0.7034665052075982,0.0,0.9446011627346049,0.8963322780959759,0.5574330672456765,2.574177161840033,3.1665656310780474,,,0.41861278947482794,7.796647036668178,inf,,0.8103971509018347
131,5.346796802264813,-4.152678849759005,0.0,1.556252131677388,1.521400322970238,0.7671763571717511,3.0885228722171676,2.8998642764578544,,,0.5883313578629602,5.541096892379105,inf,,0.8431027464371869
132,4.804433155180692,-4.019709073167846,0.0,1.6922000772261876,1.6698934482770547,0.7176818153113734,4.144763516549298,5.8489561799223235,,,0.6425374456860184,4.913811109460716,inf,,0.6475378416094807
133,5.633498319984038,-5.370601731718116,0.0,1.765128545717502,1.730646415802038,0.7174485590933225,3.3973595850064933,1.9804919989562801,,,0.6403206450210053,5.654992310486769,inf,,0.7676674900660498
134,5.056751284756618,-2.696934018536863,0.0,1.7011415537308152,1.6888245298837299,0.7221776693641649,4.39694924784724,6.792650424414022,,,0.6180765742263259,5.491362886704967,inf,,0.7253005544350098
135,4.182406969870176,-3.9917566831347013,-0.19065028673547446,1.638177284195076,1.6074817663288736,0.8295648132728057,3.4304022943664516,2.0057640438017392,,,0.663668482632973,4.033563089962242,5.071416766356115,inf,0.5029901745464649
136,4.861829244122811,-4.861829244122811,0.0,1.6629942667044066,1.6474861223607378,0.7551815954096445,4.178612229718842,3.695759077812162,,,0.6284777104787076,4.772931591450717,inf,,0.6227486564314674
137,5.3281244863522215,-5.3281244863522215,0.0,1.6603654795847582,1.6559958555720735,0.7716766105928449,5.7494001731128535,36.43907117683378,,,0.6468212168108125,5.2234160583749185,inf,,0.7104916236253263
138,5.229724750733353,-4.793914354838907,0.0,1.5885769334011002,1.599054431970884,0.8075726796820195,2.5260713183427974,1.3605597497629942,,,0.6447042257417027,5.22754829565983,inf,,0.8767913989334335
139,5.02142612217704,-3.4647840243021575,0.0,1.356200201700695,1.254173875074279,0.6698971180285107,2.312232009042232,2.0666367587300756,,,0.6357360191111145,5.3050063546988335,inf,,0.6449457381420844
140,,0.0,0.0,1.567843585084292,1.5639342712610376,0.6809723392577813,2.600784384893481,2.8941427749172806,,,0.6468212168108125,inf,,,0.8983246706993293
141,5.703782474656202,-0.8175421547007222,0.0,1.684303128853954,1.6845376361286448,0.6090561091293821,2.2736190250977297,2.1925206529548893,,,0.6333676938231112,7.64636483361884,inf,,0.862776902051142
142,,0.0,0.0,1.6815918617235452,1.6756775342660315,0.6956687666474322,3.237624119854768,2.8238002644582214,,,0.6125606311107803,inf,,,0.7931314691295297
143,5.703782474656201,-3.3652316600471583,0.0,1.700731106571309,1.7259041649727662,0.6500712167840835,2.445351995075669,1.5145699146876912,,,0.6284777104787076,6.231415216738573,inf,,0.8532325640301942
144,4.4348818928715374,-3.8665026809308367,-0.09532514336773723,1.634813803882336,1.5960942310405286,0.8299303707224068,2.850161900572902,1.0442417263305321,,,0.6403206450210053,4.449116556014747,5.349010480863555,inf,0.6197500885398115
145,5.469782313950614,-4.39405845887366,0.0,1.6376856898598338,1.6158708750733584,0.7885831657540116,4.353375066831084,21.706998831729095,,,0.6403206450210053,5.596423956335702,inf,,0.8119531936140933
146,4.827380987134826,-4.553829397863852,0.0,1.7230897483830625,1.7125100968256195,0.8148972629489442,4.914087599775205,8.98222645206878,,,0.6566669596287297,4.835282406618394,inf,,0.5681215316787656
147,4.691477005339177,-4.582009208547929,0.0,1.3755259156876627,1.3353484115658782,0.7289511006837014,2.2004435434897585,0.9810960526430725,,,0.6309483474627791,4.624239748708442,inf,,0.6757866307676912
148,4.684178567564163,-4.684178567564163,0.0,1.7413531322451348,1.7269087176779816,0.6787680360412187,2.1979349776684054,0.8785789913262931,,,0.6284777104787076,4.656463480375642,inf,,0.839251638884296
149,4.66400014854102,-1.7101333877983742,0.0,1.5344994610725928,1.5368844064233034,0.7471362787657475,3.584816453055476,3.115866830569169,,,0.6566669596287297,5.590453789349198,inf,,0.711122427110605
150,3.7653786594898717,-1.4775752186641782,-2.2878034408256935,1.505723309222577,1.4847172483572473,0.8291178866034339,4.597030803711252,101.21888306775548,3.2536786234578905,,0.6403206450210053,3.368085030211953,3.251988176318403,inf,0.7845404432152124
151,5.37156400350025,-3.0259810553051407,0.0,1.734710290221713,1.7039904163768815,0.7502375565882011,4.19650840492659,11.14999086459843,,,0.6309483474627791,5.886104031450156,inf,,0.610962133045181
152,5.703782474656201,-0.019012608248854004,0.0,1.680754344762932,1.6640730329066227,0.5984109546112307,2.619601533188256,2.603536748459161,,,0.6468212168108125,11.407564949312402,inf,,0.654042145626516
153,5.273760560138687,-4.271746053712336,0.0,1.4483626726425396,1.4637394430848927,0.7192666999984051,3.721280689562743,3.627374278285604,,,0.6333676938231112,5.42867918441128,inf,,0.7917219288710426
154,5.703782474656203,-1.939286041383109,0.0,1.7288558407208552,1.6791924511185006,0.7420752559298182,3.0935937523644927,2.398561225573228,,,0.6425374456860184,6.782592136028131,inf,,0.8234628782693664
155,5.250383545541003,-4.1653042794625295,0.0,1.768995979209179,1.7626610285760616,0.7838268734164207,2.944161518630218,2.6399811970379488,,,0.6468212168108125,5.423628668625212,inf,,0.569933571116881
156,,0.0,0.0,1.1957789927674445,1.1962900124632803,0.6310259754301006,1.8553008448915258,1.7932806195126463,,,0.6038851895711802,inf,,,0.7158557372977554
157,5.621502413654479,-5.209258903319817,0.0,1.702107573816067,1.6887817194238575,0.5537164854337895,3.5125963327403547,4.818721692473831,,,0.6509067234006624,5.667772037133168,inf,,0.8339827756845946
158,5.7037824746562,-1.559033876406028,0.0,1.6493260624922823,1.5882297569861774,0.7206290693518748,3.0873331019466095,3.059259252687868,,,0.6468212168108125,7.000845702048149,inf,,0.5566569504038585
159,5.6350406055097615,-2.272799710888937,0.0,1.4721390257154512,1.4455448279714307,0.7164585030648438,3.7848327746632284,6.963128336848241,,,0.6284777104787076,6.517215821090648,inf,,0.6223235460527827
160,5.668537702763325,-2.2296248297535746,0.0,1.7084219704913037,1.7020561234139253,0.7109532314056558,2.888520542476477,2.1005570183830566,,,0.6284777104787076,6.587283383707366,inf,,0.6359496512164652
161,5.231406569982508,-2.790083503990671,0.0,1.7588263078838695,1.7200514566720606,0.6835805357615531,3.0063254495760305,2.3785900069185737,,,0.6125606311107803,5.7763531674910364,inf,,0.5527526385470786
162,5.313315575131784,-4.551740342696228,0.0,1.7415851691954733,1.726895723217215,0.7829569108114149,3.085636993152855,1.8163014472978478,,,0.6468212168108125,5.336827221309912,inf,,0.583377099504004
163,5.7037824746562,-2.6237399383418523,0.0,1.6850250432373808,1.687478220754196,0.5959253306138175,3.5544921436641053,3.1141762539998714,,,0.6509067234006624,6.480311264155198,inf,,0.6831930430251654
164,4.547553944863905,-4.2082899442640525,-0.3241054874503066,1.6142015681890542,1.589071281226672,0.7446859822000135,3.2752808859583515,2.0038651579073017,,,0.6333676938231112,4.442484603710995,4.13186700154519,inf,0.5551516479103845
165,5.108111297708705,-4.801624619846183,0.0,1.6057864941619973,1.5715299936075209,0.7968371125655244,3.553956603404813,3.345688857032647,,,0.6447042257417027,4.9682145782123035,inf,,0.5460237546457045
166,5.261202975226474,-3.8406781719153256,0.0,1.6364837719767118,1.6377330686991673,0.6545770691185435,2.595403267400111,1.3735415337420087,,,0.648888643467878,5.467393696591971,inf,,0.8636864852329063
167,4.44834549982175,-3.395570398197269,0.0,1.5865096432642773,1.5502767366209873,0.8103031301284149,3.882972988050711,28.026471247335383,,,0.6468212168108125,4.6729732893394536,inf,,0.6002984394342623
168,5.410379653790127,-2.3264632511297543,0.0,1.7568391322145858,1.7364318117318644,0.7043576104720485,2.7270353174847832,3.298204037459581,,,0.62595550513784,6.144874760407516,inf,,0.5725310655445026
169,5.196690583319011,-4.815599940542284,0.0,1.60241395859062,1.5465499747089138,0.7809337443041382,3.3537375522080266,4.310839990848926,,,0.6447042257417027,5.171195359108697,inf,,0.738216674550927
170,5.703782474656201,-2.4526264641021664,0.0,1.5487074731332848,1.5580185429480207,0.8128857041057278,2.8588688393276813,2.6487915763512877,,,0.6284777104787076,6.54775254495073,inf,,0.8732789209464832
171,5.014731082859374,-2.6076601630868743,0.0,1.606587152928454,1.6086037553712418,0.7476365222456867,3.191281921471031,3.583702386330266,,,0.6380535849069913,5.593434417487336,inf,,0.5725277986549878
172,5.679880847740342,-0.5490551486148997,0.0,1.5851862853484475,1.567697601882013,0.6920734851816891,2.9662803483288154,1.9376184269364285,,,0.6309483474627791,8.006367567650246,inf,,0.7221245182796038
173,4.663645638624209,-3.9485533073684973,0.0,1.6493892520642386,1.635938503232553,0.7229028566195076,2.9670720493346194,2.4428928320746977,,,0.6309483474627791,4.753412429129184,inf,,0.6542736058402566
174,5.115881507015723,-3.991581405059082,-0.95377071838945,1.6936716022317702,1.6269996387200583,0.6917196808943273,2.351315468140774,1.7684357598534177,2.5687064322230873,,0.6333676938231112,5.047991080640025,2.282036424766658,inf,0.49870605278616303
175,5.560372713161038,-1.612508086816701,0.0,1.7098896904065704,1.7086584804889613,0.5688805484378531,3.054522403856877,3.2474828401268465,,,0.6509067234006624,6.753604599154879,inf,,0.7642388219106586
176,4.7091207606229855,-1.7056547440906118,-2.0930360028119295,1.4471645654000063,1.4077673512073121,0.7077182947366985,3.2617455225758207,2.461765559856976,1.9084211801238864,,0.6447042257417027,4.765078147945146,1.846696255770515,inf,0.6897459403724046
177,5.1651721181129835,-2.6342377802376213,0.0,1.5609943394590422,1.5473018835959576,0.7946257578492237,3.3508328222852573,3.182255495406846,,,0.6357360191111145,5.744604469176456,inf,,0.6541894233769476
178,5.390153990592634,-4.689433971815592,0.0,1.6476318963067613,1.6446644537044581,0.7285026190238482,3.104913319306638,2.3081003530264574,,,0.6333676938231112,5.4621443407058266,inf,,0.5388308283480617
179,5.7037824746562,-1.406933010415196,0.0,1.5475130614611035,1.5270863067516334,0.5395436111430648,2.592244401176338,2.4472143730707896,,,0.6403206450210053,7.1034998561082325,inf,,0.8261974275536825
180,5.606156111197051,-1.3267902796499689,0.0,1.5983714730651721,1.5800520442564974,0.7552561828966347,2.2230740403474583,1.8771415842674286,,,0.648888643467878,7.013115794639964,inf,,0.5544228517259242
181,4.152284030780276,-2.3601713354668163,-1.7921126953134596,1.718817227231833,1.689831692713855,0.8021305539384448,4.25371490153631,36.8050218281167,2.868482223040944,,0.6233814453054027,4.010616346691388,2.85365382035101,inf,0.7290670532204352
182,4.508263512745343,-4.508263512745343,0.0,1.6757642457477728,1.6659857922636916,0.8374950706112683,4.03368844799416,55.580622988126855,,,0.6547956803312163,4.3091893107216155,inf,,0.7010155845255746
183,5.162490688517946,-4.887157851796989,0.0,1.6300038751970167,1.5978768602946227,0.7921121530510947,3.8066966392988477,6.97466458282923,,,0.6403206450210053,4.910789959126539,inf,,0.6312264501737243
184,5.2922892969676605,-5.2922892969676605,0.0,1.4929974343153365,1.4632557478166377,0.7412674488775809,3.6976972962673793,3.8190919589191155,,,0.6468212168108125,5.171195359108697,inf,,0.6359745439004474
185,4.986930426443017,-3.058650661551717,0.0,1.721895773446346,1.6935523707110616,0.7743924849840091,2.915765007171693,2.582380999578843,,,0.6284777104787076,5.289467751271054,inf,,0.6470910531667073
186,4.787366583757192,-3.6125452846432875,-0.6482109749006132,1.3248827482769927,1.2914924360498297,0.6727059647529295,2.3770270746974362,2.075208921199975,3.0662960564167867,,0.6097226960127671,4.838083528898106,3.0431208957981344,inf,0.7400376042684242
187,5.703782474656201,-0.07605043299541601,0.0,1.0626681789432952,1.0493982805749682,0.6085860721218354,1.7175552009008261,2.0965227036583443,,,0.48319206230712763,10.021270588192511,inf,,0.8431992036426965
188,,0.0,0.0,1.6413595636261924,1.6441770562997222,0.4333185934532757,1.5106918754623009,1.5452563819084384,,,0.5022576003740722,inf,,,0.9562823511765977
189,5.703782474656201,-0.20913869073739402,0.0,1.1218720678573706,1.0579320589299317,0.5828077781296701,2.0569449377285385,2.2292491232718015,,,0.5068466436745385,9.009669676514031,inf,,0.8405670903669641
190,4.8950461498649345,-4.764511585868536,0.0,1.4586949198099626,1.3648458693892063,0.7867472079308617,3.5093798026307272,10.025306095713155,,,0.6068309995095971,4.693394419402931,inf,,0.54974810266695
191,4.515870104817214,-2.2992893608791056,-2.020893039396029,1.6551900145733145,1.6251839555317202,0.7712514658701085,4.782059021806424,23.0717874890764,2.5538913464379465,,0.6333676938231112,4.36965898586522,2.374466869335115,inf,0.8081842652917802
192,5.497395954601835,-3.2617882663970885,0.0,1.6581312467879614,1.611060783784631,0.6863006090374875,2.15065474633342,1.7184642536312884,,,0.62595550513784,5.965147238790609,inf,,0.8349496920425322
193,5.294430092059664,-3.653156763521168,0.0,1.5131185073369415,1.4848139790804715,0.758653105016094,2.1355043656550885,1.4311867739619668,,,0.6038851895711802,5.518686990979521,inf,,0.6933565966955539
194,5.49853015419913,-3.775657372550069,0.0,1.5962263619483443,1.559493508220178,0.7579471982004496,3.0850848568881757,2.4473238484790816,,,0.5677978065141052,5.820316290912153,inf,,0.7722688051944965
195,4.412154722097014,-4.412154722097014,0.0,1.6866731943398772,1.6832182883791011,0.5934333468651617,3.67985832933876,3.367675012186853,,,0.648888643467878,4.375823690549274,inf,,0.7863981188408606
196,4.631632317705642,-3.8309011134166493,-0.8007312042889928,1.661179306930015,1.6357154573497659,0.6907739492134192,3.3498865334922794,3.1445488342503483,3.5105130195252796,,0.6447042257417027,4.5230782972696195,3.1468170337594144,inf,0.8468616256558283
197,5.230321285749133,-3.190495984306971,0.0,1.1961163488684856,1.1943541093062853,0.5259330500728281,3.510474342145818,4.456051961808056,,,0.5287703885177266,5.677465166338828,inf,,0.8379863114836387
198,,0.0,0.0,1.641992972476521,1.6229362504763807,0.6535389781913571,3.083479609597684,6.580775899651034,,,0.4629450596409901,inf,,,0.795996640335799
199,4.808654921944396,-2.9653372018657107,0.0,1.4547050382077646,1.419800590607969,0.6632169416101927,2.6266529172706954,2.349082531402721,,,0.585052858160615,5.196964872287749,inf,,0.6168087500195673
200,5.703782474656201,-0.3232143402305181,0.0,1.3050730955024366,1.2728822896613217,0.4029698716778855,1.9480647979926664,1.8547138444202542,,,0.552929491858785,8.574351605256187,inf,,0.8857981488569848
201,5.703782474656203,-1.806197783641131,0.0,1.5964058927970408,1.5945550855334045,0.6253258163182521,2.0907243360692576,2.7221982484856735,,,0.5451288209179292,6.853688057711861,inf,,0.6717831811973791
202,5.7037824746562,-1.1027312784335321,0.0,1.6084087089801549,1.6039658739006828,0.5996944111492939,1.6916822678216723,1.6382454064343832,,,0.6038851895711802,7.347121938765983,inf,,0.6891967930899731
203,5.40110820581169,-5.40110820581169,0.0,1.6615339790557277,1.6829376568838983,0.4938363129045375,2.404961427209419,2.021250973805217,,,0.5978297680564633,5.341456859208654,inf,,0.7499713566056914
204,5.078517378837022,-2.5039195346835106,-1.3726820644954163,1.5172845521935352,1.4544394692781195,0.7439299564462358,2.0816484837352403,1.4654358487272496,2.0747459003527977,,0.6380535849069913,5.1830065200370425,1.9478923102593046,inf,0.4600769516383785
205,4.906867517557491,-3.7757859916410257,-0.24784537275611682,1.774421897076874,1.721457790082099,0.7619938316921806,2.884481916208962,2.494632827508109,5.005289936799005,,0.6233814453054027,4.786159297548267,4.056456294302598,inf,0.671670646030801
206,3.736993422504123,-2.3666295760038905,-1.3703638465002324,1.5841854324780063,1.5532709086160899,0.801058000978363,3.908042200014151,2.794154114131466,3.566483015843996,,0.6619902821573977,3.707269745892285,3.409835762271726,inf,0.5964488367502537
207,4.964564437816578,-3.8061660689927095,0.0,1.0314579478184407,0.9293254835586202,0.6687250413861575,2.6004690837326057,5.882147140098196,,,0.552929491858785,5.181028280024937,inf,,0.9061712164026918
208,4.78181134964439,-4.5745995244931335,0.0,1.635679562574126,1.5331315601123212,0.6114453134636401,2.9365037819853996,3.2878403007254358,,,0.5451288209179292,4.681331546953656,inf,,0.8378868793777631
209,4.836433014072496,-3.6839736407114927,-0.7816661756154454,1.7373427793852811,1.7296093025962347,0.6971382112405944,4.099959933305985,15.477260277110227,3.0449621029612577,,0.5641709578113449,4.667045589706179,3.0269472929019154,inf,0.624592413193533
210,4.376676710523007,-4.376676710523007,0.0,1.7343631094155976,1.7196600001956925,0.8201312094677224,3.6896219981526084,4.745024885279426,,,0.6447042257417027,4.195270480812061,inf,,0.7279377064349708
211,4.249372991079133,-4.249372991079133,0.0,1.5465917404482055,1.5606170915527457,0.7654166050092103,3.805854075134823,5.700132988086708,,,0.6403206450210053,4.133085390538532,inf,,0.7203119922531601
212,5.665577511948173,-2.398427813391393,0.0,1.5630601525099899,1.52436820307379,0.750144366233973,3.2544970868251113,1.9945574206556236,,,0.6652988471865258,6.509725149361491,inf,,0.7774955782965709
213,4.589021022305155,-4.153846516724302,-0.26691040142966427,1.6762219319182525,1.6692449829579838,0.7989496617554476,3.7389509059940083,3.785365043676717,4.324994945997237,,0.6380535849069913,4.436834871168877,4.331672748528267,inf,0.497864268608162
214,4.361884837899555,-4.361884837899555,0.0,1.4209671635511532,1.3923057255941391,0.7176964253704323,4.155375553991745,3.1903866964010463,,,0.6180765742263259,4.32669705262162,inf,,0.6503168004349944
215,4.676347246510815,-4.676347246510815,0.0,1.7153371877639854,1.728910870261052,0.6619167095076289,3.3875588328052895,4.192337623759897,,,0.6153451465759925,4.584278826956715,inf,,0.4782738654608955
216,4.909223846957953,-4.909223846957953,0.0,1.6678611942669508,1.6182940040919818,0.6780728193885371,2.9788615595910217,2.4545361474124947,,,0.6447042257417027,4.799564324016315,inf,,0.7417690024720439
217,4.957083540375801,-3.469958478263061,0.0,1.598506531969375,1.4678302058476145,0.6743884414074103,2.254988847995396,2.1097224943948025,,,0.6380535849069913,5.104945973567497,inf,,0.8408522463229422
218,4.9250531091011975,-4.4489646418880815,0.0,1.4492207963370698,1.4251507593779762,0.7244820386160643,3.699308256689346,1.9269534741338776,,,0.6528756675646988,4.772931591450717,inf,,0.6351834132301345
219,4.637552217732482,-1.7489179198236866,-1.8683728100076498,1.489657673268259,1.4795975914574326,0.734529885800225,4.004868350680609,4.616957188412188,2.2546170215254007,,0.5677978065141052,4.6576337555238325,2.164963715117998,inf,0.7663392985611281
220,,0.0,0.0,0.43209389645547974,0.4042446958162569,0.9199162935430207,4.058380884702397,2.2243368217520345,,,0.3751344627501719,inf,,,0.8569327234080888
221,,0.0,0.0,0.7258879596680627,0.7085862417876994,0.8401340019174226,3.764887229751722,23.89192907143906,,,0.468121228110369,inf,,,0.8153155254221913
222,4.625491466936949,-3.8854128322270376,0.0,1.4107025666685273,1.405100710518286,0.708405315192856,4.338149227275088,16.78427719344134,,,0.5748741956352443,4.720456341445888,inf,,0.8880017108378888
223,5.518656209040811,-2.9616788321852354,0.0,1.5829730663256,1.5661570071284396,0.7055029922458225,3.5123792946994956,3.002910143208893,,,0.5641709578113449,6.089444955468186,inf,,0.8400078798808615
224,,0.0,0.0,0.6632918875386536,0.6195383789944708,0.8394187780761496,3.387753842483823,2.739721000360447,,,0.5287703885177266,inf,,,0.9326775438844338
225,,0.0,0.0,1.5270581207008525,1.4942802890303575,0.8806000051392799,2.8421128520588987,1.8323233984198621,,,0.5783247308855777,inf,,,0.8972241672969968
226,,0.0,0.0,1.7630088882149082,1.749569839051202,0.833837960631312,2.0222360870656115,1.8772472131973896,,,0.6008849035917525,inf,,,0.8706466723921249
227,,0.0,0.0,1.7169564314498806,1.7045591366404491,0.8162358380026101,1.7974079601852857,1.9358478136175845,,,0.5883313578629602,inf,,,0.9226632333319101
228,5.703782474656201,-1.2358195361755102,0.0,1.739586233575348,1.7394686104829922,0.6289425490906007,2.3510811451141715,2.3010668538766033,,,0.5748741956352443,7.233177679416765,inf,,0.7514312771726516
229,,0.0,0.0,1.7494990663983365,1.7416932899429522,0.8972704022603778,2.579972391826993,1.6174765425777546,,,0.5783247308855777,inf,,,0.8966327120846184
230,4.509513090335475,-2.736465423695563,-1.7730476666399122,1.5915614156015299,1.5369092382563814,0.8240086738489025,3.53309130862948,7.667515904934718,3.374021057582785,,0.6403206450210053,4.198224692709493,2.6767407634496534,inf,0.6314658219988866
231,4.395112445819694,-2.6611719069433146,-0.7816661756154454,1.5807472026436376,1.5737348675315972,0.8348605406406518,3.687293104869374,3.227056972481483,,,0.648888643467878,4.36965898586522,3.3243338967428744,inf,0.5959934654697804
232,5.703782474656199,-1.3498951856686336,0.0,1.4280006440790696,1.3844533444644358,0.6550415582454596,3.9600139355867237,3.540737006393357,,,0.541134803179459,7.144885072271086,inf,,0.7932814122585693
233,,0.0,0.0,1.0040949732627467,0.89910650204779,0.7053345316815833,3.1914815591794707,2.59253049970237,,,0.5748741956352443,inf,,,0.7748270765851998
234,4.7116573046581784,-3.0939882967255374,0.0,1.5816599548968369,1.5611684018539607,0.8215190898969406,4.382230737983704,20.846280995644655,,,0.585052858160615,4.990832666800076,inf,,0.67251906961994
235,,0.0,0.0,1.4637673531499764,1.4653361071226005,0.9304813595400244,3.3090477091252453,8.944820940108826,,,0.552929491858785,inf,,,0.7768001369201519
236,,0.0,0.0,1.3453166125134524,1.32677403572229,0.7483414429832864,4.139104037090528,8.358609784058425,,,0.5329562494928909,inf,,,0.9316396648483111
237,5.277227179658848,-4.890230519817199,0.0,1.7665495785275303,1.7547772530696821,0.7957085524015388,2.9168515692224464,3.4176022010095775,,,0.5947193981915972,5.186974779212663,inf,,0.6657053803062798
238,5.440554883852551,-2.8653589054956767,0.0,1.5983736077975483,1.575542183813843,0.7531502779050788,3.9813089584171304,11.58994758512653,,,0.6068309995095971,5.943733144286792,inf,,0.8457589083206064
239,,0.0,0.0,1.7577031776695393,1.7416009395956804,0.9126947667367031,3.7417337588429707,13.55361333720143,,,0.6180765742263259,inf,,,0.920936844169658
240,4.789040125990883,-4.789040125990883,0.0,1.6952352248269662,1.6746751967044127,0.9184313390071729,4.779836062998448,73.61461059505875,,,0.6008849035917525,4.736798628466528,inf,,0.8831794649506765
241,3.690301526369112,-3.690301526369112,0.0,1.6540646150883789,1.6508442685662468,0.9096426676506462,3.9124411868738367,8.197019745258117,,,0.6180765742263259,3.642420046376271,inf,,0.9019477074965767
242,4.53964187343236,-4.53964187343236,0.0,1.618169767088655,1.6046601586151252,0.9110876025854693,4.44288602858665,14.274673719925936,,,0.585052858160615,4.363532052037717,inf,,0.9066780464902306
243,3.327422135108659,-3.2702270490880165,-0.05719508602064235,1.6228931557793391,1.6142515165132194,0.889431382163931,4.2914970046772085,4.038629630543472,,,0.5883313578629602,3.3147139217740182,6.9942387388702745,inf,0.8284873241430439
244,3.219144864203971,0.8915112873062356,-4.110656151510207,1.3598890807448796,1.3429434638957853,0.8735819798451259,4.953471694513494,54.43195628998268,2.16587381610973,,0.5915533975974677,3.185279875439685,2.151547345870227,inf,0.6874317496484492
245,4.313676773448471,-4.313676773448471,0.0,1.623475544367997,1.620179983315508,0.8003776179920125,3.9151174069601553,8.058311350508909,,,0.5978297680564633,4.276666119016055,inf,,0.6603909122745082
246,4.564656314186586,-4.564656314186586,0.0,1.6635059396636684,1.619589415420223,0.9380013215647144,4.215539209185814,17.69584874534101,,,0.5158180382284114,4.527180867126397,inf,,0.9139130492196577
247,5.661675402939944,-4.0386617874304935,0.0,1.3573420244950918,1.2823966859701867,0.7874118369463123,4.024075335753426,5.379140553055059,,,0.5113665138247345,5.982614931831,inf,,0.8771289257760574
248,,0.0,0.0,1.680549571387771,1.640370308343469,0.9655861406035184,4.165129745758563,20.27870677880457,,,0.5068466436745385,inf,,,0.899702822189357
249,5.6817277916383855,-4.166600380534816,0.0,1.079028035450689,1.001882153798161,0.8580420551197674,4.14596950505729,9.12476531189844,,,0.5158180382284114,5.982614931831,inf,,0.670596474439838
250,,0.0,0.0,1.4794739039890497,1.4559875049244517,0.9708482002993541,3.592485862655165,10.51427627835188,,,0.47824363442641393,inf,,,0.8895022880569857
251,,0.0,0.0,1.3455624983766041,1.302280107363133,0.6995948164252347,3.4956487090796697,2.8982020747282524,,,0.5068466436745385,inf,,,0.8803221019584493
252,5.703782474656203,-1.939286041383109,0.0,1.7286988589200707,1.6967456038478994,0.7922319338423928,3.440985368802835,2.1907205043631075,,,0.4928685327679205,6.782592136028131,inf,,0.8990180275465588
253,5.7037824746562,-3.118067752812056,0.0,1.5644370805574246,1.518910251335656,0.5655549048450068,2.8540802033202644,2.5094985924711772,,,0.49759852643134905,6.307698521488204,inf,,0.7922057242325466
254,5.270565486806234,-1.5460325427964954,0.0,1.4110718872622634,1.3643873702781355,0.8497933064745604,3.0296747100328956,2.8789514207801754,,,0.5158180382284114,6.444720319052495,inf,,0.8794681219163943
255,5.620800065715925,-5.321024062211076,0.0,1.5505178882926551,1.530562963550175,0.9384190314644217,3.6073407328802447,11.09907584105772,,,0.5113665138247345,5.645513566532225,inf,,0.8900862622405359
256,4.818054236666046,-2.617809468588552,0.0,1.629197347534319,1.5891712385395638,0.9039594025962082,3.625580337235608,2.3448813521737732,,,0.5158180382284114,5.313995179267266,inf,,0.778562656983381
257,5.703782474656202,-4.163761206499028,0.0,1.6185523197457805,1.560899618700894,0.5635232820388856,3.66578576500216,3.9489681315905125,,,0.5158180382284114,6.018493219495901,inf,,0.7398459109356395
258,5.703782474656198,-1.1977943196778016,0.0,1.2121270502911394,1.1966073658492695,0.8157999914574667,2.916554740596574,2.238721623076998,,,0.4576907132971797,7.264430222920869,inf,,0.8747491270129397
259,5.1417712471751615,-1.9024553614548096,0.0,1.5375637459106806,1.489143849493761,0.8228659689176822,3.242001762567118,2.4376331575708203,,,0.541134803179459,6.104260041253326,inf,,0.6851196639320981
260,,0.0,0.0,1.0466754867690131,1.0178588327424256,0.8788501028938439,3.6167523773625954,5.843660910153715,,,0.4629450596409901,inf,,,0.7872566474082859
261,,0.0,0.0,1.690594383770247,1.681749384612691,0.9542759440130244,4.010941237974735,4.522885868100549,,,0.3751344627501719,inf,,,0.8898279870324272
262,,0.0,0.0,1.6293102100082977,1.6193078807102548,0.9646452683937705,3.857734923258086,53.05588793844699,,,0.38163879478178075,inf,,,0.8625858994839135
263,,0.0,0.0,1.48357613853316,1.487625476487775,0.9447586253434972,4.189580103489547,19.166712624292156,,,0.36181263880445963,inf,,,0.8465883990702631
264,,0.0,0.0,1.7095403095563344,1.7013505715302324,0.9674308547068162,3.708082977721461,8.295743395425966,,,0.38804190201132227,inf,,,0.8823229514131193
265,,0.0,0.0,1.5245682707817179,1.4943517336389245,0.9538322278018422,3.198046509030555,18.076140805217022,,,0.38163879478178075,inf,,,0.8740864520259394
266,,0.0,0.0,1.7483268886357566,1.7271139607437997,0.9563915315065562,3.606344931335792,5.975582460414021,,,0.34100769111774265,inf,,,0.8923037418517688
267,,0.0,0.0,1.3098068778859313,1.2801835720437496,0.9107348328628037,3.191867275497589,3.5399521775305245,,,0.34100769111774265,inf,,,0.8614519717100156
268,,0.0,0.0,1.3244719158416043,1.3400377685177518,0.9437616869486577,3.300273696677697,5.514172201455169,,,0.3265551233283096,inf,,,0.8719044366178451
269,,0.0,0.0,1.7167662811113908,1.6596568454000282,0.9293683623934025,3.0684391746010924,5.317801799678332,,,0.38804190201132227,inf,,,0.876312778638812
270,,0.0,0.0,1.5030207723895377,1.4962482561381807,0.9171976281362159,3.0145022181647674,8.851421426117938,,,0.43586655696697996,inf,,,0.8953409301637415
271,5.703782474656201,-0.6464286804610362,0.0,1.7596335078907774,1.6746821247834816,0.8315692179439939,3.0709104645920604,2.9358606844050703,,,0.5202020156036558,7.881204424696241,inf,,0.912284960288179
272,,0.0,0.0,1.661730658273885,1.5863261536285282,0.8899084826582251,2.1944435654665644,1.7497151663065864,,,0.5113665138247345,inf,,,0.8795494824913676
273,5.663009111093851,-0.6036776419102083,-0.038130057347094896,1.4585210619120752,1.4344719785226485,0.6450454718127997,2.6858170128621124,3.045075821406252,3.576841135925081,,0.4928685327679205,7.824046010856292,2.890371757896165,inf,0.8585492913359098
274,,0.0,0.0,1.477718452003177,1.442551645103402,0.7655914667112929,2.4882728732851906,3.6751584996096462,,,0.4928685327679205,inf,,,0.8114934355712464
275,5.177946682507276,-1.0010696919514066,0.0,1.3706287447721657,1.3268351742426672,0.543529387911938,3.1188259287178424,2.6142504961124775,,,0.5287703885177266,6.782592136028131,inf,,0.6128337406753963
276,2.915083799364214,-2.915083799364214,0.0,1.3036958813194692,1.2579898469454862,0.9362135178452968,7.1499307414980615,40.45161288782073,,,0.45235697871908603,2.910778567673827,inf,,0.842356694974962
277,3.7027703683970232,-3.7027703683970232,0.0,1.5140096263815728,1.4783899223800023,0.9776804586381861,5.112622472942229,124.69430252811759,,,0.35499006010413947,3.696015969683256,inf,,0.8694574221575077
278,4.580372716637506,-4.580372716637506,0.0,1.55565739504431,1.5378208927640638,0.9703080244605656,4.9531990208880785,279.2391581856608,,,0.34100769111774265,4.573456210498564,inf,,0.8684857396153326
279,,0.0,0.0,1.5054382186270887,1.4782507558457703,0.9620947080941917,5.017768883847539,11.472756091465527,,,0.36181263880445963,inf,,,0.8362641551748988
280,,0.0,0.0,1.518324341515596,1.508892839284885,0.971203661237788,4.543477438545452,41.06342269148715,,,0.3338418249889409,inf,,,0.8265083275154187
281,,0.0,0.0,1.481326211302771,1.495779591443785,0.9789824206881838,4.176433216361682,64.32141338292227,,,0.30393309777884125,inf,,,0.8319845385059564
282,,0.0,0.0,1.767772380339061,1.752537128950483,0.9742841778861582,4.752630250366619,53.210729075964956,,,0.3943459996787778,inf,,,0.8039799716998074
283,5.703782474656201,-0.05703782474656201,0.0,1.092823902322982,1.0604695767147896,0.8971861550967868,4.264787398581087,15.57492462649778,,,0.3265551233283096,10.308952660644293,inf,,0.8086399654585926
284,5.703782474656203,-2.205462556867065,0.0,1.2600828209055117,1.2384517154406094,0.7966020062470927,4.211572551070894,10.463711960780088,,,0.5022576003740722,6.653974758206037,inf,,0.668075608764461
285,,0.0,0.0,1.5864864956820635,1.588009055687168,0.9089372946793841,3.3598786984201845,9.513960730947067,,,0.45235697871908603,inf,,,0.8667155193338281
286,,0.0,0.0,1.2360159762974896,1.2318446376228775,0.8800041289719177,3.9118370467355037,4.920523203865599,,,0.4576907132971797,inf,,,0.9072867224207591
287,5.149383354063159,-4.2224943503317895,0.0,1.671774040914002,1.662362449366787,0.6879602216998174,4.80591289429622,13.540344772700475,,,0.49759852643134905,5.263379315186756,inf,,0.8203332060714884
288,5.243818883710064,-4.264972692084186,0.0,1.1350864748543346,1.1019488309941001,0.8176948282018257,3.5776743939517046,11.050373040514888,,,0.5202020156036558,5.327631754216812,inf,,0.7238351173845655
289,,0.0,0.0,1.780324375288837,1.7721301917258532,0.886150777812556,3.6114919613234995,3.0575802242220402,,,0.5451288209179292,inf,,,0.9228204319353726
290,4.295676268753647,-4.0859609533446255,-0.2097153154090219,1.6134504624196468,1.625208405412603,0.7415667218670615,3.5374124305765218,5.23601538739457,,,0.62595550513784,4.216135619276023,4.793534057238008,inf,0.7115256197791787
291,4.957884698293392,-4.048939170272937,0.0,1.6862501357040118,1.6865620854554912,0.8276420974835769,3.9322990247425285,8.721008604201423,,,0.6447042257417027,5.0410945015809645,inf,,0.5942381912111286
292,4.3735013706371975,-4.3735013706371975,0.0,1.5316676335784054,1.4746867148509615,0.7146875843441914,3.9938915232548764,3.093267991268244,,,0.6447042257417027,4.238985052048367,inf,,0.5782220653658191
293,5.011470636358219,-4.627257887570755,0.0,1.4761650588767203,1.4344810172581575,0.7297505104415389,3.2286879024123953,2.839681486794278,,,0.62595550513784,5.017324282247053,inf,,0.7544661073833269
294,5.698100940389319,-4.6344554315166455,0.0,1.6413220206097996,1.6222671424556496,0.7014461986586524,4.0452105999225285,8.033240313762064,,,0.6008849035917525,5.902233413380039,inf,,0.6032624537949418
295,5.214781896968228,-5.214781896968228,0.0,1.718519620769799,1.7034157850379588,0.6526352416210688,4.1839319434925955,267.98393418040064,,,0.5202020156036558,5.140364400771039,inf,,0.7426813413491334
296,,0.0,0.0,1.0916067183007425,0.9909637372674951,0.6069907683667966,0.6726032523825675,0.719139507143695,,,0.6357360191111145,inf,,,0.9226030692557026
297,,0.0,0.0,1.6588038475131468,1.6295536960225325,0.5871970358802288,0.6652542608349767,0.802610599455668,,,0.6207552362147116,inf,,,0.8055419291600423
298,5.030307929769591,-3.4541447784417856,0.0,1.4872673136968961,1.480954181505791,0.6759157083318181,4.2656042621601555,4.004357132981101,,,0.6468212168108125,5.357831494080444,inf,,0.8191017749911914
299,4.988761583632514,-4.257076551366412,0.0,1.6373016103035964,1.6085901133177924,0.708393034307908,3.3080496745649435,2.0947839749814405,,,0.6403206450210053,5.054935552992836,inf,,0.7210149800426704
300,5.518533905647872,-4.028529751122947,0.0,1.3670568308043456,1.3313146417486519,0.743684614148234,3.112559740636076,2.777739737745028,,,0.6425374456860184,5.755075769043752,inf,,0.7880081722725331
301,4.289430349731383,-2.978758563200415,-0.26691040142966427,1.6212335897436907,1.5803705795199994,0.7338353307455494,3.7354107482233423,2.607011101135227,4.441838573411685,,0.648888643467878,4.474141923581687,4.294365696115456,inf,0.6383318030990078
302,4.2871291194414685,-1.6775384091606518,-2.6095907102808167,1.532101133786604,1.4330484997454436,0.740663571322951,1.4257058179100017,0.29246960663807675,2.5442543575161203,,0.648888643467878,4.202672439107729,2.2776388250474686,inf,0.5579451410659728
303,,0.0,0.0,1.5980479429826386,1.597270304991418,0.8395978146181071,0.21997785502241157,0.3918612135338997,,,0.6380535849069913,inf,,,0.9458194658608259
304,5.693173079035386,-3.7195397449697856,0.0,1.6969514409189714,1.6611123944293331,0.7865418362688783,1.4952609898897173,0.7910725404710808,,,0.6425374456860184,6.11426012458791,inf,,0.7938999360582238
305,4.66214080026965,-3.822955456221113,0.0,1.5849386298177826,1.5383359552925877,0.7598914744320189,3.131489088689671,1.7543655170918222,,,0.6333676938231112,4.636775525403422,inf,,0.7974860556690616
306,4.674696666094082,-3.1008821218424076,0.0,1.604031352198378,1.5202853667894476,0.7109702553503893,2.2247812880695803,2.255165689939676,,,0.6403206450210053,4.9032767757757565,inf,,0.7097034958208901
307,5.480186609959443,-5.096573547262282,0.0,1.3631255554301442,1.3405179485344945,0.6180474796453346,2.330422286263521,2.186371147728022,,,0.6097226960127671,5.496768305271875,inf,,0.6199105436583663
308,3.978361722766614,-3.978361722766614,0.0,1.504673327767755,1.486845541347008,0.8116373218578408,4.659863342040142,2.3008238725674985,,,0.6425374456860184,3.9243205332385522,inf,,0.7013424790711148
309,4.854549961405238,-4.579458796925608,0.0,1.4257054611124444,1.3938271836692204,0.6693437784838122,2.641503249438089,2.1055785988771833,,,0.6207552362147116,4.774246516032026,inf,,0.6743797260170229
310,5.120746099325605,-5.120746099325605,0.0,1.6097202098635566,1.5790451634346248,0.8417899933804633,4.0503119426346315,6.466974106848921,,,0.62595550513784,4.961845129926823,inf,,0.7140521713352721
311,4.561481585958796,-3.557955637047861,0.0,1.550706180694452,1.5100520190817892,0.7960892602756903,4.577961452434724,4.645230372301007,,,0.6602640781246099,4.703150594348295,inf,,0.6938087377599075
312,5.046739438378895,-2.7420617615191993,0.0,1.332543033996087,1.1230804665613183,0.6034446246501761,0.9294488958671642,0.6369322516939562,,,0.581717464821069,5.63924395351863,inf,,0.7419158217848294
313,5.057429587705211,-3.056584013963758,-1.4108121218425114,1.6323741002970211,1.543344244099594,0.7281363054322848,2.156276668451511,0.7746275796500681,2.198341046532009,,0.5947193981915972,4.939866223208049,2.1636336329001837,inf,0.5796878323601754
314,4.763513507824085,-4.763513507824085,0.0,1.654025447671341,1.615042118031202,0.7642198419821761,3.358382027559881,2.424266354212862,,,0.6284777104787076,4.720456341445888,inf,,0.7998097546708871
315,4.520756166731004,-4.40020266895151,0.0,1.4927195533402764,1.4711371466800591,0.8351458654016078,3.470883555882441,2.7178769636270173,,,0.6309483474627791,4.4529260844314145,inf,,0.4934694487716181
316,4.9583035192785525,-4.9583035192785525,0.0,1.5117445466193096,1.5090207293955564,0.7531355181191219,3.8430832797927224,2.227454153279124,,,0.62595550513784,4.870873351721097,inf,,0.7339734964331917
317,5.234575152431006,-3.4024738490801543,0.0,1.617808206753101,1.6014487971994638,0.7695515573114681,4.363396061224444,4.778109737543207,,,0.6528756675646988,5.617604778415148,inf,,0.6509807701764148
318,5.620396347671545,-2.4917090474677184,0.0,1.664369720256956,1.556030700965072,0.7759001053202115,2.9307802433706103,1.4397874098598296,,,0.6447042257417027,6.403618643366943,inf,,0.6970961459142331
319,4.806265918029231,-4.325639326226308,0.0,1.6419021114478682,1.5967797701262012,0.7430880222128785,3.325467612227054,1.5666741360689027,,,0.6380535849069913,4.8022670283642,inf,,0.7331821508139686
320,5.703782474656199,-1.6540969176502978,0.0,1.6569069989867535,1.6374213344052757,0.5969207450612302,2.47109458421316,1.9233228169627457,,,0.6357360191111145,6.941656830657818,inf,,0.8860586400168984
321,,0.0,0.0,1.734573271684203,1.724797227855785,0.6995987611860192,2.254428928719203,2.648452188981174,,,0.5604843169999094,inf,,,0.8938224950849739
322,,0.0,0.0,1.6684097576179746,1.6487727878613467,0.6871753319829307,2.2696094871145536,2.6222922414493324,,,0.5947193981915972,inf,,,0.9209890568363127
323,5.703782474656203,-2.4336138558533134,0.0,1.1586974966877752,1.144751146998255,0.5076194171475021,2.1895254970835714,2.565041157706226,,,0.5883313578629602,6.555534685392785,inf,,0.8302552221354855
324,5.507893054063174,-0.8445436016230199,0.0,1.4334152034250645,1.4089139283426622,0.6337558279790256,3.042742617222737,3.8346734387741277,,,0.6125606311107803,7.330027505406683,inf,,0.7733861891308226
325,5.636930716125039,-3.7015845035887756,0.0,1.6301919762589763,1.5676379468617412,0.7922755593685085,3.4747561544745262,2.767282312048977,,,0.6380535849069913,6.032286541628237,inf,,0.6134893512868942
326,4.732147988482298,-2.105744374976392,-1.2856283501025878,1.5450404735444883,1.4757115945974155,0.792640422868899,3.6154142705096572,2.306050564410936,2.2312222384437996,,0.6333676938231112,4.6588054018207234,1.896729283572062,inf,0.7225339900576428
327,5.694415620864851,-4.21386755943999,0.0,1.455049656387263,1.3849598545352868,0.6723103773922077,2.9336586597313397,2.249463333540262,,,0.6097226960127671,5.991464547107982,inf,,0.8191816467014461
328,5.2356649428121145,-3.9267487071090854,0.0,1.6793611570871716,1.6253792829826186,0.7643783202406615,3.3507631238581213,2.9281613188989133,,,0.6357360191111145,5.300542061570148,inf,,0.7856704017614327
329,5.02751868474564,-5.02751868474564,0.0,1.645567676073279,1.6591938415784544,0.633238609057292,2.6912033648929747,2.4245764017495723,,,0.6038851895711802,4.909282799835968,inf,,0.7530778516597725
330,4.7742101321142885,-4.1694768487131455,0.0,1.5392875676109123,1.5299907858667845,0.818186971734075,3.7068151681276507,1.912674855602139,,,0.648888643467878,4.853631545286591,inf,,0.8014228436668649
331,5.124713540560428,-1.4178374128883853,0.0,1.5763737658377885,1.5369407533301507,0.7447646932585008,3.3796733203861393,5.064760708111365,,,0.6447042257417027,6.370612346898773,inf,,0.9001816456693302
332,,0.0,0.0,1.0379531495610914,1.0278719451710665,0.699901929785466,3.3072957338180076,2.061177213944277,,,0.585052858160615,inf,,,0.6390782206226638
333,5.703782474656201,-3.6504207837799685,0.0,0.9644851825455452,0.9228091629908852,0.7288517757027347,3.6244753235758584,16.35828957624954,,,0.5947193981915972,6.15006957728462,inf,,0.8372843184912782
334,,0.0,0.0,1.7254308649781702,1.6872264761559579,0.8050100990517706,4.440754345352627,5.199235699897147,,,0.6333676938231112,inf,,,0.8656939025239598
335,5.1786826473573475,-5.1786826473573475,0.0,1.6749145523545415,1.5757934786132726,0.7727302818939206,1.480131264687159,0.42693835988338735,,,0.6468212168108125,5.0849997093851185,inf,,0.4833045355100924
336,5.249691090499699,-5.074701387483042,0.0,1.537068274678515,1.5114719219036596,0.7141071547827539,3.5513804843868617,3.5551004809522047,,,0.6547956803312163,5.198974923215773,inf,,0.8360662939834961
337,,0.0,0.0,1.4409256297641082,1.4190539142955658,0.872453842118327,4.192631463450443,29.566679555659924,,,0.6180765742263259,inf,,,0.7906019400332154
338,,0.0,0.0,1.4550989568485029,1.4384422562520747,0.8959926505355656,3.739023776366315,34.75650657622988,,,0.5883313578629602,inf,,,0.9129505604054404
339,,0.0,0.0,1.5524403399979423,1.5323413966373929,0.8139244282101171,3.5269325472337574,2.341197637848813,,,0.5915533975974677,inf,,,0.9292704213504305
340,,0.0,0.0,1.5902145772233782,1.5677880108606512,0.6990391931609333,3.8593695008186404,21.423649306049747,,,0.6153451465759925,inf,,,0.8556893665159296
341,,0.0,0.0,1.6546435855948385,1.6802202103278339,0.7205375506237529,2.9945271846486015,2.988621034978778,,,0.6380535849069913,inf,,,0.9093749748485449
342,,0.0,0.0,1.2551544219558708,1.2253833898684414,0.8353292672821012,3.8494874562499115,4.8247921100004145,,,0.5783247308855777,inf,,,0.9098048465710351
343,5.032162524007612,-4.93151927352746,0.0,1.209119127745726,1.2179699669258037,0.7633638192375916,3.77798186915743,10.034170747357841,,,0.5978297680564633,5.030838001413775,inf,,0.5663700306081809
344,4.880090101374229,-3.39979610395738,0.0,1.6370014403872581,1.6364963008691733,0.7585991699878883,3.4666106009714333,6.607416460055234,,,0.6509067234006624,5.159522074803973,inf,,0.8456134733318732
345,5.026723340323387,-2.3122927365487578,0.0,1.7100977329580072,1.667753480105797,0.78339760025401,4.196445187941293,3.19085956344622,,,0.6468212168108125,5.683979847360021,inf,,0.6795469570514698
346,4.796826276932969,-4.510850846829758,-0.2859754301032117,1.4879075332467262,1.415596251262671,0.7135434845962483,2.4386115695998014,1.2295553566595854,5.268882576894391,,0.6357360191111145,4.7457102087670915,3.953804539443101,inf,0.7436737753355691
347,,0.0,0.0,1.6404695221788057,1.6380185217109224,0.5501076662804845,1.7583420295196281,1.7941817140293506,,,0.585052858160615,inf,,,0.6574622850826998
348,5.51245264007606,-2.131481687496077,0.0,1.40296651829039,1.3584837949999953,0.6639707056017117,2.210984442344973,2.1583727781354356,,,0.6153451465759925,6.3771270279199666,inf,,0.7302403541477465
349,5.584057052559484,-2.0474875859384776,0.0,1.736469105694482,1.6886184822996766,0.7098355551652769,2.7217712985011784,2.731098035545947,,,0.6528756675646988,6.54775254495073,inf,,0.7185588991052457
350,5.378197550647999,-2.563607499142213,0.0,1.7674137729628145,1.733238192929982,0.7112209995605909,2.786661725717969,1.5844214115370776,,,0.6309483474627791,6.055706815836335,inf,,0.7564686918394099
351,5.062948288855496,-1.7889083953956086,0.0,1.6345561365986532,1.5911133961098793,0.7456845276098769,2.6547282588635066,2.1471544774482756,,,0.6547956803312163,6.089444955468186,inf,,0.8320745710059271
352,4.996461773888875,-1.6155226402240694,0.0,1.430320419639607,1.4103337534858762,0.6662207568011586,3.3317665485330927,1.805710886277427,,,0.6425374456860184,6.032286541628237,inf,,0.8256029722939646
353,5.703782474656202,-3.878572082766217,0.0,1.518555815895533,1.4313291024147907,0.7345832923648782,2.325856638965594,1.6748217692026457,,,0.6008849035917525,6.089444955468186,inf,,0.6135769162527651
354,,0.0,0.0,1.6170692350132676,1.6363585359616624,0.7570096058037284,2.7206063164650107,2.91194422890873,,,0.5451288209179292,inf,,,0.9391902524012554
355,,0.0,0.0,1.6638013990251785,1.6351293349617733,0.7293560541667862,2.8932168462618577,3.8008761814100067,,,0.5329562494928909,inf,,,0.8275337997109757
356,4.690261910080501,-4.035536159809716,-0.07626011469418979,1.5097315160846327,1.4902228541877582,0.7512043657860557,4.096237267194735,29.59241339540757,6.007037353511772,,0.6180765742263259,4.700702612709655,5.320567975482857,inf,0.637019689558653
357,5.159325177376957,-3.1127928570174306,0.0,1.6975438911032499,1.6983746222135514,0.8005971434855201,4.513232747399498,20.038690411284527,,,0.6509067234006624,5.561126174254678,inf,,0.7665757523024237
358,3.8576318748004685,-3.7241766740856366,-0.13345520071483213,1.6939930269465524,1.7011486327901637,0.7405833286165457,4.038685415564586,3.698817696205194,,,0.6333676938231112,3.8500920476976557,5.611562752559433,inf,0.5361681325596399
359,4.407327614420777,-4.407327614420777,0.0,1.6195294639492261,1.5746859810360014,0.7814259958195714,4.5997458428104565,6.347232012806827,,,0.6425374456860184,4.349667011900546,inf,,0.6258785943409642
360,4.910801529745322,-4.68163079169054,0.0,1.7688221502969237,1.7632885792044433,0.7904968060413722,4.81062281744929,33.84673980535416,,,0.6509067234006624,4.843709422780274,inf,,0.6275478974480394
361,4.497080793274292,-3.7475673277285764,0.0,1.743735262794019,1.760485364110629,0.7711874578254468,5.861114708114685,70.44212895241851,,,0.6380535849069913,4.399059767230122,inf,,0.5999519958713904
362,5.349266341776612,-2.674633170888306,0.0,1.5364120264989745,1.4338078953674456,0.7445141833951574,3.8185263493488733,3.7845386069843427,,,0.6180765742263259,5.926926025970411,inf,,0.8785912845626724
363,5.500910129126463,-4.510746305883699,0.0,1.7008750709379472,1.7009252150911822,0.7094456321413005,3.6936185446557066,3.6260695182543397,,,0.6125606311107803,5.645513566532225,inf,,0.739557276286211
364,4.790775912690863,-4.790775912690863,0.0,1.3538326529273876,1.335286843324141,0.7480744332324486,3.961465317349833,5.886161566772829,,,0.6380535849069913,4.583191279269316,inf,,0.8197832425517555
365,5.326164007789654,-1.6866186024667236,0.0,1.5921992426307816,1.5956156258960383,0.7442964160218453,3.8031499005063756,7.973473062703404,,,0.6528756675646988,6.410352675548287,inf,,0.7838542290304552
366,4.325602818548669,-4.325602818548669,0.0,1.6460951322585637,1.6440000916558966,0.6751022924803405,4.084089801034529,4.328672374896188,,,0.6333676938231112,4.170505923187664,inf,,0.8252895045680507
367,3.7837736381815814,-2.8686522618513037,-0.9151213763302776,1.6470461024702736,1.6318625507398925,0.7501228317859515,4.118729049608205,14.753888883529171,3.7961124655567806,,0.6447042257417027,3.7761332847354967,3.7602306536690144,inf,0.6920928362389921
368,4.456338347933975,-4.456338347933975,0.0,1.6896541337643969,1.6847410287118083,0.7752177836169845,4.260519319333148,5.4669818161602,,,0.648888643467878,4.347088583312601,inf,,0.8273213585789603
369,5.5742649892647895,-4.608059057792226,0.0,1.5777855122219597,1.5679411347002823,0.7463650478544658,3.9946119347667643,4.253283748765954,,,0.6447042257417027,5.717205494988342,inf,,0.6714700844255487
370,4.143916054536695,-4.143916054536695,0.0,1.7584561595919017,1.7389709830494702,0.7643138238171567,3.9957534432369957,7.080197481141406,,,0.6038851895711802,4.12893600699172,inf,,0.5569029587493864
371,4.511101235623726,-1.767629256274482,-1.811177723987007,1.6932261057510822,1.689815586894341,0.6784896301387823,5.146825740163964,8.674066734496636,2.334896280755801,,0.6447042257417027,4.647150258228974,2.206537799482887,inf,0.5175830684350342
372,4.503610547832403,-4.503610547832403,0.0,1.6802360359769615,1.6510015176650714,0.7560890958441241,3.7744088739439356,4.3896614825022855,,,0.648888643467878,4.389163150243202,inf,,0.5827713843919665
373,5.3119834873663185,-4.6214256340086965,0.0,1.7021965765083589,1.6672258962092792,0.8216756321381454,4.12839144133976,19.58351353443653,,,0.6233814453054027,5.341456859208654,inf,,0.7483836647461721
374,4.686192612926851,-4.483124266366687,0.0,1.170745134017647,1.1525803137502082,0.7369947551598077,3.5568757211397672,3.3492642766807355,,,0.6333676938231112,4.643680040749967,inf,,0.6244639926349517
375,,0.0,0.0,1.2845809345065031,1.2962762521531377,0.6916331964310416,1.9525890579706215,2.001268702274515,,,0.6125606311107803,inf,,,0.6653022637080608
376,,0.0,0.0,1.66292299626787,1.654137596832666,0.5331090705010219,1.6500819391018449,1.475553509993969,,,0.581717464821069,inf,,,0.9219696660994305
377,,0.0,0.0,1.6099576597003087,1.6147533852787306,0.5776921583135506,1.1523380644629482,1.1854687108943114,,,0.5287703885177266,inf,,,0.8713982202097049
378,,0.0,0.0,1.7549340368310855,1.74358262884095,0.4737571526262388,1.5007285811418472,1.1463482553988151,,,0.6068309995095971,inf,,,0.8108504811140632
379,,0.0,0.0,1.52092135093443,1.5034218418113223,0.5722196834727006,1.9107535248248897,1.4342042496900913,,,0.6284777104787076,inf,,,0.9299929219987976
380,5.6983672623080786,-2.4313033652514466,0.0,1.3484166238665978,1.3442296315862585,0.528149883341089,2.4057929777517137,1.7749363680163475,,,0.6447042257417027,6.54775254495073,inf,,0.8019071097994814
381,5.436698239945031,-1.9753336938466945,0.0,1.5998275717465256,1.583778033071697,0.669674509371587,2.071101789477303,1.7856974561217092,,,0.648888643467878,6.3902851124974775,inf,,0.714584585012274
382,4.892087353502459,-4.680096901517353,0.0,1.7186949428151694,1.7047167359059008,0.6871597481801157,2.874054176752644,1.994769118247802,,,0.6584896970785714,4.7982157061450215,inf,,0.5357033984926821
383,5.414597138696813,-4.367775025215429,0.0,1.6542719346456778,1.5882951335026745,0.7486363589379863,4.173415071568138,6.028415354622782,,,0.6333676938231112,5.535447159836986,inf,,0.7304400150202167
384,4.7286645670408065,-3.756348104689886,-0.9723164623509202,1.6516727870450059,1.6481108485591207,0.7945129321417397,3.875459255232204,9.409515171653048,2.940978337587187,,0.6380535849069913,4.56808851108356,2.9076508055045167,inf,0.7729642422277577
385,4.178308811802044,-4.178308811802044,0.0,1.6596869332978699,1.662781703938269,0.7204069474351047,4.836737906495568,14.237294283091124,,,0.6447042257417027,4.168349975532596,inf,,0.8669000601556952
386,4.482939986397489,-4.482939986397489,0.0,1.7451475945862527,1.7337513645223708,0.7889049456272623,3.7920700030202243,4.364674087419374,,,0.6528756675646988,4.442484603710995,inf,,0.6356563769747908
387,5.012937164889091,-5.012937164889091,0.0,1.7669400213052033,1.7512839221809995,0.6746269275949033,2.3647923285706005,1.424642311747189,,,0.6284777104787076,4.886943821753706,inf,,0.7038016961414545
388,4.771611065365624,-3.7059512607673013,0.0,1.2362407527828112,1.2187645813066372,0.6699838667303315,1.9571656058718672,1.5989675034557294,,,0.5947193981915972,4.992467990140807,inf,,0.7683113526374434
389,,0.0,0.0,1.5041925525679898,1.467020687029402,0.760276102694717,2.708358049913553,4.16020947171713,,,0.47824363442641393,inf,,,0.8519867180162127
390,,0.0,0.0,1.6559124363788928,1.6464321438431104,0.7100620588989959,1.995277570648051,2.358135018442809,,,0.4928685327679205,inf,,,0.6719380933684284
391,5.703782474656203,-0.5703782474656203,0.0,1.6161079302890373,1.6056520762480067,0.6269625494088776,2.6304971230856835,2.0356670902365153,,,0.6097226960127671,8.006367567650246,inf,,0.6699218869353833
392,5.134110698410802,-3.9361515354482814,0.0,1.2790624037441616,1.2556350015782949,0.7001527384302418,2.8781323315132306,3.063223996840933,,,0.6566669596287297,5.256962180866123,inf,,0.8586208484083638
393,4.438927649844823,-4.438927649844823,0.0,1.6815389734533865,1.6457219119445892,0.7733254938456114,5.241940080213322,8.118667030401511,,,0.6333676938231112,4.319156170637007,inf,,0.7615444468097582
394,4.991231959448604,-4.758307801341002,0.0,1.746115566006205,1.7332815257009473,0.7467626925177109,4.0860783773522975,3.33050737768298,,,0.6547956803312163,4.930592586422719,inf,,0.591658609092909
395,5.192994174299432,-3.738955805495591,0.0,1.5475581511837895,1.5418803263277838,0.7447835087421454,3.6843078040625112,13.13056730752603,,,0.6333676938231112,5.421112944027964,inf,,0.6404510076591288
396,5.680580895390598,-4.525529446661176,0.0,1.444288804257595,1.4360190297059354,0.7731124946625,3.8559814225643465,3.370075706486497,,,0.6233814453054027,5.898176612684425,inf,,0.7213029835496715
397,4.931666042497402,-4.931666042497402,0.0,1.744923387315268,1.7169250299159888,0.7945553412562855,4.3273928668653605,1.922837489338808,,,0.6357360191111145,4.683732508491193,inf,,0.7951972393997384
398,4.814750832066498,-4.814750832066498,0.0,1.666752126398172,1.660104231947498,0.7067237050457695,4.177666757584816,2.0806730759857217,,,0.62595550513784,4.706833839764592,inf,,0.6041720970702352
399,4.231801369121431,-4.231801369121431,0.0,1.4116833766933237,1.3947258540920338,0.8178175737350167,4.176420638481854,8.123314640868402,,,0.6180765742263259,4.207140056367445,inf,,0.7827732144248021
400,4.138266433978808,-4.110677991085616,0.0,1.6600743618615936,1.622531872223876,0.7102152280057447,3.427732209458287,2.8810850959853362,,,0.648888643467878,4.102376733919365,inf,,0.8162418235874039
401,4.71758167689557,-4.71758167689557,0.0,1.6241840579301239,1.6037475835048545,0.6459520783356822,2.3011345572812023,1.8456533727816948,,,0.6207552362147116,4.661152820739028,inf,,0.6580142195236623
402,3.8125983350065127,-3.8125983350065127,0.0,1.7045156238459016,1.6956729924039475,0.694239778281333,3.925026873096074,7.764782682834769,,,0.648888643467878,3.746979487609146,inf,,0.7196847108078245
403,4.051985835478385,-4.051985835478385,0.0,1.7124104172821948,1.7158981593384885,0.8169069211551498,4.568201010586948,14.280759171617628,,,0.6309483474627791,4.028556821684098,inf,,0.6719273335340984
404,5.016375014662795,-5.016375014662795,0.0,1.6201417324609875,1.6209888387185993,0.7912283481986597,4.059225753176097,10.4600518845749,,,0.6425374456860184,4.924457597855203,inf,,0.6603428083453194
405,4.647425339557278,-4.415054072579414,0.0,1.6846267693701629,1.6757467823590453,0.712000689671945,3.2702337502301257,2.4294796997286907,,,0.62595550513784,4.3565755022443575,inf,,0.8628743723330529
406,4.096258824321045,-4.096258824321045,0.0,1.5306943903271508,1.487494898767257,0.8785046799492545,4.7830349777437675,7.792315940708684,,,0.6233814453054027,4.004503858222312,inf,,0.6489641759194851
407,4.604160061998922,-4.604160061998922,0.0,1.726965252924593,1.7078922325712145,0.7550267119598466,3.368860341290113,1.3355429470207607,,,0.6468212168108125,4.56808851108356,inf,,0.6629400582695244
408,5.106744414014759,-4.289665307772398,0.0,1.4091244319020713,1.3579956467837229,0.8231489180706475,4.271136792492776,9.002537873056248,,,0.6309483474627791,5.225480042595771,inf,,0.779818163555896
409,5.703782474656201,-0.13308825774197802,0.0,1.1346760105761762,1.1209342829576252,0.7668608995241409,4.037863575161619,7.585353914256009,,,0.6309483474627791,9.461654800257088,inf,,0.8046350920975811
410,4.9199076999483005,-4.9199076999483005,0.0,1.732136344327991,1.7112492560233101,0.7411935996217837,3.9003915041255675,4.129919870892522,,,0.6380535849069913,4.88253529146894,inf,,0.8191856131443196
411,,0.0,0.0,1.4821152572973648,1.3895187481683353,0.7379679763262201,3.6043263622127277,5.090331689843666,,,0.6333676938231112,inf,,,0.7098871228793638
412,4.399150662172616,-1.5350564421315105,-2.306868469499241,1.5882263436695463,1.4974964467201266,0.6971188400402817,3.074767889564522,1.8367060699235043,2.586492122572759,,0.6357360191111145,4.360047727955107,2.2517266757605547,inf,0.6074723151396509
413,5.69691963128432,-3.8359258850647757,0.0,1.5748935775677033,1.587193536431448,0.5624245877114674,1.6678924881496189,1.7205833777670976,,,0.6097226960127671,6.089444955468186,inf,,0.7371097320918149
414,,0.0,0.0,1.7408859582132752,1.7247113980745754,0.64041012996317,1.6013287804462548,1.3309161616667842,,,0.585052858160615,inf,,,0.9450289479614378
415,,0.0,0.0,1.6218491971079891,1.6201189950346657,0.3330423525482414,1.4168107676963024,1.1953255626757329,,,0.6068309995095971,inf,,,0.5923527765423497
416,5.703782474656201,-2.9089290620746624,0.0,1.1959096772330098,1.135495968814314,0.45031695487754875,1.502641091929592,1.5396754098791354,,,0.5883313578629602,6.3771270279199666,inf,,0.8193811003773561
417,4.830896607327182,-3.9130262519350176,0.0,1.7648056452539442,1.7117417658347847,0.7292561468386077,3.462810731438427,2.1947759781856124,,,0.6468212168108125,4.9062752787720125,inf,,0.7735255113034661
418,4.537048952518308,-3.4253221215789034,-0.9151213763302776,1.5582678121923426,1.5128613494386318,0.7158720209855779,2.4652026336581137,1.3835354648862839,,,0.62595550513784,4.539590540342109,2.9967733980624014,inf,0.860388028561454
419,4.156382478231124,0.5717446328086435,-4.728127111039767,1.6718826062482848,1.645918711996976,0.6834515707449322,2.8208377244475775,2.01905712502159,1.914457058558726,,0.6333676938231112,4.111151680538482,1.782984522608938,inf,0.7581697725294848
420,4.1916838202415105,-4.1916838202415105,0.0,1.5329317436462047,1.4559666657170176,0.7263518159348075,3.054430946513811,1.5274715334578963,,,0.6547956803312163,4.1526801392350645,inf,,0.5148826833641098
421,4.208579645461926,-3.8298074773703523,0.0,1.5611666653764251,1.5494738507040124,0.8247633922407369,5.267145535084771,19.171358529765254,,,0.6284777104787076,4.0943445622221,inf,,0.6948568913324591
422,5.03528490157454,-4.7965625114916195,-0.17158525806192704,1.2921873924154066,1.2760064798321908,0.7485001454665092,4.343010990485306,15.087205838475828,4.320760641858449,,0.62595550513784,5.000684963243088,4.209655408733095,inf,0.6602930654439155
423,4.66098106939784,-4.66098106939784,0.0,1.550945235475262,1.4983172032353722,0.7408793336445811,2.675347143105942,1.2797960529208527,,,0.6468212168108125,4.585367558691911,inf,,0.7108214549269773
424,5.703782474656201,-1.0647060619358242,0.0,1.3691888086288198,1.2952230545246388,0.6862442129885603,1.9665097707424188,1.2125535982566875,,,0.6584896970785714,7.382213258577253,inf,,0.7799089781293477
425,4.680612401082845,-1.364712734076118,-1.8493077813341023,1.670889606678812,1.6591996686400057,0.7415841276018714,3.6553558798251284,3.350928873364589,1.939232346524284,,0.6425374456860184,4.995746681602505,1.8371072892065141,inf,0.6394922438421028
426,5.024884452221272,-3.684915264962266,0.0,1.6992783261220359,1.686855957049636,0.7725867621950445,3.2572529959331957,2.1172648087102792,,,0.6547956803312163,5.161458183830839,inf,,0.6160647156291723
427,4.3967214896586215,-2.9897706129678623,0.0,1.4708899986494488,1.4590429166261751,0.7609505140231422,4.685571910699017,5.511370313631987,,,0.6403206450210053,4.619719967002823,inf,,0.6210688406559894
428,3.890917686423946,-3.890917686423946,0.0,1.7369953453260514,1.7445129894862954,0.7306851771776827,3.593702724570527,2.9695534556809076,,,0.6547956803312163,3.85795578415787,inf,,0.8104953870252359
429,4.766796859549952,-4.766796859549952,0.0,1.722739837488069,1.6880239918669062,0.7736831743683902,3.1906952930694295,2.3500028475730543,,,0.6380535849069913,4.7342669815447485,inf,,0.516835229315489
430,4.562229535206898,-4.562229535206898,0.0,1.6688958927796604,1.650853149997626,0.7648350173993905,4.623197237129937,14.450619449404353,,,0.6509067234006624,4.468311003270894,inf,,0.6048737586737616
431,5.028418081983496,-3.4360856893553886,0.0,1.6630642258095887,1.6876827278703608,0.7493713010751856,4.522320020391643,6.880243542886522,,,0.6357360191111145,5.2785147392518565,inf,,0.6419829357834153
432,4.906172772824424,-4.906172772824424,0.0,1.7384102104779362,1.7297761081206988,0.7248742379442062,2.4427600643898972,1.3485409748844348,,,0.6309483474627791,4.799564324016315,inf,,0.48543774514633353
433,5.688714057687506,-3.48907795538167,0.0,1.2531727028267672,1.1180299363194666,0.5949322384210715,1.279551294969474,0.9554042378379424,,,0.6207552362147116,6.171122986482453,inf,,0.7644395169513101
434,,0.0,0.0,1.5495032369177848,1.4936769026620487,0.7176715252592005,0.7446551716317962,0.561483554147104,,,0.6180765742263259,inf,,,0.934366064157532
435,5.230367131954369,-5.0211524466761945,0.0,1.68729442276374,1.6129273609351649,0.7409124993405178,2.4166862805113816,2.0697347465471077,,,0.6207552362147116,5.104945973567497,inf,,0.7368523899764812
436,4.243224198459559,-4.186647875813431,0.0,1.0235917170157818,0.984496343343093,0.7137884560850561,3.7914881378671845,3.037788068509957,,,0.648888643467878,4.185729124023953,inf,,0.7800956309166182
437,4.667335156634509,-3.827214828440298,0.0,1.5168822480644901,1.4769932203994307,0.8147811479879965,4.726156960934336,3.641729314293757,,,0.648888643467878,4.733003557497976,inf,,0.6948972648247422
438,5.021689902320636,-2.9293191096870377,0.0,1.618544416275081,1.6317801495619868,0.6644267237727639,3.091404733548678,2.0037435468126428,,,0.6403206450210053,5.42867918441128,inf,,0.644965485203708
439,5.170580305636432,-5.170580305636432,0.0,1.6013709513009031,1.5908808396630951,0.8203243896227905,4.161024976327926,4.900584919129769,,,0.6468212168108125,5.121566854803538,inf,,0.6501240964930673
440,4.688232816121451,-4.010010830962811,-0.3813005734709489,1.5156042278196376,1.5004064596353506,0.7047764304037688,2.907755879208692,4.014803803270266,3.944565916050398,,0.6357360191111145,4.683732508491193,3.7281001672672174,inf,0.6611181283645116
441,5.026311857085448,-5.026311857085448,0.0,1.6635621321142062,1.6148098655298742,0.7818364150948424,3.5030594086911506,15.304249542540987,,,0.6309483474627791,4.921404160368313,inf,,0.7822205982270989
442,3.813697196537574,-2.726990562145369,-1.0867066343922047,1.500214119743026,1.4914879602617894,0.7552478586428816,4.35358080041567,20.742364284743196,4.353822497894825,,0.6602640781246099,3.751227782882219,3.613285898595633,inf,0.6355157404973456
443,4.699076831820955,-4.699076831820955,0.0,1.6533434745807172,1.6666862637449145,0.8162631529878001,4.173286186173204,15.106855559676955,,,0.6233814453054027,4.573456210498564,inf,,0.725084827349191
444,4.960907067410367,-4.960907067410367,0.0,1.741368459042362,1.6882774342336073,0.7962732776015109,3.8353332773838145,3.0471504599905304,,,0.6309483474627791,4.817263901115716,inf,,0.6923646709382346
445,5.3299646148672375,-4.885388726275332,-0.26691040142966427,1.3485043193096184,1.3312435667393356,0.7236843204307728,3.8927441310041146,2.905637599379482,4.051607709875369,,0.6097226960127671,5.269837895226168,3.4986697244709752,inf,0.7430847812546542
446,5.009265567587056,-3.7903442794742053,0.0,1.267966860537577,1.2445097682362227,0.8001166601085953,3.564953121022321,3.668494777556897,,,0.6425374456860184,5.165341683857237,inf,,0.8326295099648211
447,5.458384942690812,-4.876157215470458,0.0,1.7459541424007212,1.7292807562366401,0.6972875966375339,2.429133759458058,1.2292752420593542,,,0.6619902821573977,5.446559609689129,inf,,0.6488030165650596
448,4.599132217416027,-4.599132217416027,0.0,1.6671643247170138,1.6233364879065886,0.8554569964389237,3.2039368331050477,2.0990787956058816,,,0.6153451465759925,4.375823690549274,inf,,0.6778821692866646
449,4.682141450316924,-4.526070068639693,0.0,1.7218039828477494,1.7478225445136089,0.8220069416113337,3.878256407987463,2.6116942190270183,,,0.6652988471865258,4.562749470104139,inf,,0.6710012021130722
450,4.256537582689223,-4.256537582689223,0.0,1.694036102470676,1.6521343426663915,0.7747612402992321,3.816877074393854,3.009507596858958,,,0.6509067234006624,4.216888914980195,inf,,0.7224001572509015
451,4.799710058098735,-4.799710058098735,0.0,1.696818228155008,1.6880894334204672,0.7084017857129135,3.9558848252303584,2.9340669042329726,,,0.648888643467878,4.75728590072498,inf,,0.7454842955846772
452,4.467564681403911,-4.125051389162945,0.0,1.679552337580725,1.67355729183577,0.7596460395237312,4.173712994454779,4.381598633867381,,,0.6309483474627791,4.462513885586568,inf,,0.5639870579066303
453,5.3794539221155295,-4.984960634493724,0.0,1.6609380858507352,1.6597075107509247,0.6660673306951043,3.5850979507806233,1.820507179664859,,,0.6509067234006624,5.348441753730605,inf,,0.6482873694842083
454,4.445669215525157,-3.3970926384800473,-1.0485765770451103,1.6835746373675446,1.6764178157759535,0.7546900290215928,4.079508277140665,3.1581441594035917,3.132155314663635,,0.6403206450210053,4.31748811353631,3.082743650543621,inf,0.6924221433222459
455,5.657005671060131,-3.073639747942671,0.0,1.43444177418133,1.3969836983311095,0.606255077705378,2.7346277759793756,2.1499589082118002,,,0.6468212168108125,6.248509650097873,inf,,0.7127408248791721
456,5.127639176447218,-3.2475048117499044,0.0,1.3808788688066738,1.3346627272160392,0.7108565152878317,1.6449041345022088,1.2660564871258406,,,0.6333676938231112,5.403677882205863,inf,,0.690451342373017
457,5.7037824746562,-3.156092969309764,0.0,1.5514930887269462,1.51812469943036,0.49853541176631017,1.7500085759772261,1.6305030635229918,,,0.6097226960127671,6.295577160955859,inf,,0.7846025789905965
458,5.7037824746562,-2.832878629079246,0.0,1.6478765789916845,1.5883966617169287,0.7342432051036465,2.406947236892332,1.990757325380597,,,0.6068309995095971,6.403618643366943,inf,,0.7412344500332166
459,4.092110608097831,-4.092110608097831,0.0,1.672875501853759,1.6139688319505239,0.7909255498478157,3.281608058054758,1.677104238372122,,,0.6333676938231112,3.9941976136171617,inf,,0.7041347567431943
460,4.62056915287296,-3.838902977257515,-0.7816661756154454,1.609906870078086,1.592441168216742,0.7711880310260484,3.5421374382195006,2.1581384814015214,3.3200170518332053,,0.6447042257417027,4.417308448818521,3.276684433789573,inf,0.7725541416115603
461,,0.0,0.0,0.917321784192796,0.8120632273410281,0.662299477934511,2.349353948143186,1.87650300887138,,,0.3943459996787778,inf,,,0.8318224226447956
462,,0.0,0.0,1.4995682071658534,1.4625278428290132,0.9396950451513584,3.2291425839614694,5.5696727963393595,,,0.31914402280573173,inf,,,0.8390583070882972
463,,0.0,0.0,1.6743437453340444,1.6369010995346933,0.890591830446362,2.815427835699873,3.1914079858408932,,,0.468121228110369,inf,,,0.8791703827723687
464,5.02090414121566,-2.259406863547047,0.0,0.6921485341831193,0.5856271126246295,0.588507958304618,2.623812458517467,3.19590922173263,,,0.5022576003740722,5.816577968801545,inf,,0.9051069856580404
465,5.7037824746562,-0.9506304124427,0.0,1.1153566139321431,1.061784131406866,0.7200408611890448,3.437874853383942,3.886718057190161,,,0.4302020962658841,7.495541943884256,inf,,0.8700382524747395
466,,0.0,0.0,1.7633937975790768,1.7231671951268934,0.9514223806844403,3.9108865267012987,5.264445923386564,,,0.31914402280573173,inf,,,0.8095475922767311
467,,0.0,0.0,1.6158423437514675,1.5816143905119315,0.9525287612748893,3.6780081618732687,5.1984644281282995,,,0.40055318934786044,inf,,,0.8429915203384174
468,,0.0,0.0,1.527979739153555,1.533317771352782,0.9518199043987324,4.647027981289224,11.228545331139571,,,0.31914402280573173,inf,,,0.8600118029246446
469,,0.0,0.0,1.6365073579947698,1.6376865507944924,0.9630907735431291,4.081050813216172,24.06053119107331,,,0.2548524784312949,inf,,,0.8467499845148609
470,,0.0,0.0,1.2474809284212245,1.2438177133127521,0.8922593779133731,3.8002305571168664,9.358542667464413,,,0.4576907132971797,inf,,,0.8428745595909403
471,,0.0,0.0,1.251525154247466,1.226947119516901,0.8963185933340534,3.9737015035811156,4.644897183258924,,,0.4302020962658841,inf,,,0.8530701809291513
472,,0.0,0.0,1.2541515261061313,1.230089525776057,0.9369254529124648,3.8060168296367953,13.409842609954634,,,0.38163879478178075,inf,,,0.8123310099063166
473,,0.0,0.0,1.6214132277814395,1.5812108382155845,0.9489672645783797,3.7636073735948434,19.739052722458226,,,0.3943459996787778,inf,,,0.8545222478161832
474,5.703782474656201,-0.30420173198166406,0.0,1.4491012658209628,1.4189129249026025,0.8253932031153306,2.693341222646232,2.420540343692535,,,0.47824363442641393,8.63497622707262,inf,,0.8907827316208372
475,5.703782474656203,-0.38025216497708014,0.0,1.3365993989119036,1.3061408846333868,0.6925758321775357,3.5951407640533843,6.645120572319215,,,0.44144624493110796,8.411832675758411,inf,,0.9213400430442696
476,,0.0,0.0,1.7234556631399647,1.7011753278342236,0.8848303706667436,2.4904081565360485,1.7052243266551206,,,0.45235697871908603,inf,,,0.9025142119923696
477,,0.0,0.0,1.6042155869485037,1.5671808166649803,0.8881508081605094,2.9019551708859663,2.264445326637841,,,0.44144624493110796,inf,,,0.8931288473782583
478,5.7037824746562,-1.406933010415196,0.0,1.5992827088848252,1.5891954424653054,0.7181102323649702,2.930127007415782,1.474596703354845,,,0.5329562494928909,7.1034998561082325,inf,,0.8992897808116396
479,,0.0,0.0,1.6711142923666922,1.6023981400386764,0.8971722992737866,3.216842358422605,3.0810355852829816,,,0.62595550513784,inf,,,0.8761223777011024
480,,0.0,0.0,1.6249837286444646,1.5917005045819588,0.8769991085346243,3.349801283014133,3.778574087236787,,,0.585052858160615,inf,,,0.9323818712717564
481,,0.0,0.0,1.5843246816652303,1.5662032165349868,0.8670872717058046,4.171154392551473,2.3611887247181365,,,0.6125606311107803,inf,,,0.9181924973284536
482,,0.0,0.0,1.6611663760879167,1.6311086459271351,0.8746749616285446,3.682217072231897,19.832425166489372,,,0.6008849035917525,inf,,,0.9087693401773009
483,,0.0,0.0,1.6720589092536262,1.6206375349198976,0.8863805376545055,3.2180377369669215,2.8700520725697505,,,0.5883313578629602,inf,,,0.8530855498767844
484,,0.0,0.0,1.7486638246207376,1.7222235773581618,0.9002360916106329,3.1770821005775187,21.61038565224627,,,0.5947193981915972,inf,,,0.9090579840174464
485,,0.0,0.0,1.7044309680061631,1.6552907238007408,0.8779374384360094,3.7556270105994685,3.70018477159697,,,0.5915533975974677,inf,,,0.8977277080349909
486,,0.0,0.0,1.6764850091444041,1.6603502616579038,0.909911384035875,4.679771136910453,82.26725025748422,,,0.6284777104787076,inf,,,0.9150602672859116
487,,0.0,0.0,1.6678796453493874,1.640527870230267,0.9259727231576991,4.264489991923573,9.257198844172267,,,0.6357360191111145,inf,,,0.896254910216938
488,,0.0,0.0,1.6970417847323045,1.6867538628197403,0.8634965107889918,4.017515587622278,66.57085791297868,,,0.6097226960127671,inf,,,0.8810192398475115
489,,0.0,0.0,1.6792685594394712,1.6262636629367055,0.765213006728329,2.866267050118131,3.011001616582188,,,0.541134803179459,inf,,,0.719765928278368
490,,0.0,0.0,1.5804652889574236,1.5736012499451566,0.9365595416327402,3.1389424718512267,4.787115725714166,,,0.40055318934786044,inf,,,0.7891429953225451
491,,0.0,0.0,1.3858457539974305,1.3460077055080222,0.7270425318872755,3.0341270127041184,3.4141717557721245,,,0.43586655696697996,inf,,,0.8138839371529683
492,,0.0,0.0,1.6766569826709707,1.6665715864130273,0.9506861823920596,3.2923301466916475,3.1670069070861753,,,0.3480560589391537,inf,,,0.8443425761282572
493,,0.0,0.0,1.5491528689255913,1.545703177473407,0.9270462441432678,3.076119229241294,3.160374204654959,,,0.3480560589391537,inf,,,0.862985382831525
494,,0.0,0.0,1.5332105992118479,1.525863337217117,0.9506677065229667,3.234179360236878,3.1050899469602498,,,0.35499006010413947,inf,,,0.8444604654186025
495,,0.0,0.0,1.3218519051623128,1.273695564448928,0.528058871321369,2.828135238863998,3.3372944334767247,,,0.40055318934786044,inf,,,0.8910614076487351
496,,0.0,0.0,1.755996079676143,1.742916663896062,0.9596851972322882,2.4122435328403715,3.19475904497359,,,0.3685265678147087,inf,,,0.8162560191102491
497,,0.0,0.0,1.6278706534422764,1.603126497652685,0.9223617114074089,1.695477410874686,1.963219677621378,,,0.45235697871908603,inf,,,0.8619831437775118
498,5.453479326120664,-1.9632525574034394,0.0,1.2389287099166522,1.1734229652891788,0.692192021076939,1.8006582513070832,1.80391593288195,,,0.5748741956352443,6.417132362533666,inf,,0.8406099240701017
499,,0.0,0.0,1.6006862591877449,1.5926687492591458,0.6239337691156879,2.116625370280514,2.2513783317638256,,,0.6008849035917525,inf,,,0.8243315036005261
500,5.703782474656199,-1.3498951856686336,0.0,1.640172819669622,1.609333735465536,0.5525933021198167,2.4793270856796474,2.2112086591334807,,,0.5113665138247345,7.144885072271086,inf,,0.7749386232444745
501,,0.0,0.0,1.6476325938976846,1.6393968997827582,0.5376852392045405,1.4195333934230576,1.423114202236863,,,0.4732203808476458,inf,,,0.7642063256473385
502,5.703782474656202,-0.34222694847937213,0.0,1.1694013059140524,1.004677804591869,0.5609407373875683,1.3669668539293944,1.3024574700382336,,,0.4880666971167561,8.517193191416238,inf,,0.9034329070727688
503,,0.0,0.0,1.5485306148937061,1.5299512368570365,0.9221930604778187,3.2310647710669307,2.7655105953431005,,,0.41268473150466,inf,,,0.878809105990505
504,5.567628564189069,-1.0392906653152927,0.0,1.3471512576591744,1.329267190275021,0.7236803174366372,2.892666034605544,1.82425338047365,,,0.468121228110369,7.202872329921436,inf,,0.7511520006970457
505,5.703782474656203,-4.525000763227254,0.0,1.6184276427755881,1.605712622028856,0.7431737593793101,3.34044565150097,3.54724933948466,,,0.5113665138247345,5.935294275640928,inf,,0.8784154476019176
506,,0.0,0.0,1.496779700214881,1.4686910309257335,0.7809559667051209,3.4637560303876636,4.752775443213112,,,0.49759852643134905,inf,,,0.906511593514547
507,5.703782474656202,-3.7644964332730932,0.0,1.7010138992852188,1.666689237536021,0.7450044834532096,2.912944890100134,6.615404603263045,,,0.5677978065141052,6.119297918617867,inf,,0.8890010465614993
508,5.703782474656201,-0.30420173198166406,0.0,1.4112945692841476,1.418283942142781,0.7024937474932019,3.5808410406372713,4.872927867247304,,,0.5068466436745385,8.63497622707262,inf,,0.8773839247967778
509,,0.0,0.0,1.6321178378979333,1.6375800397943459,0.8402642574327734,3.0708184441384865,9.325223914458016,,,0.3116047106179316,inf,,,0.8382380420183231
510,,0.0,0.0,1.5836675861540341,1.563072936211491,0.8658197122847552,3.0619142519331097,3.762076105468447,,,0.35499006010413947,inf,,,0.8456074960976736
511,,0.0,0.0,1.4620061206548611,1.4341927245264576,0.9682568735340438,2.6261613825647103,4.247866129310896,,,0.2461092077232671,inf,,,0.7997981531397806
512,,0.0,0.0,1.485858344070667,1.4507787165820885,0.9281824459278609,2.420554199189961,3.057673675450725,,,0.35499006010413947,inf,,,0.8242117980210393
513,,0.0,0.0,1.6327719027454572,1.6303099121516065,0.9453652052540776,2.2293389768985876,3.3550168442053434,,,0.31914402280573173,inf,,,0.7887876466438045
514,,0.0,0.0,1.6481216946845125,1.6277090403870567,0.9709820203578198,2.1561142226590624,2.445593109190046,,,0.3116047106179316,inf,,,0.840061755184408
515,,0.0,0.0,1.7267602877396124,1.7146517995476962,0.9605976611726832,2.135483930472609,2.9965283219855876,,,0.2961247884481232,inf,,,0.7960773681340846
516,,0.0,0.0,1.6703072749567913,1.6487832843311645,0.9594518812125951,2.110548063335935,3.1391692851675375,,,0.34100769111774265,inf,,,0.8141130663222707
517,,0.0,0.0,1.308469926980054,1.300663270262209,0.22798466977061824,2.0182686118557465,2.5142541064314763,,,0.41861278947482794,inf,,,0.7783413859956435
518,5.301585962479441,-1.431428209869449,0.0,1.4895144841083836,1.4797973840583067,0.5671329001045451,2.1799225862320926,2.328802470064918,,,0.4880666971167561,6.555534685392785,inf,,0.5207373060924838
519,,0.0,0.0,1.6958885165275437,1.6606566861497056,0.9252844549600155,2.3575065845472176,2.992557951771482,,,0.4928685327679205,inf,,,0.8313211647255518
520,5.703782474656202,-3.4602947012914287,0.0,1.2933185201450859,1.2508177070713982,0.6652071984862632,2.2911924853991246,2.108312459863724,,,0.44694259446804574,6.203558262235607,inf,,0.8934256634055924
521,5.703782474656204,-2.2625003816136275,0.0,1.3268382773157779,1.3196585969809167,0.5379793478780132,1.9880484767842919,2.2701317994145214,,,0.5641709578113449,6.628441456200873,inf,,0.5995988111231983
522,5.703782474656203,-2.0723742991250873,0.0,1.5726548137901624,1.5558251530454077,0.5226915636002009,1.598414639787187,1.268763970768862,,,0.4576907132971797,6.716217067083258,inf,,0.7816665831946636
523,,0.0,0.0,1.672918605541491,1.648129930406648,0.6008746770051712,2.5435033337950994,3.011694573311771,,,0.5713653840954815,inf,,,0.6956695588054304
524,5.693333019672886,-3.776577569716348,0.0,1.4831491215464236,1.466372874484651,0.772182009018142,2.7471557708951,2.9681695382727797,,,0.5567373465730988,6.099297251911198,inf,,0.7761644818074398
525,4.73704146475135,-0.8872916365660763,-0.5338208028593285,1.5623329186738943,1.4814869955200218,0.8009772285420818,3.128411231208577,2.330380739372056,2.5582715549305073,,0.6357360191111145,5.546778725846536,2.528581713290662,inf,0.5070150884313968
526,5.703782474656204,-2.2434877733647736,0.0,1.214671752641408,1.2083660832041607,0.47914094559921766,2.285889362253572,2.4074690247291324,,,0.5451288209179292,6.636880324846738,inf,,0.8353934257692877
527,5.703782474656203,-2.281512989862481,0.0,1.6762782575019388,1.6504877468690524,0.5222508153805105,2.659249257823797,3.255178455633739,,,0.581717464821069,6.620073206530356,inf,,0.6137957497649009
528,5.024462147324948,-4.354533861014954,0.0,1.132033287421523,1.0524463223452116,0.5591439554677317,2.5723204572140763,2.6877014496277285,,,0.5641709578113449,5.132802928070463,inf,,0.8845756999572434
529,,0.0,0.0,1.6560069260597428,1.636671355438495,0.9069713602176586,2.330868485074881,2.0352243027937043,,,0.44144624493110796,inf,,,0.8815722084083578
530,,0.0,0.0,1.6697924728889222,1.5787092899854196,0.807339857717286,1.9020641090573212,1.783321739026092,,,0.541134803179459,inf,,,0.8958680021524731
531,5.390405588426034,-4.689652861930649,0.0,1.578538442700001,1.4969466785483374,0.5317658874388593,1.8912622172123987,1.5941542518534928,,,0.5748741956352443,5.4700287442299755,inf,,0.6541817667832893
532,4.497254679369284,-1.0464844894571965,-3.4507701899120877,1.7064267567926599,1.6759239302913922,0.5900811482984714,2.372198776829697,1.6950523959638941,1.843389638083961,,0.5883313578629602,4.476093143712949,1.7329747743336275,inf,0.6629324291960538
533,4.221991112925329,-4.221991112925329,0.0,1.7395770719553643,1.6460749398903625,0.7844154232597369,3.1591141459685983,1.9207568753432036,,,0.6447042257417027,4.171945808245653,inf,,0.603975978634718
534,5.573817378301213,-4.756324162817035,0.0,1.518867982597205,1.4590904244905523,0.788942030042906,3.2747320933802384,4.176735513629193,,,0.4880666971167561,5.690537247906181,inf,,0.7972240610851056
535,4.6861653532767145,-4.6861653532767145,0.0,1.4129063849639665,1.40223588164128,0.7466896079328622,4.109447246123297,22.498422933394153,,,0.6403206450210053,4.588640884036881,inf,,0.7815102528261257
536,5.044806413980217,-3.934949002904569,0.0,1.5496029616011124,1.5182649877360066,0.7648433232139003,3.767625452036136,3.239780114345455,,,0.6425374456860184,5.14607326499136,inf,,0.7693441127201754
537,4.576599910891103,-4.0618441367053215,-0.5147557741857811,1.55614427006451,1.5311268344677125,0.7811698461337256,4.162324015520144,8.584447370570107,,,0.6357360191111145,4.35484390008008,3.7568841832279936,inf,0.6304644141962953
538,5.677870430523121,-2.025107120219913,0.0,0.583348296109366,0.5456609758901657,0.6167242705029021,2.7306719799303285,2.4557467641085973,,,0.6008849035917525,6.698034748000068,inf,,0.7550244047502797
539,5.356003105558233,-3.0172150827978044,0.0,1.412231876004668,1.3073114792650427,0.6893222055453387,3.0123564552911106,3.229093318596878,,,0.5883313578629602,5.7515731384925495,inf,,0.7434282715247816
540,5.53280617011808,-5.53280617011808,0.0,1.773523117140428,1.7685357429888224,0.5941677369407502,1.8928146785501612,1.537917716353665,,,0.581717464821069,5.4833091518978705,inf,,0.6592969846206452
541,5.703782474656202,-4.410925113734129,0.0,1.4671920120840292,1.442607639990226,0.4686182493067452,1.719382209306942,1.961977526838662,,,0.5329562494928909,5.960827577646092,inf,,0.8255185463568615
542,5.672275784630749,-4.991602690475059,0.0,1.4666706802557576,1.3767291275216198,0.4262715285233541,1.978607507268123,2.1617774243061767,,,0.5202020156036558,5.787164083595252,inf,,0.6339229105546128
543,5.703782474656203,-0.5893908557144742,0.0,1.5184355562883731,1.4773115395939442,0.5850910361593122,2.7119654369826844,3.2759694780303215,,,0.5490601803369085,7.973577744827256,inf,,0.8049452715924538
544,,0.0,0.0,1.3466367906392336,1.3038379852508177,0.6252740612325709,1.6575661896205738,2.278621287742603,,,0.4880666971167561,inf,,,0.7724398052336244
545,,0.0,0.0,1.6397873633120137,1.5782843155056077,0.861997602001161,2.713148286709429,3.138979063456061,,,0.5451288209179292,inf,,,0.8243995093062765
546,,0.0,0.0,1.6073885219724589,1.5731655042021155,0.8714559210624128,2.4524838860170517,2.7268603465430243,,,0.5370774965580548,inf,,,0.8224848401989905
547,,0.0,0.0,1.7284561999530987,1.6767264016977694,0.9176801289123857,2.811670380356666,2.531534440586801,,,0.48319206230712763,inf,,,0.8478556686556314
548,5.703782474656201,-0.9316178041938461,0.0,1.4923103295194253,1.4594422180125148,0.7617076421964402,2.332922169262786,2.5240256857905403,,,0.4880666971167561,7.515744651201776,inf,,0.8641873859058334
549,,0.0,0.0,1.6515749483749866,1.6284311717128226,0.7292643351152862,1.9256118952246746,1.906589278778487,,,0.4732203808476458,inf,,,0.8124350831164568
550,,0.0,0.0,1.4762501172083378,1.4631770957779355,0.5969778386373105,1.5695037153376956,1.2113113638855348,,,0.5490601803369085,inf,,,0.6634530405742664
551,5.703782474656202,-0.7034665052075982,0.0,1.6320530270663507,1.5882367403818294,0.5051664988767197,1.7285814066295366,1.4904760631694522,,,0.5022576003740722,7.796647036668178,inf,,0.5682819483319498
552,5.703782474656203,-2.034349082627379,0.0,1.681754348557819,1.6827931916388519,0.5177617898506011,2.302082074900182,2.017231509219442,,,0.5158180382284114,6.734736114850496,inf,,0.6759026662229192
553,,0.0,0.0,1.7647055843837003,1.7419100230952071,0.5781191108305862,1.3214512632892477,1.2338191443720057,,,0.5329562494928909,inf,,,0.9174337843049974
554,5.625084541492191,-4.293814533339039,0.0,1.5577839169173757,1.5422492548211315,0.6736268770617836,2.1354125486926248,2.3652122115434984,,,0.5978297680564633,5.866301404153976,inf,,0.8078137068535476
555,,0.0,0.0,1.6093707817382674,1.5787923999031446,0.7479491723637486,2.4296138441470507,2.8220833602491724,,,0.5713653840954815,inf,,,0.6799564553856688
556,5.703782474656204,-1.9582986496319632,0.0,1.7618809168531206,1.758473373801004,0.6945729600720112,1.9058351590280018,2.33941817450651,,,0.5641709578113449,6.772835961082766,inf,,0.6504044406074748
557,,0.0,0.0,1.716056011352934,1.7026858391421027,0.8714272017331375,1.932201925982853,1.8880246165423855,,,0.541134803179459,inf,,,0.8123725576973292
558,,0.0,0.0,1.682299072894629,1.658362616081903,0.8264803285063813,1.6926327395536596,1.8129839041158793,,,0.5490601803369085,inf,,,0.8341629777600295
559,,0.0,0.0,1.747877196824555,1.7090281088194745,0.8881403008964328,1.274398802137843,1.6641145740146508,,,0.5158180382284114,inf,,,0.8338504710231177
560,5.665974446625659,-4.155047927525484,0.0,1.6872140962853508,1.6668518911552996,0.7679497072794861,2.228232627733954,1.8828122636377018,,,0.581717464821069,5.960827577646092,inf,,0.8806059268833254
561,,0.0,0.0,1.7512772143685809,1.748970947788448,0.8664238735341259,3.3117716677977893,2.7267101616197027,,,0.5748741956352443,inf,,,0.8984423288883245
562,5.7037824746562,-2.9849794950700783,0.0,1.5308087093724596,1.4869065481200396,0.6150704037161818,2.695799627875726,2.9827387506132528,,,0.5451288209179292,6.351319143964094,inf,,0.7299675983120693
563,,0.0,0.0,1.5302063735297622,1.454832915958638,0.8568884438112577,1.1942510898344707,1.1377472241256326,,,0.4302020962658841,inf,,,0.803010684066069
564,,0.0,0.0,1.6224248916490498,1.5558591859763267,0.6566306125205397,1.5185484660115656,1.3618977454856684,,,0.4928685327679205,inf,,,0.7214343803294264
565,4.991334469867814,-3.5771230367386004,0.0,1.6211292673387239,1.5862784788929531,0.6666062004697627,2.1873883214226386,1.548612213818699,,,0.6038851895711802,5.155661066146513,inf,,0.7938138274693268
566,4.933847382624795,-2.976754587516959,0.0,1.7462845620095162,1.6650636587851997,0.7546195251405152,2.8232963496128485,2.123767754045935,,,0.6528756675646988,5.207055775269712,inf,,0.7905305300671037
567,,0.0,0.0,1.546491282465823,1.5506674314126292,0.6058983336917875,1.4313896716655017,1.0710916445657097,,,0.6180765742263259,inf,,,0.8770445735393809
568,,0.0,0.0,1.6018890714364047,1.593687401086231,0.1743974758417658,1.0116249765803091,0.8677558315881921,,,0.6180765742263259,inf,,,0.8488185459987638
569,4.827788265318911,-2.4621720153126443,0.0,1.6365630173937475,1.6163379711346415,0.8256686026470532,3.4713759233651023,2.547957578023665,,,0.6380535849069913,5.2234160583749185,inf,,0.7992264418378786
570,5.570983248474157,-3.973968050578232,0.0,1.5823331228646218,1.5392080185001655,0.806776955820965,3.2650300228801297,1.5066609312844075,,,0.6447042257417027,5.866301404153976,inf,,0.5552882333458256
571,5.263031278321887,-3.2279925173707573,0.0,1.674714625695819,1.631163136633763,0.700034390970145,3.463225378709055,2.7933360674208627,,,0.6333676938231112,5.700454684563526,inf,,0.7862699006367289
572,5.172840059042827,-4.241728848415119,0.0,1.462042485712109,1.4286994985160009,0.7681761517852687,2.8798185583100486,1.5013356122714483,,,0.6380535849069913,5.165341683857237,inf,,0.7176455156146366
573,5.214029833565583,-4.50144575631162,0.0,1.487515130481734,1.4231507454164043,0.7559765252285499,1.3623410605893918,0.2935941760846774,,,0.6403206450210053,5.316255067234704,inf,,0.6855083030095261
574,,0.0,0.0,1.6109151093496328,1.5857119594840368,0.9090922180077203,0.07864994253290304,0.18617365755111148,,,0.6309483474627791,inf,,,0.9250425447246604
575,5.115089048427699,-3.938618567289329,0.0,1.0690886829406858,0.9961004134662665,0.8102654037108004,2.813539240249064,0.5753249353829721,,,0.6380535849069913,5.336827221309912,inf,,0.7219457784418044
576,5.223911349653161,-5.206498311820984,0.0,1.7198930700044484,1.710162915667869,0.8049040285980325,3.1360673196385096,1.4916732420130971,,,0.6447042257417027,5.181028280024937,inf,,0.6079851371784332
577,,0.0,0.0,1.4953971800660064,1.481385433782422,0.7172176099103561,2.785006278561733,2.9727499832352264,,,0.6180765742263259,inf,,,0.7001365875061567
578,,0.0,0.0,1.55586873270624,1.524464102988291,0.6484016309852031,2.1359929998309934,1.5936462889575695,,,0.6207552362147116,inf,,,0.9459589806407434
579,5.479454841674982,-5.022833604868733,0.0,1.561090960894183,1.5781814113635446,0.5071314559046968,1.9348631613891247,1.70710967210962,,,0.6153451465759925,5.510411081675661,inf,,0.893450966078482
580,5.107426116606877,-3.7794953262890894,0.0,1.6265279248499835,1.5991678483505507,0.521643203097615,2.4968005008628236,1.909275056723001,,,0.6309483474627791,5.38411735635137,inf,,0.69748254656059
581,5.499236301224125,-3.666157534149417,0.0,1.677692117768731,1.6803235360734237,0.7216912326536156,2.60173234781722,2.590673531654451,,,0.6309483474627791,5.831615846166086,inf,,0.8352933142084421
582,5.703782474656201,-0.8555673711984302,0.0,1.5182378593073707,1.499259539608891,0.6485884774566238,2.375483633768101,2.2055264700522654,,,0.62595550513784,7.600902459542082,inf,,0.7869183316378693
583,5.637525758867382,-2.55567834401988,0.0,1.7285064063019955,1.6506950007223236,0.5613237560533898,1.817672198739776,1.8201728209770605,,,0.6153451465759925,6.403618643366943,inf,,0.5916269839794928
584,5.364798087083089,-4.899848919535887,0.0,1.5613141329294746,1.5094796709888152,0.5998906486728797,2.186273458256776,1.92075253134555,,,0.6068309995095971,5.39629777490824,inf,,0.627195995696555
585,5.703782474656203,-4.563025979724962,0.0,1.4145162913652825,1.3979404996041005,0.4696703505777505,1.6480670505529018,1.2983161441284805,,,0.6207552362147116,5.926926025970411,inf,,0.788998572907373
586,5.703782474656202,-0.7224791134564522,0.0,1.409421853079232,1.3893652819568791,0.6122316305138407,1.99839548404119,1.6091529500773665,,,0.6509067234006624,7.769978789586016,inf,,0.7912199865059716
587,5.0726641398978085,-5.0726641398978085,0.0,1.7419310632587417,1.7264424571370651,0.7413915935367,2.604054186260784,1.9508123648785372,,,0.6380535849069913,5.025748931906304,inf,,0.8327153880670237
588,4.739201174755788,-2.9541020655977746,0.0,1.729620332432166,1.6922651281805645,0.785389360930851,2.5525675045750504,1.2072333504298096,,,0.6309483474627791,5.104945973567497,inf,,0.6200558186961638
589,4.783953859018513,-4.385291037433637,0.0,1.6490392765023647,1.5278095946069457,0.7395537790471403,2.4069811072193597,1.1169102772019595,,,0.6068309995095971,4.79552391447931,inf,,0.7453870508983313
590,5.472733414469551,-1.5323653560514743,0.0,1.6340289751907229,1.5878486946088994,0.7078099653093803,3.37781572865734,4.505192112012729,,,0.6068309995095971,6.689066078017308,inf,,0.8721860300977704
591,5.178649364526345,-4.419114124395815,0.0,1.7133725550146266,1.6619643286958214,0.7494243423885163,2.674356430661114,1.9617506654227213,,,0.6509067234006624,5.235864351901487,inf,,0.8780717083658748
592,4.888163741354514,-4.578580037735395,0.0,1.5732099696124828,1.5679051521247884,0.5503367187689834,2.556184667889987,1.7125535353023755,,,0.6547956803312163,4.88547215114225,inf,,0.7822100852134484
593,5.380313790394892,-0.6778024440245624,-0.6672760035741606,1.7052001756736748,1.705293654133147,0.5602768576840337,2.3873210991965474,1.804097838043361,1.1384545017719734,,0.6602640781246099,6.707084583519986,1.1451323043030026,inf,0.7218430475344565
594,5.703782474656202,-3.270168618802889,0.0,1.565789281453908,1.5513481367937905,0.623047590340165,2.1618491415899572,1.4937285424509845,,,0.6380535849069913,6.260070472498949,inf,,0.788046091018069
595,4.963399433967888,-3.093852313839984,0.0,1.7167695435121626,1.6782156075915045,0.7472127074897353,3.3953582012371992,2.627822532567457,,,0.6403206450210053,5.318520073865556,inf,,0.8378185136515147
596,5.210916401201785,-1.8759299044326425,0.0,1.5153334951947042,1.4689670451228722,0.73777452709876,2.421141034152803,1.7837750009790705,,,0.6528756675646988,6.129450290081885,inf,,0.7460793983372828
597,5.703782474656201,-0.30420173198166406,0.0,1.7045081481260185,1.6768276503388435,0.7147433924855199,3.209430005879003,4.549184219163404,,,0.6468212168108125,8.63497622707262,inf,,0.8614521738602146
598,,0.0,0.0,1.525702240422981,1.5118613184946923,0.6700736832499407,2.351746513854797,1.6587970068680016,,,0.6509067234006624,inf,,,0.7947043055491894
599,5.703782474656202,-0.34222694847937213,0.0,1.5807449093248787,1.5483844622694742,0.706152984570567,2.7306175325497417,2.5234218943877553,,,0.6468212168108125,8.517193191416238,inf,,0.8530509853925102
600,5.264078967113252,-4.15862238401947,0.0,1.6875411225558452,1.6624543602641577,0.6110125432679329,2.4205643596582425,2.245350001184376,,,0.6425374456860184,5.388971734816168,inf,,0.8130590268209971
601,5.435678376515091,-1.9206063597019989,0.0,1.7024497532652982,1.6493350629284271,0.7057708704497494,2.638725859801584,1.6188934837408495,,,0.6468212168108125,6.417132362533666,inf,,0.715991989730691
602,4.890408037747582,-4.450271314350299,0.0,1.673865790929213,1.6296026667176893,0.7697180259239171,2.9222988637359446,1.58834683493235,,,0.6468212168108125,4.829703591591356,inf,,0.6915854842592726
603,5.49853015419913,-3.775657372550069,0.0,1.550477047558154,1.5236848045316504,0.6658535377820464,2.182759093496607,1.2162624711183825,,,0.648888643467878,5.820316290912153,inf,,0.6569996980795405
604,5.180524777254906,-1.8477205038875832,0.0,1.7552276825650561,1.7426883980036376,0.7628592365033833,2.6497687363468754,1.7124028452343003,,,0.6619902821573977,6.129450290081885,inf,,0.6102118355824473
605,4.621970455383778,-1.2410254432866124,-0.8388612616360877,1.5011049583019453,1.5061657946894356,0.7967288653431743,4.137865604633331,3.4474912086993648,2.400741351778597,,0.6602640781246099,5.362559635276391,2.2608156801177506,inf,0.5374247887369765
606,5.266136046838209,-5.037936818141887,0.0,1.576608863307144,1.5525928928254373,0.7632439562424082,2.9720527826890866,1.3826949302869322,,,0.6207552362147116,5.235864351901487,inf,,0.7780227033759821
607,4.745402906653986,-4.49231475163244,0.0,1.60199102022221,1.5776686738669599,0.7652923920900417,3.25241610219766,1.6494494939580169,,,0.6425374456860184,4.759876575749073,inf,,0.8656994187887941
608,4.608820792234868,-4.608820792234868,0.0,1.6123887668492307,1.5587766925667172,0.8264309333308799,3.719545755692684,5.007574445718367,,,0.6403206450210053,4.560621809727023,inf,,0.6897344848977617
609,4.263382435609342,-1.966571460765652,-2.2115433261315034,1.5260031481668883,1.5255484894664477,0.7571483966001967,4.041370751382438,9.80864971760363,2.4885916342925176,,0.6357360191111145,4.193796641193761,2.4601781170122767,inf,0.8055870427769591
610,4.4023630453502305,-4.4023630453502305,0.0,1.7346268017212962,1.6995957001566746,0.8478774861073043,4.030372144267024,6.0528405086813395,,,0.6309483474627791,4.347088583312601,inf,,0.7170841265886081
611,4.8947064300209115,-4.1278690893176355,0.0,1.7474182639321196,1.7460227370951342,0.8194244581106844,3.7965947591850995,1.9325044052638973,,,0.648888643467878,4.909282799835968,inf,,0.6344823162512713
612,3.719012410538989,-3.394906923088682,-0.3241054874503066,1.2442984178404588,1.246303797728935,0.7605999292717115,4.141477996697433,4.9638275941555,4.9483204112598305,,0.6357360191111145,3.619353391465326,4.95499821379086,inf,0.7913244647109972
613,,0.0,0.0,1.7492696292854533,1.7564473896155637,0.6041811869690591,1.6336509724423847,1.30337531447087,,,0.5370774965580548,inf,,,0.8703518092701442
614,4.938094505597571,-3.9833962345153746,0.0,1.4585356330618213,1.4154313352856043,0.8135483819335678,3.4338828604472864,1.840320430373831,,,0.648888643467878,5.029138765660815,inf,,0.6763386649559854
615,4.602243194015293,-3.6208752511647626,-0.07626011469418979,1.4277300985396244,1.364431185430858,0.7731309430471842,3.398298242746079,2.1611513138155725,,,0.6447042257417027,4.710530701645918,5.310739886546594,inf,0.806391530433304
616,5.385872865527203,-2.3877369703837266,0.0,1.4738476663668896,1.4356657079582216,0.7807310004924796,3.2282021696941645,1.8542505519237809,,,0.6180765742263259,6.139706790249074,inf,,0.7842854248862935
617,4.581846480229265,-4.429118264221623,0.0,1.2093886748759022,1.183867075463148,0.6458703639203363,3.429952105234023,1.7911724424700473,,,0.6602640781246099,4.4586677269990895,inf,,0.6394707795805091
618,5.322484354301889,-3.4418732157818885,0.0,1.1103949394270654,1.0867083926778467,0.6541620214309115,2.5133859735756205,2.024017986174576,,,0.6309483474627791,5.654992310486769,inf,,0.6976162610012635
619,4.780698012831166,-4.780698012831166,0.0,1.3620969118360047,1.3340201533302256,0.7830564746000948,3.9008460004105245,6.800225160329891,,,0.6357360191111145,4.731741727677554,inf,,0.8160342333443319
620,5.145802254974126,-4.562611332743725,0.0,1.6736294197214852,1.6508038237581413,0.7547505209341163,4.385615746020897,2.586751611284276,,,0.6509067234006624,5.0156478359198005,inf,,0.6248929652407768
621,5.337289924956351,-3.84030062145452,-0.038130057347094896,1.4703926194712997,1.4603504084766281,0.7238571100141619,3.9829616369948573,2.9300404097001005,,,0.6509067234006624,5.521460917862246,5.19295685089021,inf,0.7234215162245997
622,,0.0,0.0,1.6431858920251206,1.598337091955246,0.8311660675051017,3.4984684356404863,2.7534355194747766,,,0.6528756675646988,inf,,,0.745001788813182
623,5.031170454255963,-1.2913337499256972,0.0,1.6180147980613608,1.6109947245385834,0.7612391820372887,2.732504043063899,1.8651927962543198,,,0.6566669596287297,6.3016194754118215,inf,,0.7939393179716618
624,4.307640998481927,-3.9199533086185534,0.0,1.2526617584017194,1.2367514725858417,0.6816762904643178,3.3640722561522876,2.6330801112373945,,,0.6447042257417027,4.346230582401964,inf,,0.7806759333940075
625,5.288453572602725,-3.842942929424647,0.0,1.7035722488829599,1.7065855712789542,0.7795206790103205,2.3909210931051574,1.6760261052398069,,,0.6566669596287297,5.496768305271875,inf,,0.6595203743322705
626,5.219654703250544,-4.993469666109688,0.0,1.6930067890704825,1.634849156876002,0.7190209253836528,3.654834073337414,6.0517703671329235,,,0.6528756675646988,5.044536845771937,inf,,0.7268036549675599
627,5.483887507030287,-2.650545628397972,0.0,1.6502927546352077,1.612928690003325,0.6778988964968689,2.8608137673662464,2.263431273913146,,,0.6547956803312163,6.155291521265772,inf,,0.6235983607824171
628,4.659614381762902,-4.659614381762902,0.0,1.7134667094280085,1.693426320876349,0.7528133267539782,3.376056227895137,2.086051825317995,,,0.6425374456860184,4.5500508867670115,inf,,0.46260500251649556
