,bvp+eda_XAp0,bvp+eda_XAp1,bvp+eda_XAp2,bvp+eda_XCond1,bvp+eda_XCond2,bvp+eda_XDist,bvp+eda_XFuzz1,bvp+eda_XFuzz2,bvp+eda_XK2_1,bvp+eda_XK2_2,bvp+eda_XPermEn,bvp+eda_XSamp0,bvp+eda_XSamp1,bvp+eda_XSamp2,bvp+eda_XSpec
0,1.8001203408068116,1.5215537483750012,-3.321674089181813,1.0751072177129053,1.0536474200283146,0.8088260762451123,1.1870983516849039,1.5221912868933902,1.6325743726134976,,0.6309483474627791,1.7999932741551585,1.5276439043989685,inf,0.8238106015364408
1,1.988258906843577,2.2997698228319106,1.4090647568299168,1.6539358669857278,1.5863864217678176,0.6864922260744816,1.1434398389035825,1.1475935212223825,2.3515350881100523,1.3575407066344694,0.6068309995095971,1.9880176917608827,2.303965131367066,1.418488639679049,0.8256692028018113
2,0.7873913084731918,0.5371257085713546,0.5311612530921972,1.2539266903156838,1.2102429816119868,0.3465714575258424,1.4225291347700852,1.743400591438566,0.7556401696302057,0.752983195651436,0.6207552362147116,0.7873846026413146,0.5437904592574964,0.5378254876726911,0.92574654307134
3,1.4874445673449228,1.332158032820751,1.8850070487871808,1.3869535226442942,1.3486101813603482,0.5737076729079589,1.7670260884045466,1.9119394747886156,1.601433426171641,1.9287079859792218,0.6403206450210053,1.4873186129613194,1.338014748755623,1.8778172326313527,0.8559580904257132
4,5.169342160005032,-3.35589280617851,-0.05070957173023513,1.3537065135131017,1.3281630851252162,0.7056802103692207,1.9502993702344638,2.17450637768679,2.2107494821227096,1.8056785826602266,0.6097226960127671,4.605170185988091,2.0402208285265546,1.3281867303126098,0.9460622767253409
5,1.6386423356968416,1.4124760133855843,-1.114974251250079,1.4016163262981975,1.3527540204862198,0.8230799601250608,3.2440159114315343,2.222143417612913,1.224882958313736,0.7503043900419004,0.6468212168108125,1.5495979120780834,1.0512434825086827,0.5451971063291684,0.7982662590569173
6,1.3638480146416645,1.4065360404960534,1.5436068096171875,1.1937828554761927,1.1174597621522693,0.6320084580973573,2.6889031858289023,2.7498545826096974,1.6041079068941264,1.5317889826021824,0.6207552362147116,1.3636200440810184,1.408968678158763,1.4858446285152145,0.8572908461157013
7,2.2547729397742273,2.0429576834366605,1.3993628632945168,1.3397214572625251,1.2944990269208465,0.7884106958682948,2.5399282100490144,2.3325905594902063,2.1208128880935195,1.3217446543625522,0.6125606311107803,2.254535944049333,2.048063556993227,1.407871961764438,0.9121178891638426
8,1.3888146021197811,1.0566805841379807,0.7736992781366596,1.3667045279437957,1.3332876521404402,0.4090595365652698,2.5147973595524626,2.4706905922708446,1.2095782960554122,1.7124344768885622,0.6380535849069913,1.3887863524415396,1.06333047452347,0.780182018235332,0.6440997769104728
9,1.4397982029806602,1.0167155113870538,0.6015224425224321,1.33662718736146,1.3122938674995592,0.8675507843311364,3.4310823037840534,4.825864468775162,1.3701908903734097,0.4893121854866183,0.6380535849069913,1.439695137847006,1.023319565524896,0.6083994298198373,0.7484287394385356
10,1.4552872326068422,0.8778605107973696,0.6558955419989827,1.4101436498208693,1.3992506083416614,0.7778621470789426,3.1292810498723727,2.3195332561240276,1.0671025104358989,0.9774791661264444,0.6727386042041725,1.455287232606842,0.8845383133283996,0.6625957157695459,0.774467664255602
11,1.4843241530993787,1.1717601603744712,0.9615676313517185,1.411457105927382,1.4257626312063636,0.791074722783587,3.4243047554979897,5.6068302759059865,1.4435310608614675,1.3829442742346088,0.6309483474627791,1.4843237902894377,1.1784344216210656,0.9682717092166585,0.6843060089405307
12,1.2845825811282012,0.918454846620931,0.6020513982042939,1.171020383716969,1.0967365240441982,0.7134545617723079,2.8112295038399413,2.145008860794168,0.982307521679651,0.9452988286554914,0.6790044388599258,1.2845804863822619,0.9251216124650702,0.6087211597362485,0.9037924372132649
13,1.7525387560747738,1.5500095445175428,1.0082508247931972,1.651993408290172,1.609576167352223,0.6588077013582881,3.3282316782759227,3.010256207835021,1.8684632756360768,1.3829442742346088,0.6584896970785714,1.7525387560747736,1.5566873470485714,1.014950998563762,0.9293811635091749
14,2.2072749131897207,3.493168660200966,-5.700443573390687,1.573801393937875,1.554851562262197,0.7892314954988621,3.877869797811248,17.39256800134753,3.4931686602009657,,0.6566669596287297,2.2072749131897207,3.4998464627319947,inf,0.8972032644804178
15,2.04212569752946,2.5895391402980663,-4.631664837827526,1.3704385714883143,1.3734082052399714,0.7778838213269343,3.6782349532486496,13.671149448425545,3.6189912941332194,,0.6125606311107803,2.042102940468919,2.5912381224858683,inf,0.8743208794560368
16,1.4097408373667102,0.7463235131493764,0.5299066764221503,0.9884500674460538,0.9826164395053294,0.6045304681580962,3.048791693739805,2.144884979001936,1.015914178842672,0.7083162842657114,0.5947193981915972,1.4097222182951283,0.7527145335554271,0.5366537078801827,0.7580894680494553
17,1.237836260348872,0.6559448232714944,0.24796434139562384,1.1689432080784123,1.1406205663683324,0.6985720280247959,2.2788032953980046,1.2303766481479754,0.7250971862601873,0.36109540281495994,0.6447042257417027,1.2378360425593415,0.6626228435920544,0.25466451516618804,0.8731844498034267
18,0.9595030088920116,0.37656121169023793,0.2458017646946402,0.37821336372540226,0.3338389963605815,0.6898147774697555,2.075333751270468,1.3556830304901477,0.4897880882060383,0.4291465280431715,0.6357360191111145,0.9594882308574783,0.3831508200412654,0.25223871020402705,0.9644134647355134
19,0.9449622919501386,0.31210833686672457,0.18395930368038682,1.112539599091255,1.0901482242609994,0.47983048698930547,2.0616976120775354,1.4751275116965799,0.4168728588794623,0.24766265646122604,0.6509067234006624,0.9449474411239596,0.3187360509315771,0.19069938769688544,0.7689890809528936
20,0.8505070682658552,0.3708235063759394,0.23943532698850967,1.4630384190515078,1.4511154058385658,0.6933092315948165,2.0825402259958747,1.6956824887747661,0.419123783211221,0.26858362859835966,0.648888643467878,0.8505029913361519,0.3774969063464764,0.2461304227256936,0.8346000859400146
21,1.158832029469468,0.9005443173743468,0.9217277429294364,0.7415965453128682,0.7435309674858055,0.3370527644473172,1.9131340264195522,2.0729386167092083,1.0449109235422298,1.0087331812733351,0.648888643467878,1.1588224130671358,0.9071107785879077,0.9280228824976915,0.7173305695137231
22,1.055755184128691,0.612588364783262,0.5630140347937251,1.660002503886609,1.558129128072236,0.6854601337324322,2.911672679817151,2.976134716102809,0.775171814599891,1.069141518152298,0.6068309995095971,1.0557443884409339,0.6192399603140407,0.5697512112522964,0.5982674797078348
23,1.1711829815029449,0.6580595809798506,0.3125028625331947,1.0383837786441716,0.9997798210516595,0.6296943185433653,2.4865523392721123,1.5880382618147153,0.7005464919197529,0.4580681830962325,0.6528756675646988,1.171182981502945,0.6647373835108796,0.3192030363037592,0.6752629750530104
24,1.3860294565848903,0.8173074992225999,0.8533100828647977,1.49061990726637,1.485854135058517,0.7460881059791223,2.092226679296934,1.7628865819019235,0.9803020247571024,0.8375028144879841,0.62595550513784,1.3860277300024597,0.8239781816984927,0.8599710954949384,0.9425275427033102
25,1.2970632273919482,0.8770198213825771,0.7504217154910982,1.6622306485980185,1.6196502232135275,0.6431747412194718,2.7217598300307024,1.7525751154248592,1.1075434799944095,0.9899016861250014,0.5915533975974677,1.297063227391948,0.8836976239136063,0.7571218892616621,0.6201101091795249
26,1.875141078167106,2.2158645827894796,-4.0910056609565855,1.1593060278638032,1.0995314228084956,0.6813923602974419,2.2918557694464163,2.8060050632692817,2.21586458278948,,0.6447042257417027,1.875141078167106,2.222542385320509,inf,0.902837113762746
27,1.3173024763031442,1.036725639428739,1.2094752522986365,0.3631694048398089,0.3231240293578563,0.7315519541532645,2.6893677416592694,2.2159497277035927,1.3127164677750405,1.9014466574748996,0.6468212168108125,1.3172659347094675,1.0431837037297182,1.2147043836852967,0.9378040785898514
28,1.544537626944023,1.8533208534526184,1.6060878255488187,1.0608140603701077,1.0281784599574761,0.5166610503232253,2.207628274447102,2.299882704227503,2.065242761763795,1.3941686697741136,0.5947193981915972,1.5445348744075502,1.8600014085201197,1.6127879993193823,0.7892953488010168
29,0.864819319502872,0.7634503667569134,0.7393415973581563,0.6442632265617474,0.5046583113621026,0.4366940272473323,2.253416452655771,2.068705516848639,0.9951431121909308,0.9475188175693838,0.6380535849069913,0.8648057891856467,0.7700069129131487,0.7433344111176713,0.8103560661615777
30,1.2612101145501977,0.8284071815614416,0.5164337370354497,1.114348939229398,1.004073198764964,0.7192389588272283,2.351657257383781,2.2183794904601974,1.0147860840233383,0.8171659825346832,0.6403206450210053,1.2612096526143346,0.8350842061434443,0.5231351506909031,0.8581429130474189
31,1.047585102357509,0.4873472234038989,0.40607123426410396,1.5638310201364924,1.543916196686004,0.5469502799233311,1.9239183227159578,1.9378163267349766,0.6883716042064674,0.5865086282079897,0.585052858160615,1.0475390184841091,0.4938768639475329,0.4121568829590169,0.7018364407027347
32,1.4659114845889114,1.1543631883359327,0.8322173600760565,1.4969025540247927,1.4764761603326166,0.8079534365106867,3.871420887129782,2.3495727441050547,1.3836189750228762,1.0414115583003285,0.6125606311107803,1.465866809012522,1.1598356507409346,0.8387897722810125,0.6271603497063477
33,1.8333165267411953,1.4625385910057649,2.4012383687584444,1.622192855109204,1.582906175759446,0.8844966807450367,4.462681838771324,42.34017530630035,1.4707935267780654,2.3930238102963504,0.6447042257417027,1.8332761494309886,1.4689812843762633,2.408214028999746,0.8343805771742322
34,1.8267610384739563,1.3151813167644946,1.168856770147063,1.5198473501311556,1.5123427921321972,0.9311284249252886,4.936158114849663,7.415758896510084,1.48501542883486,0.9990876574417025,0.6602640781246099,1.8266960391089513,1.3216695475371696,1.1758115150409862,0.7216439737798496
35,1.701227592900721,1.0462696831773728,0.8035304093816151,1.4815011480042528,1.4652549042694818,0.7151280474960574,5.4224596306355615,24.82644541571574,1.1181422447644307,0.9779476697524949,0.6602640781246099,1.7007007382810884,1.0521725064294427,0.8053678865613104,0.7693052309292499
36,1.6264341484844704,0.8828174961879058,0.739123431267668,1.4865035191876381,1.4373403708897192,0.8711314918554435,3.7099920105371424,18.813383724630203,1.1101800461631004,1.294425810363022,0.6380535849069913,1.6263015295216483,0.8876907011614485,0.7341979818538792,0.7691187244282927
37,1.9425823589626383,1.2729545646400469,1.0952622017828286,1.5645324520665873,1.5584970133705474,0.8826954802272237,4.178116884671917,28.444521424242048,1.4556106255347965,1.366630735075925,0.663668482632973,1.9425823589626385,1.2796323671710768,1.1019623755533916,0.6397864497064099
38,1.5259512078778523,1.1631790185215558,0.7789678275821701,1.5159044106074369,1.5020165353313708,0.8637723699205445,3.9103021336509696,8.333411966730488,1.3960504858708305,1.2324431042120763,0.6357360191111145,1.525760791607433,1.1690441827447564,0.7818346024768245,0.7851660250701379
39,1.9659059041071745,1.4742377330752163,0.9855352419674257,1.5586516074600267,1.5479739098411145,0.9077513462643474,4.505038374915942,58.04075162961931,1.7061565334539193,1.1512726877423949,0.5978297680564633,1.9658747894749102,1.479622851083825,0.9838535661229683,0.7678177988720347
40,1.5531444169225785,0.8924046621635331,1.0137370273310848,1.5868711537263134,1.527296022428265,0.7531761296843841,3.2372599645125795,3.5662920452889004,1.3413324018831168,1.9935689282088565,0.6309483474627791,1.5520079305338241,0.8976602838281573,1.0148240176724876,0.8166188198928229
41,1.3474978749593807,0.762662631723714,0.7882445156531737,1.5669133471666965,1.544592642486436,0.7219386022569075,3.070903817590035,2.308249547628694,1.1087865173116582,1.0331684844956297,0.62595550513784,1.3471591217048553,0.7690386169889907,0.7931529858001215,0.8731603850579629
42,1.3512143300016526,1.0174323632347806,0.8787125067185073,1.1443632374443733,1.1358153447496377,0.6256105342189248,3.1426067071571633,3.6495283532964575,1.1018964030511875,0.8568518129791719,0.6468212168108125,1.3511846506731315,1.023851667979214,0.8826380862576345,0.9202636492931728
43,1.486645183205717,0.9259134996419087,0.5908388241401021,1.5578007450538056,1.5505513139557345,0.768137974781703,3.157741468852333,2.798899525840669,1.1345453734043507,1.1300074808731868,0.6153451465759925,1.4866304831725534,0.9324884260774438,0.5972696892296545,0.7310598568690526
44,1.6061588904427657,0.8523315868628651,0.7192109978290055,1.2482151807348112,1.2051836131843492,0.8085600556870156,2.843706183600251,3.111808491764436,1.0943181453493587,1.2483965180710244,0.6357360191111145,1.6060547528887386,0.858526530438016,0.7223114956883954,0.9212838882001901
45,1.2905043873166109,0.78187665873093,0.6051037455587176,1.271200553892628,1.2283113317414103,0.7643733969029288,2.631316307707576,1.3333505405279191,0.9556004180483131,0.9988146446400157,0.6547956803312163,1.2904590666871358,0.7883604462704623,0.6112270637050371,0.9129151666686055
46,1.2381064738987198,0.8521627459171304,0.7742212376180677,0.877600096893838,0.8202265433156815,0.6396537144244159,2.3227202985785373,2.54778244302626,0.9362739261568976,0.9536443427547106,0.6403206450210053,1.2381042674867087,0.8588225885341467,0.7809236213216375,0.744225645053531
47,1.6174451050297678,1.3795355719746232,1.0909488701844996,1.0922389001252448,1.0688349289266315,0.5407804382007323,1.6182342710319793,1.7431766595779201,1.5028179878832855,1.23962297197678,0.6333676938231112,1.6173580832352403,1.3859584336770585,1.0977170334605983,0.9185868596660244
48,1.5766983647324397,1.2672787143169075,0.9532805070244317,1.1012648897494979,1.1114679409459818,0.7675073079784952,1.6282257445741006,1.8010769125836754,1.7085806332756317,0.8457899099639263,0.6284777104787076,1.5764868122944145,1.2727430022705752,0.9574326752053303,0.8695710849195364
49,1.359550770950158,0.8424249800116526,0.4315979947568027,1.151277798976046,1.135548235634055,0.7755350284645777,2.9797471009265006,2.188517049812512,0.9201593712117613,0.5559807506642356,0.6468212168108125,1.3593279128900762,0.8486543210991032,0.43803257619357794,0.9260586014103885
50,1.6769516626549803,1.0340374692675407,1.2019702924435118,0.3560457103315329,0.341485496616328,0.7250349778529886,3.262613260330648,4.842376392404395,1.1348610948509084,1.7934697739660874,0.6619902821573977,1.676884361201643,1.0405430017131638,1.2080186628454797,0.9537431610632924
51,2.1011691635740553,2.7081722760287192,-4.8093414396027745,0.8151058786531653,0.8066867227806586,0.7419091092924713,2.9670281461178067,10.911549178640318,3.59943785379501,,0.6727386042041725,2.1010057195956766,2.6434265337259224,inf,0.9639305294309637
52,1.5441267652849815,1.361950975694139,1.5899300443948414,1.6885478055794034,1.6633863328377674,0.6598156997484913,2.7817213785077715,2.3798747651110497,1.76826414369021,2.4653975177248553,0.6509067234006624,1.5437542139291724,1.3655965105647951,1.5755703333425468,0.7716596451936675
53,1.3821594419785583,0.6849673326052246,0.5431255940863013,1.6958912951843201,1.6698461367502835,0.5363172097753701,3.3269471189453013,5.2792111048849995,0.8525061461083362,1.064699551372661,0.648888643467878,1.3819925162260367,0.6914227753838963,0.5492220316441468,0.9259898910042638
54,1.7179137835939522,1.6799446968026892,2.299235006108763,1.6048969448780126,1.5879326890838026,0.7747596861351674,3.7095979077876886,5.439173601073303,1.6799688597350413,,0.6509067234006624,1.7178896206615997,1.6866466622660705,2.3059351798793277,0.9239544063372229
55,1.57664808961111,1.3512067615397945,1.6706263466863902,1.265663041855474,1.2345233199319505,0.6843543831688772,2.981344414459184,2.863911352245316,1.4847381541643183,1.9425600621700312,0.6403206450210053,1.5766480896111095,1.357884564070825,1.6773265204569536,0.9348805577169618
56,1.238111297934662,0.7477124891178444,0.4138463254813838,1.1725580498731702,1.1473420625534188,0.7308829853578104,2.8939462187054086,2.3122925854694216,0.9966034031042512,0.8233284862991859,0.6740851607140061,1.2381042674867087,0.7543851582186559,0.42053076528252614,0.8372088578227056
57,1.216992129417436,0.7535964488705875,0.7402674432941394,1.4551725539281846,1.4382750948566647,0.784157578889922,3.1503565631911874,3.357272327512018,1.0822631947582901,1.6060878255488185,0.6403206450210053,1.216982996970241,0.7601426592379937,0.7468845644727046,0.7791504512757845
58,1.41404097959808,0.674699203026893,0.3223194853039706,0.5774782846542562,0.546714670746416,0.7533353388648831,3.111101566654125,2.7027249745779343,0.9187240346322991,1.0518050733015745,0.6097226960127671,1.4139625073340139,0.6814277641209375,0.3288603844597027,0.95167238929649
59,1.5222703844328624,1.0319863605075328,0.7080120151621316,1.3005766548795092,1.2681877729318016,0.58701371607567,2.2325754016343073,1.8390801334372018,1.3162880360068165,1.0668046138665876,0.6357360191111145,1.5222413674039452,1.0371015135370727,0.7079065282113987,0.8645258668677152
60,1.0098780581729518,0.8731735116506818,0.9031978995934256,0.9029502427774262,0.8337375023015156,0.4744341921492661,1.777565273172437,1.38874841869496,1.0030337287286255,1.3863146427505848,0.6602640781246099,1.009869078833721,0.8797237507430969,0.9094767699125605,0.8480653494663914
61,0.9280458280390731,0.6647427161075197,0.6122950753794254,1.4400262857840367,1.3518562343924312,0.4965580209796365,1.759566820290495,1.3681706168143675,0.8396742807736748,0.8383507642808375,0.6547956803312163,0.9280259880925761,0.6712965906004313,0.6186150402407535,0.8090152750990935
62,1.360022313175056,1.1205154959965844,0.912427116912228,0.17287203109334173,0.11861334925856418,0.5997621981250769,2.1041491889633006,1.8176185310335096,1.2962193646809932,1.4341040392692632,0.6509067234006624,1.3600203437828482,1.1271555454491953,0.919034034253656,0.960291628511448
63,0.9167133347111779,0.5941028371659703,0.4479205250169256,0.11539037784936122,0.07099130503024377,0.6397146457469892,2.2422660111825468,1.6342454250272493,0.8123719912112435,0.7917795069266074,0.6309483474627791,0.9167074853704975,0.6007591485247927,0.4545365523317537,0.9184695704126017
64,1.8266706014168592,0.9834012140776622,1.5007273098909923,1.162777972851267,1.1791876095754794,0.8074871525205749,3.20593801927144,9.78627367550701,1.2345203762050987,1.9444781867029495,0.6547956803312163,1.826627004557131,0.9901226134684202,1.507427483661556,0.9562944801379449
65,1.1715813088765572,0.8667928913511156,0.887646569568028,1.310847650560326,1.2973910493844112,0.7910672751458646,2.7169527505472235,2.3148421233786545,1.0731088964269464,0.9858445759365382,0.62595550513784,1.171577324478892,0.8734413199679963,0.8943332956709951,0.9067074381373699
66,1.0217442714586045,0.44503511954300423,0.2989563102664361,0.6892323305722582,0.5868521382354972,0.6178178056071606,1.7765336606942683,1.316598803312728,0.5844109096707495,0.41243167808668424,0.6547956803312163,1.0217438444115328,0.4517073588229806,0.3056553198702262,0.9355727050554544
67,2.2548017663239603,2.752494626506781,-5.0072963928307415,1.2565431504000275,1.2610964284568185,0.5999000460095679,2.4698391768186396,2.830645763325097,3.4459076293413533,,0.6153451465759925,2.254535944049333,2.7594382513124374,inf,0.9285132245539915
68,2.2380465718564744,1.5164868524788995,0.33312214973593113,1.41384101583661,1.3838503626591088,0.7100932178574184,2.090472959807734,2.8586212686153436,1.670637532306157,0.4021150212228825,0.6333676938231112,2.2380465718564744,1.5231646550099278,0.33982232350649494,0.9248475538896629
69,1.9727523185763922,1.7879677551165973,1.6878424889044599,0.937835133979404,0.9352871472308169,0.7269026894223787,2.575341211356908,2.4499979524629825,2.341587032218056,,0.6403206450210053,1.9725621800527398,1.7943989428660279,1.988114646124984,0.9331917896048157
70,1.9625209208067134,3.0447754720240283,-5.0072963928307415,1.6436903543219006,1.636216498000415,0.7194788709136883,2.6585932512518524,2.378406746518277,3.0668856621170906,,0.6097226960127671,1.962389637432426,3.0515845579293446,inf,0.8141454388852096
71,2.0196290113659985,2.347438307877533,1.330026167261873,1.6051075748870836,1.560904014473358,0.7122028626633051,2.6773854291806236,2.806806788862,2.9877157827373653,0.6897970936746634,0.6566669596287297,2.0195806100933757,2.3483239893569507,1.3425668633566712,0.9421743120297522
72,1.9425823589626383,3.0647140338681034,-5.0072963928307415,1.554674229160562,1.5599168176108718,0.7133247742582478,2.9051109377895483,4.768321890725127,3.757861214428048,,0.6125606311107803,1.9425823589626385,3.071391836399132,inf,0.9476444852500026
73,2.0713348671455787,2.9359615256851628,-5.0072963928307415,1.6674431928120743,1.6805704213096606,0.7400934076667953,3.748238512788182,9.502226386133424,2.9360875360773813,,0.6207552362147116,2.0712088567533598,2.9427653386084107,inf,0.9282131103400257
74,1.938259894102145,2.245892036046789,-4.074097344384127,0.6902281072798848,0.622162081276604,0.63745564917746,3.5943114464409542,8.572326619675412,2.440183222370516,6.333659129957188,0.6207552362147116,1.9271974401231593,2.396979661563948,5.003946305945459,0.9573338937963998
75,1.9348706118223944,2.3135780763826093,-2.7025762012184007,1.6918115371984894,1.662458950338871,0.6534933286847046,3.7447067900145483,4.4756123103233545,1.8287845702308698,1.5090787372863912,0.6468212168108125,1.8993446799079925,1.69786758568012,1.3887304159177718,0.744759902705517
76,1.806384761483774,0.9703263367964217,0.8409408465453727,1.5188736996039123,1.5415807364867458,0.7898693258357901,3.6604654037749365,2.9243147707835093,1.0970838978816015,0.7312508331059188,0.6509067234006624,1.8053852128098677,0.9743400249992331,0.8513046833180608,0.9319979350523454
77,1.5564044379606419,2.322377527640181,1.8183115209045821,1.7269875287364709,1.6493867780436724,0.6206248365633036,3.426811101880092,3.5608868703352106,2.6868331539095016,1.4539418239739381,0.6097226960127671,1.5563185086219646,2.3272250254843128,1.8269279287007203,0.9017060441103509
78,2.1208269537394258,3.4652264476099766,-5.586053401349402,1.6125671892996554,1.6169570575609433,0.5525480487093613,2.9277087538623014,4.916259319674879,,,0.6333676938231112,2.120819246133814,3.606573094161521,inf,0.9102408845563998
79,1.825089789397983,2.083594314764648,1.095262201782829,1.6486466337678927,1.6055701969843406,0.5910674690816128,2.588336732501111,2.6076888471416604,2.0836435803659143,1.0952622017828277,0.6357360191111145,1.8250405237967169,2.090321382896944,1.1019623755533916,0.9458576645519934
80,1.0217128728060276,0.47416749458466945,0.3814387219622395,1.1101617596189415,1.0897026774667185,0.5803899416759789,2.106969144022407,1.5916262000375316,0.6254363302893657,0.6602526448249366,0.6790044388599258,1.0216821122058213,0.4807965632067556,0.3881439446193505,0.7565341839819756
81,1.5848764112627363,0.9744155688267013,0.5136652450195793,1.109763110797966,1.0780565340970953,0.7973448794582849,2.718216202593021,1.7465357737349625,1.049957665757753,0.5488701753195597,0.6357360191111145,1.5846911007705198,0.9809918590447683,0.520217182362113,0.790706863739873
82,1.1421263491995002,0.49787421364476736,0.250430433890817,1.2988263696095237,1.2655161179541452,0.7573346634539755,2.444407121120945,1.763020094979006,0.5778068660096491,0.35319221864934813,0.6468212168108125,1.1421114747809633,0.5045668905943331,0.25713060766138157,0.9220153519291769
83,1.393684134045853,1.0288575792265928,1.2000517958407517,1.3577664910953666,1.3146746030640801,0.5359576125618696,1.7131301090576443,1.8138761013627385,1.3776038105091641,2.232687779910112,0.6528756675646988,1.3936547155261831,1.0352497441465325,1.1979396035217682,0.7443166803201566
84,1.193033466501217,0.5186136068102667,0.4019274747378101,0.7556726855501127,0.6930694010520396,0.756214672353294,2.5936866692698164,1.496939319908761,0.5961907015767594,0.6499024565145454,0.6713451011121618,1.1930328642876016,0.5252902868672712,0.40862937319601483,0.7626983404158991
85,0.9004700699818012,0.6161022441184633,0.6636398459182966,1.522485863345355,1.487731848106752,0.5006004482091647,1.5406783061702556,1.3920411977118206,0.855493906679381,0.900181453435896,0.648888643467878,0.900417382717865,0.622740901871201,0.670074271477616,0.8859273851570068
86,1.5099680185414732,1.0433221279299725,1.064809890275682,0.753176944031325,0.7308351529804967,0.406200551225176,1.3841681122706129,1.606709920899713,1.4141547949458533,1.6743818278371205,0.6180765742263259,1.509944575054321,1.0498293094132312,1.071675587746108,0.9442893642822608
87,1.7828076165884719,1.4595020383956387,1.0684894704014032,1.625329594159756,1.5954489617686973,0.6431651637995042,2.466572714098275,2.041010546628858,2.3082720029358437,,0.6333676938231112,1.7827336580207425,1.4654565545162335,1.075986889150131,0.9333175329536361
88,2.266620400339597,2.7406759924911444,-5.0072963928307415,1.615706701249374,1.5998344079695754,0.6733153797571898,2.7129829334032487,4.271312836537435,2.7407217373597286,,0.6068309995095971,2.2665746554710124,2.747399539890758,inf,0.9226251444636304
89,2.3270728706563197,1.7448629252634493,-1.7586864272380445,1.3802532804350842,1.2545532610087906,0.7742672092027363,3.8109756752695043,4.665605458451623,2.4387080890946877,2.0431825656677276,0.5713653840954815,2.277567330018758,2.374228697309389,1.9599783763875143,0.949098647630436
90,3.48064978076164,-0.33423856262378226,-2.3725952427189374,1.6408273922026249,1.6394601659740313,0.8015950682690168,2.539930232385296,4.037817868045034,1.9157364051553532,3.2704445592216125,0.5068466436745385,2.949909470612361,1.7007230894524878,2.0474021879352193,0.9421759027845541
91,2.2727478765292486,2.938464067265851,-5.211211943795099,1.4246850795402581,1.3937626882786935,0.6561355847836216,2.5989735228565762,5.454523849342582,2.9635767270127413,,0.6008849035917525,2.2614431496628704,2.863855052753525,inf,0.9394918570683594
92,2.216111387600225,2.563938658487516,-4.741814519332671,1.5507335071556172,1.5311036186220326,0.671791543769301,3.3789809043361116,10.761748315456826,2.4900070801172616,,0.5567373465730988,2.181055996174636,2.4477240554525896,6.085637717125231,0.9509320707017114
93,2.127553717465049,2.1927711458294556,-1.0553295348605114,1.509255233257984,1.44741947360354,0.5656121140350429,3.072623303642435,5.452850363715573,2.1753299920499196,2.0135714328644165,0.6233814453054027,2.12388118311201,1.9046756385720878,2.175001440551509,0.7941055253050425
94,1.8395734195611892,1.7670595985811144,0.07608070755267127,1.4420194902223349,1.3997706295322847,0.7114801692668714,2.6205964176453875,2.6591855619305855,1.8235639236245769,2.207604238065126,0.6125606311107803,1.8100592263994884,1.6752446645596668,1.9358090530688092,0.7470901524750375
95,1.398365563477634,0.8687820805058211,0.69098311887379,1.6479841338810244,1.602067219439833,0.6403123196571986,3.01949362914967,2.8143884908850936,0.9739272503138497,0.8659032321100495,0.6309483474627791,1.395267835918999,0.8652160810564113,0.6241045961650271,0.7067978782834919
96,2.096079388152523,2.3555581464350066,-4.45163753458753,1.512085174657797,1.4946889048051752,0.8322392810666819,3.7779951086284744,21.56696891977732,2.5058989588682294,,0.648888643467878,2.095932325854347,2.3512848943567475,inf,0.8947175793987805
97,2.6324466310346657,2.3163191039928352,-4.948765735027501,1.338856636365262,1.3202979097997782,0.7626243023817918,3.899352277351959,10.024880568083601,2.4518800175602196,,0.6584896970785714,2.6139528777230945,2.324361754793535,inf,0.9274610694204607
98,1.8407214147637005,2.7754571721727523,-3.7941147617024518,1.2960419883631138,1.2715527116031922,0.7904535692490109,4.194864008611903,9.925754786711185,3.3203616232221145,,0.6727386042041725,1.8402496783884892,2.7278388326950704,3.07827632253528,0.7795288660555365
99,1.6589696125845677,1.672724380822541,0.3230804535870413,1.6712337486631825,1.6559376938567267,0.6888188575000432,3.487458144687695,6.420895515432684,1.903127341882168,,0.6528756675646988,1.658628156624872,1.665608183901155,2.4100053416148826,0.7041206351914087
100,1.9097971742325468,1.8689672934201549,1.918329018852703,1.7437686155707137,1.724045899013579,0.6830478742993294,3.5157114349876277,2.965644348552527,2.1179453316743806,2.2250105796368245,0.6380535849069913,1.9095675051969436,1.8743554976038868,1.9265484600061673,0.7810195615290684
101,1.8791242802710497,1.6852061640861449,1.5103611551763532,1.5045609999134895,1.496187939599434,0.8415193721048309,3.990147593422397,2.5827792785600048,2.084030227478589,,0.6380535849069913,1.8790617976308517,1.6874033862594309,1.5025056872189368,0.8213396544036071
102,1.4043347681678406,0.896103340884508,1.0764316580159483,1.2298625368992235,1.2000980548151667,0.8024327605727218,2.909156486310834,3.481948212531082,1.087780043494408,1.2581676688147745,0.6425374456860184,1.4042773116990972,0.9026505307290854,1.0813533139674265,0.881797397710372
103,1.8784552465631752,1.8760781777721987,1.2494128816100862,1.2515514564416492,1.2501286389384536,0.7952320299061985,3.347812821814576,5.845858035809485,1.8761261483816458,1.249412881610086,0.6380535849069913,1.8784072759537274,1.8828039509126753,1.2561130553806499,0.8331481703190975
104,1.2557992021573914,0.7849013108289888,0.5186831292558702,1.2250127042277623,1.2038221137625746,0.7511136763946937,2.3184183897197457,1.4664699579732825,1.0265675250992985,0.7437343713574355,0.6403206450210053,1.2556560382777957,0.7903937112613058,0.5222385091879498,0.945788074443575
105,1.2619990783933315,0.5703643601598705,0.28541167488244423,1.0504218816989055,1.028829784627876,0.6457143034937151,2.589133805739295,1.6637169474985711,0.6402205778692421,0.43840246347266315,0.6038851895711802,1.26199433564267,0.5769965132908238,0.2920715261490568,0.8646055346881392
106,1.266881096200198,1.345842484096661,1.408440056563275,0.7836659439220762,0.7588553312856183,0.47760455726224077,2.5914125035199858,3.0711873007324435,1.5717745591219672,2.163740456207445,0.6566669596287297,1.2667548442887946,1.3516070105498847,1.40707872873621,0.9030092380898723
107,2.530244080001739,0.3966063759753671,-2.9268504559771062,1.372468668638631,1.259580585981651,0.7230902665712577,4.297478830559622,23.576787447193134,2.6463770638357,,0.5883313578629602,2.487309534404311,2.546935625331079,inf,0.8207562647145855
108,3.9419362773895084,-2.850818625279016,-0.4209884849542758,1.4412708088968051,1.4318002233176401,0.8614724143305609,2.859374089191492,4.380447974952208,3.807364794536913,,0.5451288209179292,3.78685986247414,3.7288847887276355,inf,0.8958028779237173
109,2.236541868582059,1.8408194700919984,-2.9111777726444275,1.6994893574480048,1.6826623703037416,0.7593805789097815,3.517227377171649,4.0943931426556395,2.6323795270842294,2.8850950719104547,0.5947193981915972,2.213150727886479,2.385374915382944,2.6981654418696683,0.902740616584907
110,2.4216383430200588,0.42045136297128805,-2.842089705991347,1.2845077190813985,1.2670919209536549,0.9339045472917858,2.995328188168086,2.82267733945249,4.590684201009251,,0.62595550513784,2.4157537910996836,3.575710756008298,inf,0.8572903115204049
111,1.5626013458224728,1.1932570586813362,1.1972116841600156,1.6220850016962296,1.5350357710042895,0.7154135771994391,2.8686572478203805,1.9562856262306938,1.5494842351333742,1.85573805431758,0.6309483474627791,1.5608594108752585,1.1878391887047604,1.1500791790981064,0.6621568339173155
112,2.247402922213908,2.414095468718566,-4.661498390932474,1.0168343223331462,0.9848009640052124,0.745488993610251,2.928722511556113,4.818160508536717,2.406150233846112,,0.5604843169999094,2.247150386105945,2.411655015714778,inf,0.9249864998647738
113,2.476016621473257,3.0644699102497506,-5.540486531723007,1.5931010876720089,1.554800422713445,0.9442051949915868,2.8414377316841253,2.2240332880719444,3.2245627348099988,,0.5978297680564633,2.4758808385806876,3.0236011725627834,inf,0.86795551185415
114,2.406490902885037,2.6008054899457043,-5.0072963928307415,1.7294573732773082,1.6996847204574077,0.9316350523613965,2.344836739716918,2.3462927482321736,2.6008311693493034,,0.6403206450210053,2.4064652234814377,2.607508971880333,inf,0.7881999746320527
115,2.5752523681964816,2.43204402463426,-5.0072963928307415,1.771499724967241,1.761449293336923,0.9035923351061245,2.0806357937980384,2.5603694373955883,2.4321732351041625,,0.6684167106117298,2.5751231577265785,2.438851037635192,inf,0.7944413420779937
116,2.6316581609894083,1.7998730340209104,1.265562291495086,1.7533497171545558,1.7368257898562516,0.9036285809946999,1.8199694155406163,2.2229073635257732,1.9704334351414492,1.0952622017828277,0.6309483474627791,2.6313978495811274,1.7970218246624645,1.2820517885634055,0.7850331122620571
117,1.9902104079518939,1.76432301638348,1.9425600621700307,1.6760594736414225,1.647785810369455,0.9270656510280417,1.7984909885961948,2.1149278787586714,1.7643230163834798,1.9425600621700312,0.5915533975974677,1.9902104079518934,1.7710008189145092,1.9492602359405953,0.7614337991586402
118,2.4079456086518722,3.2924979647388146,-5.700443573390687,1.602693857137968,1.5905596491710978,0.9255012891874893,2.114706944533179,2.673691012164461,3.2924979647388146,,0.5978297680564633,2.4079456086518722,3.2991757672698436,inf,0.7835221295324444
119,2.2380465718564744,1.5164868524788995,1.9425600621700307,1.6067680014843093,1.6023343330299953,0.9065553568518163,1.8564835391486463,1.9762416534095846,1.5164868524788988,1.9425600621700312,0.6380535849069913,2.2380465718564744,1.5231646550099278,1.9492602359405953,0.803242097373502
120,1.4436474834873771,1.0326362928269575,0.8915116422964893,1.1470257817801546,1.0304548997110636,0.8210435030159465,3.318717828103344,4.088087729838839,1.1918850454979075,0.8995634783344638,0.6509067234006624,1.4371666914936472,1.0283295647745296,0.8926416359335314,0.8254376543696785
121,1.8815609661645647,1.3252978142162832,1.0779739274309903,1.535137910730107,1.437133201209966,0.7438205646827359,2.3152482116270967,1.684672724141341,1.5201478601838359,1.7810592901241449,0.4732203808476458,1.8763737216179632,1.3289827912579912,1.018337721373995,0.8319166454655992
122,1.979755724275441,1.6735634657624165,1.8886320243435182,1.7572233552776892,1.7248337991587512,0.8245536508462399,1.4717228532211275,1.935772711694652,1.9128493546047982,2.373831667684369,0.5287703885177266,1.977607235798568,1.6729065714818205,1.8354727223881981,0.8113704070932409
123,2.045886250034769,1.692879935313607,0.16125754366874556,1.6766752078034572,1.6501992248718742,0.7706919171675444,1.4307924986286142,1.8106350480154247,1.978047504250109,,0.6153451465759925,2.0457059296973097,1.6914304974243997,2.352308528346476,0.8043052654557482
124,2.23260139009971,1.7084005819896086,1.7560915144160858,1.7500584153717584,1.7417211627823193,0.8808448577825204,1.4867173693493945,2.0909368262268737,2.3699117375894705,,0.5947193981915972,2.2319195471331064,1.7134304624111067,1.7651214532627846,0.7646417854403671
125,2.023395440163742,1.6448489595641669,2.0288490867774955,1.7655565059346938,1.7350167467442839,0.8445299783866371,1.3472308555555839,1.7883747193852833,1.9734207886141424,,0.6447042257417027,2.023187240129962,1.6463254114931238,2.0409588111839114,0.7142860469838453
126,2.1432697523895596,1.6112636719458142,1.9425600621700307,1.66874526893656,1.649471981016666,0.9316926742959339,1.5316570255202544,1.8481074814651983,1.7654741151326503,1.7884093823427731,0.6068309995095971,2.143209989029981,1.6180012378364212,1.9492602359405953,0.7584535730515525
127,1.892389171875255,1.3195750564160682,2.2804415001963787,1.6525124451407198,1.6560708543744687,0.9003780483579611,1.4819778119130662,1.7256397227975255,1.4166369665821095,2.388139795703925,0.6233814453054027,1.89231672421937,1.325726114344939,2.2336847412832626,0.7789689859703123
128,2.3364866446697268,1.9776625676010693,1.3829442742346085,1.6963504943765317,1.6779396853606552,0.8908277841909836,1.529269898645045,1.9767521272414446,2.6708097481610142,,0.5677978065141052,2.336486644669727,1.984340370132098,1.3896444480051726,0.7787768086501325
129,2.269795270171055,1.638888833991576,1.095262201782829,1.7016465407913792,1.6459263359082763,0.8919348946873701,1.609569359926361,2.0618980135268896,1.8212103907855313,1.6060878255488185,0.5947193981915972,2.2697952701710546,1.6455666365226058,1.1019623755533916,0.7999845803937671
130,2.136343376816916,1.0540501090827719,0.8593899225162671,0.43178871020986964,0.3000963047899947,0.840155640286483,1.8967266875730435,1.7654895062213003,1.067044642577138,1.0549058665953053,0.6284777104787076,2.1357532552481184,1.0587009964676082,0.8625945257626773,0.9107736836072013
131,2.6243142786952314,-2.6243142786952314,0.0,1.4856233183010172,1.4794211409893765,0.9050899049215991,4.636266343151552,44.692663191544874,,,0.6153451465759925,2.6223313256996725,inf,,0.9121955443392835
132,2.5639111569700255,-0.6574082896152811,-1.9065028673547444,1.6507884896746274,1.586198307216275,0.9088874817014084,3.3840838535213185,17.639114312235424,,,0.5883313578629602,2.5625078958115517,4.239886867512759,inf,0.903206835843748
133,2.674372303514062,0.18538199751805573,-2.8597543010321176,1.7668676964658536,1.7120568674660932,0.914595325777475,3.4407356905347317,9.457387699012969,8.033930148273917,,0.541134803179459,2.673809817947509,3.723119837268637,inf,0.8877741128607781
134,2.9244713351104723,1.4986153171525354,-4.423086652263008,1.7591979691171253,1.7352230929254662,0.921425268574797,2.980338361761803,4.369760332099256,,,0.5567373465730988,2.9228949496017247,3.0379326280443673,inf,0.8661364825853831
135,2.813410716760036,-2.813410716760036,0.0,1.743368307021221,1.7154009598485802,0.8690692344188178,3.041807700712705,3.4024508360942844,,,0.6468212168108125,2.8134107167600364,inf,,0.8576432227109617
136,2.407712308916146,2.1902703862084154,-4.521511641614421,0.8964552654086249,0.8600075827895387,0.8533242740224454,2.614493530332954,1.9868336973522016,2.599597667280975,,0.6233814453054027,2.4076987255497664,2.1963609661542978,5.417210896488447,0.8673013732655486
137,2.3262644432228794,3.183528843432333,-5.509793286655213,0.6449575952429437,0.6145113216029618,0.9309761122724904,3.9388160508810577,9.653382808732434,,,0.6447042257417027,2.325967453228945,3.415170807971025,inf,0.9168262247996715
138,2.4373830644784924,3.2630605089121945,-5.700443573390687,1.038013910118553,1.030160649458502,0.9109778798751099,3.6207252450050276,3.080138999246728,3.2631835770700395,,0.6425374456860184,2.4372599963206474,3.2698613796010685,inf,0.8788248453750266
139,2.659260036932778,-2.659260036932778,0.0,1.279446499668418,1.2327411659180656,0.9194593349140954,3.4953058136944937,5.191337658383518,,,0.5915533975974677,2.659260036932778,inf,,0.8512374029017958
140,2.350523172594235,2.406862307435307,-1.2014814918080479,0.7267163858275772,0.7039530745732652,0.8317351876791649,3.054706906973432,1.9836783084158092,3.3500678165602924,,0.6233814453054027,2.350375756830394,2.394056496491205,1.4373860222776018,0.8866894482145873
141,2.5257286443082556,2.076102640414322,0.40211502122288234,1.6669028242353732,1.641205652441589,0.939202430599496,2.9703880918348116,3.7639746359735295,2.481567748522486,,0.6180765742263259,2.5257286443082556,2.0827804429453507,0.4088151949934463,0.8588843393139385
142,2.612895088016668,3.0875484853740187,-5.700443573390687,1.1013254446695662,1.0669140329977636,0.9057063653348838,3.2986725040702933,3.8458906303751736,3.0875520254617057,,0.6233814453054027,2.6128915479289807,3.094229827992735,inf,0.8748229967771207
143,2.3786090423540336,1.3566880423416667,1.200618162842349,0.5945958783539338,0.5869832017883712,0.7380801520167045,2.5034255920118746,2.3243643856881664,1.6796012828940154,1.6389855290558775,0.6068309995095971,2.3785066745555117,1.361900019437743,1.1963587515365457,0.8704089541106892
144,2.15790367521205,1.4630983564988012,2.0760914547945535,1.5676387498714295,1.5450901601700213,0.931436714009642,2.0566166127726264,2.162889060218836,1.4631904567314662,2.076091454794554,0.6309483474627791,2.1578115749793843,1.4698682592624954,2.082791628565118,0.7848927246928895
145,2.294824834925938,2.6175466162072394,-4.912371451133177,1.73797750328614,1.7045057195922393,0.8952432070341929,2.0490396146330108,2.3234624146918335,2.712569234133283,,0.6509067234006624,2.294727158697458,2.6085496170782982,inf,0.784139089360075
146,2.070633872419846,1.3308993388760921,-1.6090424876296128,1.486178359932702,1.4232944372775234,0.7347704484131181,3.144001886261405,5.114591379031953,1.4741454273135157,2.2488964097875623,0.6468212168108125,1.950833359302319,1.1836502563442517,0.927071123752539,0.9438353888270258
147,2.553280388980682,0.3205794528321184,0.8894990308086816,1.2306344967181608,1.0457922177042172,0.604452618367415,1.1511245310239961,0.926304194028349,1.4426891620439362,1.6774286312651256,0.585052858160615,2.3028073399112845,1.0707748747178973,1.1192518419646578,0.8659711846620125
148,3.731117460539086,-0.32499906057737027,-1.8096800378735578,1.0441763454684707,1.02296555156382,0.7806112188349899,0.8978177166143508,0.9992876456558626,1.3992446671991998,2.591146887198032,0.541134803179459,3.575154022124482,1.2573350865882995,2.2312704187459365,0.8291550490581656
149,2.609657082039617,1.8992664826638563,-2.324904320330929,1.7157379263858172,1.6725523972600145,0.9058043543755329,2.8641793305879415,3.122146698199268,1.998207016350124,2.992218507152835,0.524519217297268,2.553613847797791,1.7473449637873089,1.9025994506505068,0.8347278583512964
150,2.921757355549109,-1.1783262354600514,-0.9428110554827925,1.58845664540987,1.5665493649660058,0.7818680331101289,2.882317396534831,2.60634791502088,3.006432475489617,3.572842616305907,0.5978297680564633,2.869001732159972,2.5496018002625664,2.227761301196301,0.7405435004337211
151,2.8215274797515537,1.7288193934884877,0.464688482302285,1.6232580698041572,1.589994952890757,0.8679899162101288,2.5346187848669266,1.9226966188112358,1.7368227110394212,1.3596040424728242,0.5947193981915972,2.817121296156572,1.6638666199331054,1.2670948174631038,0.8400045037773106
152,3.0226822650375142,0.07638318971906699,-2.9057593312100742,0.8710382194651143,0.848039197659043,0.758133337825563,2.2505522707319265,2.3530392231451316,1.6866286352283633,2.6702709443657042,0.6180765742263259,2.92641352924343,1.6395359435913799,2.4978100546239084,0.885671034425911
153,1.404723019031932,0.8495366827553676,0.7715599513030162,0.26704003265873155,0.25092254713409146,0.5251189182792558,1.6262277320921417,1.7538214109415267,1.012181160222111,0.7723989780740931,0.6233814453054027,1.393789042882151,0.8356488568187199,0.7578853842717441,0.9519364350811447
154,1.6649577363385428,1.2461012684298476,0.6448467214425566,0.39886606560601146,0.3888215892175151,0.7784967473215844,1.3603470223674756,1.4687965877444638,1.5750291943821457,2.598398980630593,0.6602640781246099,1.6562383906753768,1.2032162645860665,1.3841636097084118,0.8261049482717395
155,1.875141078167106,1.5227174022295353,1.6060878255488187,1.2904006746139405,1.267718501573406,0.6663871789767236,1.3641065528726912,1.672033830676419,1.8793923461682671,1.9425600621700312,0.62595550513784,1.875141078167106,1.529395204760564,1.6127879993193823,0.8457043269611029
156,1.0587217139436977,0.6163701687118393,0.6208042221877117,1.4944336893888224,1.4870157546555065,0.47491449360498234,1.5195119966153687,1.2014980029653322,0.9528453942703171,1.3829442742346088,0.6207552362147116,1.0587187250064332,0.6230509601801334,0.6275043959582759,0.7781469593005147
157,1.714798428091927,1.420695787837223,1.4629869819081445,1.5668030257531096,1.5675152748473293,0.711261875679242,2.550012622913535,2.316386825988378,1.6830600523047141,1.6060878255488185,0.6357360191111145,1.7147984280919266,1.4273735903682523,1.469687155678709,0.8614472988517783
158,2.092864562011976,2.5089667227106016,-4.601831284722578,1.5961567588284757,1.5683974178370328,0.8452981816659016,1.9858494439506544,2.53784799071929,2.9144318308187644,,0.6233814453054027,2.0928645620119766,2.5156445252416293,inf,0.7620952420728768
159,1.8971199848858813,1.7238820468249698,2.0760914547945535,1.579629728392092,1.5718170104707325,0.6780775614367288,2.0380327137187915,2.0090526681664964,1.7238820468249691,,0.6125606311107803,1.8971199848858813,1.7305598493559984,2.082791628565118,0.824893036029675
160,1.791759469228055,1.7114595268264128,2.193874490450937,1.3789236154757152,1.3305976352597682,0.7706454402218488,2.723865723148305,4.101619287157455,1.711459526826412,2.1938744904509373,0.6425374456860184,1.791759469228055,1.7181373293574413,2.2005746642215014,0.8339369521355927
161,1.4552872326068422,0.7187958161676831,0.6326386798347143,1.6867940075075194,1.5962427857448602,0.7212598420550564,2.0626643603124775,1.322875596778688,0.8778605107973703,0.7989963856396555,0.6584896970785714,1.455287232606842,0.7254736186987123,0.6393388536052786,0.9242101830841536
162,1.771956841931875,1.0952733874025953,1.2204253447368347,1.719788002914921,1.70855586819935,0.7459367216356022,2.1893003786310365,2.245739585071786,1.3635373739972745,2.561599270576255,0.648888643467878,1.7719568419318752,1.1019511899336245,1.2271255185073977,0.8629547714631199
163,2.2072749131897207,1.8837307477668648,-4.0910056609565855,1.434008194589486,1.4199472080409816,0.9144130821686776,2.514820461606161,2.9360722145125466,2.106874299081075,,0.6547956803312163,2.2072749131897207,1.8904085502978945,inf,0.8135457589801773
164,1.9425823589626383,1.2729545646400469,2.4815565629027194,1.4079406280164743,1.3762893757843448,0.9164677424447657,2.1698565515802866,2.8512163279249916,1.4552761214340022,2.2992350061087636,0.6333676938231112,1.9425823589626385,1.2796323671710768,2.488256736673282,0.8070842465659854
165,1.733490561104079,1.1943642900468254,2.0760914547945557,1.2579619457356666,1.2276600535926374,0.7765430675053312,2.068898422522576,2.36900591990714,1.4820463624986069,1.7884093823427731,0.6584896970785714,1.7334905611040792,1.2010420925778553,2.082791628565118,0.8266686625940834
166,1.9661128563728327,1.7884205679625411,1.9425600621700307,1.426929931802206,1.4136100950750314,0.7860595048029005,1.7497275464998612,2.025872446198228,1.9425712477897987,1.7884093823427731,0.6584896970785714,1.9661128563728327,1.7950983704935697,1.9492602359405953,0.7585023581403272
167,1.8433187024392048,1.5545397779574366,1.6060878255488187,1.4599812953547224,1.3931819846737645,0.8154795236246329,2.0177993445687514,2.2673083319003244,1.5545951683014703,1.6060878255488185,0.6153451465759925,1.8432633120951707,1.5612729708324995,1.6127879993193823,0.7967330152932104
168,2.279654451595006,2.3221768331275716,1.0952622017828268,1.7151825752060041,1.678904241486151,0.9310514845505067,2.1683526951316088,2.2675291374078066,2.3223114646595273,1.3987281419358706,0.6038851895711802,2.2795198200630495,2.3289892671905563,1.1019623755533916,0.765049770535208
169,2.2029195566284723,1.5516138677069016,-3.754533424335374,1.7701654665758932,1.6974380622681136,0.8553184026181798,2.2303865727519483,3.5572661046922915,1.5822557586236847,,0.62595550513784,2.202840316121855,1.5583709107445474,inf,0.8256061413328359
170,1.9140505492531183,1.4984933201843698,1.0980706602890922,0.9178060460986631,0.8994538701568813,0.6591196535934624,2.1328816665237085,2.504712622748573,2.286685798419916,1.7130857958324017,0.6740851607140061,1.9137764554165,1.5032116121519794,1.0273868958736851,0.8450307453795476
171,1.5028007289802632,1.424851364238145,2.767115396036794,0.7157701913654209,0.6659103071100517,0.4912098413849652,2.479756553880084,3.929829004215861,1.6327159748844955,2.568333302757599,0.6284777104787076,1.502778241044654,1.4315454043806934,2.772797730496368,0.7361023655075405
172,2.120263536200092,2.193885676070704,-4.314149212270796,1.7771120831862002,1.78771245156592,0.6306116642529027,2.5748821265910937,4.638000949682215,2.4815677485224854,,0.6357360191111145,2.120263536200091,2.200563478601734,inf,0.9271928295424474
173,2.088686536635771,2.0023191243208145,1.6060878255488191,1.7709893810373294,1.7335931718030257,0.8073816110255139,2.669971900631023,3.791145107009011,2.225509945348017,,0.6403206450210053,2.0886392669227787,2.0090441965648367,1.6127879993193823,0.8750951012374494
174,2.280943809930872,2.7263525828998696,-5.0072963928307415,1.7766279590494578,1.7700113198535097,0.8556915177828923,2.4341074593743937,2.723040839349186,3.4196199721781535,,0.62595550513784,2.280823601212533,2.7331505941492376,inf,0.8411886578588883
175,1.657968717269175,1.0638281947613772,0.6896823027948189,0.7268970234049016,0.6347781500294194,0.5810753025638105,2.061826274546546,2.3897846384652315,1.4164917473670633,1.295409610287532,0.6125606311107803,1.6576365849025771,1.070106249545369,0.6963820518579139,0.884194305958434
176,1.7862879004816556,1.4291206494071003,-0.7803868986229108,0.7320992102885115,0.6849361971792223,0.6518208976823184,1.6657540610563872,1.7488975963986209,1.7192760489042533,4.0385882314623425,0.6284777104787076,1.7861750909341545,1.4321453326423463,1.5033835786675422,0.817474703738897
177,2.0334694130640774,2.057536247892508,-4.0910056609565855,1.7354724957952166,1.702022270560586,0.8975245232485006,1.621253943234602,2.1316779801107995,2.280742720163971,,0.6180765742263259,2.0334064921068244,2.064276971380791,inf,0.7365472061601427
178,2.5257286443082556,3.1747149290824312,-5.700443573390687,1.6228822094695943,1.6031360906315886,0.8694879245434223,1.7213566315085214,2.0612049353152564,3.1747149290824312,,0.648888643467878,2.5257286443082556,3.1813927316134603,inf,0.8162199653849249
179,1.5424989358676735,0.9674609861033037,-0.05521590513341801,1.2587168628327634,1.1450301409757044,0.6451019577793546,2.3404036887333497,2.702423275414429,1.008717492356201,1.048432314817064,0.6447042257417027,1.4035987782100552,0.8151559176765276,0.6482912367060853,0.9149605047491524
180,2.99188523647715,1.0286800769744038,-3.198501488217553,1.6990127343597807,1.6659293477492292,0.7750610127549586,2.3103955888404593,2.8016288785950656,2.305757606313851,2.701350027331646,0.6125606311107803,2.8905717778988316,2.131798772415845,2.623994283304163,0.7410311224886077
181,2.163643197776507,1.6936339709853478,-2.4512590807622114,1.5668664819686389,1.5468486553088026,0.851351540907238,2.5104573561816173,4.044908208139569,1.9549064978898663,5.343124749923405,0.5287703885177266,2.1502455761422246,1.655917038586444,2.207774788231372,0.7855093928420898
182,2.4953922180667956,2.1691678660427627,-4.664560084109558,1.3938935930537448,1.391666354363164,0.8182283442773611,2.577011179454946,5.287710246611336,2.178065498673945,,0.5978297680564633,2.476409519534054,2.1221161237353687,inf,0.7606815539839563
183,2.723741404685028,1.9486924190843773,-4.672433823769405,1.267975093567483,1.236727483229684,0.8335777233943478,2.155334670430526,2.8487396903454467,2.103957356554257,,0.5604843169999094,2.7204602211788917,1.9442240923416076,inf,0.7407309539590137
184,2.8605977239367544,-1.3400318660433261,-1.5205658578934282,1.3915532200805223,1.3870310735904885,0.8989457624630728,2.69509786957149,3.838049078373063,4.5524484449556555,,0.581717464821069,2.8594546552614433,4.141391046786706,inf,0.7375015979838714
185,2.509648634729105,2.274652602465637,-4.026568693843949,1.2305436117749633,1.2337652423170256,0.7344397975941627,2.5458601484627175,2.8299173716578,2.267600349818309,3.530298749050653,0.581717464821069,2.505245420783531,2.2302865830678043,2.9108328297675046,0.8011378388174557
186,2.719612441463845,1.8655732769738038,-4.566067955060114,1.447288942832021,1.4333516724898017,0.8797266523663018,1.9564316625649487,2.417321809736674,1.9278457533047135,,0.5947193981915972,2.718437293988697,1.887844620852085,6.80128303447162,0.8008865912424524
187,2.791009555544116,1.8266794925375947,-4.49084269618957,0.9440882002431145,0.9345463644637452,0.7583738388729447,2.3634897389019485,2.8223583916170125,1.9120137312508978,6.002113011672031,0.5947193981915972,2.786913049527935,1.789777665138288,4.528289141652134,0.8215815195889276
188,2.0692973086353574,1.266348073245481,1.7830533816386023,1.5609732431671346,1.512726778234332,0.4687679570863196,1.628908476845898,1.6557042887768263,1.4460603208832143,1.9020938280849164,0.581717464821069,2.064618612788198,1.2559208658565033,1.6146791761668007,0.7986869902636105
189,2.137900569527176,1.9411230784774198,-4.079023648004596,1.681395714100129,1.618766102960357,0.8387772787359614,1.6955418055529499,2.0280408800891365,2.149329489882521,,0.5567373465730988,2.136788208532389,1.894894592565001,inf,0.8208539559606571
190,2.0411414309393052,2.5013111166679547,-4.120332397173715,1.7094019445085549,1.6392666898443315,0.8471845100221288,1.7151397900350667,2.390710298296053,2.715831726138093,4.692480646679766,0.5451288209179292,2.039964451137636,2.4351526066022577,3.040627593461882,0.7871074902884938
191,1.6257342406141255,1.1390167700578848,1.2823202433112355,1.5945813728211946,1.5919942155670632,0.5605766875898601,1.7978275296362625,1.6994744932096868,1.4853407813034785,1.7228126611056034,0.552929491858785,1.6250028647051544,1.1435053054341697,1.266938750835291,0.9034074786059216
192,1.8434628440079022,1.6875756837479086,1.6403795802041317,1.7786733993232395,1.7534680403861278,0.8792501245745222,1.4898671643289167,1.7334493983926185,1.956432048582034,2.6674484756559647,0.6068309995095971,1.8430527636156055,1.6882533033935703,1.6147671979821843,0.7771899325139974
193,2.189648602506292,2.369558883246289,-4.559207485752581,1.7386752603587488,1.6981794157929762,0.8374245278314902,1.6786922733727867,1.9979504424060774,2.946230315086139,,0.6547956803312163,2.1893556189575243,2.348155918556752,inf,0.7779680630391113
194,1.9142599924247443,1.3758681926716199,1.713818120849096,1.7732315358300383,1.6784930414804151,0.7977563602164229,1.6595765461369765,1.9104278011324531,1.3883951831501942,1.7013980053531434,0.5883313578629602,1.9141531174421218,1.382083828583547,1.7210873362213834,0.8034121389375987
195,1.9755109014886663,1.6309159719637023,-3.6064268734523686,1.787278670458058,1.738135254524851,0.8393034952925749,1.5440154639466108,1.8840371255126687,1.874783952014686,,0.6180765742263259,1.9754419516613513,1.6368880686488785,inf,0.7454395014030338
196,2.1715177350472104,1.689735390707034,-3.8612531257542444,1.75764909118074,1.7306267858052342,0.7492804299653115,1.385351668564701,1.425272748522623,1.9196437431460942,,0.5978297680564633,2.171361917810492,1.6939895683085073,inf,0.7179588296088749
197,1.660731206821651,0.9486699132107193,0.7851072734789883,1.7838475400076954,1.64009161205639,0.8017654011926959,1.5240780243855179,1.7544982479251743,1.095273387402595,1.3329941633935256,0.6153451465759925,1.6607312068216509,0.9553477157417489,0.7918074472495522,0.8231762229114611
198,1.9425823589626383,1.1188038848127888,1.2494128816100867,1.692096735997287,1.5982091611037996,0.9234487141115575,1.8918717887538752,1.757411086671882,1.1929118569665111,1.1753049094563641,0.6547956803312163,1.9425823589626385,1.1254816873438185,1.2561130553806499,0.8047580552602184
199,1.6964492894237304,1.0595553048005157,0.995178743225845,1.776839090271034,1.6568262698926384,0.9332453239101667,1.6133168262490032,1.8538561305475576,1.6060990111685856,1.295932897244979,0.6380535849069913,1.6964492894237302,1.0662331073315452,1.001878916996409,0.7982400700232056
200,2.093869191065541,1.660664233269833,1.2494128816100862,1.7535569229308585,1.7275216293823403,0.863927469247071,1.5298478538530595,1.7567559070431977,2.2202931679116094,,0.6584896970785714,2.0938560443591863,1.6673551825072161,1.2561130553806499,0.7578587980587015
201,2.092864562011976,1.528137469698875,0.9774791661264435,1.652769127261988,1.6443810735287225,0.8488473914832363,1.9016064540014808,2.26190507314437,1.8158195421506547,1.0952622017828277,0.6684167106117298,2.0928645620119766,1.534815272229903,0.9841793398970082,0.793058691432263
202,2.120263536200092,1.3829554598543758,2.193874490450937,1.6862467870992006,1.6719445358767318,0.8810745477026973,1.6482071218536136,2.2734643954948863,1.6342698881352822,,0.6584896970785714,2.120263536200091,1.3896332623854053,2.2005746642215014,0.7659438270069229
203,2.028996600320186,1.474222395734282,0.8075801293310461,1.418484345400676,1.357999785831028,0.8927470927215077,1.8127861802298928,1.7660590873810698,1.592084599783007,1.3829442742346088,0.6509067234006624,2.028917431927843,1.480979366657653,0.8142803031016107,0.7704678268683302
204,2.269795270171055,2.044353942099741,-4.314149212270796,1.6334502370200366,1.584214931930847,0.8763833993126026,1.906058159646581,1.765998513907199,2.3320360145515218,,0.62595550513784,2.2697952701710546,2.0510317446307704,inf,0.791656640151732
205,1.9425823589626383,1.3599659416296783,1.295932897244978,1.6369227045398702,1.6040135681250616,0.9422926181406727,2.1092561580165805,2.4966828686299682,1.8119510653727346,1.9425600621700312,0.6619902821573977,1.9425823589626385,1.3666437441607067,1.3026330710155427,0.7900474193207201
206,1.91959284073794,1.3829554598543767,1.295932897244978,1.4201834846065808,1.388610010385847,0.9139295980270303,1.83662561091757,1.6905810461272792,1.4782656396587008,1.200622717440654,0.6233814453054027,1.91959284073794,1.3896332623854053,1.3026330710155427,0.80333020371298
207,2.6127400212978853,1.4782656396587002,0.9129406449888746,1.4883943315229171,1.4329541926692375,0.9659498489675548,2.3793977929447148,2.360382218166469,1.7014091909729105,0.6897970936746634,0.6207552362147116,2.6127400212978853,1.48494344218973,0.919640818759437,0.8550068851899899
208,1.7937157088711557,1.3009348153805163,0.8443334447829507,1.3221347017140306,1.2849235266929049,0.7256911769805824,2.230945686468754,1.6045052212522002,1.8815140461301607,1.632737749824658,0.6403206450210053,1.7931604501436833,1.306205435962272,0.8505897734908411,0.925042657677781
209,1.9485718010717656,0.29099073917282015,0.5898203094001948,0.9587299309191302,0.7577657961988409,0.7103958284625373,2.1880482827249956,1.6822065637669472,1.1858720868026253,0.9760868480107985,0.6584896970785714,1.7444942767609408,1.1323691311104316,0.9002402796574029,0.9425267193590176
210,3.9255426825210495,-2.2429722958330243,-1.6825703866880253,1.7375589267232097,1.695417873186994,0.8715493116905997,1.8859427593773526,2.324345298822407,2.927289876768116,,0.552929491858785,3.909249078545421,2.356652314264321,inf,0.84972212567843
211,2.8457507173070136,0.5720637656539389,-0.3039450496729632,1.553325908475718,1.5533593424774723,0.9001857682062131,2.1265501387618926,2.548948937978477,1.6272296779342983,2.0954409554253783,0.6233814453054027,2.6810837528723956,1.4801131163375454,2.1465016522782623,0.8911181045527238
212,2.5966923715747474,1.686740451470842,0.26659486080772066,0.7125022843920035,0.7002121317454635,0.9187140549544487,2.3276591091134806,1.5195249334854752,3.272180726938882,,0.6652988471865258,2.5953169311149704,2.605672091472504,0.7343052530534527,0.8694173985748733
213,2.4595704774072016,2.756606614136954,-5.216177091544155,1.3287940869995043,1.3211423952879593,0.9212475364179078,2.5390021299004384,2.1869500358271017,3.6323333201931294,,0.6357360191111145,2.455347847546456,2.7973590077495283,inf,0.9094134132019435
214,2.1235285737106984,1.7230409063384728,1.049093372065928,0.7470403867868465,0.6859079176905681,0.6577605296390654,2.143383768551265,2.459282650066754,1.9655150683234788,1.3782635151636216,0.6425374456860184,2.120819246133814,1.7152720543273179,1.5336027289291325,0.912838791831222
215,2.189857039196869,1.3523301117165532,0.9625057394519145,1.6626023968855665,1.6237668762974462,0.9129790234622764,2.00158834657699,1.8502046438251294,1.5010221573215092,1.1613844877123132,0.5978297680564633,2.1878684824121946,1.356045201451556,0.9099670545781148,0.8870484867531867
216,2.4180936926287577,3.212803340906416,-5.630897033535174,1.219415255213919,1.207610879116989,0.7722490930252076,3.9124989937877093,12.707316233977776,3.2830709537200558,,0.6309483474627791,2.4173726196706307,3.1941345788763997,inf,0.9033821591150859
217,1.5643528168402832,1.1732959830713614,0.8385857834913621,1.607855792262453,1.5990859181593158,0.6235167628017424,3.6343861785844886,3.1134601582117094,1.5445342870232575,1.9292398029648994,0.6380535849069913,1.5643052223267608,1.179717639234267,0.8439057853837825,0.7561929090820698
218,2.1520576471663224,3.5483859262243644,-5.700443573390687,0.7819446981348969,0.7449555552453541,0.6343277241656088,1.6725160573814761,0.9360032773143985,3.5484791274593315,,0.6528756675646988,2.151964445931355,3.555156929990361,inf,0.8390165364313278
219,2.8797041831243435,2.1646836976293375,-5.044387880753681,1.6944959788176748,1.6388646560440214,0.394530911923892,0.740437522367316,0.3696766743038188,2.3263339770937246,,0.6547956803312163,2.8760744531953404,2.165020048385624,inf,0.9517701651497881
220,4.2878643624332105,-3.182092699367458,-1.1057716630657521,1.5318658684906392,1.514177070867556,0.5470906264297064,0.5613625581847719,0.31886429168812047,,,0.6509067234006624,4.184269269750088,3.162852669015895,inf,0.9262838607249325
221,2.006453139871007,2.296363365521559,-3.843990184331728,1.5142150110861685,1.4219946096087255,0.7385550799194665,2.042928709401773,0.7296819986058378,2.515262580841669,,0.6309483474627791,1.9728817454465277,2.050693745887366,4.205935627630563,0.9689440315001056
222,2.7635727707284103,2.005262262503767,-4.768835033232177,1.623813932377796,1.5538518666256493,0.49764071432788604,0.8068900439062968,0.268552708305385,2.4987680992441694,,0.6403206450210053,2.667708321818832,2.161995269772523,inf,0.9559226627548574
223,2.9777132156093904,-1.7766164091759005,-1.20109680643349,1.6432797703243205,1.6176365078784838,0.5283201871888861,0.8514825910667976,0.32694751153720214,4.367125457517862,,0.648888643467878,2.973318678717091,4.291111544203779,inf,0.9603624672150232
224,3.0538366550475478,-2.960829729674994,-0.09300692537255348,1.4053932557782625,1.370948176776506,0.49235461463762337,1.022341191940724,0.5856001014947991,6.999564423165761,,0.62595550513784,3.0150283624957206,6.600777117588627,inf,0.8020139147985534
225,3.478390930376757,-0.9999372028155888,-2.478453727561168,0.5685563897721801,0.55067046690128,0.4436570926608096,0.6844916085942399,0.3311163884457098,,,0.6528756675646988,3.463072785380243,3.076957713476577,inf,0.9535833698567281
226,3.5522403093411565,-3.5522403093411565,0.0,1.3766759654280154,1.372168806953919,0.4828535848641348,1.1863052691301512,0.7930435238014013,,,0.6468212168108125,3.5241185951746625,inf,,0.7678954474461659
227,3.3517797381939167,1.9292332043787268,-5.2810129425726435,1.6462104791716943,1.667907900254008,0.6091950220178497,0.9255600513144157,0.4916376100057185,2.734625148645707,,0.6403206450210053,3.3239277461708547,2.459619696954209,inf,0.9584152816168477
228,1.9510350141633834,2.0866910429494068,-3.8899958627532905,1.2582605393681825,1.2061023969616649,0.704412571448823,2.555229275398396,1.0953457752810718,2.0534511292520734,1.0823938990765698,0.6309483474627791,1.9250623165424752,1.818625374066456,1.2197460020030304,0.9040371153395681
229,1.9527506677128337,1.8901946587404754,-3.842945326453309,1.4855373080691905,1.4595465342141831,0.7510368016587595,3.7748860278123164,21.06211659270302,2.1167962606818826,,0.6509067234006624,1.951067871713009,1.8839940925790088,inf,0.7393522572545236
230,2.2700205197980576,2.3428232281168206,-4.612843747914878,1.4864008656042205,1.4446569962809788,0.8294651035604906,3.7762138450614655,4.170668084449996,2.533047665706559,,0.6403206450210053,2.2679689818619773,2.3022631527648336,inf,0.6591580289936191
231,2.2790369217637463,3.0354006948379104,-5.314437616601657,1.5591227899448579,1.5268493238049783,0.7061657089974867,3.819601149064842,7.6201355903811105,3.649237476043931,,0.6233814453054027,2.2751861188059315,2.983910534588824,inf,0.8880459808544896
232,1.8854440316208774,1.71238056496243,-0.4242758759125116,1.6530742287158209,1.5403279434820447,0.7930777567893531,2.8805237534145047,4.458338924409791,2.1008365377215727,3.4982564421824436,0.6284777104787076,1.8830709876786462,1.7092868994446682,2.7032192738325445,0.8650025364395726
233,1.8126795084246703,1.410787144617349,2.120075251432809,1.7115929131105951,1.6767787066839126,0.787208379757413,3.7462166212124326,5.020474172198055,1.644952836532156,,0.6468212168108125,1.8125065423728441,1.4150176834493977,2.070793140725795,0.8999145163492756
234,1.8877230371134601,1.5835861639077184,-0.14481837333010406,1.6404438054529464,1.6256148755417497,0.8553467606677146,3.6617957184403047,5.273398216389477,1.8378047196217009,,0.663668482632973,1.8875364246218238,1.5741189260774457,2.7868542993986036,0.7197988317664181
235,1.7287844933005567,1.452644463944589,2.1225709939762636,1.4417722963678887,1.411318607910997,0.7862339253875751,3.63197674639325,3.441279604691067,1.9522723120787135,,0.6566669596287297,1.7285968942704149,1.4550726748631664,2.0775661225099236,0.8476247054409412
236,2.1880695068967597,2.8192268859339817,-5.0072963928307415,1.3014103509660098,1.284312729783299,0.8158159930960098,3.354935158830737,4.646641340435723,2.8193288367571987,,0.6619902821573977,2.1879675560735428,2.8260066392882277,inf,0.9137737546688411
237,2.2401078836617385,1.850897777294847,-4.0910056609565855,1.3093587362669372,1.3008485916061205,0.7032470344246131,4.235024326061175,12.391180482246863,2.646146756247314,,0.6602640781246099,2.2400276996615287,1.8576557638260864,inf,0.9166728097636204
238,1.6526112684458618,2.3502077463452298,-3.395192795834451,1.5564573926870207,1.507333147692754,0.740397592004435,3.50571570916916,2.7375622419369927,2.5380862259717185,,0.6684167106117298,1.6512441874958532,2.320882742001998,3.674237904120988,0.8077332497514764
239,2.124072837929515,3.4117772578031245,-5.5358500957326395,1.66722522476867,1.6463044265595073,0.6918401442088374,3.8819712614312003,93.66008830138298,5.102711617622698,,0.6403206450210053,2.123788259263037,3.370273684411095,inf,0.7852735472884207
240,1.9902104079518939,3.710233165438793,-5.700443573390687,1.4597866582070937,1.4522439674943024,0.8053056620139568,4.061601755558687,36.548440734037904,3.710233165438793,,0.6357360191111145,1.9902104079518934,3.7169109679698225,inf,0.919139700203315
241,1.9902104079518939,1.9184736962107372,1.7884093823427736,1.500636463628139,1.453591968406195,0.6162799288730434,3.471241182600458,2.9295201813026197,2.470454269709841,,0.6153451465759925,1.9902104079518934,1.9251514987417675,1.795109556113337,0.9374195111909512
242,2.6355348289589826,-2.6355348289589826,0.0,1.7193073465131246,1.682118445497526,0.7482024511380472,3.7054990336224685,100.70451798516542,,,0.6153451465759925,2.6352645313765626,inf,,0.9089276020831283
243,1.868846175182984,1.3150806354957385,0.6385883578899474,1.3865037126636004,1.3807699045567878,0.8289798188035246,3.814175177395069,6.599148476036142,1.8560927023402143,1.425142857594588,0.6403206450210053,1.8687845124122706,1.3197237758395337,0.6388672431160568,0.7179742579002799
244,1.8660100033234877,1.26818823084717,0.9062856930209744,1.145742168560347,1.1244520197929462,0.8819367436543107,4.38678842478918,12.575365945988956,1.5316402644881948,1.3809319801909865,0.5947193981915972,1.8655495431988103,1.2691894024631907,0.7667838251322787,0.8123484044153295
245,2.1305422991836918,2.241421464018545,-4.3528459998247016,1.6853946516121057,1.6362243366167213,0.9021800752595833,4.161778166932597,12.119051602617475,2.4224935688859985,,0.6125606311107803,2.121931593300788,2.234643908943569,7.050989447068045,0.7809281423325144
246,1.7515165070478718,1.8593600146183662,1.19854658250182,0.9174803245357447,0.9209431243842396,0.6660425993022699,3.405629864106892,9.106872107786144,2.3320094713989903,,0.62595550513784,1.7510014767558872,1.8600942294704572,1.4525888089597268,0.9442621911076144
247,2.060924999711049,2.2541863599592515,-4.315111359670301,1.5757999667188083,1.566943894338098,0.8016895352029068,3.532172987989283,15.152692213262128,2.595140043276613,,0.5883313578629602,2.0605107540203975,2.2611527309263937,inf,0.9086068784581633
248,1.5741166547434664,1.4085635621898567,0.9226538003440266,1.6980492943593026,1.6755145941275993,0.7808879407857839,3.71197049861322,5.12156858642332,1.6066824210327044,1.4177280082077814,0.6357360191111145,1.5740707685968092,1.4150169622385134,0.9296242627436203,0.9448962225203887
249,1.8477429370109038,1.1464963983942797,1.5550076822474108,1.5622300797956767,1.5217476337855809,0.7669255176186891,2.733261622394514,2.7382567526467425,1.2163224079380586,1.9551446436862954,0.6425374456860184,1.8476951015583583,1.1531613895130783,1.5555235307472228,0.9294405348784632
250,1.861877881454303,1.5550492755678338,0.9611736317061021,1.6445967120294962,1.604432127462425,0.9049228756314042,3.4049080469227886,4.289749719825597,1.864659798287874,1.2776766565284494,0.6425374456860184,1.8616098511291357,1.5570728448740392,0.9404958445873445,0.9391490138014744
251,2.2254301918031056,2.0887190204676904,1.3829442742346085,1.657808804568711,1.6250408522170292,0.8190398485063124,3.394387791016445,8.498639819037587,2.088833754768051,1.3829442742346088,0.6528756675646988,2.225315457502745,2.09551155729908,1.3896444480051726,0.9165599645373573
252,1.899387785544397,1.8551456387909768,1.2494128816100862,1.5805625435703634,1.5726595185568202,0.7908236909866133,4.394604017983571,8.08589831114703,2.009339424254639,,0.6727386042041725,1.8993446799079925,1.86186654695841,1.2561130553806499,0.8683073130931032
253,2.54472140293295,2.5877587616377147,-5.132480164570665,1.6118476852724166,1.5567782696885637,0.6077493048971749,1.9945178130930883,2.0551771261718272,2.576824962826255,,0.6380535849069913,2.543666344994923,2.5649493574615367,inf,0.9393484201555927
254,1.9682013108430176,-1.9682013108430176,0.0,1.037903281235003,1.0194059933538389,0.5887353491866852,2.1922669583960523,1.523867800900792,,,0.6547956803312163,1.9681784803693956,inf,,0.9533708028509041
255,2.609530682660078,2.3977657101706633,-5.0072963928307415,1.3138480052902537,1.269609960105315,0.6071661356713867,1.6835290794858,1.9789194260574197,3.091031342185476,,0.6468212168108125,2.6094122312052104,2.4045619641565597,inf,0.9391925354362667
256,2.116758647940336,3.583684925450351,-5.700443573390687,1.3198996332623694,1.2775263400045347,0.552444384066968,2.277230295957466,2.0544166225223437,3.5840613838985678,,0.6528756675646988,2.1163821894921186,3.590739186429597,inf,0.9454883279167572
257,1.3543847083571043,1.705285989857064,2.637422788291236,1.4837503637943608,1.3568283302338051,0.601230670719261,2.9379537359410355,3.0797674295534287,2.0821047515419453,,0.6180765742263259,1.3542790316878794,1.7092563452174743,2.646936085901644,0.9015017078533953
258,2.118113592846535,2.198628316635611,-2.902027419544562,1.6490716219434916,1.6295772897817293,0.8207606709700086,4.092702141312898,25.0641657483949,2.4563461360074634,,0.6380535849069913,2.1158289391322254,2.157642288987311,2.830028627988696,0.9213250022441636
259,1.8756098874488376,1.7286062281099326,-1.0709215014645022,1.2311143552346486,1.2029163009923458,0.7498034723593746,4.007555241378098,13.399159935551857,1.8551410503247476,,0.6068309995095971,1.8748512650945082,1.7187180092151033,2.4203681286504293,0.9203010264243178
260,2.1261111514067905,1.8342688416287602,-3.9603799930355508,1.6361369184997372,1.6272056054930837,0.8285598920253546,3.6356998497259867,11.084372770638595,2.130609809580517,,0.6380535849069913,2.121931593300788,1.823418416243425,inf,0.9480431024899927
261,2.0379173782398756,2.6571028218290427,-4.695020200068918,1.5767655129095701,1.5512893439755526,0.8073937762188171,4.220582859538692,4.719045095668382,2.917592567589113,,0.6547956803312163,2.037574759806682,2.629470829899497,inf,0.8916043951479881
262,2.0089345401523913,1.6361355120553913,-3.6450700522077826,1.328964708785902,1.2755109168256749,0.7880812103299287,3.641761439068768,37.06341210179601,1.6766451414695358,,0.62595550513784,2.0086724707916286,1.6341719337492961,inf,0.9268264105340529
263,2.033163231912614,2.1170208388941343,-4.150184070806748,1.5187593397286596,1.531014976122383,0.8077373759473461,3.7322288363453024,43.05185438808043,2.233032724941553,,0.6233814453054027,2.0313712132495723,2.114266643360079,inf,0.9438857675780077
264,2.008754087585405,1.4447118860139123,1.5574058436747569,1.7601591183207133,1.7544963376462268,0.7225650423904554,2.872997748476054,2.7389275586200403,1.7636563643522034,1.5122937485103845,0.6097226960127671,2.0067695206455425,1.4415194685504633,1.5009376767716063,0.8387838311297887
265,2.062620950823513,1.6410402755419127,1.9169612066298387,1.6277692198667144,1.640815641500214,0.8845059192283825,3.6734123451303184,4.425419966663739,1.7276028753914352,3.1498053203711787,0.6652988471865258,2.0624314809946873,1.6443856738059162,2.017168027173117,0.8447712622392674
266,2.1410660764452607,2.8662303163854808,-5.0072963928307415,1.621099227307848,1.6145190629644774,0.8289420938127096,4.091905913008803,3.7565242607909823,2.866546662422501,,0.5978297680564633,2.1407497304082406,2.87322446495353,inf,0.8826968964435629
267,2.474055585815593,-2.474055585815593,0.0,1.6756653264784283,1.6451183702961403,0.7920474562446767,3.908673054986789,21.76429817176979,,,0.5641709578113449,2.4739007706114666,inf,,0.8331283000613818
268,1.8344294324588077,1.9221662083291047,1.9404978457174922,1.099373273062006,1.0815461634710022,0.7527866846465285,4.0669418555297865,15.452134723830179,1.922057733940793,1.944008448983302,0.6153451465759925,1.8343886512840142,1.928735536471822,1.9473472750511613,0.9121769656759505
269,2.5257286443082556,-2.5257286443082556,0.0,1.5351207494700634,1.4789046137406001,0.8366435969980184,4.715517043383446,6.466890924097023,,,0.6153451465759925,2.5257286443082556,inf,,0.9080779658023131
270,2.2027032283486125,3.4977403450420743,-5.700443573390687,1.3727197046269726,1.3118774719680424,0.7986648050983505,3.4069410288002455,8.827803531909348,3.4978043633529685,,0.6068309995095971,2.2026392100377183,3.5044821658839975,inf,0.8469950060366053
271,2.116218867182828,2.982488512321136,-5.098707379503964,1.4996821584470437,1.5185204313508045,0.7330068628087495,3.8448334345593014,46.49743242977557,3.58443025147929,,0.6125606311107803,2.1160133219113963,2.8996345140084037,inf,0.8249714382860771
272,2.163992432021309,-2.163992432021309,0.0,1.4608732327037413,1.4344912111835055,0.6156890187996935,3.54080154982647,24.270648862156087,,,0.6284777104787076,2.163789801249982,inf,,0.9372137160457624
273,1.9678252099229583,2.5377913348491914,-4.50561654477215,1.7306460412514848,1.6832317789957125,0.7959302136682034,3.2829081023422138,6.357345383347769,3.0395949737727705,,0.6447042257417027,1.9677014190579707,2.535112760292593,inf,0.9010760717296397
274,1.6845570757919621,3.309178611081985,-4.993735686873947,1.5990221409068208,1.6085959340392961,0.5553502282280703,2.993365043328018,1.554315036874312,4.01592285483223,,0.6602640781246099,1.6845207185584563,3.3128693487877787,inf,0.7441836672936721
275,2.2903510118546895,2.3114802728678883,1.0952622017828268,1.6725748997195966,1.67468120983042,0.788152212062301,3.3176266264591825,4.940405083041422,2.3118333072340023,1.0952622017828277,0.6068309995095971,2.289997977488574,2.3185111097650317,1.1019623755533916,0.9347249955489703
276,1.9841423983788256,2.6176888863437524,-4.601831284722578,1.6130187929407078,1.5776760436647077,0.7707476285147189,3.7320763279068028,23.72701765853547,3.0233266340583613,,0.6403206450210053,1.98396975877238,2.624539328481226,inf,0.91858096700577
277,1.8119888027226732,2.600571371388765,-4.374324647356368,0.7315838857581518,0.7225802180756294,0.5035080534298128,3.8172318694709766,5.7507983036047134,3.4712358521837903,,0.6566669596287297,1.8115540965562347,2.5829950631165377,6.319868609079685,0.9202991069809613
278,2.143081946543115,2.171067265727681,-4.314149212270796,1.4230793301056883,1.3757841770434425,0.6646447460227576,3.521308066609755,14.03331115082089,2.1711286889480883,,0.6403206450210053,2.1430205233227073,2.1778064914791178,inf,0.9368335777521973
279,2.092864562011976,2.9144318308187653,-5.0072963928307415,1.4723078909992953,1.4673588475378507,0.8121410226105062,4.4972546432148155,4.813458698437788,3.60757901137871,,0.62595550513784,2.0928645620119766,2.921109633349794,inf,0.8143071489344581
280,1.7736198519387605,1.7727344793104063,1.8257371778381435,0.3242599953007085,0.26111349696027825,0.7869664396091332,4.375338472486487,14.459422484995315,2.014428162135843,1.97541302394871,0.6333676938231112,1.77313400510489,1.7688591865227214,2.2272170883510447,0.9213050195864162
281,2.142482494591448,2.412548897487249,-3.6373787499570214,1.6873810809095444,1.6890673609086295,0.7302099838706284,4.178867335868268,9.194313025884302,2.517449560410252,4.253629525925798,0.6468212168108125,2.1382012368867582,2.286500960956701,3.1116617405610514,0.9336972063351955
282,1.9453751437156825,1.7038412961869296,0.3272783426246493,1.3269288032780575,1.2923690745168412,0.6987101036460376,4.429317510428054,46.56518512871808,1.868233829612247,,0.6284777104787076,1.9438234388613127,1.7066903684190757,2.419513062330696,0.8190219500769352
283,2.3575393346828157,2.6497570581479257,-5.0072963928307415,1.6692632790136224,1.6343867407097226,0.730056087346966,3.953528167071865,84.66054722472344,2.650020427346295,,0.6309483474627791,2.357275965484446,2.6566982298773243,inf,0.8073398996951906
284,2.2713442047350942,3.4290993686555926,-5.700443573390687,1.6531230786348774,1.6370246199755507,0.6128951389301535,4.176597322020314,19.037006758660315,3.4297877179685843,,0.6233814453054027,2.2706558554221026,3.4364655204996133,inf,0.9374707621294739
285,2.659260036932778,3.041183536457909,-5.700443573390687,1.5969405907634315,1.5898427948817517,0.6487860686197656,3.544523644153585,29.42634123160562,,,0.6207552362147116,2.659260036932778,3.0478613389889375,inf,0.8192070159308071
286,2.2058950166919007,2.798689234947482,-5.004584251639383,1.3475734308945206,1.3539998155234025,0.6931690167397443,3.208045954146199,5.146861546685595,2.80163633667342,,0.6097226960127671,2.205660056157321,2.8049752379389346,inf,0.8343140423546149
287,2.082948752678138,2.1362595836661087,-4.219208336344247,1.6286206377018,1.6202661066580046,0.6011661640788751,3.47830524254422,8.843506494917232,2.7763925386270327,,0.6125606311107803,2.082022647647536,2.133360242951621,inf,0.7403300765941982
288,1.879795616844595,2.0046657603043796,1.386974612569618,1.3831442740441766,1.3671546757455109,0.6476257163936976,4.037877145904784,2.437964560943672,2.332075453822475,,0.6125606311107803,1.8796439545385752,1.9985145369368145,1.3535391877312513,0.9244658535712564
289,2.269795270171055,-2.269795270171055,0.0,1.3807069067161764,1.3058387935465552,0.6999439840598224,4.098217317571428,12.317299281591756,,,0.5915533975974677,2.2697952701710546,inf,,0.9075461715317925
290,2.3023664941752258,-2.3023664941752258,0.0,1.4983958437378693,1.4522216652267246,0.8124977230635586,3.9754118163507983,8.76637394081095,,,0.6403206450210053,2.3023628954595243,inf,,0.8323509337539111
291,2.4849066497880004,-2.4849066497880004,0.0,1.3858701872002155,1.392649732961118,0.7851924252358952,4.570216165131645,50.81772900332723,,,0.6309483474627791,2.4849066497880004,inf,,0.8863049632417628
292,2.3364866446697268,3.36395692872096,-5.700443573390687,1.379589091169011,1.368901045796379,0.6994364534338602,4.515597082421576,31.623046246186462,3.363956928720959,,0.6153451465759925,2.336486644669727,3.3706347312519886,inf,0.7254358556428809
293,2.2072749131897207,-2.2072749131897207,0.0,1.3182331852298432,1.3033067970114771,0.6973124117997928,4.566257318809219,114.18224256106946,,,0.6008849035917525,2.2072749131897207,inf,,0.9161095814047967
294,2.4898052891304316,-2.4898052891304316,0.0,1.586011988924673,1.5734733504254144,0.8156298524035163,4.086975147886166,121.86063451887017,,,0.6403206450210053,2.4897182067852226,inf,,0.8499561131421086
295,2.3121946997873044,3.3882488736033824,-5.700443573390687,1.6032019626994134,1.595194739430414,0.7874916118489641,5.679664041621869,101.872857582727,3.3884813185840437,,0.6684167106117298,2.3119622548066427,3.395159121115073,inf,0.9265762618182931
296,2.496329524120152,0.4193450795535738,-2.159557222077062,1.3479261126034252,1.3290600789479416,0.7922165279417825,4.653008494678511,5.179699065908507,3.3935820581356504,1.6821113262050487,0.6425374456860184,2.4898521921810146,2.7439266532294506,1.3535045382968995,0.8835686327644001
297,2.2955443784922664,-0.9863674077750639,-1.3091769707172025,1.6729558620296776,1.6487151195639744,0.7069394634525823,4.1703311524766065,73.8225115982877,4.872604538771443,,0.6468212168108125,2.2941761034126698,4.602529339382882,inf,0.8509875965980505
298,2.315695464951703,1.578995189073023,-3.894690654024726,1.0175936013028868,1.0141728479285934,0.7683933082418895,4.346124755408208,30.456623172811927,1.6073847868050393,,0.6180765742263259,2.3153326658165483,1.5269570015969225,inf,0.9192423855917747
299,1.8420271545637623,1.4644229602874559,-0.36392899296318504,1.5303337155291261,1.5311073586634991,0.7747700224331587,4.113566228201356,2.4687695386266775,1.5619242448915922,1.627680049536449,0.6068309995095971,1.8312628890057552,1.374367709112425,1.4277104648366077,0.7135880009782791
300,1.710333471015999,1.2841708244989518,1.609419386994937,1.2107724824223247,1.1848073975597102,0.8513140098940545,5.204453108952214,11.576788935399696,1.6772415877429132,2.3095495211107036,0.6284777104787076,1.7103023776517878,1.2907775022287986,1.6152636067056303,0.9392996820386279
301,2.0390393308206205,1.2635089697716961,1.295932897244978,1.4753570328758419,1.4764170451702794,0.8258010827087778,3.6400570465836464,5.897782969056937,1.5807236742736828,2.077344849569047,0.6125606311107803,2.0390249626626744,1.2702011404606706,1.3026330710155427,0.6385668161798055
302,1.9199759993750178,1.9887081047876132,1.7884093823427736,1.2488157279492733,1.2227212870128845,0.7910539656358392,4.093081851703336,18.014505792346657,2.1710339605816085,,0.648888643467878,1.9199717003749777,1.995390206318683,1.795109556113337,0.776514729745714
303,2.0162553876194065,1.8924287165432245,-3.908684104162631,1.0362085015170168,0.9382229630047616,0.7647967041641185,3.7859107216120065,13.967234702265888,2.075437537533209,,0.5947193981915972,2.0162372435554015,1.8991246631382595,inf,0.8554427950705055
304,1.875141078167106,2.0335430259955247,-3.908684104162631,1.2195796483831636,1.1867678930515213,0.8791440839661984,5.287779908264713,60.927011407040304,2.6320897140116313,,0.6584896970785714,1.875141078167106,2.0402208285265546,inf,0.569935361542627
305,2.143019821448779,1.9912934570668819,-4.115195515138126,0.7688037820831779,0.7239795029457562,0.8553114318027205,3.772519661325206,51.81461159475972,2.038824459454408,,0.6153451465759925,2.138767007764651,1.9957053455482292,7.273092595999522,0.8773014214284751
306,2.0239162375806155,1.6040137242415877,0.36457456346730943,1.667834634358878,1.6504836131914806,0.793870325536511,3.042308878798662,2.3683931559116584,1.5602981946685646,1.3203868662850935,0.5604843169999094,2.0197480722054646,1.4074511119956918,1.1092744705007005,0.93853395419316
307,1.803843055052156,1.7693177873397292,-0.767501620394655,1.5297097198133685,1.5008699809065333,0.7560276637419093,3.93784480288021,1.9417628068063104,2.0305611719532988,2.814268119325552,0.6425374456860184,1.7957674906255938,1.6826709713800088,2.9251801813613403,0.900080419554689
308,1.7739124063986882,1.5971420802589278,1.5452167915927686,1.5513212120066822,1.5074435041099492,0.8369885121294252,3.039172845888222,3.214672586023745,1.9853382609164043,2.015902596073004,0.6528756675646988,1.7725452503042507,1.57101235191149,1.5507772361843544,0.8200751220662486
309,1.48389037474102,1.4405990901739394,-1.1642503562516846,1.6867198367479883,1.6606262705709023,0.6348358954711819,3.027718512885609,2.8988957703198794,1.5861116103833497,5.150197627303944,0.6357360191111145,1.4798239049755695,1.3956592404268444,3.590439381300684,0.8656389482654395
310,1.884997640112878,1.6029437827190272,0.7779242858565465,1.4983380342866481,1.434099112913519,0.8158244517411337,2.934964028317724,4.864802188365032,1.766818626160884,2.5764393777510306,0.5370774965580548,1.8804449740607425,1.5591467955887244,2.001826440539243,0.8888821215431508
311,2.0632872149502566,1.1208673521828834,1.0634934741940203,1.4778640447638922,1.4544207382656344,0.7089009321156788,3.345173609047962,4.447485261652254,1.2792716507297663,3.275978607656254,0.5202020156036558,2.059813221513259,1.1126562305407859,2.327012559089426,0.8935032131873875
312,1.6803638534762435,1.3066308275067617,0.9359534790762987,1.721712011032411,1.6601983113174301,0.6572224752080535,3.1414866418032643,6.558375198170481,1.722691374097744,0.943248813460536,0.5022576003740722,1.6798603767306461,1.3090066279146177,0.9433587081004016,0.8780051500267919
313,1.8369215479209435,1.701041371432583,1.7280115134599385,1.1524960813778142,1.1118959983747043,0.6647810548102223,2.908265534266178,2.3587718528604125,1.8387310897577565,2.2518933499419473,0.5370774965580548,1.8355023921759739,1.6973234319646182,2.0082710682385136,0.9005451674607048
314,3.7842563721310465,-3.7842563721310465,0.0,1.581999655925783,1.5888773644500547,0.6614065416012137,1.5534868645290412,1.6093675656210333,,,0.47824363442641393,3.666900547395161,inf,,0.8828751283167559
315,3.7024096530093487,1.7260145685524866,-5.428424221561835,1.5034304724077971,1.4802083676400812,0.8886175166679038,1.4699007675497717,1.5891966248794913,1.7415207727819935,,0.49759852643134905,3.6906588140140135,1.6814247027736322,inf,0.7978544697919466
316,3.576058409934615,1.6375593844674814,-5.213617794402096,1.1397937278075159,1.119528813616788,0.9227993482217404,1.5632032429143587,1.611355375266466,1.9585432914373715,,0.5947193981915972,3.5590214668557225,1.6160954659061568,inf,0.8273253108714058
317,3.8360745005931842,1.2013587261749463,-5.0374332267681305,1.514990750778058,1.4874583039325318,0.8643984413580881,1.5682733785777312,1.6369463916978118,1.6662735156253972,,0.585052858160615,3.8319802977546096,1.2039728043259361,inf,0.839207754861765
318,5.602120888174075,-5.602120888174075,0.0,1.0534313562598456,0.9963646476821183,0.8234616797784066,1.391985561308049,2.0319582956937112,,,0.581717464821069,5.566923291939004,inf,,0.8067857304530585
319,3.6844624775318957,-0.6572588590820296,-1.9085595681761105,1.4931986353710278,1.4881880529612912,0.5894739075462232,1.655140620709193,1.910701158579815,2.083778799379484,2.453205173812019,0.6309483474627791,3.5613661338149765,1.7347314759947472,1.9683326131111458,0.9061604908725189
320,4.551199879695168,-2.571903972589825,-1.9186132420427406,1.4206841889361748,1.4256786011840752,0.8070166834382384,1.479688651893982,1.947777462661978,2.5813717158789005,,0.581717464821069,4.450067578435451,2.3131064717355785,inf,0.7774580459147413
321,5.069986075758885,-4.577373912100787,-0.49261216365809807,1.5085963273369665,1.5053511290161035,0.8829937894735319,1.4957603134155801,1.7317732248155135,2.6338665162058077,,0.6380535849069913,4.895819619667674,2.5044121444122567,inf,0.827131829687733
322,4.486421860855718,-1.6426443627580833,-2.805541971342565,1.6203302000250213,1.5822266467002124,0.5505377409240303,1.6044069193746364,1.8264122148002697,2.2666844317861132,,0.6097226960127671,4.305888977692959,1.9198924213273585,4.48863636973214,0.9120503227625377
323,5.574666823375427,-3.79077343989529,0.0,1.5536066668060151,1.522361156020879,0.7756275544943402,1.4953165744787915,1.7235531208219117,,,0.6068309995095971,5.918627223155716,inf,,0.8470350460013466
324,4.998450842131802,-0.9663671628121483,0.0,1.4966899397784323,1.4486790949341783,0.8471147302966483,1.4226458444188474,1.8642163931826972,,,0.6153451465759925,6.603543904579146,inf,,0.8245129338509074
325,4.701003908347155,-3.54142294428819,0.0,1.4131902179755107,1.4148298337182217,0.586788394082508,1.2252072391059985,1.244917746701182,,,0.6153451465759925,4.955515994875176,inf,,0.7793493749010548
326,5.003526340575592,-5.003526340575592,0.0,0.934034266883288,0.9046804754633707,0.6721277649439168,1.64646042212672,1.6766383201306467,,,0.6180765742263259,5.000684963243088,inf,,0.7374964954435925
327,3.418403787658882,2.2820397857318047,-5.700443573390687,1.3898263139956673,1.3269625507236493,0.3789874595785735,1.8670043296273013,2.096429038019135,,,0.6153451465759925,3.415634429459925,2.2914869464617906,inf,0.7893934357455297
328,3.380546842704551,-3.380546842704551,0.0,1.4279442969380796,1.3604180442821474,0.6493574195424164,3.0168050450253747,4.62178433624109,,,0.6584896970785714,3.37976210094209,inf,,0.6935556496399873
329,2.645148582717947,1.439200492444607,-3.7019938076118555,0.6490313840886358,0.5940921536037123,0.7199874275442961,2.6896570218217106,3.3595224394807754,1.8736694430672665,,0.6180765742263259,2.6335613491114707,1.4528150434614528,4.3254562831854875,0.6599177349644425
330,4.1447334313995245,0.03050784810736662,-4.175241279506891,0.8806439762213443,0.8718706696949124,0.8634263182252723,1.6352269423934076,1.6835852853385729,1.8777472628736034,,0.5713653840954815,4.138644821118681,1.8798483983772207,inf,0.823732290230108
331,2.896146233400678,2.346736651824871,-5.242882885225549,1.7894229819813783,1.7577381594725132,0.9124700758994387,1.799100519723076,1.771199199014528,3.498479113873324,,0.5915533975974677,2.8917727388117926,2.899021112834038,inf,0.8129014229331802
332,2.5443043887088233,1.8164408222773916,-2.5218714291113837,1.745783323328172,1.6243653664911886,0.9390742422760171,2.0254294790461613,2.088241161972274,1.9504325770262474,,0.5713653840954815,2.5407012881103155,1.7627195682145596,2.0352398907672957,0.8553041659279882
333,2.4784384704038023,1.6711833161680478,-1.4691205568266277,1.1504950752373506,1.0008443510091867,0.8871975634256717,2.2584705107971272,2.271510299528404,1.9977126376221483,,0.581717464821069,2.475616602880908,1.6028546101849028,1.6421183799067718,0.8930337522373591
334,3.2188758248681997,2.481567748522487,-5.700443573390687,1.6067053052062195,1.5778486746974418,0.8733198349620348,1.8666630556852648,2.114665122539049,2.481567748522486,,0.6309483474627791,3.2188758248682006,2.488245551053515,inf,0.8156094892700132
335,2.8686638501386534,1.7331674345839243,-4.601831284722578,1.6307622511529292,1.542160294102074,0.9217819057404383,1.914247168825488,2.0820223187955595,1.8665931628843124,,0.6233814453054027,2.868610266114652,1.7398988211389539,inf,0.8069494203806088
336,2.7766450062962487,1.825186278426329,1.0952622017828268,1.4982947403562015,1.4331697471504248,0.8877841726202595,2.1370151508403787,2.3468702798037566,2.2309673509752366,,0.6447042257417027,2.7763290418555044,1.8321800453981016,1.1019623755533916,0.8314670826764063
337,4.0943445622220995,-4.0943445622220995,0.0,1.4982054686798982,1.4321347084052236,0.7839319680300314,1.7838584361528156,1.9082813173954811,,,0.648888643467878,4.0943445622221,inf,,0.7651480906154078
338,2.577518733389802,1.6455946806281925,-0.5880304418943778,0.44742640380141463,0.39027660745107184,0.4897576262919773,1.7881301869157082,2.2090120007983405,1.845293595506338,1.9401253071564377,0.6333676938231112,2.558912063098496,1.6670609416020412,1.2844380769751242,0.8776341891933883
339,3.3589432019489047,-0.08356008939350268,-0.7136028199657236,1.6013547442110245,1.5707998579998352,0.819321138558888,1.6133501812603064,2.006618846907651,,,0.6357360191111145,3.3578186583602103,2.3067431031427095,0.845163387858571,0.7540843216544071
340,,0.0,0.0,1.7200552270729754,1.6924384216861421,0.8868987128213497,1.3222495871891502,1.7070521887771504,,,0.6008849035917525,inf,,,0.7003227612099341
341,3.145946162678241,-2.7207151649297727,-0.11934678370790952,0.8798460221457663,0.755040047788189,0.7648960089210182,1.6211138099796882,1.3912027603862025,4.716395532019722,1.1193110890856603,0.6380535849069913,3.0735737021174265,4.462790236287084,1.0986122886681098,0.8742757091602529
342,2.7509785104474016,1.7745478985536556,-1.0264645715875047,1.587015163233507,1.5583176831548526,0.7081458761842695,2.088309794100712,1.8646967592239059,1.8298956824868182,1.6344864369781167,0.581717464821069,2.7040581798326726,1.6481939261399778,1.3059198574314983,0.8868401616628434
343,2.3195379368131936,0.16626883657456926,-1.5549318728140782,1.063318325394502,1.0532145290359256,0.8689318141531276,2.612354572048318,3.492997060399883,2.0333528670713927,3.2263602860895935,0.5113665138247345,2.109122129114674,1.8437228708337274,2.7451897480516667,0.8961588127729948
344,1.9887653079054954,3.6472910646415073,-5.636056372547003,1.4712470432130693,1.4587002241195748,0.7295905355404194,2.650301580349605,1.8787341200925325,3.688797498141258,,0.6207552362147116,1.9885045466877338,3.6109179126442243,inf,0.7958706281884831
345,2.1693192067991927,1.1374150690247058,1.6972120301215616,1.362879922734527,1.2827205715730814,0.2659261418430713,1.3852547832024216,1.512876144899293,1.267608280715091,1.5672148780050235,0.6357360191111145,2.1691231472253447,1.1437581533882428,1.7044429816334647,0.8288795933378641
346,2.222304259583488,1.741275713912831,-3.963579973496319,0.937388420031003,0.8817246832082924,0.7487918325152692,2.1263064367327673,2.070437035993224,1.7832417397750187,,0.5978297680564633,2.220083871482302,1.7391472169326248,inf,0.836582877452817
347,2.3604657132074287,1.9536834990633674,-4.314149212270796,1.7633860590262576,1.6823584892566155,0.82691712640549,2.234255223504806,3.137564111473672,2.1032411503513218,,0.5978297680564633,2.3603319152063698,1.9604950995954553,inf,0.6885191908359314
348,1.8442142766242902,1.3376518210241946,1.1261543845017292,0.7145665697457835,0.6970702023164403,0.6724086457505873,2.371873785858622,2.399411306882906,1.5144734389257744,0.9968942900141746,0.6153451465759925,1.8440357026823189,1.3436645047174323,1.1331268074020742,0.7689104819043341
349,2.247400464017295,2.0868155282018814,-4.3342159922191765,1.6662987872514523,1.623805854636581,0.8746941887524897,2.313452443199095,2.3402170975329115,2.6308049715707638,,0.6068309995095971,2.246519869061097,2.0651518591537736,inf,0.7276878846961585
350,1.918984049730094,1.9407913745115117,-3.783304370731466,1.6301314598442092,1.6072944722138216,0.7145066166406726,2.706264320982484,2.888734643311878,2.127916339461711,,0.6447042257417027,1.9186084768981853,1.9451536049127072,6.157508506381619,0.8600115360125968
351,1.994740036058809,1.5419686097128218,2.160384840733774,1.7723071354755489,1.7491831215226845,0.7592402697026048,3.804992035244257,3.216151658092148,1.743032469913011,1.959614004617511,0.6125606311107803,1.9944470119748823,1.5444810431533524,2.171543407678763,0.8761689789285318
352,1.6428266311090034,1.0491567998139273,1.213350586354419,1.580572592232301,1.5466528831521054,0.8107009832620719,2.5097194295844454,2.4800397472525284,1.2146192277673855,1.4533575411644442,0.6357360191111145,1.6428223564536841,1.0556076012715352,1.2202820358537232,0.8350909501250154
353,2.1548649143690013,1.4454264219119803,-0.8347832076041732,1.3950113565862814,1.2164038923894902,0.7992571035860582,2.639502249442798,3.019712479322971,1.6594671533859848,1.8899246390329045,0.6403206450210053,2.131062375082551,1.343422802349437,1.3607972291864068,0.8712154808590095
354,3.828068610335305,-3.34572874103128,-0.1978994158912022,1.1906823277316354,1.1247384071224418,0.7365537695150558,2.228627105765006,2.61481482015033,3.227321183911392,3.32550433640464,0.5370774965580548,3.742749164026667,2.92861733689124,1.9636097261547143,0.8483602555473133
355,2.7007801039864257,1.6425737412016588,-2.4153594528002564,1.7307025715732047,1.6898313710249124,0.7811681304375647,2.2800288692621433,3.0840246945229923,2.244382112016456,1.9735673501089444,0.48319206230712763,2.632942728615405,1.8983576088062313,1.7057806168526144,0.8373888980414822
356,2.219557096302177,1.2853160498479865,0.9629934847994979,1.755022980078784,1.7268489632043165,0.9305183108327109,1.9591880178094128,1.990352711813817,1.4845821406750221,1.0285306256792073,0.5287703885177266,2.212845958239176,1.2922315539103713,0.8903721428564748,0.7850068725709557
357,2.4813261851642934,2.1574388077466584,-4.638764992910952,1.7328035388423082,1.7016100004801793,0.9047177736540419,2.1619010069962123,1.7465766891275996,2.5263817643122786,,0.5883313578629602,2.480914628518463,2.103364198438252,inf,0.817038959879625
358,2.3064525257226416,2.0076966865481545,1.3829442742346085,1.739366039126112,1.6729681262041516,0.9376641231900351,2.4799918269451986,2.702818431678169,2.2959072904630164,,0.6180765742263259,2.3059239942595604,2.0149030205422647,1.3896444480051726,0.8683625709335959
359,2.247042036378939,1.8439636245776465,1.6060878255488191,1.6215667908021338,1.5402415023186475,0.8413667334821121,2.5404293848025667,2.269098753009021,2.212756922130846,1.237396394792406,0.5604843169999094,2.2469401695821523,1.850743293905463,1.6127879993193823,0.8188517059507234
360,2.040220828526554,1.3576376518700872,2.299235006108763,1.6744533844854268,1.6506556007285196,0.9219553242730595,2.356713917605318,3.374853817900538,1.4704581051448573,,0.6403206450210053,2.0402208285265546,1.3643154544011153,2.3059351798793277,0.8304599370483932
361,2.3364866446697268,2.6708097481610147,-5.0072963928307415,1.5432381511401758,1.5390543690520737,0.8591118157188199,2.2465570635887837,2.121778578019739,3.363956928720959,,0.6602640781246099,2.336486644669727,2.6774875506920432,inf,0.8395959609441008
362,2.243595308682832,3.004834093108572,-5.248429401791404,0.9399880207467572,0.9299073739506056,0.8983699356398549,2.4187796591024937,3.6196472426813098,3.450508366194871,,0.6038851895711802,2.243268515837626,2.9279268432710714,inf,0.7981785862071787
363,2.2691602962047637,1.8218453647518218,-4.0910056609565855,1.6018338621297326,1.6025608495964743,0.7772132430146125,2.2268286486496374,2.558054642612315,2.0449988953629874,,0.6584896970785714,2.269150316907808,1.8285331465798071,inf,0.7066888614826873
364,2.0783796859447086,2.0141185740173237,-4.092498259962032,1.7140515674587384,1.6964756485130532,0.9328262501943831,3.305060991245989,4.130273623852552,2.3528098236150776,,0.6566669596287297,2.0782866532647057,2.020735498508506,inf,0.8013911714746204
365,2.047926889492855,2.0430787714637306,1.6060878255488191,1.5442381368523477,1.5114295323332645,0.8978123874330892,2.8892304310441066,3.5060517352228047,2.04314891527119,,0.6566669596287297,2.047856745685396,2.0498267178022194,1.6127879993193823,0.8186588077933492
366,1.8876254446495735,1.8400243064864759,1.7472314962189661,0.8145016695409578,0.77860574082463,0.6498324493775045,2.873247508905365,3.2722025036760423,2.0305688087353655,2.4322967747133584,0.6619902821573977,1.881465382312548,1.8276167791189077,1.9024250371155744,0.7295813977089003
367,2.2655413252335554,3.2123533206194903,-5.477894645853046,1.3511188070116609,1.313571609448599,0.9142149664399576,2.6384477362495526,2.484689131617277,6.650691188743024,,0.6403206450210053,2.265289308250349,3.1633898761609314,inf,0.828986558266226
368,1.593101547910265,1.0454797237852036,1.5104572487579113,0.5594098252234986,0.414570874512968,0.604509328738022,2.4529971660763294,2.947002431822338,1.5314866201405415,2.775621562989263,0.6425374456860184,1.5187342861199078,1.2232174666579836,2.001204176184103,0.9116672553004899
369,2.3286321552283056,2.219516528622422,-0.8442781907187977,1.6875023001148106,1.680757025863642,0.8179341038625144,3.273537263395619,2.8817786063632056,2.3339363976761502,1.5491534925294301,0.648888643467878,2.296161325196243,2.138797372814406,1.40808584397906,0.673504072904518
370,2.1911427176478964,1.737581888500996,0.08600570313343914,1.6080154471622028,1.5579221953900924,0.7698868382403784,2.290681513640581,2.2685648690998117,2.0146720541258594,2.1764448823594686,0.4629450596409901,2.1857901997105564,1.7140846717819422,2.160582547102435,0.8105468094281207
371,1.961484623101057,1.1218439723443727,1.0404927404864646,1.356928000241858,1.3316539615120053,0.7086974540350915,2.3825587444576213,1.656101469859712,1.303410114631268,1.6615605745869853,0.5978297680564633,1.9568699892916552,1.1193495351750222,1.020795266311302,0.7909925639785854
372,2.445685936634719,3.254757636755968,-5.700443573390687,1.5448966933395478,1.5381582519365398,0.8662690197655731,2.068899418962804,2.7314227207744453,3.2547576367559676,,0.6153451465759925,2.445685936634719,3.2614354392869966,inf,0.8300624480541753
373,2.955073005237321,2.745370568153366,-5.700443573390687,1.7116091601439436,1.7143102679458948,0.9443864834446386,1.769770550004932,2.267053668405036,2.7458532431678706,,0.6180765742263259,2.954590330222816,2.7525310456989,inf,0.7855130906930226
374,2.439406042493233,1.9788709368208082,-1.1300216783780366,1.677045464847071,1.6388208285090604,0.704738582847753,1.953202194266664,2.1493202025767175,2.1626625266084303,,0.5978297680564633,2.4391687581141466,1.9762997637823676,1.844601950602435,0.8404664889720692
375,2.5890394132923635,3.1114041600983233,-5.700443573390687,1.7767386897106943,1.7852585508164744,0.8704207289003799,1.7481866684040395,1.7579313727278545,3.1119526073461157,,0.6380535849069913,2.5884909660445707,3.1186304098771447,inf,0.7793027933181971
376,2.8996689490718737,2.107627443758868,-5.0072963928307415,1.7488106756436181,1.7155039125802367,0.9041690059337726,1.6510995173049468,2.0169659295368754,2.1080856862673722,,0.5978297680564633,2.899210706563369,2.1147634887984013,inf,0.7414430561841061
377,2.34351555236639,1.070371863044406,1.4970517753654762,0.6157416383639188,0.4728331830230741,0.5445270748504362,1.5174074796809935,1.483643187217568,1.7192760489042533,1.9459364580457001,0.6566669596287297,2.1916401990423187,1.7192723121018,1.943692853246666,0.8663986238913468
378,2.6181925657456024,1.2383746469877623,-0.3025066796566036,1.6654454592270658,1.5956747173826042,0.8506477043147816,2.198772585434379,2.6481958712762923,1.7336279417719076,2.123028911944208,0.5641709578113449,2.5746854890347866,1.4563713339513957,1.547562508716013,0.8794958437944526
379,4.47119016540218,-4.47119016540218,0.0,1.364916208224779,1.3009479051069206,0.6389594048073053,2.0369369799165855,2.013416536125629,,,0.5451288209179292,4.431216878864653,inf,,0.8957429996512137
380,5.312319716394495,-4.94045733624688,0.0,1.7901148500265507,1.745503196899504,0.8292236456432504,1.7710500075113005,2.242974346938228,,,0.5748741956352443,5.289467751271054,inf,,0.8218971818735926
381,4.34993607228225,-4.106655941292074,-0.2287803440825694,1.7689850023786045,1.7729162941753356,0.847105758234687,1.8777994783460508,2.4934486184839875,4.937342742483242,,0.5287703885177266,4.266319826961911,4.65633847256249,inf,0.8262886128850793
382,3.2298998929721128,1.3490517487559943,-4.578951641728107,1.2773328101387382,1.2634089138166902,0.8577295164030498,1.7843927839539802,2.009845118790719,1.9587993377984805,,0.5978297680564633,3.159821062086886,1.7359985575807886,inf,0.8507253580930646
383,2.5524605422479296,2.242424569239812,-3.4375239116827623,1.4289113030229568,1.4122135841239702,0.8488891017239137,1.8938678205523523,2.526944368056406,2.4845861477524376,4.067441681134017,0.6153451465759925,2.5395740511303084,2.261340711983878,2.3439703091568997,0.8255678730567108
384,2.3552181611492333,2.247352275877348,-4.583452673649046,0.761555240209902,0.741883306230646,0.8917676252594027,2.126826031316598,2.997068149671899,2.2415751905579655,6.7979143462920595,0.6180765742263259,2.3546974361607833,2.0525330528763885,7.00033446027523,0.8449722228628311
385,1.499089855265235,1.4287649958856694,1.3829442742346094,1.5458666008588335,1.439037454072405,0.5293065436618581,2.3010210922040577,3.2442647346890516,1.8034584453270808,1.7013980053531434,0.6566669596287297,1.499089855265235,1.4354427984166995,1.3896444480051726,0.8960527942009036
386,1.7525387560747738,1.3829554598543763,1.4629869819081445,1.6254395655594844,1.574005110723209,0.6434897082341756,2.5660322162860796,2.3326179727500476,1.7506802399796932,1.5007273098909921,0.6153451465759925,1.7525387560747736,1.3896332623854053,1.469687155678709,0.8482300819423291
387,2.101978001255508,1.9597288038442096,-0.4687786392262203,0.7952568712725998,0.7585636227582571,0.9134822549923851,2.4488211123612773,1.625973587604867,2.279767000493362,3.7167596139401513,0.6284777104787076,2.1018234925729664,1.9597312468261434,1.3081392899911546,0.834562043424734
388,2.2127237831501354,1.4234649599321716,1.3840395436145614,0.14228428290499973,0.12000396639900422,0.9448519007370726,2.5400528157716407,2.7472195609294046,1.8766627675579404,1.6080925038011966,0.6309483474627791,2.2123382151462674,1.4283861970806215,1.3884143534339262,0.8699199276469612
389,2.353921305150631,1.4300742728105935,1.1764108506034923,1.396613236373006,1.3245076207483424,0.9699454149089872,2.6950774441780974,2.066107886973179,1.549480949551283,1.443689347805727,0.62595550513784,2.353644496607521,1.4332153658666191,1.1781649203700633,0.9107986776324529
390,2.4900027804990246,2.4657629296958965,-4.955765710194921,1.6642778521750512,1.633400596919548,0.9466587364669146,2.8319367109242877,3.0568597055520734,2.515907341880701,,0.5947193981915972,2.4897182067852226,2.462648179187058,inf,0.8969988444167881
391,1.5901219284076262,1.0204239414702139,0.6049849927194351,1.6642778521750512,1.6536160411658565,0.6577664948140719,2.3727062898992,2.353545638292068,1.2853124175795776,1.0300049782438419,0.6284777104787076,1.59001662145393,1.026214334557121,0.6093338570079462,0.8862293884713011
392,2.0864626768958012,1.1910866952072388,0.6277846451743097,1.6832662924827346,1.6328283234469267,0.9684537393227798,2.4445818960101358,2.8159380027153773,1.4950327292349788,0.7303514938663215,0.5947193981915972,2.0854149022842137,1.1979994437215582,0.6352976475731708,0.8860680713994509
393,2.1450424537223602,1.6105220788392822,0.8429166652756521,1.3139393760985216,1.2749101254770452,0.9335572929070138,2.6208683038395604,2.0834188168915553,1.8608628025060128,1.6454041849824392,0.6207552362147116,2.1449167977128747,1.6172504521708941,0.8496919242551194,0.9077429540636291
394,2.2484178133059043,2.1398167487267212,-4.3882345620326255,1.2554959155199827,1.2383713074513707,0.880339414962547,2.826762467042729,3.9514558804516606,2.345750418823661,,0.6068309995095971,2.2483073675655354,2.1390668734349414,inf,0.8782763598785523
395,2.0514812571574272,1.939521944554314,1.012943104233719,0.7220405058065987,0.7166390470486039,0.7829914696948245,2.4932419416565463,4.470082977096936,2.0396115318319064,1.3923846680136955,0.5783247308855777,2.05139412912468,1.9422005299972778,1.0237296231250947,0.8943104628163032
396,2.0276013852395476,1.1177977811374977,1.1653999590084685,1.3113960544184036,1.2768627428613681,0.9108333259090451,2.4013529517683514,3.97874704290039,1.4941138589499774,2.175497824806302,0.6153451465759925,2.027481802749125,1.1242547192814474,1.172440579656535,0.8935932792635931
397,1.9687135047636055,1.4383067596032817,1.2254764626741124,1.6016295693669114,1.5516711019891352,0.872635289712789,2.272803332217893,2.561450961038819,1.9400283347856864,,0.5883313578629602,1.968655769376945,1.4446141935194796,1.2269518611505854,0.8588854384816033
398,2.0698409753643774,1.5511610563464737,0.9774791661264435,1.5488380198690452,1.5145372735278184,0.9034266860472885,2.3401579077914865,2.3216446819342904,1.6847341352543925,1.249412881610086,0.6207552362147116,2.0697992890809807,1.5578805451608992,0.9841793398970082,0.8860393299090495
399,1.7525387560747738,1.239854616213702,0.6252585725370925,1.5643796888568335,1.538740499159437,0.9101086008344084,2.4661003557681034,2.715925743525671,1.626763857251492,0.6884187458442211,0.6284777104787076,1.7525387560747736,1.246532418744732,0.6319587463076561,0.868848617501029
400,1.8971199848858813,1.8574134394494926,-3.754533424335374,1.6383014864597212,1.5786071379445066,0.8932421396181042,2.3839051657458015,2.8161797313588472,1.8723354973185862,,0.6068309995095971,1.8971199848858813,1.8640912419805211,inf,0.8697347364824265
401,2.0720633292878907,2.1279020590662694,-4.19996538835416,1.7240469671618948,1.668005242824647,0.9384258382861475,2.4418537997998846,2.4181917047685664,2.2421465996879584,,0.585052858160615,2.0720026125828377,2.128443480521809,inf,0.8809101247318871
402,1.663261223683475,1.0653140085065151,0.574528427253147,1.4529873471918902,1.4399706757033706,0.5970582598334016,2.0497521780430437,1.7155261720590333,1.366976227188789,1.0058852464571046,0.6403206450210053,1.6631317466318827,1.07177590864021,0.5813360205098991,0.9125595689692013
403,2.2885360069832332,2.0284996474860764,-4.31703565446931,1.2972782158993283,1.2046669723226615,0.9516708632400155,2.1170238351316124,1.9935143034063074,2.704552400154417,,0.6097226960127671,2.2878059555674577,2.0355325716470283,inf,0.9015810110820192
404,1.9486236565618735,1.379106932339947,1.6762157170436396,1.4038246631248135,1.3340688689065876,0.966965934772997,2.3907839116244536,2.692198351418898,1.9601148673093451,1.7884093823427731,0.6068309995095971,1.9485692368532863,1.3849694963350543,1.683785549058712,0.8917724597534614
405,1.8908210114569435,1.0196097474635522,0.9498995363938629,1.5001168874401898,1.4500520941625645,0.9483271409319753,1.8753052190896724,1.533833140651222,1.0252407372805237,0.989323460435671,0.648888643467878,1.8907698195611549,1.0259459136746119,0.9544852776721242,0.8599647699029416
406,1.4566301814357048,0.9883403130072974,1.0548984147261828,1.3678986470012025,1.3045847207994083,0.7127949270407787,1.671927885258818,1.921030452657827,1.180368684021934,1.9614910581953822,0.6403206450210053,1.4566214556199788,0.994979375461549,1.0616460543892505,0.8819465389811041
407,1.211496160062007,0.6318993631189966,0.5835701126909372,1.2182917545330534,1.2302764852484096,0.5017502498055686,1.7704445688754493,1.7430948034769282,0.7258960979214362,0.9839852189452271,0.6008849035917525,1.2114824124638488,0.6385419648961821,0.5901638787397048,0.6597718254911595
408,1.5274652950508403,1.2447054474625039,1.158859601560469,0.4922323820208352,0.4155606991041469,0.6932625432326996,2.9018134201601864,4.54004434208055,1.455844937488376,1.6621341049312397,0.62595550513784,1.5274483830995143,1.2506666924509828,1.1643671373623576,0.9254467885871799
409,1.660731206821651,0.9042181506398852,0.7342488562454972,1.5941886064476039,1.4715851203514578,0.9235001043578108,2.6719361352677793,3.081094973857507,1.095273387402595,1.5547945311612679,0.675384900321601,1.6607312068216509,0.910895953170915,0.7409490300160612,0.8695503205025951
410,1.9156998706042592,2.1494837114615626,-3.9168934695459443,0.3724868074121675,0.3559095911833865,0.8147794193880503,2.5468948171978933,3.030585172397927,2.8732603835165573,,0.5915533975974677,1.9155857284317235,2.149200031548833,5.0401940963378005,0.8097845245500819
411,1.9378530095267956,1.7976450755292752,1.5372845115194314,1.6473474683542952,1.620900156774745,0.8943789258455667,2.560959800025333,2.7711924994908337,1.8862860923272329,1.8733282706007106,0.6528756675646988,1.937479123577461,1.7853018822121565,1.4232922592017423,0.8917933953086219
412,1.611356620333722,1.9490013393629333,0.952676697782862,1.7344701482393141,1.7138070666137815,0.5199269784718716,2.579322152042312,3.0109725804419964,2.270645101378043,,0.6528756675646988,1.6105496412867908,1.938761125839582,2.154471707529828,0.7427012972353252
413,1.983416710133349,2.8394540816849827,-4.822870791818332,1.3105732246965938,1.282638039082186,0.8865821856214176,2.4810435118420395,2.4239701718316513,3.0240535250163454,,0.6284777104787076,1.9832428678143958,2.8258130528834906,inf,0.8867081090598349
414,2.2114563559052884,2.2739550934772694,-4.485411449382558,0.7311260960225775,0.6903824485942929,0.7976475798063266,2.275684197726602,3.0012806257805806,2.7943020469502025,,0.5451288209179292,2.211323501715721,2.270646250486213,inf,0.890468277177337
415,1.8375454418318395,1.3171713809018715,1.1850435851133927,0.6979087501035703,0.6792228591631156,0.7829320949139321,2.912971821740562,2.944421114851989,1.6661362456953033,1.9610071554354263,0.6403206450210053,1.8374544284901846,1.3223666335967013,1.1898459498136598,0.9204688602188609
416,1.90118839212825,1.5066570827144534,-1.5417392563448575,1.137413120595766,1.1130598928737434,0.7962019027641245,1.9250322778829114,2.1340479205538907,1.632939691930848,6.762176106260455,0.6233814453054027,1.900458886151396,1.500405217720639,2.430751742294051,0.8720254917713799
417,1.9999892534048465,1.3756855741649627,0.9507429935488192,1.359123332239251,1.329571048402871,0.777175280499339,2.0702644872307427,1.8341230199093803,1.5768286920326817,0.8220310857316463,0.6207552362147116,1.9968175529958798,1.3774133804364612,0.9575251519016743,0.8837101692329753
418,1.7297991891770448,1.2777571688512597,0.9289803417876081,1.7325108909621978,1.7037507438274035,0.6899006348456879,2.8443909599322215,2.984354033292089,1.3923491604797111,1.1933052088147718,0.6309483474627791,1.7293482091066579,1.2834171970035735,0.9348847769610658,0.9397319103313824
419,1.8019049066034825,0.9125294348463009,0.8166260399013288,1.4178569461783077,1.3635052946730697,0.9486146981631614,2.175580433261898,2.409127272273145,0.9784014653104441,0.870609088110917,0.6309483474627791,1.801473161415694,0.9188183261088698,0.8209345387412945,0.834419145981648
420,1.8082934739762497,1.3372313497299562,1.0041992952754497,1.2091394931820592,1.177564914190048,0.9118138580128681,2.0992044998744634,2.192760847693362,1.4889669878623855,1.0907036555359773,0.6403206450210053,1.8078211027754054,1.3413213840781202,0.9964953697561257,0.8838306383849845
421,2.1154617367795225,1.270921270463421,1.2101674384302452,0.7328411607633707,0.7125431221652906,0.8430291736833591,3.4107651985295497,3.543142968847062,1.3407644410903246,1.1424407620579182,0.581717464821069,2.115275994689052,1.2772920602750488,1.2170564813733706,0.9038398355461872
422,1.7559962024769304,1.4859682096538958,0.7244334956911662,1.4050640332820479,1.318871871305596,0.828534640044596,3.842206471828953,10.931075522042992,1.7168995695439344,0.8896041683410848,0.6425374456860184,1.7559419763626614,1.490247949752254,0.7212283425347985,0.9361759479427993
423,1.6450369260148774,1.6168650640778663,1.444068280028259,0.8678660764929195,0.8073312877098118,0.7199498788797276,3.4768987126288673,18.519601259751482,1.8057873034716652,,0.5883313578629602,1.6449499556576896,1.6211339521972916,1.4382929282165582,0.8115972289271828
424,1.932024498931021,1.7917756386622898,0.836898193442777,0.15068288655934228,0.10992030140131433,0.6490261739936737,3.2696421765985035,3.8648483715351505,2.144762416073586,0.9325954065802428,0.6233814453054027,1.9316347513592547,1.7948311964167885,0.840552472247672,0.9225886314382555
425,2.0566898924793002,2.2650179724074255,0.037142185191234134,0.8742247715632909,0.8483373166458108,0.7513903501968833,3.946939010996405,10.237540261292436,2.4088193958848034,,0.6153451465759925,2.05572501506252,2.1980061326710394,1.724488172624402,0.9253409351187625
426,1.6901025221961572,1.6708671360415928,0.5192530445239774,1.4481077748959301,1.428584910393272,0.5383410703520839,3.871806776143501,3.4153303913069837,1.973391265335603,3.198752630765496,0.648888643467878,1.6894435837564539,1.6556885739727527,1.789555785037028,0.858525890675909
427,1.9747830087952531,1.8923296461631154,1.4476255639963367,1.2248980625184365,1.1982578839052926,0.7944526685684238,4.640042935362105,8.779286053263256,2.0402552687292985,3.175078055668364,0.6097226960127671,1.9741610292221803,1.8970399816857106,1.9087428247138742,0.9143885553757197
428,2.046828631842984,1.0835611106361829,0.9511476585453615,0.8669425118072698,0.857570917222,0.8073291238810858,3.499927398449823,2.1271346337211967,1.1685205115714823,0.8723973184375385,0.6740851607140061,2.046737744062283,1.0900461920874456,0.9575606260723719,0.7588933000495366
429,2.1745231963527147,1.0329826863462714,0.682826893924033,1.419583959718991,1.3551015342702548,0.8348297574079615,4.489718302507943,27.74479896332059,1.328733905687737,1.5024065714107122,0.6602640781246099,2.17448509036673,1.0394031929904317,0.6887345975590693,0.8175513409069556
430,2.237943999660919,2.7693523931698225,-5.0072963928307415,0.9470806272077871,0.9053562092016731,0.8338207376692619,4.582148837252318,21.83201841691776,3.462501162775908,,0.6727386042041725,2.2379424106147785,2.776031784746992,inf,0.687915408486678
431,1.7570074794315007,1.052531132929482,0.8081133324645857,0.6742249676570713,0.6356610790406718,0.8885169004017042,4.544306563141732,15.062693750340422,1.1102585855920795,0.8839531081156208,0.6713451011121618,1.756971643742391,1.0592207159795222,0.8148375614052485,0.8540165692136858
432,1.8755106862733077,1.1861234102517977,0.8449235553615999,0.06236667603779547,0.03763316902852488,0.8666865036876585,4.59285735574767,17.649142676625623,1.3136292867451598,1.4115880910246241,0.6309483474627791,1.8755034626610156,1.1927995037278107,0.8515282214871313,0.897572473809105
433,2.04297491526098,1.4524918020494333,1.5084795886350468,0.8880895561929198,0.8840576084531487,0.9024864296233918,4.273685834517819,7.82849784089592,1.5184876475703994,1.4425847408687646,0.663668482632973,2.0428739175062947,1.4588807191471755,1.5155696455935819,0.8222540043460743
434,1.8316965423515121,1.3667787112668535,1.1856924540031732,1.5299466890669213,1.516919937737651,0.6378860507921764,4.104925614151677,2.214403433569946,1.6299009166546836,1.4225567463686928,0.6097226960127671,1.831470969464283,1.3719690472740786,1.1866187896327844,0.8783259341127658
435,2.2549992267114023,1.6823926847497073,1.6891311673660696,1.4404093633358106,1.4317908136908253,0.7258293485984222,4.42413063648105,13.331903255699945,1.7925229681755714,3.029534043092757,0.62595550513784,2.25464184820617,1.6764507199423266,1.6773797267033794,0.8810848909325512
436,2.158679141864394,1.855095262292783,1.4135034013248928,1.560901480816461,1.570979600770824,0.7818618923895031,4.7132572912471815,10.787715810093296,2.1300749530501726,1.4018447962841465,0.6125606311107803,2.158484749020289,1.812462935057887,1.410751291408912,0.7279388349337206
437,2.4263750411431135,2.278517608851105,-4.7048926499942185,1.6842075380608263,1.6639533790294723,0.7426862650648581,4.206704152008839,39.880127548088986,2.558145855728532,,0.6125606311107803,2.426009008540515,2.271032831319459,inf,0.8712611039708609
438,2.1784320179353993,2.297107846501891,-4.47553986443729,1.3389348882018044,1.2882858348531478,0.808538833137002,4.540706699359714,40.73652719529841,2.3228058403679346,,0.6584896970785714,2.176344099756864,2.220006862205171,inf,0.7990649541612969
439,1.9008987815555145,1.1308553843982663,0.7460874326372533,1.4600831377764572,1.4097356726845407,0.7442395094764003,4.371567355813972,4.039230957806107,1.2149441362601827,1.1122949861647462,0.6207552362147116,1.900681876452242,1.1370304693426319,0.751601505640833,0.5083197880229505
440,1.6386949255037397,1.1181619773434084,1.0931471557308128,0.8398623314819437,0.8081769923409321,0.8086344929508694,3.150257690156279,2.7499516794308203,1.3734598865365708,1.5548031130753037,0.6528756675646988,1.6382947388960825,1.122277581465238,1.088997670420276,0.9100974673170296
441,1.7526682099804878,1.0577859360413913,1.0948798712554706,0.04466961139416602,0.020064024829282566,0.7965261579679009,4.3279242399843865,4.095683347109227,1.1751878817289465,1.1598007229203988,0.6180765742263259,1.7526669694219588,1.0644543267346132,1.1015906974223706,0.6569642838274989
442,1.4552872326068422,0.9493194747795151,0.8945915063206762,1.4496257911775534,1.3863400233330732,0.7957119620169576,3.437586145372687,2.3590276676679034,1.1541138874255283,1.7013980053531434,0.6468212168108125,1.455287232606842,0.9559972773105445,0.9012916800912405,0.7768797113840753
443,1.9637578805045677,1.4341005998920737,0.5074755368807082,1.65287238118651,1.6257693438476803,0.8620080423688843,3.9118231058721813,8.93349129493253,1.4344404025428843,0.5074755368807087,0.6357360191111145,1.9634180778537564,1.4411182050739135,0.5141757106512727,0.7838959732585795
