,bvp+eda_XAp0,bvp+eda_XAp1,bvp+eda_XAp2,bvp+eda_XCond1,bvp+eda_XCond2,bvp+eda_XDist,bvp+eda_XFuzz1,bvp+eda_XFuzz2,bvp+eda_XK2_1,bvp+eda_XK2_2,bvp+eda_XPermEn,bvp+eda_XSamp0,bvp+eda_XSamp1,bvp+eda_XSamp2,bvp+eda_XSpec
0,1.4340103429297053,1.1308087267846103,2.4472000167072916,1.7451883928774228,1.7023937205009974,0.5142565193151009,2.843104610493029,4.2368466896071,1.2659152776834905,3.6135745322845416,0.6284777104787076,1.4332927980583137,1.1321011026423733,2.445241393395569,0.7548881685307929
1,0.9894097997066192,0.7368168235868883,0.7341500161729182,1.4889770660697397,1.4744616983292345,0.6022207697027578,3.120589700199758,3.450081610189222,0.8783054128444912,0.9106733952424232,0.648888643467878,0.9858194611929876,0.7189064090701254,0.6137627945661457,0.6080002116258418
2,1.6189282009305395,1.1412891829758094,0.7485557920997037,1.347241632463108,1.3157108143173193,0.8081262066282104,4.850442713715094,19.9512535505909,1.2753216926575024,0.9960511226309334,0.6468212168108125,1.6184225985611345,1.1323611451279767,0.7215516658063839,0.8003124199757011
3,1.5162068374728872,1.604664910310319,0.2143822096364496,1.512606461228541,1.444401370841177,0.6692351806686822,2.7263814306562586,1.9487499437164915,1.9946932117926592,2.2698342420235393,0.676637947632344,1.494869916025361,1.4061584220593326,1.1919837789036287,0.8140535939521082
4,1.2587372815079523,1.4555301454716132,0.34515327027740517,1.731995354451035,1.7286396914449063,0.7074921420648683,2.9341241056872946,2.814738136708035,1.6949627670078167,3.3220971780830255,0.6668815377411301,1.2531630485167076,1.4021365871999734,2.0200546071285146,0.6779780763897876
5,1.3984827641050475,1.352468357733118,1.467480188246577,1.644252110394252,1.5974196077001137,0.7515903811473064,3.1797566689318484,1.4414087622855951,1.6243720859924102,2.2307764351180728,0.6684167106117298,1.390570155982679,1.3081899982124383,1.5997426594301123,0.6598955249060278
6,1.7603332297839203,2.1147355135983137,-3.8750687433822337,1.5979843798119044,1.591102875639795,0.7163529437472146,2.9888455859204885,1.5986969052415256,2.4440574611423536,,0.6380535849069913,1.754913368107392,2.090489949979358,inf,0.8312244497030178
7,1.8307514879784637,2.283115491578523,-1.6859110306100518,1.722510002000252,1.6939577860444908,0.5254966659337462,2.648863945374279,1.621763721836062,2.3028722261998578,2.553555913259223,0.6380535849069913,1.7928267051884776,2.048427229351461,2.7221239283138723,0.7815628881578661
8,3.509338927765437,-0.32547913928301275,-3.1838597884824242,1.74795734659334,1.7416044678935332,0.46343094970627224,2.1267568035578024,1.8083067706628162,2.9381291619201524,,0.6068309995095971,3.499913354601313,2.789657782294334,inf,0.7199397735027824
9,2.978464634367659,1.3100496565437187,-4.097336657136029,1.7770620590913144,1.7480469485119372,0.739469570510182,3.7116961209190404,4.677307054586004,3.0400918271492983,5.530634093247973,0.6380535849069913,2.823461052613538,2.7640209663465023,3.517497837358316,0.7826581080790374
10,2.5544451645004527,2.7328634916031342,-2.5343507297385597,1.6456160136633253,1.5564452475744095,0.8233944990488894,4.453181730044076,5.149137576062404,2.75207944056029,1.3261055023983404,0.6668815377411301,2.5285102872701324,2.656478393970901,1.252762968495368,0.7574175291283219
11,3.178220321899528,-1.3881618593551337,-1.7900584625443943,1.6957937983832239,1.596069738656786,0.8314105390517577,3.424511214506062,4.7528487901116385,3.451477355560785,,0.6284777104787076,3.161918048438542,3.1157481859507867,inf,0.5011461336394233
12,2.388669379431047,-0.15340857718912604,0.021813850571406057,1.4324557964812932,1.412826863361583,0.8052831386342518,4.5959709391118615,6.88239770424977,2.3939014090977,1.256398804055466,0.6380535849069913,2.3502592135052813,2.2593653228321906,1.2182105869887083,0.7359727708411598
13,2.7333344150087284,-2.5998792142938965,-0.13345520071483213,1.5895211512721863,1.5647670211687006,0.5912287810484617,2.7313305926671085,3.3648585791866275,8.671272767763321,,0.6068309995095971,2.7296143790180505,6.732040421239038,inf,0.6691465221639568
14,2.0473536472749085,1.85534176494417,-3.9026954122190785,1.566234999644455,1.559562115209135,0.7097517732773573,3.1905949331953765,2.990608384958941,2.44937543464395,,0.6403206450210053,2.0387688916442466,2.32127883631086,inf,0.7285516942421068
15,2.374484147679265,2.802648720464772,-2.1182907277384513,1.4645884084458412,1.426150399235073,0.7535170082470288,3.9226559679977746,2.937652776067945,3.0141039503274043,,0.6207552362147116,2.370626036755615,2.7398295926228515,1.2219355047001084,0.8076860966318714
16,2.28774637360561,2.5905420279081115,-4.878288401513721,1.6024612977020323,1.5861409142037057,0.7697199983896948,3.971966579273112,3.7840282933586944,2.8915991348722487,,0.6153451465759925,2.2867117438377558,2.5305521572779606,inf,0.7661725526820519
17,2.0680534386291356,2.517790893477124,-4.452019988463515,1.558448472535338,1.5342352949564169,0.6632976846121283,3.928580440430158,5.389321365484893,2.8672294517291914,5.073150189347165,0.6547956803312163,2.0675129708145623,2.495236499289577,4.8989053301529495,0.8223478048916372
18,2.259350925254422,2.1232022258013945,-2.288170453522427,1.6249268248756277,1.5663374671204553,0.8533517681050983,4.13283695421358,16.650952092254965,3.358493756874364,1.7340737407246234,0.6566669596287297,2.2585682075772713,2.6859672848144607,1.3331307419975966,0.7973249812808325
19,2.114423286974711,2.202870266088203,-4.317293553062914,1.7211312323793873,1.7201247563214785,0.7553835194832024,4.854008806887818,11.140520338571259,2.3345395086750824,,0.6566669596287297,2.1136189934814222,2.175119706768902,inf,0.847050870425947
20,2.020479901942505,2.2584989362184067,-3.781916990345004,1.5196812255124013,1.502216069815095,0.8024978176333757,4.59180743035773,9.006553823990934,2.521691633033795,,0.6509067234006624,2.0195806100933757,2.21326002938265,3.9166277718148943,0.7948827259356566
21,2.062783675809989,2.154586224485354,-4.217369900295343,1.7705330358779003,1.764901682868895,0.8344742098883715,4.632531829602052,48.387066176846815,2.2973049147296543,,0.6425374456860184,2.0612960601119754,2.142863368117332,inf,0.7244627961091034
22,1.9419611745363223,1.720358345336964,-0.6546493189721261,1.6837101024250383,1.6551310611642898,0.8564098825648493,4.526318480239419,41.56774252617475,1.8088223515620152,3.0692333991629495,0.6584896970785714,1.9414202437824613,1.718547866837055,2.5435901516160904,0.5979541649197809
23,1.8131375611255969,1.733335366214345,-0.9432842786508053,1.6273666017758088,1.597494256034591,0.8316893342338588,3.838221408977099,4.538155597669952,2.1869495265510404,3.8992437855812,0.6233814453054027,1.8114860994120883,1.7010153518087414,1.618420008749928,0.6557394571323233
24,1.8075597836130306,1.8589947633075237,1.965411016579218,1.4934393868855458,1.4765318932249663,0.8999974981694208,4.395614433957011,20.42212365887572,2.0006775037649427,1.8377846849263004,0.663668482632973,1.8063317984113123,1.8649260543528046,1.9494097151815777,0.7661404955602698
25,2.1170474403669677,2.375826964423544,-3.9258097098391422,1.5855225677450755,1.5713653299791457,0.749786552902144,4.364385119255846,3.7591956381957887,2.5125665875299417,,0.6547956803312163,2.102732914243502,2.2538425880008557,3.313319828784677,0.730759005142282
26,2.4062120838065084,1.4707214700252886,0.8815733153001211,1.765765049722288,1.7481095670890896,0.7824763357450117,4.174427365763936,28.740818007717614,2.44626568487196,1.5914061726539863,0.6468212168108125,2.400688057883602,2.14516555094807,1.3048832787811926,0.8449155073188322
27,2.553698199449355,-0.4637038622327365,-2.0708765738390835,1.491799727614459,1.4597672516180036,0.7385680587334839,3.7527801122949622,9.439008450631121,2.9226975153950003,,0.6333676938231112,2.407451903383883,2.5139522569844304,6.486160788944089,0.6494902768447508
28,3.1999802485696986,-3.1999802485696986,0.0,1.5764469901405194,1.5582554265260304,0.7711959419515148,3.7443983726089693,3.388845671986814,,,0.6566669596287297,3.194996551078258,inf,,0.7238192985424821
29,2.1518811048311486,1.8014238796373938,-1.8156911448101902,1.4063871256899858,1.3944170051701592,0.6866818932265045,4.020908015099895,10.095511142104932,2.1607731286541405,2.264694865955298,0.648888643467878,2.1245318919427785,1.9879766409069932,2.001751591738138,0.7244829118433455
30,1.977781092899154,2.0035313547463907,-2.316601603789301,1.6867481403809268,1.6885803223634364,0.7437751171724628,5.060911297859024,9.582568152152191,2.1331479089142293,,0.6790044388599258,1.9760830286926827,2.003743080086826,2.1445351117949047,0.7200082150741683
31,1.676070840307798,0.9333302797245724,0.7851072734789883,1.6553952093817104,1.6615342498843502,0.8185997083124247,3.7698921611659704,5.559203939093004,1.0516637123946984,0.9612081242337012,0.6284777104787076,1.6760526615160845,0.9400262610473155,0.7918074472495522,0.7717211274654481
32,1.6169655185024738,1.0849606890354608,0.8639486310091558,1.5003288987611758,1.472187524644985,0.7902574489422163,3.816210413865861,25.37973778774275,1.272623352991843,0.8618736432993199,0.6619902821573977,1.6166863411589283,1.0908639849016306,0.8699865407180036,0.48801427560098487
33,1.7692249069461752,1.052404369283692,0.5481257959008645,1.6527871327856354,1.6604928572855953,0.7758282899531499,4.328442819606188,33.98217575916232,1.4086462692526427,1.4206846022174557,0.6125606311107803,1.7691503263671964,1.0586222897724482,0.5536221382263309,0.8618077683829674
34,1.5577773884460142,0.9887666034096072,0.8400561929392096,1.4894209646400376,1.4647259699599515,0.7595122174299899,3.9074387393077537,4.615289786455827,1.123116697497608,1.2839130188559016,0.62595550513784,1.5576364138708372,0.9948355554129291,0.8381152332663735,0.6927627568935775
35,1.403890695945606,0.9303710285838773,1.28261964136176,1.6273476597122154,1.546237091542968,0.6324238511648834,4.085471314383637,16.59174596071236,1.2270890300354367,1.972051575362004,0.6333676938231112,1.4038249048871827,0.9369236825350792,1.2819270662350422,0.5605419651893239
36,1.8620200343551285,1.511931210304642,1.1521267470235523,1.735038249473553,1.735073561512951,0.7175461466682961,3.6046449483306793,5.468897605268285,1.6566763763840195,2.6445061283551174,0.6547956803312163,1.8618958514170854,1.517866249525005,1.1515382364795457,0.7117829292481431
37,1.6047913487815064,1.0757251258604437,1.2756584923664445,1.7029393192343636,1.6893679913023343,0.6563830592152402,4.080518842482427,8.80035828039077,1.3080546662961938,1.4177779743194854,0.6566669596287297,1.6044503709230613,1.0797205563892056,1.272152337012459,0.7238218070338297
38,1.987386201630317,1.5765496367253247,1.4400104675898184,1.660499934745483,1.6605526762238259,0.8851077484629272,3.683959401380472,3.437681678701575,1.7394897253746866,1.552489558462736,0.6309483474627791,1.9863155636903522,1.582511826022768,1.448496892533932,0.9435537403908684
39,1.3981568889367673,0.9408209329036932,0.669460697812875,1.630386327296576,1.5771837206636732,0.5478800842625321,3.80127278217772,4.767412219237399,1.0086626102500045,0.8068713130333859,0.663668482632973,1.3980521021329702,0.9468607481028533,0.6753398285148613,0.6438119470054247
40,1.2593378254021952,0.8267985597953629,0.6599773664812485,1.6444288894248391,1.6091407263879929,0.754329967844795,4.473717811260896,6.649870889834218,0.9211685172425087,1.067270210960617,0.6584896970785714,1.25932892170968,0.833445554270075,0.6665690195100057,0.6295261676546918
41,1.25228121474507,0.630293617555916,0.4643531892832624,1.6648678386768037,1.6272694581806175,0.7748391471582935,4.089269080698478,6.410748727334635,0.8415144601245823,0.6074103354180002,0.6584896970785714,1.2522686462482997,0.6368096855037848,0.4707828290616913,0.48172237282394176
42,1.5448993912965288,1.5164868524788984,1.942560062170033,1.6355934556075367,1.5826331574162653,0.7088918658655432,4.065019543944399,17.349738789206913,1.8529590891001118,1.6060878255488185,0.6447042257417027,1.5448993912965292,1.5231646550099278,1.9492602359405953,0.7635198845218186
43,1.514027480114012,1.0506371976524156,0.829204050108661,0.5386281111228168,0.5130553343006352,0.6425937198967937,4.777638478122993,15.407511422279496,1.296230909662011,1.445062335773332,0.6309483474627791,1.5140267276299422,1.0573096501564458,0.8358790762013304,0.7372253790950062
44,1.03746475588442,0.5042019170841021,0.3053528997504613,0.5910699172308086,0.50540767566682,0.7063212817795816,3.020233828616001,2.0900163207044478,0.6864066683433846,0.45241419150490736,0.6380535849069913,1.0374544756900161,0.5108883373842734,0.31205244854390374,0.7413437011505218
45,1.1384540460232162,0.4743461644260969,0.3232948004602907,0.9543252040034972,0.8508300554806346,0.7147509443772584,3.1068043234060645,1.9435071285370102,0.5871625287030448,0.43897860261925437,0.6727386042041725,1.1383931586799543,0.48087064790543727,0.3300855832174343,0.6791077976762099
46,1.0078753460551424,0.36850962346221117,0.1656791180997368,0.5049044088452312,0.45058385259266365,0.7647158273325333,2.6685680400165923,1.6578912743629433,0.48784311221001764,0.3733348235849293,0.6233814453054027,1.0078579253996456,0.37510864562757035,0.17219361597837418,0.8884101476010945
47,1.13100588306612,0.686628978098976,0.2881245432399373,1.6518274179861467,1.6178347904723183,0.5472773637548382,2.4539197308672516,2.824301075460485,0.8980255918362542,0.5122127452627084,0.6233814453054027,1.1309977488122647,0.6931471805599453,0.2949156269946549,0.7039036462490896
48,2.1961298069471735,3.5043137664435133,-5.700443573390687,1.5352807413484575,1.5253740645036071,0.5868796417278302,3.6189167900847776,35.43835094750879,,,0.6668815377411301,2.1960252967607374,3.5110960791609784,inf,0.7586273013692795
49,2.2072749131897207,3.493168660200966,-5.700443573390687,1.506074636817811,1.4469213002483938,0.655832785370656,4.593510096664976,44.900923067119685,,,0.6584896970785714,2.2072749131897207,3.4998464627319947,inf,0.9458077291887411
50,2.1484344131667874,2.858861979663954,0.6897970936746631,1.2553787854190284,1.230922849783149,0.6499468413585255,5.3026720431718655,18.034500616997448,2.8588619796639536,0.6897970936746634,0.6380535849069913,2.1484344131667874,2.865539782194983,0.6964972674452273,0.8104353006661467
51,2.445947408055741,2.1558838766668367,-4.601831284722578,1.3333366009088485,1.2948605798822295,0.6904013341836545,3.5923707682646895,35.79349300340705,3.254501193620827,,0.6602640781246099,2.4459423797698596,2.1625667074837467,inf,0.8470177187825668
52,2.17742195004004,0.6898082792944304,0.8839531081156209,1.5873316979728616,1.578986749847051,0.5871981124344618,4.200430590283424,8.440056508934168,1.0381149735626465,1.3829442742346088,0.6333676938231112,2.17742195004004,0.6964860818254599,0.8906532818861848,0.7017013622241638
53,1.9661128563728327,0.5988365010887036,0.8295590360498224,1.6766133761680986,1.59544100731611,0.642754340713185,3.9632908804735596,5.349494648841288,0.9617419947780725,0.8233284862991859,0.6380535849069913,1.9661128563728327,0.6055143036197331,0.8362592098203859,0.7114447741222024
54,1.870481400369231,0.4554098236127615,0.3266798247999896,1.4766429404421921,1.3737776814980864,0.7044303328486933,3.759480431448637,2.4679816529600664,0.7372882846050293,0.6914679378394809,0.6547956803312163,1.8704419912625236,0.46202973548172144,0.3334772983393295,0.9014977885965305
55,2.3025850929940455,1.3184169387168057,1.382944274234609,1.0041690141094348,0.9381908474846001,0.8057504152366044,4.943735811881151,15.235069200830567,1.318416938716805,1.3829442742346088,0.6509067234006624,2.3025850929940455,1.325094741247834,1.3896444480051726,0.9162855160517921
56,2.2405864677216405,1.3804155639892106,1.382944274234609,1.3491823670544854,1.3370281677726612,0.6978124011776663,5.152642944935305,14.266234099507713,1.4183695448860945,2.038174239544717,0.6652988471865258,2.2405497020745933,1.3871301321672869,1.3896444480051726,0.7671045275089707
57,1.8971199848858813,1.6060990111685864,2.193874490450937,1.3549690862837103,1.3522902186236498,0.8558596064982195,4.689768764359943,52.252664149787726,1.8820821631708806,,0.6652988471865258,1.8971199848858813,1.612776813699615,2.2005746642215014,0.5229215668166616
58,2.1568381025924053,0.8042573246628004,0.7900879101948854,1.7046876347158586,1.6557304656890506,0.8382325133595708,3.5780771151184436,7.520662860165341,1.0193570722494594,1.1348794575187249,0.6468212168108125,2.1565625956173298,0.8106902066147925,0.7973085115195621,0.7997113487236599
59,2.0999882953008866,1.694758349858989,-3.7947466451598757,1.5213287442942962,1.4976398867572378,0.6009718864632148,3.9146817750219514,33.728810643797274,2.098309555388914,,0.648888643467878,2.0999163948692217,1.6992740800623973,inf,0.7568861487286719
60,1.632569971093423,0.8464414401571878,0.6899308753478697,1.5112308598355009,1.4281383519881656,0.5615046882754416,3.222743792676039,5.739739474951003,1.072175336156618,0.9196746771702171,0.6125606311107803,1.6325359636800774,0.8523706861079229,0.6966198700389179,0.6749595252599799
61,1.875141078167106,0.9349307373274154,0.807580129331047,1.2974707123332208,1.2718410604997687,0.546987928527793,3.72395581138706,1.8359010511600866,1.1862451656083217,1.026269330295876,0.6425374456860184,1.875141078167106,0.941608539858445,0.8142803031016107,0.5250502667889909
62,2.4079456086518722,1.0952733874025955,1.5007273098909923,1.6657210742892412,1.6333581913916084,0.7182968358706877,3.939989211106595,5.1458908036565365,1.266287873281858,,0.6207552362147116,2.4079456086518722,1.1019511899336245,1.507427483661556,0.928541967390843
63,2.182795483406982,0.8919748088510575,0.7514192484637037,1.5228669782754625,1.4774575736395412,0.5747569398373887,3.7401394204130707,4.4820689525596205,1.0140320830215654,0.7974152416407843,0.6468212168108125,2.182730131185767,0.8983179878871062,0.755558247070519,0.8900510357520927
64,1.9665144822324836,0.9007157471019867,0.7504217154910982,1.4832046970545218,1.4280018677235082,0.6153404410183402,4.0077737780905505,6.253945189567869,1.095593414813483,1.2486959500463395,0.6528756675646988,1.9665097605256914,0.907398271339808,0.7571218892616621,0.6456732091609546
65,1.5494139202940622,0.7498322714344692,0.9129406449888728,1.6500232667347108,1.6466730379334424,0.5729270354510965,3.3790991604710894,3.556742108463942,0.9357977083381926,1.6024692462468342,0.6652988471865258,1.5493886194862772,0.7565353747732831,0.919640818759437,0.5571716790095458
66,2.659260036932778,3.041183536457909,-5.700443573390687,1.639528861564655,1.612512516649425,0.5590433683551714,4.123280594254522,23.33923656993347,3.0411835364579085,,0.6403206450210053,2.659260036932778,3.0478613389889375,inf,0.9481026352482839
67,1.6965413123147393,1.3594833567045788,1.2162661039816678,1.2813474057696435,1.2648129174068088,0.46760833287296316,3.8690910203342206,7.562205010605865,1.7033572881367636,1.3299107672026798,0.6547956803312163,1.6965098973209578,1.365124790012428,1.2166327130496437,0.5404703803445101
68,2.2050856958920773,1.7035984082705538,1.7884093823427736,1.4867654106005461,1.4675938883342508,0.6917633429127226,3.4502928898192247,3.454828407364729,1.8859505045051783,,0.6727386042041725,2.205055156451408,1.7103067502422529,1.795109556113337,0.9172992230275832
69,2.5682882587270512,1.3403958454355798,1.095262201782829,1.1677237626919557,1.1499597959260364,0.6904210603074588,3.451843822073412,3.0058095597025627,1.729276825528209,1.399528402250144,0.6713451011121618,2.5682882587270512,1.3470736479666092,1.1019623755533916,0.895301993844123
70,2.2401770334042252,2.0893665372586403,1.367549915842539,1.1871091321883083,1.1836617761897974,0.6768370246510043,3.5307107325962086,2.9504544649325806,2.361699206375081,1.0952622017828277,0.6447042257417027,2.240132078347496,2.0941631535051957,1.376176230954306,0.8295061017886414
71,2.100686097650423,2.2270754112448476,-4.327761508895271,1.0950019668059177,1.0803585392500803,0.7415306015790843,4.066991602789447,30.487500562042623,,,0.6309483474627791,2.1005516900759584,3.882063241755041,inf,0.8215413332624929
72,2.120263536200092,2.481567748522486,1.0952622017828268,1.7448099601884248,1.717785134460484,0.9509897454435637,4.069152036393676,3.702373463034961,2.4815677485224854,1.0952622017828277,0.62595550513784,2.120263536200091,2.488245551053515,1.1019623755533916,0.8693613322012783
73,2.4632045218431844,2.8524148643469975,-5.315619386190182,1.7569609248584295,1.7411290104400479,0.9284222342667784,3.5546057399906856,29.83754662935523,3.237428870018785,,0.6153451465759925,2.463014703371902,2.802512840353144,inf,0.8898686818679605
74,2.3364866446697268,2.265344640052851,1.0952622017828268,1.6731650669208566,1.6812812415191853,0.5674331817130257,3.8070845259389965,14.071864779762443,2.6708097481610142,,0.6403206450210053,2.336486644669727,2.272022442583879,1.1019623755533916,0.9228723208327109
75,2.3025850929940455,-2.3025850929940455,0.0,1.533633676263296,1.4797180462719288,0.8089184360197224,4.881183227398944,33.55312751352964,,,0.6566669596287297,2.3025850929940455,inf,,0.9024669192526936
76,2.5682882587270512,2.0335430259955265,-4.601831284722578,1.1682126185327244,1.1550317046328245,0.7177079988782346,3.441268807708156,6.515287581411959,2.4390081341036898,,0.6403206450210053,2.5682882587270512,2.0402208285265546,inf,0.9098761475746913
77,2.092331197070333,3.6081123763203538,-5.700443573390687,0.7610236106917578,0.7474430188826712,0.6666018202373595,4.241479998234402,34.205584547553265,3.6081194058798367,,0.6528756675646988,2.0923241675108497,3.614797208410866,inf,0.9166190896371175
78,0.7837530637658823,0.1804920612303088,0.04150047928006917,1.1730881657654302,1.0033722312612015,0.7405766150841989,1.3670927097258376,0.48864542700179947,0.1911988824399296,0.049187442355239364,0.5883313578629602,0.7837528882115365,0.18717003931568363,0.04820065305063376,0.7271869693139797
79,0.45684635344739555,0.07890707670052899,0.019774907899323457,0.1330423204975338,0.09018306502324724,0.48830865064048035,0.9678410293926646,0.39623055402476015,0.08504202357628535,0.025286766320838722,0.6652988471865258,0.4568461256415231,0.08558483753979867,0.02647506795750914,0.9627913783836989
80,2.9296002038878246,-2.9296002038878246,0.0,0.687956736412162,0.6531233146234974,0.827574623755554,4.65264977189281,78.91917723918348,,,0.6727386042041725,2.9295284730973585,inf,,0.9023032832704314
81,2.5257286443082556,-2.5257286443082556,0.0,0.9261943440571178,0.88740768729433,0.6511896562537249,4.044723784600745,16.29069799730842,,,0.6309483474627791,2.5257286443082556,inf,,0.8910497899624972
82,2.2708993815536815,-2.2708993815536815,0.0,1.2372000261882725,1.19568651272559,0.7899693961305904,4.088958451126229,24.706856809432075,,,0.6403206450210053,2.2708711175045178,inf,,0.928521602275677
83,2.612077424837709,2.237914778894212,-4.849992203731921,1.0656315430965486,1.052422690479412,0.8603549100683792,3.7419866520372866,19.41913922242159,2.750011379733295,,0.6566669596287297,2.6106210557706637,2.2260609312021535,inf,0.9228090838078182
84,2.3871385948847945,2.322836719198149,-4.709975314082944,1.6839810929527488,1.6687433322452785,0.9345274316283599,3.844412199018981,2.7700696634439184,2.3858058762778027,,0.6528756675646988,2.3843978848611984,2.269729145853424,inf,0.957883210872874
85,2.2906446515760885,2.3167225090538883,-4.607367160629977,1.750183766629713,1.7096341901313392,0.880977961642018,3.4335107154657627,18.38834755185109,2.6921155941106485,,0.648888643467878,2.2871492848642063,2.2917035928065115,inf,0.9179353653873973
86,1.8114009001777067,2.582519052259318,-4.393919952437025,1.6300423888197664,1.626615454689919,0.42168399035762044,3.4119155831044394,46.138675475323346,2.7546923118138786,,0.6528756675646988,1.8110102488201925,2.5692401864524337,inf,0.6539040137853173
87,2.287619311999662,2.8587701605421056,-5.146389472541768,1.5524576143414266,1.5394093622810625,0.9046945543785142,3.585754368960984,34.89430381883121,2.875429445515242,,0.6284777104787076,2.2851818560953614,2.8345245330552564,inf,0.9059254740504095
88,2.6558302687690425,2.323950788951933,-4.979781057720976,1.6945398199641415,1.6677971104132516,0.9539814719243065,3.163283305709353,6.95637966716943,2.421860759862965,,0.6180765742263259,2.654667424537097,2.3231780467361682,inf,0.8982427729473058
89,2.1237566788017075,2.2229009846350154,-2.8363543566114644,1.513475172612837,1.4691733212619793,0.9567749054304414,3.281133894188491,3.4155696369449724,2.3430764460103504,4.62705746906944,0.6547956803312163,2.121467964936973,2.14168980405429,2.7749593278541176,0.9214429463233481
90,2.2038323845879857,2.050037568809363,-4.2538699533973485,1.52517906167715,1.5130708823787717,0.9517275322405373,3.195187721154634,3.7121651733435628,2.310091925454973,,0.6284777104787076,2.2032426496617825,2.0427002967114323,inf,0.9058380512463954
91,2.3279132651239163,2.2802179664166413,-4.608131231540558,1.649492573525078,1.5986074503248866,0.9546715580992825,3.3174004808548765,8.64502693501846,2.6155837763441103,,0.6309483474627791,2.3253989160597275,2.2405505567750823,inf,0.9095166793900054
92,2.1940489533248604,2.2865471718182704,-0.15998160182024002,1.7175237394903604,1.6879403091403777,0.9465264287860043,2.5879102079367438,2.548376942952991,2.3543327666161207,1.6826075705478967,0.6309483474627791,2.1754630855547066,2.0782680621788527,1.7332988023065568,0.9230088967134965
93,2.4490345600935286,-0.9390212227518642,-1.5100133373416644,1.667184679370731,1.6574122319673141,0.950965657626073,2.9351345183956736,8.805554870662062,4.371771010794968,,0.6038851895711802,2.4441486573158326,4.309455941839047,inf,0.9047619728493669
94,2.5918056820705644,-2.5918056820705644,0.0,1.366882196908499,1.3532062309564028,0.7168160514443659,2.749929620621399,6.631129396711283,,,0.6547956803312163,2.588343091737462,inf,,0.9276972891379704
95,1.490464415868477,2.75158461475562,-4.242049030624097,1.3691339247412935,1.3462433980258686,0.6103966038576761,2.5382070681011757,3.223913934488642,3.329170416436948,,0.6097226960127671,1.4869253379587084,2.7164903193177543,inf,0.9470284286425641
96,2.9996642988992854,0.8324064644837517,-3.832070763383037,1.6667953658211168,1.6620648188498455,0.7725999631582914,3.652365451195834,13.699376282861953,3.201592531858853,,0.6284777104787076,2.9952879278457245,3.1089721134076016,inf,0.9297488789784635
97,2.124600555840235,1.847153737807521,-3.971754293647756,1.607200932505436,1.5724328036871127,0.9352222290553036,3.823520715921217,26.70344290181882,2.1674981441951626,,0.6668815377411301,2.1235095395139387,1.834557404415614,inf,0.9198647162718824
98,2.403338061721923,2.2046525993634742,-4.607990661085397,1.4356339093748187,1.4159588120625906,0.7997747269691197,2.833243984496785,10.02117229312746,2.902243314276267,,0.6038851895711802,2.3805466344637574,2.6919640633505857,inf,0.9471788141984712
99,2.7133267890341433,0.49962820187965296,-3.212954990913796,1.560542943155626,1.4990245010365695,0.6659937651609248,3.0098990644528185,6.10196526940978,2.914041111754427,,0.6380535849069913,2.6091102532473065,2.6585701438388405,inf,0.9550227683035709
100,1.9304813805236343,2.097220408906514,-2.746811643135309,1.6291863826941255,1.5974364498943168,0.9689067252695709,3.444615672195772,7.645034380322567,2.6744967717911514,,0.5748741956352443,1.9295666567153662,2.0786002092656823,3.194705463940388,0.8993745901974468
101,2.1265805456115277,2.4042994479679884,-4.530879993579516,1.746718294235909,1.7100358022322177,0.7760194978464251,3.5977906350808238,9.699303894646725,2.705286297892317,,0.6038851895711802,2.124717886549471,2.387164365015063,inf,0.9005338931319218
102,2.4014069791527715,-2.4014069791527715,0.0,1.7042773844499528,1.6671212745925974,0.9209478754040956,3.168504011152428,5.248830824906591,,,0.5713653840954815,2.35235907428621,inf,,0.8879224456009157
103,2.6021631696325387,-2.6021631696325387,0.0,1.7535532297421985,1.71761394345225,0.9495803527396008,3.2133137659680138,55.208004946701536,,,0.6284777104787076,2.600242681801332,inf,,0.8753508784088355
104,2.6909494887641405,3.0094940846265463,-5.700443573390687,1.7727681876932329,1.7553125403760628,0.9103913646987364,3.144323432320314,34.62099032300514,3.0102332904168074,,0.6403206450210053,2.690210282973879,3.0169110929478364,inf,0.8470822004954618
105,2.5237240439284947,-2.5237240439284947,0.0,1.487461667665499,1.4471601335975646,0.742118900707447,3.0015496199532685,26.465408995142493,,,0.6097226960127671,2.5230932311732412,inf,,0.8974493306134076
106,2.421273182618074,-1.6802963614917814,-0.7409768211262924,1.6809964158308999,1.6370781841670166,0.9368432339948569,2.433179769453405,3.644354043922807,5.889351556959477,,0.6207552362147116,2.4204931364635804,4.643266390995138,inf,0.8920332145488346
107,1.2384345530196474,1.7458792320158716,1.3138287901602825,0.8849683908606597,0.8417498185178416,0.37284994665462123,2.6953798035336654,2.666854910243264,1.9743428338887208,1.7911925736745646,0.6357360191111145,1.2384108983821736,1.7517811947962019,1.3189972175432396,0.9579408693297763
108,2.838358810839895,-2.838358810839895,0.0,1.478748859671984,1.428429239039594,0.8835035071964409,2.9527262521234245,9.721507577167825,,,0.5915533975974677,2.837399873130059,inf,,0.888148094659434
109,2.5437099638771756,-2.5437099638771756,0.0,1.466093096292442,1.4672599162034647,0.9318763736532166,3.1394644014693087,9.064226791887346,,,0.5883313578629602,2.5421121235587796,inf,,0.8894706919808821
110,2.3932058651246173,-2.3932058651246173,0.0,1.6864416956120725,1.6275055016495932,0.9402399557999798,2.8864399483765366,10.759619668861461,,,0.6180765742263259,2.3920236556412866,inf,,0.8772055380223622
111,2.3598960948598697,-2.3598960948598697,0.0,1.6360365231271907,1.5920922223923197,0.9134129765651304,3.4879881336895195,10.798017708161211,,,0.6097226960127671,2.359625866695043,inf,,0.886043142897677
112,2.22376842784775,0.17842518501922777,-2.4021936128669776,1.5815596199821635,1.5507512104665913,0.9605652163696202,3.2946607463620206,10.324515772998542,4.514290093306582,,0.6008849035917525,2.223157959362724,4.3481250829982,inf,0.834633025010883
113,2.223642225016217,1.823132748168069,-0.4335176948301882,1.6807084556040466,1.6511860335939945,0.9385420619568849,3.3250174461036828,3.4225316230623486,3.174183328637936,1.0109430523638787,0.5947193981915972,2.1984252979127383,3.164134337363652,0.8032582989763694,0.8568237738399993
114,2.058606234828663,2.4531746584038747,-4.511780893232538,1.5777763240346456,1.5286598623302712,0.905789765222415,2.9586307201907553,9.132799098252315,2.517140123808387,,0.6380535849069913,2.057201799416392,2.424767952785542,inf,0.8997288527418458
115,2.346132314637852,-2.346132314637852,0.0,1.6287462360073277,1.5992278915351095,0.9585425566817491,3.5206288160287915,5.862901951940791,,,0.6008849035917525,2.3454925940053224,inf,,0.8579821466343623
116,2.098737780119753,-2.098737780119753,0.0,1.576597693046456,1.5514108490804237,0.9475172271755377,3.7083214958327124,4.331725025865788,,,0.5883313578629602,2.0980129272652714,inf,,0.8548977943569882
117,2.70122704631023,-2.70122704631023,0.0,1.4266981785551642,1.424394425256969,0.8531182899272756,3.2119576256885614,9.26372216827516,,,0.5947193981915972,2.6946405141922924,inf,,0.8567505070886202
118,2.5001968494387006,0.3976875089405114,-2.897884358379212,1.2504475237153492,1.2084692653788234,0.9440462094233671,3.2626148540714786,4.0570037197993605,6.603614392144221,,0.6125606311107803,2.4946876616431055,3.8889967668230203,inf,0.8440187211145859
119,2.0067276318333778,2.3811928913542526,1.233380430143188,1.6918708391636497,1.659688777516432,0.6894199706688027,3.3418982608890344,1.5683904279635486,2.5989076777636484,1.0919121148975457,0.5883313578629602,2.0062736938442103,2.37220369131853,1.1826487890919377,0.9259742145063323
120,3.13073756858203,-3.13073756858203,0.0,1.7514363243208535,1.7282423683892718,0.9492044352786547,2.687326238006517,6.43525109864727,,,0.5604843169999094,3.1263472880257526,inf,,0.8869851576031142
121,2.499583316690536,-2.4637714773386246,-0.03581183935191113,0.16921395908888537,0.13528659718684616,0.7660705158371058,4.355895209167004,14.470355654983852,8.212244114879159,,0.581717464821069,2.4954958513422687,7.813456809302024,inf,0.899787982195648
122,2.521782518171298,-2.521782518171298,0.0,1.2760405193709667,1.2480370356218702,0.7870516007996735,3.2865152755908746,20.290073791384373,,,0.5915533975974677,2.521708956312105,inf,,0.8658701315613083
123,2.2810277999583226,1.9585242695600122,-4.239552069518335,1.6446939498205202,1.6002216489038104,0.5518338077999212,3.1052439589347567,11.768008130292657,2.1245310984807086,,0.5883313578629602,2.278760065318738,1.9441757312763497,inf,0.8935034727157162
124,2.3285907668605703,0.11173290335350305,-2.4403236702140734,1.7321497390215357,1.731302629243809,0.8745790592742487,2.378176887103561,2.552612318968493,,,0.5883313578629602,2.3272193739524067,4.228315311440379,inf,0.8238725131791057
125,2.078031416588006,2.0129742443685794,0.9129406449888746,1.6368224102718651,1.6247881716518857,0.6840156936540674,3.7818364332897727,2.490750504044682,2.100389556810966,1.177994925129469,0.6207552362147116,2.0779315711482362,2.019751892339379,0.919640818759437,0.9049929143226618
126,1.3894632503732889,1.1877498142436496,1.594898380519345,1.6818395742625312,1.6686996692037022,0.6143333696395218,2.598918137271267,2.114825494572048,1.4065433335001107,1.812731232660812,0.6468212168108125,1.3825679793790768,1.1519491709622578,1.4742615235511192,0.9499110645424484
127,2.69907533264825,-2.69907533264825,0.0,1.6299543897842539,1.5864908271534284,0.9001537526046745,5.650851532803826,64.55872223454928,,,0.5915533975974677,2.695792303706708,inf,,0.914325247534428
128,2.860575357179369,-2.860575357179369,0.0,1.7180394193856268,1.6942833693692507,0.9069778921575349,4.3387409372534345,92.66602065247464,,,0.5978297680564633,2.859842552861342,inf,,0.8890399125351445
129,2.4161226797148223,-2.4161226797148223,0.0,1.6869025029667943,1.656405311649257,0.9180861726745322,3.659165381492263,29.528542230236823,,,0.6153451465759925,2.4160026711407894,inf,,0.8918063180289276
130,2.051476872634634,2.550354412087944,-4.601831284722578,1.1216006844078372,1.0696278298445965,0.7432407633588952,3.9535327394358597,11.538167567609346,2.550437155597897,,0.6153451465759925,2.05139412912468,2.557114958128926,inf,0.9360287038518051
131,2.620028157080685,3.080415416310002,-5.700443573390687,1.526226376422752,1.5058171280982593,0.8504759790923064,4.245477817912687,18.350206841586377,3.080556863117781,,0.6068309995095971,2.6198867102729055,3.0872346656488103,inf,0.8861803375141235
132,2.2220453093497627,2.379785975372815,-4.601831284722578,0.9547739710783696,0.9616821679928309,0.7619854007552515,3.71583575426163,2.8004667544328563,2.7853692028541497,,0.6233814453054027,2.2219271899765913,2.3865818972770145,inf,0.9007121073380348
133,2.4860121580457544,-2.466947129372207,-0.019065028673547448,0.26372692200671044,0.23660918111422033,0.6380310179009094,4.115004870658859,24.481636084262462,8.91491326103295,,0.6380535849069913,2.485973885748423,8.921591063563978,inf,0.8254442582171184
134,2.3715779644809976,-2.3715779644809976,0.0,1.6506414143815409,1.6072953607780778,0.8815012765385611,4.183244929056274,112.75165031560354,,,0.6038851895711802,2.371577964480997,inf,,0.8696215183516306
135,1.9859531738395932,2.105052487116992,-4.0910056609565855,1.3776399159341284,1.3793146328296755,0.8140983649639945,3.632316716136749,12.411619502345841,2.1050949391809977,,0.663668482632973,1.9859107217755885,2.111772741712027,inf,0.8421968530570919
136,2.0970657380541544,-2.0970657380541544,0.0,1.4840070879293612,1.4506786934774951,0.5588552568494595,3.7702145637401516,8.215864888452096,,,0.6125606311107803,2.0970173169191937,inf,,0.9045415104095549
137,2.1086104731390107,2.2055387391317853,-4.314149212270796,1.5490129910452934,1.5377278826151721,0.841268949666738,2.9977477793230345,3.586978132684691,2.3267475574108167,,0.6309483474627791,2.1081154022644433,2.2127116125373814,inf,0.904728135092748
138,1.890906676323998,2.000248587992056,1.1127910416294062,0.8497190169123516,0.8269811200104599,0.774792505695323,3.189218972799878,3.131003193462846,2.2028414045646807,1.7095151604833176,0.6333676938231112,1.890843427451954,2.0057437698463527,1.1207370849487455,0.9217522648599388
139,2.093595201323659,2.519084648164354,-4.612679849488013,1.2690949756605332,1.2515778739729773,0.5193724258210514,2.539920361248155,3.3726643953608275,2.9137108502540077,,0.6333676938231112,2.0935855425767333,2.523882171221764,inf,0.9263622273770955
140,1.96568994818496,1.8665313097800518,-3.8322212579650117,1.1914410820850216,1.1676383986678822,0.554720397992935,2.0469292975948785,2.4416591135372636,2.225910110939117,,0.6097226960127671,1.9656367792393468,1.8668564705654946,inf,0.9297379069704523
141,2.697316364984935,3.003127208405752,-5.700443573390687,1.7482649380864808,1.736359734619443,0.9080290592013543,1.9396073212493776,2.895307140393939,3.0033333123268107,,0.6153451465759925,2.6971102610638757,3.01001111485784,inf,0.8872530135965255
142,2.70805020110221,-2.70805020110221,0.0,1.7136821985136406,1.6804847350248606,0.9541352510810902,2.031225812616916,2.745181444395131,,,0.6357360191111145,2.70805020110221,inf,,0.8848729784721652
143,2.453359993201829,-2.453359993201829,0.0,1.7299259143400583,1.6913320372536926,0.9607166802266296,2.280298608720515,2.84770203595578,,,0.5978297680564633,2.4527621964614332,inf,,0.8734998564445297
144,2.2186197338785596,-0.9056920525458438,-1.3129276813327158,0.7975530810656714,0.6554743845608478,0.7086039077733611,2.338531292683754,2.3403371041294303,5.924342394972045,,0.5978297680564633,2.218448213787846,4.5162879010626495,inf,0.924299408102381
145,2.9311937524164198,-2.9311937524164198,0.0,1.6298075121091453,1.6219622802242613,0.9420622825021208,2.887373677238586,6.2395334941785086,,,0.6547956803312163,2.9311937524164198,inf,,0.8753066204437727
146,1.5964887451334344,1.6354874117472944,0.9364055011318748,0.6571684335208728,0.6088523256985927,0.40604547912393835,2.4572628642693455,2.341881010076584,1.9922614290443583,1.8655067794976146,0.6425374456860184,1.5962475117484045,1.637459982790376,0.9253533824030116,0.8020013050263779
147,2.182729899565491,-2.182729899565491,0.0,1.705009934981863,1.6612163693590363,0.9683771949163407,1.9135696839338971,3.253194931360627,,,0.5287703885177266,2.181548097951212,inf,,0.8372541858563787
148,2.0276086219779668,2.9796877708527747,-5.0072963928307415,0.25251842945491937,0.18592887658761856,0.4869570834528715,2.282801627580084,2.643191581860256,8.274877439989309,,0.5978297680564633,2.0273974181239534,2.9865767772378167,inf,0.9331883915193927
149,1.34997876615829,1.4213265344840338,1.1340287166350258,0.9990013478473072,0.9788972994895883,0.32549260358420784,1.7662853147864002,1.9945952803852693,1.9173587263550629,2.4297937573849984,0.6233814453054027,1.3499410027653431,1.4276379276556992,1.1411330631579,0.9472550235043182
150,1.944828124720932,2.3680443364412,1.3772430335926682,0.37821336372540226,0.31477768513831855,0.497414317603336,1.7212768367639633,2.6266641950374803,2.37282172350331,1.3795941873493267,0.62595550513784,1.9446775756527677,2.37447859498424,1.381298513926519,0.8344897977097829
151,2.572733434984135,3.127710138406552,-5.700443573390687,1.5807142796477711,1.5366349419316032,0.8738008786179643,1.5954917065812326,1.830375453125767,3.1277980092946795,,0.6284777104787076,2.572645564096007,3.1344758118257086,inf,0.8596857299263001
152,1.8034123643146336,1.7846624171232375,-0.1439465134601754,1.2666459706155702,1.2302603322200314,0.39090992787333584,1.8805440439562866,1.9410977657765036,2.1433862413403184,4.189344366354632,0.6097226960127671,1.803359827294376,1.784568819650434,1.82817175525961,0.8502748239076835
153,2.3025850929940455,2.704711299836696,-5.0072963928307415,1.6780455419334879,1.6512095008484091,0.8878900695235693,2.031724085870096,2.4272250683708645,2.7047112998366956,,0.6447042257417027,2.3025850929940455,2.7113891023677246,inf,0.9041564390542233
154,2.3025850929940455,3.3978584803966414,-5.700443573390687,1.7328627096878915,1.7101474416003084,0.8911391173628037,2.2550353542874544,2.81654756871667,3.397858480396641,,0.6008849035917525,2.3025850929940455,3.40453628292767,inf,0.8951179561236323
155,1.4920910379673549,1.5074470916899392,0.9394881834821547,1.298286376586704,1.1771618551327772,0.5008088668110808,2.3844667501417853,2.8687724687863567,2.014146279792193,2.1908971901496557,0.6380535849069913,1.4920500165635555,1.513732592843937,0.9384192943848888,0.7105260882205049
156,1.2472416642764848,0.6384521425864982,0.2974005309052701,0.977933353628626,0.9126678996322579,0.6145286655941876,2.48403851547216,1.7880643261390246,0.7979111405687136,0.47537673679320586,0.6602640781246099,1.2471509674944956,0.6445025045542028,0.3009816529537136,0.7290457047732121
157,0.7544302878174468,0.2644753996594308,0.08363396523819677,0.7703034960276764,0.7422615742450258,0.5554702549693348,2.1980815851671127,1.606521417746197,0.33175723608720614,0.20217122873174284,0.6447042257417027,0.7543608647284344,0.27112488561557047,0.09020487985885595,0.7345717197515794
158,2.078610898150273,1.9771690586725756,-2.719639018591968,1.4455066178607812,1.4246404639227668,0.7276864064616201,3.072973846131046,2.6030354249717416,2.2915807639136183,1.7546881975811923,0.6619902821573977,2.0749184529522515,1.9031256535736887,1.683317652246309,0.7973912220566656
159,2.3340771904122115,2.751941902622201,-4.761017115616319,1.213366314530673,1.1937939374950184,0.6579996513113451,3.5261903265295786,3.5075685874145504,3.0326155679177162,4.42411662507275,0.6380535849069913,2.3280168675862427,2.778762287062915,3.467572450607028,0.8855310471632504
160,2.468300549377984,1.7689636396778834,-3.2746370469160633,1.6561797850773259,1.67048891250219,0.7601947019233637,2.8348309092199235,2.5668214075509574,2.8247032561533447,3.126721502556613,0.6284777104787076,2.398239776577428,2.5478569963812565,2.4010251658072983,0.938845441461972
161,2.5287050188528566,0.9359681812467406,-2.667625213621851,1.7028591336440715,1.6817545553124356,0.7995129844513021,2.967902760585842,2.6607671452403774,3.1415508907541936,2.4537154560091405,0.6619902821573977,2.3649334217623283,2.8835361390581404,2.151762203259462,0.9445466880167079
162,2.770853060878059,-0.23603831550557075,-2.3757454823938278,1.6805802098473956,1.6942254666302694,0.6658948405538911,2.6778608143741085,2.581037318206635,3.0807216595487854,2.9244935786458557,0.6153451465759925,2.616383012576386,2.8379386024482316,2.695146796266302,0.9330976937687123
163,2.215249186274319,1.9269160253300712,-3.357827127749533,1.5986876237756906,1.5675634958309936,0.7593507573325817,2.954030925135418,2.561790292822799,2.8170863715573664,3.445552378691876,0.6008849035917525,2.087025785038144,2.5566542557118233,2.851861903134289,0.9371457439010181
164,2.462496591020936,1.8725165573632019,-3.7459345618090745,1.7004813806389312,1.6693820852628103,0.7992610107075199,2.856257899182994,2.683824788107362,2.9645026531182546,2.634658652832974,0.6547956803312163,2.3610384625744345,2.7257581924873855,2.428947996139956,0.9443727999460787
165,2.485272099417406,0.08239183815144502,-2.4935188813089124,1.6330215735443474,1.5949982804856506,0.7992630588509789,3.075101766088358,2.825441146724169,3.274356664627952,5.713611602836847,0.6547956803312163,2.4062187055460096,3.03008440397593,4.361823927356362,0.938007659117809
166,2.015465994000196,2.0687221144719534,-1.2656502488924013,1.2402560788408665,1.2127822675658602,0.7433475217517785,3.362656879006563,3.160666871743459,2.453827539615057,2.5132977958287066,0.62595550513784,1.9962448387237315,2.1571422641321525,2.0501711593797225,0.93739491940224
167,2.0569954641206025,2.1309046468711528,-1.9916720279688187,1.508317272917469,1.4678855920115819,0.7847042335648003,3.20197269467669,2.9610937057997146,2.163562137598,2.6888176111848385,0.6509067234006624,2.0309477177111206,1.9453175564453793,2.194857712325953,0.9217298699541104
168,2.102485622704474,1.8248748552268839,-2.158462149869259,1.4359501633528842,1.4099184610555962,0.6387976650250945,2.765761295283528,2.4602170894413478,2.1837591536606378,2.016282989099661,0.6509067234006624,1.9523978151908676,1.9826663893839764,1.6886755624078207,0.9385155165374838
169,1.4980070548376503,1.663919415733,-0.7344066256129178,1.4276985475253638,1.3872155028947126,0.7357714569565151,2.386522123026485,2.345537256840817,1.7299922472008145,2.767831104928555,0.6740851607140061,1.4802632186770193,1.5119198053658303,2.0785561941231117,0.9316343061513157
170,1.7197513830931932,1.7265243995382855,-0.9719069791189447,1.5073564186008381,1.4989782819656112,0.6930389185338597,2.465595469629453,2.3568855751301463,1.9368815876316634,3.1339978700336126,0.6357360191111145,1.7181373293574413,1.6840605526382977,2.2982568025677876,0.9377713620314269
171,1.9578140504046648,2.0103305137161716,-1.7657464223263428,1.5811873358555144,1.5919265130294444,0.6787417196979988,3.1320415329937408,3.1853302334737554,2.239775151076288,3.0282528129367083,0.6509067234006624,1.9517717391021752,1.9810210278123568,2.526012292019702,0.9361164260231026
172,1.9035460815327345,1.6684668934681544,0.7731228179608864,1.597633130063022,1.616762781913169,0.7529212447838644,3.178852738424955,3.505730222726618,1.906979742933231,2.2636640402123187,0.6528756675646988,1.9005332107268509,1.6623990941208706,1.7443136924446165,0.9397059760966697
173,1.7350222173154952,1.8204850829215764,-1.1203108902831436,1.6916302033192352,1.6799987503204905,0.7643338810445026,3.163811624936132,2.7617597583952302,1.8883729123144062,2.0228407743571606,0.6425374456860184,1.7115321632092262,1.68467767694189,1.6941904224140019,0.9283469251265191
174,1.9791777167467073,1.6318877393673183,-1.3137768935831802,1.3616565345077742,1.3510832688480028,0.6996280116956293,3.1668954026518414,2.887415990329305,2.157114266290078,3.020122686853458,0.6180765742263259,1.8862166795809419,1.9075295849228318,2.4547633855940996,0.9450826280139715
175,3.200132463223966,-1.795606640897868,-1.3112630026886245,1.6440786634965905,1.6347288774254793,0.7624193254626694,3.105853554789286,3.1212479662364956,3.753492765043177,3.334393283821886,0.6509067234006624,2.9200065630258556,3.589718586335635,3.1060803307228566,0.9443897118647147
176,2.001327614303563,1.391490845057762,-0.44498440210312706,1.4770926059896852,1.4552796610140044,0.8259112122032636,3.595361246963079,3.56467522963792,1.9320253844093294,2.1894554563767503,0.6684167106117298,1.9351680525234112,1.7187733502292446,1.8564696789230055,0.9447868404831826
177,2.774922017146703,0.10681793228943226,-2.4416088678530725,1.6594335849545458,1.6457049405009765,0.7712908874985085,3.1926478499102346,3.210547104414871,2.451602372141649,2.231539616133077,0.6309483474627791,2.4769384801388235,2.2128217741498872,1.8426073718225398,0.9406407745963884
178,2.7568999045267133,-0.19785577648399322,-1.1605921478691306,1.5313466109946101,1.5315714160623564,0.8066080851842939,2.771802350769255,3.135571103005888,1.9994637123426628,2.7141195543977576,0.6425374456860184,2.2617630984737906,1.6998003525144918,1.8662716723378978,0.9423784908536366
179,2.0466197082891515,1.9448300985196787,-2.8273104407925747,1.5543429871044183,1.5322245793271045,0.651697164935765,3.0066079195784114,3.029271326551425,2.1999372438716756,2.848507671667934,0.5677978065141052,1.9390228102069467,1.9537423786167847,2.221494935764178,0.9336882854720683
180,1.8910981599857921,1.8960614084682588,-1.4920083923980094,1.5216218290998582,1.5258706831164097,0.6889285013483238,3.225495142689614,3.243305721688107,2.212144962807042,3.0436759392043196,0.62595550513784,1.847906629851056,2.0037532258499993,2.628651408454142,0.9413546088094146
181,2.563825307072856,0.27040415322357214,-2.7983199307915596,1.5611423648846798,1.5446617795978013,0.7123649602263742,2.3579302933039163,2.3686406118270167,3.1100970647937647,,0.6668815377411301,2.2457847679515965,2.8428120676143713,5.220355825078324,0.9221762861915112
182,2.1959226016462408,1.1310570932055386,-3.0693838004305656,1.4253520026846092,1.4112087139241314,0.6897572581212487,2.3661694279857657,2.798157438713031,2.540054919243822,4.766100853601478,0.6068309995095971,2.008589658485673,2.303082069729198,4.10016094754354,0.9400612934860593
183,1.4579550704897488,1.642454392166079,-0.2653945387911416,1.5748882625601839,1.5393825541985022,0.660304575886089,2.321671057880428,2.1295703088068882,1.7845818597938297,3.036188276661204,0.6811855325194978,1.4086308626322612,1.5442548006531458,2.3234527965438545,0.9349734781712694
184,1.6217888878852467,2.173077949059144,-0.6840067182436518,1.3706195631891354,1.3815388027485194,0.528767870332647,2.2336538265154826,1.973431971862532,2.304723603884845,2.6890075041332597,0.6619902821573977,1.5721421276904035,2.0344407503642583,2.2212522452715184,0.9383717902308067
185,1.47320195872261,1.4913239886485916,-1.0279975856657604,1.6205943206944122,1.6446453496901146,0.5320103111618859,1.6457044253500261,1.449875280293266,1.6653825545778222,1.9045940285182164,0.6357360191111145,1.308017313871806,1.3485479445418955,1.309092962847076,0.926977682709351
186,1.1416055011700863,1.3074144933361007,0.5661049477355684,1.5720498305099666,1.5978460192028061,0.4446313981204074,1.6474398478217116,1.3195921779962916,1.2234687969088192,1.051974489216712,0.6097226960127671,1.1077203076988371,1.0176488325369542,0.7852053249778929,0.9269637480839252
187,2.044453346368084,2.3880192578322057,-3.92315644446762,1.499166784660601,1.4927705719621953,0.7926196191644709,2.1493580436778177,1.7335446578118328,2.9043344346208517,3.749837928817187,0.6509067234006624,2.03196440847056,2.6822768725718937,3.0044442141560124,0.9099928644637383
188,1.6700235928373806,2.510519213437413,-0.9751382516997769,1.2860315554323807,1.2647302205162376,0.6788943976621548,2.325322226575334,1.700707993367839,2.7831780427912336,2.369628393469031,0.6727386042041725,1.656413058079972,2.446635944772275,1.6697263432909055,0.9326748037834622
189,1.784773435384121,3.095944062796156,-4.133226358469156,1.475788908895536,1.4760356845810725,0.48922208333265227,2.1487572735463822,1.649788999167003,3.0189926533097418,3.3068122033924876,0.6068309995095971,1.7725452503042507,2.662413447706398,2.4727965809714885,0.8697305847577318
190,1.5377127557383488,1.3392465691533149,1.5433242842346764,1.4277111863493341,1.4327419494036913,0.6326967383766134,2.524155692049448,1.8574664745001752,1.5854260026733942,1.9666229893883438,0.6153451465759925,1.5322197027225544,1.3260721617101985,1.4492459182503894,0.8955578293801318
191,1.695604487834606,2.709699445974496,-2.8411850961257277,1.3284110817748798,1.3435304739347271,0.5928616242080785,1.864757800847517,1.5128030722611452,2.759344597201243,2.8649794511134483,0.6403206450210053,1.6755183624740169,2.334485051314333,2.1558145204644097,0.9190179937892048
192,1.718243804440389,1.6319285413810583,0.7452176161408501,1.50740113561608,1.5047560375365296,0.6313876358465815,1.741874776189536,1.784839470933831,1.811749913779187,2.1833178485762943,0.6233814453054027,1.715539443316646,1.6000920500158626,1.8003643164215735,0.924205444537876
193,1.2331414250848673,1.2386604973836575,0.6787502747175629,1.4880656221719903,1.472328775595801,0.649303648680715,1.9640373496495995,1.528443756806425,1.3077354458633754,1.206885370677826,0.5748741956352443,1.2241755116434554,1.0221342733832552,0.7734875203099119,0.9206951923980878
194,0.7652884584234656,0.32556911512264786,0.21717087714229932,0.6636658536910494,0.5987626188840423,0.4833039178587523,2.154138768514789,1.3643972167919873,0.4287010619041035,0.4620934982662774,0.6652988471865258,0.765192324542475,0.3321208083940146,0.2237346244621494,0.8800452578534358
195,1.1136576990629452,0.8356571823834349,0.8805404428204588,1.3819921967708166,1.3678739653169614,0.6374595045748687,2.3941232560982297,2.2237404549172717,0.9601341136498522,1.008993347069167,0.5947193981915972,1.1060733868997303,0.7742987406849282,0.6732417202131324,0.7056614652840145
196,1.1727307700399539,1.0894961002261294,-0.13676275789337478,1.495333045651174,1.472320391327597,0.655665908102076,2.048137182481806,1.2179108936451124,1.09828501449593,1.3795941873493267,0.6425374456860184,1.1194274283820298,0.7745862748847816,0.5930285586516104,0.9592523252835614
197,2.201800451956335,2.123108030369618,-1.967752021636905,1.5671138617265585,1.5376939241798202,0.6454510811632692,1.9450512204355541,1.50667181708815,2.2935538867488554,4.975927495338788,0.6309483474627791,2.178795441867852,2.077284043539815,2.2170115307740432,0.8464739054216204
198,3.9507932556725063,-3.9507932556725063,0.0,1.4312415193235781,1.4124673537370631,0.44475709275049025,1.5418463912436127,1.2286946797604918,,,0.6727386042041725,3.83918568147588,inf,,0.918043091942241
199,1.3179952310266148,2.692369500853456,-3.9576634362478678,1.4212600737109262,1.3875149161742737,0.24848857204484184,1.8924495571984477,1.3448598593384673,3.2437129748479347,,0.6699045166045591,1.2986091371420727,2.5416101361570895,5.957907763579139,0.8395726646890983
200,1.7247596486473307,1.7896109951792227,2.093190898221641,1.6107984564296407,1.567469781397726,0.7486933552716506,2.5867532279356342,1.9810287847365418,2.0414154905754347,1.9841394068400655,0.6547956803312163,1.712640264775456,1.7437175280639752,2.110565499099573,0.8111578772233812
201,1.5046027107946134,1.0349544936810042,1.0136396682219684,1.572058042868267,1.5329405445731452,0.8564307818233104,3.423222034253728,1.983898990833052,1.2843514065892134,1.116897457649095,0.6668815377411301,1.494622238005519,0.9216293751330707,0.7093362773060541,0.7360715120712442
202,1.4070785728288895,0.7892188747146784,0.47929969369518943,0.5082344142120101,0.5065701957598425,0.6525711667891678,3.171241103596798,2.2506315027466415,0.8812089176266392,0.5305652697984051,0.6447042257417027,1.4069506860455514,0.7884755093492887,0.460347861141999,0.9148392305266297
203,1.7958753885317194,1.661611862269773,1.08538890934009,1.7116472787926726,1.7059889277948628,0.6671767480455909,3.3557523910527625,2.143165699086822,1.900746057493124,2.8555007071589045,0.663668482632973,1.7859099444391633,1.637192272611042,2.095584773929316,0.822081833502136
204,2.2376156350535736,3.213841540720184,-5.451457175773758,1.6259036529617252,1.6192163871755265,0.7334947201033069,2.3630234641694146,1.2658766647689497,3.5792891175637207,,0.6547956803312163,2.215795962921655,3.275566923783312,inf,0.801496657981267
205,3.593024673107083,-3.114626516207017,-0.47839815690006593,1.059880255455502,1.0034142728309003,0.6952624825094523,0.7655354903891346,0.33372563378963893,4.437442961938647,,0.6468212168108125,3.497708282042999,4.220977213155467,inf,0.9458773720112014
206,2.5284055976320756,1.4155182532739574,-3.8917201972006796,1.2934648211652022,1.2769456475984982,0.7123618977639593,1.182302185114219,0.3183599751835662,2.6556906059526764,0.9628719247165278,0.6602640781246099,2.472319534282529,2.2759514953462356,1.2793965661431779,0.9002225666129914
207,2.2665764420756025,2.443538249321133,-3.355034140791063,1.0685788180420817,1.0531224159402688,0.8553740222393607,3.217530769703549,3.2387255560685295,2.5137780006079664,3.2851605438541256,0.6447042257417027,2.263043918373513,2.337691670546713,2.3070196900619115,0.9090670281272449
208,3.6522036545336847,-1.880871987617058,-1.689632969153392,1.4183018403165948,1.3702690463839862,0.5925739728108345,1.889215739598024,1.3126343661944784,1.833844320928491,1.078142534173789,0.6584896970785714,3.2092005593447825,1.6910866775826079,1.0476921982408527,0.8512814647419797
209,3.414733373677333,-1.5431482280992106,-1.376440794918145,1.7602426274137382,1.6108405685583058,0.7057196368312406,1.9314025963853672,1.8013709390437005,1.312191155555729,1.3182469157858192,0.6380535849069913,2.3938479188410335,1.110490221740635,1.0259307372333049,0.9470687522435158
210,2.4256013310749016,0.10675583572791192,-1.3848395134779425,1.6301137693563106,1.586043160350093,0.804817635217221,3.22510387468474,2.624513581841064,1.7903353317114115,1.3820663764947156,0.6207552362147116,1.9972268355293221,1.563357131644292,1.1561387047202247,0.8541416084129114
211,2.7840849259888785,-0.3914679084438548,-2.0614802985167255,1.7108138370898358,1.687374780969493,0.7511055230857717,2.5582809164212206,1.826125157922172,1.0035954221033858,0.660613478766743,0.6619902821573977,2.109763301566225,0.8583538049547927,0.43541633493868553,0.8830718407588888
212,3.362815527455443,-2.2915354037502587,-0.5980020796301599,1.6279244786156255,1.591576654881312,0.7731163995925544,2.1920633515431294,1.4302845323753455,0.8727304277843879,0.5135469473947665,0.6468212168108125,2.1951267792540734,0.7873602675498971,0.4689515512949318,0.8891659732426515
213,3.691429776996353,-2.6547825437225794,-0.9984117065187037,1.7646996710112177,1.7425961685450446,0.7957319452657092,3.151635713650221,2.5537498605187885,3.597722032024011,4.637690725370809,0.6602640781246099,3.1587742156159893,3.3812562832408304,4.174387269895637,0.9235648981765423
214,3.0447877342870027,-1.6451169713470182,-1.094446020485969,1.681823694477942,1.6540982933395556,0.8392517474886199,3.6423748215792044,3.528586968469482,3.194608329310185,3.251396364250918,0.6403206450210053,2.7509577021134866,2.966247792874855,2.6946271807700692,0.9521717279292866
215,3.4940873682829197,-1.8526968252897886,-1.255019744094655,1.6574967767523108,1.6174879503058024,0.7599234878138321,3.2515239606663355,3.313582611022236,3.3085039702098356,3.590612086817882,0.6425374456860184,3.108776554863201,3.025788835885454,3.0757749812275272,0.936853247540276
216,3.132151865181714,-1.4958140085960827,-1.2117345460374427,1.7565804479986595,1.7234634582275274,0.8703729364495021,2.656163730094333,1.2036183822106588,1.5185671183816174,0.8195026393782876,0.6357360191111145,2.5684331967662932,1.4464842318244855,0.7927770215087866,0.9411350335789804
217,2.8381966183850778,-0.9666564607181518,-1.1947982827035095,1.7034549752158608,1.6506539145850119,0.6085962202674446,2.1290749667761926,1.2149008972842261,1.4487493587124367,0.911481513599291,0.663668482632973,2.176442038153691,1.3495629941018124,0.9559647199464308,0.9112592621330798
218,2.585038235681086,0.7139844899523613,-2.6730615524965105,1.680248930743657,1.6837795265029087,0.8083726661894762,3.0043805890659554,2.2342643947857104,2.2008373220458664,1.6689459880234032,0.6180765742263259,2.293295046086953,1.9809739483293807,1.5423089743852116,0.9257950006550247
219,2.303440548089393,1.7002019036070268,-2.409191162777871,1.5894442102671116,1.580958216928448,0.5882482236648645,2.069526339928389,1.5271549614440567,1.3753977364124952,1.084084286277299,0.62595550513784,1.8471312447630415,1.1889601674825294,0.8093119058411794,0.9445621105427335
220,3.471978824997409,-1.6072805562004993,-1.0110596538459875,1.7593695114774626,1.7458613149130275,0.754782975862156,2.0966322258909735,1.8728955796800117,1.7444669475428356,1.0692096642792392,0.6447042257417027,2.8867782223860345,1.5718895046130552,0.8804716340692019,0.9379330546694459
221,2.98269940259893,-1.3214418908043484,-0.9014315662947634,1.6713547845578998,1.6782329866892385,0.6758383956206866,1.5703316197830788,0.9917829271692007,1.5060628299060659,1.1327903666257706,0.6357360191111145,2.1886613466757314,1.2744114387045113,0.9917635193072911,0.9511869169677494
222,2.1802914007725143,0.8513573177834419,-2.0274840917223758,1.3286547430510298,1.3056476373910306,0.5898564286224108,1.8877238668174616,1.4267953370826967,1.8971264732086037,1.4092573791728857,0.6038851895711802,1.9457657150419632,1.6385535435849161,1.2071805055527056,0.9575215010219504
223,2.7731203826393442,-0.6793781736852549,-1.5241630013142726,1.7676825050522849,1.7787230498589037,0.6340411622007638,1.246098640762483,0.8656355913578075,1.569574560917417,1.146803942465063,0.6602640781246099,2.219470186283539,1.4370496450570611,1.1717939059617009,0.9461317841504691
224,1.3963131807777647,0.9693136326786573,0.8762937487794997,1.4421048200730946,1.407783410772752,0.7806828503691162,2.7199810542110634,2.608627160200425,1.0319696200271773,1.1256502545293958,0.6038851895711802,1.3794732335517432,0.8770768098692909,0.7914116350499014,0.9551038438714927
225,1.5220711419782853,1.7199769748228257,-1.6628401520421332,1.7618321749205819,1.7240274505754962,0.5289274483797559,0.8873140002354004,0.5413552222392997,1.0931688463903122,0.9275478197433958,0.6068309995095971,1.213237814509413,0.772025500915166,0.5408820823800189,0.9438531795456507
226,1.598813231847256,1.3983262354741923,0.7991418166759896,1.5368742951901324,1.5258276101221182,0.7004477624043527,2.474030502946414,1.7198622479885026,1.4637431442408486,1.5363261193431046,0.5883313578629602,1.5784777193525243,1.2500466352175603,1.2349677441692515,0.9140840180835808
227,2.3510351465644304,1.2939676176443609,-2.712219670047449,1.431005770202152,1.380627167424275,0.5411644991955088,0.9531936437732467,0.6738094377031466,1.066837637901274,1.1210791519106287,0.6309483474627791,1.5973995540076469,0.8321354624675994,0.7198665712995371,0.8846274257732911
228,3.8944605559217953,-2.150201218737447,-0.9901185100359791,1.7235466460166113,1.68248619997786,0.44997610287741757,0.9886659601965109,0.7783013392809283,1.8028586971308314,1.0689978553746697,0.6309483474627791,2.5013070711557814,1.3598116044105975,0.6712141864694465,0.9102251076718275
229,2.4048732036729468,1.2168201601454234,-3.4131558739016126,1.5509978679525527,1.5452930336904231,0.6787329378854826,2.5085883700357745,1.5798585596068495,2.05035852170186,1.2999585629299362,0.6380535849069913,2.3170221407918152,1.8701689717966374,1.111126253959584,0.8527662221396385
230,3.5653544268425064,-3.0924547997075433,-0.3474611483732775,1.5509978679525527,1.4857410632408,0.6991345222128389,1.709266198204622,1.1773073771989615,2.0653690788820143,1.0666925435654298,0.62595550513784,3.1030700513488356,1.8229177686871354,0.8361302316331934,0.8178704708332568
231,3.1221066891428766,-1.103663667614034,-1.7455340708270146,1.7143583635809692,1.6802107740787413,0.6393546258933441,2.1983142353184144,1.4832191167450528,2.131058387629803,1.620632228540087,0.6038851895711802,2.6726830572649187,1.9849506982589133,1.4667274650505813,0.9293440569471602
232,3.3488899716932417,-1.5344620635093251,-1.1715580542838144,1.608099769365913,1.6088933415711868,0.6466216591507024,1.8503348249995355,1.0723066925634068,1.0987035825385474,0.7612786552501656,0.6284777104787076,2.2344073684639354,1.0302215704162005,0.6940199078880656,0.911097022030112
233,2.8573727879704722,0.6258697596364011,-2.2192254761958843,1.4862305915795364,1.4646969281112925,0.6624833038671043,1.7565196156534417,1.0292263295639976,2.1485948395505052,1.0465969186855033,0.6566669596287297,2.443253001187888,1.774389777378706,1.176207014703006,0.9311143718501124
234,2.0338443514634226,1.455873065423634,-0.28767275327749786,1.5414863486720067,1.5169924389275264,0.6354153020488101,1.7049821295006724,0.8079626003209037,1.3405931943820482,0.9795418123479126,0.6547956803312163,1.778316893531566,1.0642175349504384,0.6815841666926579,0.9518276160308842
235,3.643451184293878,-1.522641467561956,-0.8091672903861257,1.641032676097918,1.6432613253486523,0.6835218198655112,0.8763391139915208,0.4980597208569132,4.277997096095832,,0.6713451011121618,3.485303890959155,4.051060047445357,inf,0.9586743121938756
236,2.668009069667996,0.3611418267798028,-1.0940552858217354,1.445652508946221,1.4611427370574424,0.6939335595537504,1.8335325317303477,1.1807692403265846,1.3926886401562142,0.8305176996089648,0.5915533975974677,2.1079324698574577,1.2284139394850817,0.6835093008888223,0.898051047403753
237,1.7468527233652942,0.37108377515712765,-0.7321141344657054,1.762848121022011,1.727730807304365,0.7258689617487554,1.6063287163792457,0.8345739011399584,0.8615445263021034,0.7535194580041619,0.6207552362147116,1.4188175528254507,0.5989228225369743,0.35932882889285644,0.9363701207607974
238,1.9736910023122354,0.9913470210202422,-0.9746289846917799,1.7335936657682647,1.7127807676565572,0.48423837334077213,1.2410931525974314,1.0942888404273838,1.7764266014165588,1.8907645792621561,0.6333676938231112,1.6516497612434098,1.5218809803769513,1.4473172570869601,0.9385614729090134
239,2.2116451960619106,1.7903212567818523,-2.423301624847456,1.671102325178083,1.6511095880676412,0.6854121086715617,1.3076435041671788,1.1329205015179804,2.4416513045157227,2.8406120946651536,0.6233814453054027,2.0514805632835134,2.1722136709664364,2.3880801694657117,0.9446250904887316
240,2.2643436619847437,1.4544378083419316,-2.4564726863466495,1.3758690573951327,1.3644471499366793,0.5189857738338568,1.4064129005056527,1.1928011563834389,1.7313615099081845,1.8175964122184034,0.62595550513784,1.897194061703575,1.4126403139446075,1.1980074663793465,0.9321874361371023
241,2.1564584713942114,2.275301455911393,-2.1614780307131793,1.438928946541093,1.4378854567906445,0.6179291654454467,1.0834052007471027,0.801351406988237,2.3854442583560216,2.5015020386209588,0.6284777104787076,1.912120825899239,2.001570236629604,1.7349721129062785,0.9088427861206962
242,3.5668521530114194,-2.214901918634861,-0.9714860047220073,1.5826531561614805,1.5803983877466357,0.6662337952752742,0.5515610314454821,0.5476629100576024,3.3970416485638357,,0.6403206450210053,3.121043575631166,3.1805758997806555,inf,0.9120565479188397
243,1.9825952507755138,1.4181101272589942,0.8142118682904567,1.211965329590199,1.1724316518084184,0.470242448717112,1.2847408035803616,0.5785585991538922,1.0827189788261251,0.374879911317865,0.6509067234006624,1.728096331126438,0.9494246649409493,0.3005896761367843,0.9096482141441802
244,2.6003790033742615,2.8161891848407667,-5.416568188215028,1.597755576014012,1.4898517376408316,0.7081280284315397,1.6181481498876658,0.4794317390838485,2.9069895179686576,,0.6153451465759925,2.599494794547865,2.7419620646607896,inf,0.9209037267905633
245,3.4366940217406743,-1.246654774131041,-2.1900392476096333,1.3017065770304055,1.19582868587198,0.5982992007336806,0.8235178001923458,0.27863041869663374,2.494758149208182,,0.6309483474627791,3.326399171586969,2.4753637114294356,inf,0.6943511950513717
246,1.7822389449606297,1.7483958284027339,1.4246808147121195,0.7746024702121161,0.7666501598457719,0.7471186581392136,2.8091621794579154,1.3054109728405683,1.9086196880645656,1.2692594208949037,0.6447042257417027,1.7753613234184187,1.7404989665638764,1.428675202409437,0.6360240457130897
247,2.0573551535165056,2.1957054179981306,-3.5675862812691523,1.4798716756751449,1.4485546189677347,0.7111773072025313,2.312301383915659,1.2367383504461094,2.1568623757766083,1.995339815254418,0.6284777104787076,1.979294593074897,1.859374692830509,1.7488127330546341,0.9453533042791277
248,2.212745064246001,1.9295448212344817,-3.1349070749201076,1.7584351142376777,1.7418854707685927,0.6529920617889822,1.8240574112306502,1.4545774385370593,1.5094721754795142,1.3930761285045243,0.581717464821069,1.817077277212345,1.2874782906265576,1.0921909280012794,0.941601303591849
249,2.0533438200067007,2.1168670682551136,-2.4848520060323063,1.5942466599443976,1.5740501957464692,0.5774773415348797,1.7896358681287825,1.2381416546437354,2.01540263274009,1.9631999681769976,0.6528756675646988,1.8821948833662012,1.712991859957591,1.4970202044662753,0.9246726367643591
250,1.7521401617010974,2.0745359257282603,-1.9528149129066368,1.697053809837206,1.6633298096277238,0.7312223202765551,2.5738109411173786,2.0683789040744593,2.064423607404876,2.5765806183872826,0.6403206450210053,1.6905877141916834,1.829017898520774,2.1103070133772883,0.9414101871225238
251,1.7502820562780004,1.5685851951824001,0.6474059532591188,1.4764297530547321,1.4616527741725185,0.7414128850611681,3.394247041048855,2.5004237804273806,1.6670242855112813,1.5038124695999813,0.6619902821573977,1.7402428664423475,1.4216751819961944,1.1325047921667726,0.9318950961789397
252,1.7852965277249708,1.8970840701915537,-1.1386618450386008,1.639533199844978,1.629738145706638,0.8162655547559557,3.1462902539305273,1.295105451153606,1.778875434165713,1.4448218092377225,0.6097226960127671,1.7537574470950474,1.5463886904973798,0.9869744393274867,0.8608347590947362
253,1.988813016711204,-0.02647246268529922,-4.504420418350031e-05,1.4872578097498967,1.4732059741727621,0.8203942626218711,0.32386636290096493,0.3031966772528073,0.7301738122636452,,0.6566669596287297,4.9973900673462355,0.7231995256263472,inf,0.9339945687671566
254,4.372739498828558,-2.79078222187835,-1.5236540836324939,1.4872578097498967,1.3006683104900545,0.8363582616121537,0.8841781746510506,0.47285478793598656,2.517837985352017,,0.6528756675646988,3.5947821307348207,2.311524608032854,inf,0.9497069253941747
255,5.139796538019513,-4.403206635538847,-0.01585637633425893,1.2251829596798272,1.188910183730933,0.41765218408951504,0.5232978925298176,0.26843468049304564,0.799016326972875,0.4623314806699931,0.6403206450210053,4.17700179590311,0.7912127823091936,0.46808853130963596,0.9562742170983223
256,,0.0,0.0,1.4918255463147154,1.4499169413362683,0.7818000466732268,0.19505041990011246,0.22289207699800623,,,0.6566669596287297,inf,,,0.8774539843064693
257,2.0331876131818847,1.8333470460143917,-3.0842431423936345,1.7674647067076172,1.6868701227599656,0.6415773692708551,1.3359101755545477,0.7968089861927263,1.3726861926975151,1.3765029947796539,0.6425374456860184,1.6855992733996645,1.081847137659202,1.0203943244708655,0.9392218990047172
258,2.0570383313743603,1.2191855649269656,-1.752318143496144,1.6470026380968903,1.633311325921567,0.6358286787172946,2.0693161814509184,1.6282885967410325,1.8692054382953824,1.9511972096488777,0.6468212168108125,1.8436845420929744,1.5997246883784904,1.431821426618588,0.8995416960651355
259,1.6008888124322294,1.6183615942320575,1.2068690613942028,1.525817640392699,1.4847002544605006,0.7633616218214322,2.6762859886763732,2.325440592540798,1.6255809861636283,1.676570947798632,0.6125606311107803,1.5758419630055849,1.3953061049178677,1.247249142968627,0.931774194042669
260,1.6547344358543739,1.5948055706484494,-0.16369194214642224,1.7201447825032068,1.689292858270171,0.5988985251681578,2.0025271930619404,1.402503382509751,1.4491151534408204,1.2385036680780424,0.6357360191111145,1.5590088803024922,1.2155373120880824,0.8845587330221307,0.9453413270233105
261,2.763480254024536,0.24917318978425662,-1.5553071621685044,1.5056070218262332,1.5001490344119068,0.7564382129540866,1.8064724071343334,1.2004810761009994,1.8151956469448085,1.2757140568619347,0.6447042257417027,2.376351243233655,1.600506623532779,1.126258280123987,0.9393230651232599
262,2.8245603146561016,-1.1487859581213107,-1.1123308049359708,1.6991972758805272,1.6994887505622351,0.4826733346028581,1.5627839631269582,1.193555091402677,1.3545673632220256,1.0930769373938387,0.6380535849069913,2.1919385729069822,1.1591996088824363,0.9057253099304571,0.8972425106784887
263,2.6487080860326246,0.483462724116837,-2.620154618803673,1.6732439988232395,1.6270022626367544,0.7694725437622368,1.8033749051428347,1.0946628173407642,1.4102552473730976,0.9004580745403185,0.6233814453054027,2.163789801249982,1.2908083571392885,0.8780035929570881,0.8733314692139605
264,3.3197491397759573,-0.5274192746704718,-2.433408805414714,1.5997138487444422,1.5877009279580516,0.5587089486609307,1.5990419183690785,1.4549036368190527,1.9168327709358124,2.275485960310788,0.6619902821573977,2.557477342622836,1.6087213233672486,1.3469634490574671,0.9490554715473094
265,3.088419037782006,1.4372376199724588,-4.185788941895598,1.6426166540891969,1.6372784084407854,0.6886633910022066,1.2547137405095663,0.692125032954098,1.0159832818703778,0.8422220524560391,0.62595550513784,2.2874775663137816,0.898339654651998,0.6627094729032389,0.9493129351176927
266,3.26767133928537,-0.7066898981387862,-0.1030487954829879,1.455392253241373,1.3980550790073054,0.8179902423913201,0.6825108647028985,0.47675918049221055,0.49795236351317457,0.5625066608877839,0.6528756675646988,2.724857319418591,0.46553903412774084,0.49493385105646276,0.9423816247055166
267,3.5639020603591733,-1.878338151098047,-1.3077864251271905,1.5853221472010544,1.5636788689004228,0.5427030350463209,2.03859185305391,2.109776934213537,2.827735301717091,2.013317947438471,0.62595550513784,3.2950371858337646,2.6031394268506602,1.820508882514041,0.9247360047933783
268,1.994336484316627,2.0091014614275022,-3.6632438418543947,1.4787349478622545,1.4460589367986803,0.7705420454104275,3.1060627989738685,2.132004111823238,2.8513760112858018,4.96033148284356,0.6207552362147116,1.973041566447347,2.552085911867208,3.448450266512701,0.877930260665619
269,2.707472806197993,0.4923649298019428,-3.1807199726224007,1.2378843838033888,1.2004345373399343,0.6183923099458124,1.569092145668843,0.6301082072238142,2.8436432682491044,,0.6380535849069913,2.630317852561858,2.5408775065468396,6.236369590203704,0.8547147862513224
270,5.059251134168041,-5.005331915722729,-0.0008336343210557659,1.3082225713400872,1.2928892040761097,0.21156970451880683,0.5159888387906292,0.46147456204139103,0.5557314178426623,0.4770367599022663,0.6380535849069913,3.544682914670912,0.5364164208011681,0.4287606707116865,0.9543167650536489
271,2.1617666397149766,1.6299294140862566,-2.3623878842282195,1.6673187185649376,1.6180585029018442,0.36853598973380003,1.203115180687339,0.7702692600906138,1.1350460620042726,0.7887337984376681,0.6425374456860184,1.5983331327019947,0.9052807445517016,0.7534831604347023,0.826295080936662
272,2.0944600638079898,1.7241688913760944,-2.851823738263822,1.5815983260042275,1.581518622407598,0.749729348366707,2.3373225171676837,1.9966858645917798,2.5986689351503216,2.4130979919120272,0.6619902821573977,2.025711219258868,2.368837940413904,2.0501711593797225,0.9382562575805066
273,1.7177106221920964,2.0582286858552803,-0.6417419346318054,1.6235696196954101,1.6179783326722201,0.3937254241396366,2.1842972748340688,1.8333672037731654,2.0882462671460726,2.144217712163071,0.6528756675646988,1.648294247536683,1.8265496742937708,1.7081625982065884,0.9060448296574984
274,1.781873817476987,1.6851717915922997,-0.3463717159918174,1.7325667941562712,1.7451254380099135,0.6486281514362903,2.8723427490544644,3.015815895448112,1.838755057965493,3.25723214571502,0.6790044388599258,1.7764111922812555,1.6004188329326055,2.4323129651001665,0.906350980202407
275,1.7887574479685782,2.211138382405918,-1.9418027651124077,1.5724360766619752,1.5609089698378944,0.7287338578563505,2.594457234955427,1.6423068199788764,2.2460585137265157,2.4523270280296154,0.62595550513784,1.7758205054265526,1.9157291772432627,1.707202081199992,0.9158017165580977
276,1.8552499850027915,2.6108414210950444,-4.07640200400568,1.285865840194163,1.2151107970492414,0.7007858563907323,1.8817382514154672,0.7630339052923314,1.0838785250237264,0.4659263613137711,0.6357360191111145,1.6775977976171599,0.9663827422451046,0.277881885125271,0.8158674261576568
277,1.9903922048658997,2.2557272581535277,-4.071314017530249,1.0970929800686164,1.0513401732019096,0.7462271858609452,2.227122648260139,1.218748477486959,1.6198261436697743,0.67584084675997,0.6180765742263259,1.907843948248857,1.4784648209195477,0.636645796967023,0.857756821984874
278,2.0706944051891294,0.48638054590201674,-0.7639850134496485,1.3821430326848525,1.3320412467904068,0.708296677456927,0.7587279411071381,0.4630456395807929,2.5965672842050544,2.550777168852272,0.6468212168108125,2.119708134908391,2.264988728321369,1.9108802977260984,0.9525128386552453
279,2.3219788896092233,-0.44123514624544113,0.0036970613331621105,1.3821430326848525,1.3738557570788208,0.6810585367870926,0.22224459666239219,0.28836903048110407,3.579409850412257,,0.663668482632973,3.139346069244896,3.370379080116595,4.897839799950911,0.9465107706624135
280,2.6806002894288126,1.9863038013628378,-4.647786327414115,1.6498379810157604,1.6124976536034148,0.8179520570033627,3.055389397757735,2.296342991296187,2.455325298770977,,0.6380535849069913,2.652142569163914,2.257140230672054,6.498282149476434,0.6409878230755822
281,4.309002437176409,-3.9725484454577984,-0.020460479659007973,1.3400127614283899,1.1920231025425738,0.47790601581365355,0.637383863705997,0.34690363103405286,2.26445329245673,,0.6468212168108125,3.8532301255866543,2.2660677930312123,inf,0.9584588299435801
282,4.046908911901787,-1.3242657008580418,-2.700644673656532,1.5831934224789954,1.470538845389857,0.6323026119226233,0.5447086809794895,0.2199804160624934,1.2843063787845366,0.5890728427642048,0.663668482632973,3.559802411838794,1.227689330943252,0.6564938629119097,0.7924637443689886
283,4.360094999248765,-1.410246328769205,-2.891604730996425,1.427883724592371,1.3953794923573173,0.5140267632506661,0.3584401156637787,0.16484122694070247,0.6626420419483586,0.6510691677077304,0.6380535849069913,3.239929234066033,0.6599456374264653,0.6596848032435405,0.9571696798445719
284,3.0165335611070745,1.2446842732765369,-3.4350501586013116,1.6432614933456222,1.6079913120863494,0.7499032141577963,1.109054503755505,0.6572016062469725,1.6355267751969693,1.0883291658835959,0.6333676938231112,2.526145397804598,1.5245013091517834,1.0746514954600144,0.9484516396369145
285,1.5429698950479138,1.8346235108060291,-0.2342218335333337,1.6623026703745334,1.6192220228489773,0.7200143149468505,2.535102212450351,2.1063859508463163,2.010039003272695,2.3242719423057934,0.6566669596287297,1.5107999425371008,1.711136115627694,1.7672639552113958,0.9227125251942445
286,1.6716615739992664,1.201017588292361,1.51494687522059,1.3847360788949967,1.3729914496015254,0.7981360227763671,3.2330186600305164,2.003685970840057,1.5691244567443563,2.9283570734709006,0.6333676938231112,1.6709587690823509,1.2064967635472674,1.490449066820708,0.9015809305160489
287,0.6503669382459087,0.16257819478231805,0.06777972544815036,0.812496764799377,0.7854926710262734,0.5366800672439757,0.9557545242598802,0.39195957570809015,2.9911118012500864,1.6799535893309199,0.6380535849069913,0.6454793390807685,0.15031598955129014,0.05598292411028206,0.8295773032060951
288,4.714490704984084,-3.6132510238266184,-1.0789557993389944,0.7328171506532288,0.7116317857035175,0.2611674226134582,0.381520799593248,0.33172259977750945,1.463610724974325,1.4719675074803418,0.6153451465759925,3.926009247402886,1.4224325063277194,1.2969492607840407,0.9453723335544317
289,2.575484898665251,1.2182494642958308,-2.6490678170800988,1.287689217371376,1.2904297890336331,0.22774272109342536,0.6881014089226658,0.5061586046129983,1.213030027432026,0.925398664720719,0.6584896970785714,1.8975645281250315,0.9942082106867614,0.7009887810112497,0.9193149578057922
290,1.6684450505077821,1.5940411561855963,-0.598925336393207,1.7343160420542951,1.7337311559186124,0.6762626366548984,1.579282462383287,1.4013785556792553,1.6654462396035514,1.5191869393002597,0.6602640781246099,1.5618654205436684,1.441227207416615,1.176809822623464,0.9462239729310751
291,1.6854645413648175,1.2691265874295583,-1.236865132039541,1.6635264811172337,1.648164391700316,0.5862579886271083,0.9917659417570961,0.6538690389299955,0.9959387420807373,0.9914304813041951,0.6284777104787076,1.344384958042681,0.7670289628804275,0.5139816020569132,0.9481913768886826
292,1.4125968972051588,0.5834598462692326,0.3796731295378002,1.3351861194913124,1.334118982762867,0.7557846221869036,2.3446161818513325,0.8914526563858933,0.716381692987844,0.41848121281830075,0.6180765742263259,1.4108147663165844,0.5695258098765694,0.35960030334466075,0.9414262843078524
293,0.5070796480277308,0.2697825433846006,0.07201075982630656,1.6028888315579792,1.4519758266792198,0.4606661471501638,0.6467434913628807,0.21576330461889015,0.6038780222962677,0.12309136269012423,0.6125606311107803,0.46897304936454615,0.16228494979444655,0.08188782790764247,0.9293084766062879
294,1.102469326189054,0.945246603593852,0.7566144620224304,1.651152296778578,1.6194383697975947,0.6999320430525725,1.336791360938191,0.544751649922335,0.9363482848893674,0.7541996985757897,0.6333676938231112,1.0272222925814367,0.6038933373655606,0.35439041374447994,0.9241288737712741
295,1.7578998464711428,1.8496366277416716,1.2816356922311742,1.5923110873911295,1.601584336551092,0.6403900261446537,2.0245152556522483,1.9674081481494468,2.059484688048633,1.8238539197952441,0.6207552362147116,1.7551061515800195,1.8264147842134175,1.4927643853792747,0.9379864706315066
296,3.715812339008068,-2.87381187527063,-0.04766014692989018,1.7000058491098897,1.660532441940527,0.4189357626533109,0.2777332623977792,0.23592746262056608,1.3581469446941894,1.7866636596713505,0.6425374456860184,1.9974724854793802,1.0018216796409714,1.0330150061822965,0.9432551567284081
297,0.8193937521058633,0.4740691136980396,0.45466239666745367,1.4777234008723577,1.3786850064134373,0.5526962960826957,1.1625000785046937,0.42886040766324607,0.4869873759643253,0.24493229216289797,0.6425374456860184,0.7989769420988705,0.3415343097009452,0.2009372215282398,0.9577013080348306
298,1.296735661404997,1.654113891021204,-2.3473885430851236,1.4452184893440543,1.4136257037804043,0.39457638725660765,0.8262356003606635,0.29718640521795814,0.45771949310872845,0.16583800756250053,0.663668482632973,1.058302425264611,0.4261684418727447,0.13991149268256722,0.8806409894072624
299,1.362903975312025,1.2812268352284646,1.547334863970577,1.4837437835902796,1.4775350384233856,0.5857132739815489,1.3422292870582264,0.5492887208002128,1.1451963364641196,1.1266094730612584,0.676637947632344,1.271498498675579,0.8765550346541908,0.649192246576911,0.8836082477568334
300,0.9716893149187634,0.43686203823902703,0.2849066817205701,1.7459373825446474,1.7209931848339675,0.3820602080109116,1.782792600425279,0.6565580257957324,0.6079905723040379,0.6116423754750563,0.62595550513784,0.9701311270195696,0.4394091159327154,0.29250040660790044,0.9358776548468641
301,1.5144186105069886,1.2112631196549226,0.934368427091131,1.7412155320926075,1.7441039044183844,0.7403412610894446,1.3157531180080082,0.5923506802838794,1.0390202429420918,1.0427288759852513,0.5641709578113449,1.3754203645680123,0.7008262862153044,0.4780815337831887,0.9454441509599841
302,1.1571388229441455,0.7126797355268759,0.6370736742104399,1.7282870685929481,1.741232653630034,0.6053761076144212,2.503139888210485,1.548336971354669,0.8814626388860906,0.9699632387657141,0.6309483474627791,1.1556765892897873,0.7041476108523971,0.6135492138321428,0.9461142448351144
303,1.1022904006480412,0.6198637207544397,0.3724056350467373,1.7303478021943275,1.721957830427952,0.6509141921639278,1.8481863014729587,0.7324119267197733,0.8154451267139513,0.6899305392783994,0.6619902821573977,1.0953509459657382,0.5667261954594248,0.3020535537436785,0.9254796063864197
304,0.969206481659093,0.42236235536383326,-0.26091706861868236,1.4327810491769446,1.3718311664134741,0.689888481087801,1.238768239916965,0.4851470721615585,0.45129971958938736,0.4333408325144829,0.5978297680564633,0.8988874949754707,0.2776502997755971,0.1300831576469815,0.9301875396146451
305,1.3963796692898058,1.1136994527880635,0.9239763580377969,1.6140656605100574,1.6196016901435604,0.6273963891952361,2.3900246514568657,1.2854464917355601,1.1655237860800045,0.8000158437840459,0.6547956803312163,1.3586791940869172,0.9121919234176006,0.582783057456484,0.9444865189691342
306,1.7490521805908883,1.5901012718401195,-0.547888770887996,1.7260499191781873,1.7137937290324456,0.7312414096305132,2.8116174102009666,1.8124965460856233,1.505224000159603,1.2132014289894497,0.6425374456860184,1.7050314657182308,1.2792115077880044,1.0111616408609618,0.9387434569626624
307,2.2481603445139284,0.7754842976858427,-1.8490086839530449,1.7169398384706362,1.7181550012207052,0.6591146765979058,2.6842482980672497,2.2727886172894083,2.3852221948270067,2.3980882824031204,0.6284777104787076,2.0890879187316416,2.136885085968896,1.8440538649105471,0.946598801705461
308,2.224779083799108,0.4967673880773953,-1.2888022335011717,1.6797071188274826,1.6624164539287838,0.6056840401355068,1.8759449401135577,1.3205967607388358,1.5150415693170385,1.074032477068085,0.6668815377411301,1.8102629407926145,1.3275450609868042,0.9512173989650816,0.944233491860576
309,2.130478294319937,1.5267381785062155,-2.2572067347520792,1.6779156164485862,1.649836595761344,0.6491498988103745,1.582589257381949,1.176760034636988,1.9781312038781045,1.5545675373161933,0.6566669596287297,1.9030635387867294,1.6804553996693807,1.324258970200438,0.9486591668417299
310,1.8301512317176314,1.7293505517392773,-2.1329814132066813,1.518426065112014,1.4934210597703024,0.6155208433836796,1.9230946183117934,0.9973443785526432,1.478370477236643,1.4708160968753,0.6357360191111145,1.6776572736334738,1.1946781217765923,0.865267558428759,0.9513040887584754
311,2.3327401755850627,1.2651399302247435,-2.961819834035283,1.4900533504932703,1.4711941922002192,0.6634169739310378,1.6083537360856208,0.7823442266917167,1.7076433332518062,0.8494542175468577,0.6602640781246099,2.1290053383590757,1.561653475654938,0.6922571048447522,0.8870325099448816
312,1.3000871067959001,1.3867705644744168,0.022027005304734004,1.7548767810098826,1.7518620461414338,0.4137914447887271,1.6122401148602787,1.1872168272399315,1.086200405183427,1.180093700232151,0.6547956803312163,1.1492391385124998,0.8465968193125394,0.757560345044048,0.9542716493565153
313,1.9118796576696908,1.7501464352786076,-0.44147599730241804,1.7279902482830534,1.7359924901576649,0.4696368480509968,1.2027267181264205,0.9074337387430065,1.450346837371942,1.762537457214592,0.6740851607140061,1.6359530180898554,1.1976604059877003,1.2376658652135488,0.9198005069767728
314,1.6779293690042476,1.6454715829399695,0.49107905250730655,1.749319653354805,1.7670323150290037,0.5485666642524868,2.124536426384995,1.7163749147704346,1.7150648725663946,1.7596600840786345,0.6068309995095971,1.6560637537741558,1.4652317427551809,1.381518682821227,0.9275415984321448
315,1.4171531208821015,1.4077836477922605,1.2002037688965959,1.772201926564508,1.7690453262703016,0.5279186800344431,2.5087273994945654,2.184058789979677,1.5459790072569015,1.4356008554078992,0.6403206450210053,1.4113614882765326,1.302539126503853,1.0006385861141283,0.9413721921331709
316,1.338025732298557,1.2690541959582573,0.6776493975286275,1.7482729987090924,1.714301703773297,0.40038912075261684,1.7337560833020964,1.669436070819874,1.4120224818219158,1.3711799537961529,0.6357360191111145,1.3234238970830163,1.1829107001186043,1.0189154331305135,0.9410191708158429
317,1.8660784854952215,2.0374838889071842,-2.3844310020407447,1.7624734564420144,1.7746075863936042,0.6078659814666053,1.7674345391610067,1.2709372520326443,1.978284067551651,2.076717516288911,0.62595550513784,1.8137324500384626,1.7263439305748107,1.4993013823486365,0.9528173969670604
318,1.2011259044675098,0.9987503558152764,-0.4059888669846621,1.7391146618971254,1.7261227765007259,0.7416930260569586,1.975493549597135,0.8124849866831709,0.9848762871209938,0.7672500785035961,0.6180765742263259,1.1755293307722097,0.7408112286132281,0.4397625230182696,0.9200469937074723
319,1.4297356010883733,1.5315906048497339,0.9699112973662327,1.729213264604339,1.728228223635934,0.46400406888872253,1.3726889869924987,0.9463356586734268,1.4647066514577765,1.3476050870815248,0.585052858160615,1.3799589169398807,1.248048576488793,1.0276521228051188,0.941347663025785
320,1.1243087094871136,1.0964299947941831,1.1873408178254392,1.7286924279122553,1.7373256239611068,0.3991152479899024,1.6146917802592626,1.035362533664777,1.0477061722745256,0.8396782629353657,0.6468212168108125,1.0931936626412508,0.8273086824795296,0.5705565241524179,0.9328558136020773
321,2.0466113848495358,0.39517996219632856,-1.505365143647155,1.6973446761454558,1.7150605527778773,0.35120307490743574,0.6752681770671236,0.41722458930542505,1.5452904459743741,1.6060155345509837,0.6153451465759925,1.6484675327356726,1.2359221534829448,0.9604940163719002,0.9500454731347574
322,1.9058717556489642,0.2414945971967164,-0.7865694099161864,1.6636809168058255,1.6283657860457172,0.4987197308692576,1.1206929265450407,0.833084398710435,1.78256322679783,1.4553342709595543,0.648888643467878,1.687039158457652,1.4793496403597906,0.9729531293353938,0.9464212789070896
323,1.170105800947059,0.9113903020879481,1.0700018073065194,1.6228235336065961,1.6107104865396082,0.5218596398618485,1.4943268916513794,1.0423137758459138,1.0459343269211254,1.2523788129580669,0.6468212168108125,1.1282470937978004,0.7822208391631389,0.7977489486983697,0.9359399149217315
324,1.3174554132302136,0.5757360161385741,0.35438643571888107,1.5795785917203258,1.5658204410764758,0.8400819389350497,2.4035451433649717,1.3802263692748982,0.7703622454670745,0.7144764128441903,0.6684167106117298,1.3151940821471784,0.569192502856142,0.34247279746258963,0.9384533041647719
325,1.30394021400883,0.4768842331126415,0.23964658936183914,0.9636936702641615,0.9450162304020763,0.7795522725636129,1.9644686130112583,0.6474906226800956,0.6130042709716435,0.7039267526694215,0.6403206450210053,1.303097658163786,0.4641643394638814,0.2896790342614958,0.8781248632094009
326,0.5769704505972317,0.17335926223501208,0.09861237059731265,1.1764457883030268,1.1382524671292211,0.4754620703053845,0.9900649926185406,0.27700938669769926,0.2195500962004681,0.1681542818394907,0.62595550513784,0.5747519866316634,0.170999288559694,0.09221617509337743,0.8053534347873889
327,0.5720948238340903,0.12837960953990157,0.06668085419422931,1.3240406802494231,1.2762496679169744,0.5948667299110535,1.01021748958307,0.25479680722179543,0.13423555158325842,0.07647548234278113,0.6509067234006624,0.5720511205160606,0.13505976706127104,0.07336287115806985,0.8098500406310932
328,0.834950864471002,0.3498441201866296,0.2803909042870447,1.4829914036966116,1.491555061044801,0.6228397564915242,1.9173900824233243,0.7835363772401283,0.41125751586917436,0.3468019956577497,0.6468212168108125,0.8348387612680044,0.3563640754244662,0.2866221889397377,0.8970549229890785
329,0.6294702653979017,0.5324180859130437,0.4567009108590736,1.6094672858295649,1.5932472034981697,0.27472464030464,0.7040367396139524,0.5171088073263854,0.5599189327469741,0.5629677670752549,0.6153451465759925,0.608356786646829,0.4124923135555587,0.3246872684453352,0.9449296107243288
330,1.072437279775128,0.7626014509306971,0.8598465915621905,1.6761540684447755,1.637138166728597,0.6770927211559699,1.882790731867447,1.4669411746345002,0.894238537083415,1.1496204325181925,0.581717464821069,1.0716458404382954,0.7635780002038438,0.8448869917708293,0.94353670484842
331,1.6748653488680725,1.5676029607649122,-0.5143988827968027,1.6411684148174581,1.624660809829917,0.45349658851630675,0.8324339644217499,0.5055469521889704,1.4712292923681491,0.9828803451595552,0.6566669596287297,1.557952969745592,1.2013905257441686,0.810272537797358,0.9375541898461625
332,0.9270916930026784,0.8059254204746126,0.7009245274825897,1.7569280426423308,1.7616186944580783,0.1178561358465652,0.853355523353251,0.7213646034168637,0.8958845524871203,0.9190599196548324,0.6284777104787076,0.8742428224280947,0.6922952556907849,0.5781889302595857,0.9166372998254552
333,1.2345011422264045,1.2185758616758162,0.766733268124776,1.7567084009124123,1.7255832622345555,0.3598401344506996,1.4538436061292999,1.2252375373951525,1.3717222196459087,1.5256071684623378,0.6509067234006624,1.2086131838824383,1.140248568116741,1.1206144704162706,0.9442349933019547
334,1.2590811497257182,1.253246092461218,1.570600894665004,1.498179271508856,1.4847221341098629,0.29804124319945136,1.623016624416391,1.4259630446291827,1.4444284798492126,1.6220904671793512,0.6447042257417027,1.256943918721968,1.212745765261172,1.303054587583719,0.8048018845743187
335,0.5239583911543172,0.339439610451305,0.3530869142080546,1.5770739640744984,1.5938639343459975,0.32119563610497137,1.4934559589027636,1.2965669985386477,0.46658572759834466,0.6523949954591726,0.6547956803312163,0.5231231515763969,0.3443509614517992,0.3575710132039673,0.9339850910129456
336,1.1714752377615716,0.708071214356017,0.601364236881309,1.2187986987222497,1.215997194940332,0.7128248858723849,2.45069558203442,2.1524242241399967,0.8597720940803353,0.7618409164767894,0.6008849035917525,1.1710396226036959,0.7134201019132793,0.6003136008257904,0.9345989675933165
337,1.3462207441318153,1.0918068908973184,1.0169444848990974,1.6506095314177636,1.6456562905025802,0.5013057957554495,2.7064771871674216,2.516858309845237,1.3053622646000025,1.8443177562702577,0.6822068148872973,1.3457924178105607,1.0975884851489413,1.0175664831084275,0.9330883345229853
338,1.2663516015720617,1.2354669995706984,1.0323187214425937,1.6508838780748458,1.6533324167733197,0.3360652338064914,2.2790904909195233,1.86105537728257,1.4425882057911497,1.2247244451483805,0.5883313578629602,1.2658088077169958,1.2386205085598687,1.0375638753507475,0.9209015025292663
339,1.218938395651284,0.7228476011119231,0.62730877355446,1.7049333497042487,1.6897077175822288,0.612258164863677,2.767992881337657,3.008770337934571,0.9627159209518734,0.9120211751389302,0.6125606311107803,1.218672916068551,0.7287272313721275,0.6332834577410905,0.8852687279414688
340,1.4231978117542565,0.9701355460082917,0.8326435810064647,1.6028793172951223,1.6165813907565099,0.5617675084366335,2.1939684508187454,1.6068871491491978,1.1463168169105151,0.9646806478783335,0.6652988471865258,1.423004450749795,0.9760915426250945,0.8315150877117322,0.9388104112249166
341,1.2974189832775633,0.5820818134641652,0.4938725772407959,1.069993025341955,1.0847445627658,0.6676789872804637,2.610921956748041,1.7637968099488432,0.7043010078886653,0.6951705282343725,0.6425374456860184,1.2965349116907154,0.5855140288848005,0.4927484865324543,0.8659380566997884
342,2.0920881837867,1.5034933167761957,1.7029304927195494,1.660339982314374,1.6531223263949948,0.8331763486911216,3.830003648147106,4.176007300139708,1.7145786011148458,2.7519023064944776,0.6284777104787076,2.0914241584500077,1.5065994662089839,1.6441234704219905,0.8608808694330264
343,1.3171063294241725,1.0266616663729178,0.9472991082430644,0.687677839241052,0.6799912121336685,0.6551893053272323,2.869971336386073,1.9685884096427033,1.2738746578352529,0.9401943705171183,0.6068309995095971,1.3168512206488643,1.0324761348973133,0.9508187820462501,0.8628242932590751
344,1.7090949966050937,1.020878559468745,0.89123680475983,1.4918018665998316,1.461947129509025,0.8308891870670492,4.047071695185011,3.689450175916008,1.348718614315899,1.5601583161848402,0.6652988471865258,1.7076634488749531,1.024508694347667,0.8959258386314576,0.606412114473088
345,1.1636499421650894,0.43368372425398705,0.2593199758631688,1.0773211108743685,1.042778790334058,0.6887025362493103,3.2451372149475595,1.119108235840788,0.6289751345186183,0.4615723645229474,0.6528756675646988,1.1633997296725493,0.4396696163106751,0.26542718946521304,0.8869905782707574
346,1.013521639777803,0.490745378103691,0.3652429793457308,1.0458709979481324,1.0077557122072383,0.6493395409154622,3.359815168082803,2.7543589043493313,0.6222102383502703,0.5928450816116783,0.6509067234006624,1.0134748886993177,0.4974257334250821,0.37195126750699437,0.6758527900606082
347,1.3804410821069792,1.0186162027259233,0.6944561629793089,1.4218020859388956,1.4281855340803464,0.5765696903955959,1.1878364775951202,0.9041748891296424,1.2474856038299813,1.1321020284137748,0.6528756675646988,1.370158579210487,0.9824340853594294,0.6667494746232084,0.9437528787618027
348,0.66319198546183,0.2830466791238476,0.17436191047971705,0.7235751882457628,0.6870550718123837,0.589252791418159,1.8624361552350102,0.999985427918783,0.3576168856086382,0.2791004305815115,0.6403206450210053,0.6631138415221102,0.2895815722458448,0.1807844102292305,0.7957874265829532
349,1.2113037905236952,0.401721584544398,0.19555964096833356,0.8260425704054988,0.8026690922091486,0.7130867598029977,3.779407130547556,1.2390400563844826,0.6152059632447421,0.35575815388034265,0.6740851607140061,1.2111839272739602,0.4078554879719956,0.20187427141245054,0.7916727695474887
350,0.749726727706902,0.4011614914479771,0.2190861708108578,1.7064353943839021,1.6445795190256256,0.6326009364515794,2.5372881233082407,1.440994497449819,0.580037202041222,0.48308172994764037,0.6125606311107803,0.7496469877994302,0.40726554281688765,0.2245933137717755,0.8655266813112674
351,0.6220176651712722,0.2190881229344086,0.08057789791245251,1.512319944747786,1.4984262578058287,0.47187438502280477,1.6429652325761064,0.9305697026702675,0.3231734642011438,0.21349765568803192,0.6699045166045591,0.6219227268318013,0.22551588420105043,0.08712924564165536,0.8156302148897382
352,1.0484849593717405,0.6356655218478346,0.4472906414277338,1.386139632580382,1.3347890375684688,0.48776495934474384,2.963159641801322,2.299143661905623,0.8135020836185064,0.9055681421069057,0.6207552362147116,1.0481726919100403,0.641933123591515,0.4526305765505945,0.8471265809215899
353,1.2791250992175411,1.094569793234762,1.1079055189829,1.5244693294244003,1.5369942284880664,0.4398902107688139,1.9653392750051821,1.8836553015926558,1.2800086648213858,1.523570673229735,0.6207552362147116,1.2753892452067137,1.0983338756206713,1.1014796741452657,0.8983623225380951
354,1.1599141199040621,0.9906775440928819,0.48120620546253123,1.5557101840552523,1.4749094023060283,0.32243879969743344,1.8448638252297342,1.6909279798503574,0.8570133257888369,0.7693317868047979,0.6333676938231112,1.0819190657264492,0.6770505806786148,0.4641883129576598,0.7709969065827187
355,3.570212240297795,-3.3698490475680245,-0.20036319272977082,1.3040089417466048,1.2167386821807868,0.38970924830875503,0.42896852557638465,0.4406005153264274,5.532748427929817,,0.6357360191111145,2.017991117141498,3.7619527184802672,inf,0.8942183425187522
356,4.667828674354241,-0.918006305956334,0.0,1.5984293827612457,1.5743457320968586,0.7775223536913515,0.4303190978124385,0.718641752625874,,,0.6284777104787076,5.538268036178628,inf,,0.8677334492263539
357,0.7296040358681298,0.2725982298190385,0.0887196592576791,1.6139184343534814,1.6301943158480703,0.5652271281846861,1.353836412070557,0.6369333235395191,0.2990940003454794,0.09926883120097202,0.6619902821573977,0.7293963132350664,0.2794666832894353,0.09543207527910634,0.8529800947886576
358,2.8888140997080565,-0.43266733122255074,-0.0007957810208432219,1.3263273074883997,1.3088243060884,0.7239688001629306,0.10551287379325616,0.14429055245516648,3.0540524454192473,,0.6284777104787076,3.721861888077855,2.9150184367688827,4.770684624465665,0.9340138001239847
359,1.41332303350781,-0.004711076778359366,0.0,0.6718315980158304,0.662428910897265,0.5633171987603472,0.08982105586139634,0.10690677874197126,,,0.6602640781246099,7.117105508164011,inf,,0.9153939627932501
360,1.3730491343698699,-0.004576830447899566,0.0,0.6718315980158304,0.6586709071046264,0.556601986607615,0.0801483310492896,0.09692024674736949,,,0.675384900321601,7.076831609026071,inf,,0.9300416197817405
361,1.2260433248707916,0.6346060408686289,0.19393325938343375,0.4033445147837879,0.3751083313892956,0.7373124427067894,1.9278641530087257,0.37323857553988504,2.271780938181217,2.7332177661796684,0.6547956803312163,1.2244022947264095,0.628878031149896,0.20235788739804306,0.7863745840513487
362,0.40988012402221197,0.11176003964286141,0.04814344994302133,1.1494238961782237,1.0260793263717076,0.5176942946861945,0.6208597274924139,0.14391352929391488,0.8115245636960622,1.5346534075176999,0.6309483474627791,0.40718324993553445,0.10856186210161396,0.03777540099735111,0.6857248958107348
363,0.2525866746021738,0.00011015108556551492,-0.0027019500395734945,1.147481180652146,1.117661428006703,0.7162219083319994,0.1112385081678154,0.14765639135625908,0.7681649786407521,1.3904051034535423,0.6602640781246099,4.30836320575931,0.6890268615869253,1.1952391243571814,0.9465456842510269
364,3.179708453049262,-1.8999693177030414,-1.157922387889531,1.6895885625728242,1.4376512201110079,0.7464139032716214,0.7245098431562431,0.2271589885536911,1.187227016961957,0.5409030230817391,0.6380535849069913,2.7653262689219402,1.161246517520937,0.561308313022114,0.8682805057687262
365,3.015456070774369,1.5168100100032156,-4.465432271961791,1.6138012400818593,1.4702964505455418,0.583219621273428,0.6170633049463341,0.2031153991220066,0.9549213131658163,0.6472004200801663,0.6309483474627791,2.448639010617459,0.9435986296732246,0.6533167577619852,0.9068524129919222
366,1.690308989676217,1.6598676303788942,-2.481798844923947,1.5977069140401494,1.5498727141977353,0.645214040157283,0.9841674358417577,0.39175022624956235,0.7225600925498858,0.4990282278619019,0.6284777104787076,1.3356434952675909,0.5160075312010699,0.2643622954427353,0.929274808555103
367,3.277059314666407,-1.9398562709644454,-1.0450004282062282,1.4342615927049416,1.3836062793107484,0.8045583404844612,1.4053721204413157,0.7186470245900427,1.6093670239788123,0.9842814507051804,0.6425374456860184,2.829276658536354,1.5752228319895865,0.9439422632046651,0.9044298408848501
368,2.5416002236642785,-0.8254568708841807,-0.3188979461960687,1.6979247425009252,1.6862802531649157,0.9238395801838579,2.884274778109635,2.6106343601125395,2.1984991029956853,1.3046311488758713,0.6284777104787076,2.698099870249042,2.0933998939305427,1.3177478185847806,0.8973839050642809
369,3.991532363257646,-1.4803543541357287,-0.1127719329175214,1.7107560409943345,1.6682247461895143,0.8713749764237425,3.1497931192300683,3.239391861268541,3.2420191884789484,4.297364919433606,0.6528756675646988,3.8548028650982546,3.110110827723831,3.7495040759303713,0.8816802140670091
370,3.0363813295048767,-0.6992128192081914,-0.11048886865977568,1.6602160226372296,1.6530713452171497,0.8575867207521325,2.9847601560951182,3.1206016393230387,5.0080516630978895,,0.6309483474627791,3.8278861262219466,4.535156385367032,inf,0.8884360639300509
371,3.6895647564822625,-1.113997158271231,-0.07446889605230773,1.7312595579456125,1.705090764836149,0.8966530816193803,3.012347373800553,3.284352865661909,3.9257603876397096,,0.62595550513784,4.009390856341937,3.734612446840819,2.9704144655697013,0.906966229024317
372,4.329959750482778,-2.096147097681838,-0.1253596715259824,1.7363423434029712,1.7163667995498457,0.9041512359658137,2.8022324653498836,2.2774173849523955,3.1432051508502203,1.1660200870512676,0.6233814453054027,3.826865197087839,2.995732273553991,1.3268709406490897,0.8873935355734122
373,2.3867163395632174,-0.42913958367310356,-0.1373837779570363,1.6970951621067942,1.6776727133505314,0.9362218732418971,1.8581221688402603,0.693212510710316,0.8369406844543128,0.49680706918774686,0.6547956803312163,3.0111843781129126,0.811099492560364,0.5145569713788488,0.9106377867123187
374,4.3195996215509895,-3.4690712840204347,-0.1881897288927362,1.6452104821304911,1.625651267398833,0.7399894202301495,3.2480225569756955,3.4073455553919523,4.343600133828272,,0.5947193981915972,3.966244559594785,4.074024559731143,inf,0.9299529094538499
375,3.7412221504288494,-0.8018064212976997,-0.14126012188572992,1.441728539693269,1.410299198997015,0.8032885235741406,1.7809280809915826,0.655450627043979,1.0573390750887628,0.90029481723011,0.6207552362147116,3.7981984113581904,1.001365912658125,0.8554279864704538,0.9189054271748176
376,3.140568009413651,-1.3565536766836737,-0.13256118466387257,1.7484098180655008,1.7129017093328396,0.9110167666759714,2.8233556256243797,1.6068222655896784,1.964384027753478,0.8922990609935302,0.6566669596287297,3.190396353546332,1.8610609350701788,0.8070315758006714,0.921338903114495
377,3.467362819842806,-2.3057838252028384,-0.19479423380152194,1.7699699781853477,1.753462442865778,0.6851990696021527,2.7307479605143845,1.6928615702855523,1.3962207136408966,0.66536188830231,0.6468212168108125,2.8238352340959203,1.3589763094485108,0.6372033909431749,0.936986078954261
378,3.4333049251590313,-1.202480761439718,-1.0948241404474566,1.6697380057126086,1.6480222040983288,0.5441948513853577,2.34387053784046,1.1590600639923871,1.3322143196942773,0.510750852309658,0.6403206450210053,3.011635845389204,1.2901429744419266,0.4883831515067943,0.9404740840678398
379,2.950574445740931,-0.5849568550292918,-0.3227647051755327,1.7476288511586422,1.7174236862103447,0.8791374290222786,2.9014592944667035,2.409189038408561,2.766350963720253,4.949126883830696,0.6309483474627791,3.678709125459859,2.6412594886201592,4.394449154672439,0.9105546850270316
380,3.527908571691942,-1.6108773062652906,-0.2665582101143313,1.763160178841089,1.7690984270297683,0.8880063074352839,2.928682770826819,3.11956192817673,2.8235298284116936,2.0525386605917526,0.6403206450210053,3.299242659139162,2.6402621490381093,1.7544880744308233,0.9305527011135041
381,3.308064935184789,-1.4521154887178467,-0.532985550773603,1.7475660802015829,1.7345886911459978,0.9048155813748959,2.570188507632139,1.2399292942091864,1.590786479574176,0.7399240137947515,0.6602640781246099,2.963157527621817,1.5306700710309002,0.7610046559555802,0.8986813963602035
382,4.051492185799982,-2.6543244920577505,-0.0701893592171393,1.7432314745454223,1.7387931544243855,0.7917056785117715,2.7569994649604372,2.1127061716257143,1.5170908071354265,0.6639741509373226,0.648888643467878,3.3270179834879037,1.464481780691681,0.6422555732635561,0.9254576254518192
383,3.0348722150503815,-1.5130758702910614,-0.7222442457048805,1.4202176991816828,1.4272161082358097,0.819566326958626,2.607389792064272,2.7550829397733643,3.247499723289717,1.3408081623141703,0.648888643467878,2.9772376909178266,3.112207264550359,1.3478280802920946,0.9059272108207291
384,2.317171563980527,-0.14240644615838632,-0.422088163169949,0.7806112780759306,0.7397269054383556,0.7712454347232117,1.6521494523625537,0.6569941144202411,2.0511206282693184,0.5973387533761669,0.6509067234006624,3.365830237824864,1.9347118237452836,0.6389627466071232,0.926488652333165
385,4.249112827948821,-1.6677936361861343,-0.1168337515523706,1.700719952835913,1.6849407912385943,0.8669675429288173,2.7874241656605228,2.0747437123633876,5.064843517121223,,0.6380535849069913,3.851136979872149,4.666056211544088,inf,0.9302662103596352
386,3.535538072059317,-1.8444305353279735,-0.5754438146950677,1.739147029834395,1.7267914988984545,0.7693018575262878,2.7039819874792914,1.8089045744622245,2.0676594422266144,1.1408427383691262,0.6528756675646988,2.7651497931427826,1.919785361314171,1.1542852910943513,0.9627329127971374
387,3.0116941553563943,-0.9980723104887687,-0.31890379349540404,1.762450833224733,1.7376132668649864,0.9138986680548505,3.0818633363756502,2.807875576528133,2.701086234597272,1.4189865890599875,0.6602640781246099,3.2487624586184003,2.560380531695627,1.3217558399823195,0.903808311361651
388,3.246630892334788,-1.6379151357982433,-0.18898925854929083,1.7365956308573716,1.7211566577490416,0.7944352880118881,3.0048171425133914,2.446001709457073,2.920345006084599,3.037822263952859,0.62595550513784,3.238795125637132,2.770607122157517,2.402430427963762,0.9483857431665329
389,3.756313822611577,-2.5691458535207046,-0.21439479250603644,1.7685532785159024,1.7671457372611024,0.8685282087428666,2.9398735160649965,2.64691539590239,2.3952084294025515,1.8739385849315255,0.6509067234006624,3.1737962400953044,2.2323538312559474,1.6447060512715583,0.9410224431683223
390,3.235275554486057,-2.492486815984585,-0.3415695556119269,1.606586670645009,1.530900296044846,0.7807046448318063,3.2600299648652067,2.9993706406772063,3.9508988426503056,2.514574120188311,0.6602640781246099,2.731489432835973,3.7416015833457377,1.9900349539642512,0.9225361847633193
391,3.6943578557096792,-3.12783137946639,-0.43864607529892025,1.7177928968796103,1.6880267563659255,0.8999022993618854,3.183782302295192,2.149868157123665,3.7404288156397523,3.334393283821886,0.6403206450210053,2.93307051242928,3.5841453086613684,2.810907586541918,0.8969727627638874
392,3.513501233736906,-3.3626593587630724,-0.06765899097287148,1.743955015330831,1.69597672170144,0.8569313674219009,2.300855105219632,0.8573992949633769,1.3332002074956049,0.8760519169744441,0.6602640781246099,2.839298487712164,1.3147960789157107,0.7734258207578745,0.8530542312778707
393,3.349687199756872,-3.2636923588394127,-0.025092430230768417,1.44703506348183,1.3698898934400312,0.9084907708614359,1.92877054206072,0.3861435243202913,1.936537917459997,0.44969780341939286,0.6309483474627791,3.094448246493149,1.8914944350127356,0.46061692818324446,0.8790800806660435
394,3.1684798312679057,-2.871536835519277,-0.19833325883551894,1.7302714689382972,1.6639411717476864,0.9127534352550433,2.6304397242571684,0.8497050893168634,1.9257731931502793,0.4794763147207727,0.6528756675646988,2.8577109756566164,1.87277051240865,0.47860474475482767,0.8727975829074595
395,3.8959216461270145,-3.1855814948391976,-0.5248652533537354,1.5515013287806716,1.4749983175269523,0.916279747064409,1.620996713350073,0.5041840919239324,0.7740306587992439,0.5005315557408376,0.6357360191111145,2.515228409674389,0.754356085185874,0.5158058596345168,0.8900325077179788
396,2.825428088298498,-0.8944886421606603,-0.052198226866104015,1.7717163898735546,1.7181758665445122,0.9095602223624428,2.7447633933271236,2.3402783074183118,2.46524393064936,1.1522752646246361,0.6447042257417027,3.4591796642005024,2.3686554591256774,0.9745596399981308,0.910112189762792
397,3.6964219809961225,-2.718199325522672,-0.6126223970527114,1.6904277491900994,1.6940171353268876,0.7442623144201594,2.9977552049426106,2.27200692036167,2.47505256083855,1.527422401437098,0.6699045166045591,2.7667391974508897,2.2539464324988674,1.4310522617613841,0.8231722978647277
398,2.9129368299026948,-1.9687444818554987,-0.26251571841271454,1.78401586835258,1.7536423476914018,0.8930640225708133,3.387579940985375,3.069363235713891,3.647341786465414,2.259517275052607,0.62595550513784,2.848270581877529,3.4473065790783295,2.2216160304603787,0.8890583009986668
399,2.789602709048491,-2.405061798254069,-0.26344493018536774,1.7535813747185718,1.6773837004163494,0.9141772770991516,3.603647648827241,2.280344787131359,3.1166327764492117,0.936803121628476,0.6547956803312163,2.5871608838267566,2.8289395183776636,0.8498009906053222,0.8244655855262598
400,3.6453817498288097,-2.402837377770137,-0.2519953590647571,1.7521488706239736,1.7269289532782182,0.8843297808892111,3.137729041917761,2.8340499880970165,3.348264078773533,2.6788771714795874,0.6619902821573977,3.1698211454214693,3.1378773760667342,2.1041341542702074,0.9236974617856418
401,3.6797569989990317,-2.850809155418583,-0.057068135409031565,1.762273445199118,1.739284773581693,0.8873933334409996,2.2732242835934104,0.8432689674593474,1.447697693153939,0.6342077876899616,0.6207552362147116,3.0956753910820436,1.4376910627770645,0.6397877697349228,0.9094374995103274
402,3.1761518148096637,-2.305324758443412,-0.11397120963147722,1.76861501547423,1.7343002882540026,0.8990654878596703,2.534135689561704,1.6050249675328043,1.048489946028325,0.6556279266644089,0.6778444222523095,2.5061983852556224,0.9988791268939249,0.614926796853131,0.9125751161732264
403,3.445493816816165,-3.0845899946552953,-0.17500686693423573,1.7577373686373055,1.7259568601158086,0.911193658957802,2.6762467119258266,1.5048088671349982,1.3054603576377153,0.7831374490626647,0.6468212168108125,2.7207977739247124,1.2560600928417212,0.7548838609111204,0.920157346421185
404,3.2232086185028654,-2.5216919019031,-0.2204057179034865,1.7624960864037555,1.7399882004773626,0.8894489215510814,2.96896938915367,2.236769423399593,5.005930851850402,,0.6425374456860184,3.099119428926642,4.842709617586033,3.4657359027997265,0.9192909907167841
405,4.031307329074125,-3.9067561252673775,-0.08398589889576763,1.6459227707349948,1.6200775408821901,0.8838807242551325,2.4204165389694996,1.1716557943281982,1.9766575547318443,1.1381388323927792,0.6425374456860184,3.235965468966939,1.904398931804101,1.0910508159675332,0.9279756304423593
406,3.0017167481763933,-2.2313004826862293,-0.25510317403477634,1.7271072507140115,1.7201360051610493,0.8580341449747418,3.191249262166492,2.5087113997180643,3.254117792459618,2.122613197949445,0.6380535849069913,2.92641352924343,3.1245651453969594,2.060749408667683,0.9139245588169489
407,3.1982404294475786,-2.78084806692992,-0.1469073722519988,1.7648176037461547,1.7571133789172702,0.8613183212625005,2.9571287010331777,1.5422079479940147,1.864332852408478,0.8621618645324803,0.6425374456860184,2.7623304080152806,1.7972292667207583,0.8294120600801285,0.9115827678435987
408,3.313879011137673,-2.723074321906589,-0.3315046664028717,1.700069625853316,1.6898625035234678,0.9220214618507968,2.7979175560130707,1.5389815702175573,1.8330360598190616,0.8492474281961225,0.6125606311107803,2.6160789225634,1.7457094498694905,0.807451951840004,0.8989679496912748
409,2.676008271289546,-0.8909512211296815,-0.05679461969208466,1.572911888518201,1.5210424522819794,0.7854769725135791,3.807080657614562,3.3865933924283547,3.158509517223666,1.944907996399387,0.6468212168108125,3.071893634519555,2.951176252003758,1.3414437949545388,0.9073157544484078
410,2.940020638676933,-2.1576232186960422,-0.027792122720478454,1.725875893718006,1.6846695600958579,0.9015153131416022,3.2781269799692687,2.627892439386999,5.676185632398798,,0.68318204999448,2.7802625352161345,5.491808198167118,inf,0.8881696750485423
411,3.4008359485327198,-1.3557919758328425,-0.06356870972606346,1.343989723804786,1.3374111332889704,0.7706266562839279,2.33358910041411,0.9618567179984501,1.9002663779909004,0.844853012186778,0.6403206450210053,3.751227782882219,1.8127927493988232,0.7315566286748165,0.9376086675595933
412,3.3500402482421365,-1.89506173802434,-0.1596591340870478,1.7086396053892212,1.68466642306053,0.8902796539552754,2.4908688896148883,1.335789152284614,1.671693322638066,0.7801924159603553,0.6357360191111145,2.9334880489697928,1.5514330088667216,0.6127256132493711,0.917033549658129
413,3.074572640053674,-1.067903776847489,-0.37714536397773774,1.6825542896407564,1.6712131875296024,0.6389838584175209,2.9183393367479566,2.8147653787432265,3.345909578911375,,0.6547956803312163,3.3454473665576634,3.2663270371579975,inf,0.9338037911912669
414,3.4027996553805315,-1.8794495598867584,-0.5281106263389473,1.7359400059600247,1.660337367118676,0.8736303612131202,1.6940215651760646,0.8253605659685468,1.0579322007843668,1.2139642306486251,0.6509067234006624,2.7154105555085026,1.0287467289104202,1.0772360100388048,0.9059341966571389
415,3.0941110931901346,-1.6811384951346036,-0.22060395341303038,1.5024930081167291,1.4361582225574703,0.7349397967732584,1.5712182763475266,0.967455721951852,1.4037524220088975,1.6655223862150113,0.6509067234006624,2.553471041656884,1.3354866908402656,1.3830423257335134,0.958101789443463
416,1.9523324577204273,0.6176199994567335,-1.2028863192980974,1.546541141510255,1.2692409633705939,0.8775114502588203,1.451707823311979,0.3312316292315618,1.3773864770631454,3.0327435328738432,0.6602640781246099,1.747615000243871,0.924746358449832,0.5504109364536208,0.9165746364806757
417,2.22684438876411,1.0652475176784408,-2.456480679141415,1.5323336445565374,1.4478378487637802,0.9322000850858946,1.450638398442622,0.2526466693918492,0.6804441958814896,1.2698053287474473,0.6528756675646988,1.856120228388445,0.510233311955746,0.26844619901842653,0.9150861887356687
418,3.71856482913719,-0.40351675147008914,-0.04271102802637367,1.701767869383208,1.6716251474957329,0.8947592969506202,0.2840205355139466,0.40208627317162277,2.9812112935619357,,0.62595550513784,4.95393995041971,2.7400529321883837,inf,0.9467859716334848
419,3.1258463478764367,-0.37891325366739015,-0.07954421068782054,1.6275354675279508,1.598386016171814,0.887402773669351,0.15702965442404415,0.20071909226744544,5.021797409693558,,0.6380535849069913,4.076504644093769,4.623010104116422,inf,0.9425589243579383
420,1.136713242192463,0.22945453231600377,0.053750683805519284,1.0011307939650052,0.9776224456504908,0.6740695565924074,1.3285054825376224,0.19718991102153027,1.56485508584383,1.2670362329902891,0.6333676938231112,1.1168780974750023,0.20437786746566625,0.04960258804938292,0.8748135127505869
421,2.033175449659356,1.7345065495302698,-3.7485642358120908,0.3782404488612031,0.37886414819140307,0.4919442258680178,2.722462476820157,5.011331685729717,1.8884096613299297,,0.6447042257417027,2.032049179377235,1.7301180705065333,7.645397699428633,0.9370664880934281
422,2.1749589745233173,-0.943049729332315,-1.105811697162332,1.6154819742445736,1.588553438750714,0.6018664083108441,1.9979452664266248,1.4008666249472284,3.250158495878165,4.878623818248517,0.6619902821573977,2.1667923702160174,2.9641290897547403,3.791736839553644,0.9021644187385683
423,1.0178217445094637,1.3992489176075782,-1.662677552639005,1.1676924078137936,1.1530486260644237,0.5674834535237493,1.9015687385265576,1.1529516000424636,1.393320629363212,1.6132413879040655,0.6447042257417027,1.0036354977650224,1.1080537914649342,0.8178391838674021,0.853302633609716
424,0.887867538298107,0.36980980262342855,0.1756954757386877,1.6160863456325592,1.4881865011009456,0.4941170597247766,1.5135264530721169,0.37828063629650877,0.5142869814813343,0.4908921741748898,0.6403206450210053,0.8868937550233676,0.3720046635780844,0.17183558395061257,0.902555494684769
425,1.7622488142542587,1.484920580663227,0.10092336286526171,1.7438988425385202,1.7114426308200088,0.9441959720835339,2.560679152919976,1.4365577424895095,1.6581391638429424,1.7928204277168582,0.6357360191111145,1.7447486649587003,1.3861671589318414,1.2573524717068159,0.9196582231317822
426,1.3537639550519736,1.1191071084047473,-0.3371698596559263,1.7038935034949452,1.6625049168748978,0.8607749153597969,1.2769407723302255,0.5895007049172354,0.9880515507138117,0.9973970951970063,0.5915533975974677,1.2545256321857627,0.639414229471268,0.491061123156107,0.926708775100226
427,1.4745786579116822,1.02733025506596,0.19064277008127783,1.7759726804082479,1.7694268458735598,0.5685340811619372,2.5291828299323997,1.023532722605772,1.1173301958205941,0.876245623693705,0.6097226960127671,1.4678901260145616,0.9323077958464844,0.6351996080853762,0.9324660129916497
428,2.132281021533708,1.5389348577511175,-3.0512291659381257,1.3625012779972152,1.2776853014062364,0.8754018356240163,1.7063523225564108,0.4476718058640645,1.0742912938597677,0.6346194854398038,0.581717464821069,2.0037158311517005,0.9805271423545349,0.45951402257471596,0.9103980052729007
429,2.1793987037080376,2.0042890064560934,-3.815872281976132,1.1922481651856442,1.1662381442470766,0.9085577800811404,2.2096726350561995,1.1235564051994253,2.189467443885514,3.7300872212531133,0.6619902821573977,2.178795441867852,1.9535971879917784,2.9313668975990876,0.8942093905560534
430,2.0000317431215286,2.3006216165186215,-3.2908105796754445,1.7111722517354446,1.6669101879012433,0.7377360978991403,0.9569751442606267,0.4040565646457589,1.8578962858233803,2.088245554445237,0.6713451011121618,1.8132555295729418,1.529672943965238,1.3541133663217944,0.9004437521317419
431,2.2795582981852047,1.3150626822878109,-2.348981002429122,1.5611360806377574,1.5258965470427281,0.6830835069471285,0.6001824153261119,0.2663084635464875,1.2478373060446444,1.988566872254842,0.6333676938231112,1.5785315827012216,0.7835676378252318,1.0304688344376476,0.8988226242235616
432,2.7510555480203207,0.7801994825381766,-2.9697145820238653,1.1200099892623334,1.0349238995851797,0.5892087638479779,0.6416940128524139,0.26458796923817307,1.3698107781840514,0.8888458943099756,0.6153451465759925,2.1055573888103956,0.9783991181584345,0.7378196206115378,0.9351053448862024
433,3.5484312869100827,-3.0187193374393004,-0.46961451521994846,1.0280135079813786,1.0049359489323384,0.69944933872049,0.8512980499261564,0.31253830663667836,2.324328386372592,2.2750817915937187,0.6333676938231112,3.268416270428337,2.1911136897034194,1.6713688701645908,0.9067597603215215
434,1.9890625168765053,1.4848017390885415,-2.2901724342717884,1.4439695646598152,1.4592446454451293,0.40768729999514486,1.5726710050620578,0.5694830896013117,1.131188175926418,0.9679485085771564,0.6684167106117298,1.7417636829068153,0.8776653265418666,0.6607313771706396,0.9585261804773637
435,1.6812122428821092,1.573057460514817,-0.4246327889675565,1.6645248926182667,1.6760159641068144,0.4783164785290619,2.696291100852431,1.8946193876374924,1.7846062120345565,2.0216620001457057,0.6566669596287297,1.6771221167900194,1.4617110004046447,1.3914357606203094,0.9237707504263293
