,bvp+eda_XAp0,bvp+eda_XAp1,bvp+eda_XAp2,bvp+eda_XCond1,bvp+eda_XCond2,bvp+eda_XDist,bvp+eda_XFuzz1,bvp+eda_XFuzz2,bvp+eda_XK2_1,bvp+eda_XK2_2,bvp+eda_XPermEn,bvp+eda_XSamp0,bvp+eda_XSamp1,bvp+eda_XSamp2,bvp+eda_XSpec
0,0.3056660119319063,0.14920052204496886,0.11204608184300369,1.6037350993180228,1.5548804220943693,0.1682734661243433,0.9645047434011349,0.9288443520565632,0.2065336379368947,0.2544122377073047,0.6333676938231112,0.3056650230309874,0.15585910347382462,0.11871112224447253,0.8503806529321607
1,4.057803891535805,-3.245575557547845,-0.049331251056908276,1.7520791132757736,1.7509192061758703,0.7796065395278382,0.9130308173771935,1.0771344852717346,2.1977358783776597,2.909988892442974,0.6125606311107803,3.0675863773219745,1.9700775891622004,2.9687036011660717,0.8918566601897762
2,0.1894806003964682,0.15108619629907927,0.1925385987000181,1.4729922928092491,1.459278672411826,0.06642030374210436,0.4805541551349318,0.43555171610878496,0.20772598090236677,0.20542477455446553,0.6038851895711802,0.18248156959532005,0.1291593106733483,0.11093647744945855,0.9855311576556652
3,1.199017859526966,1.0323408481040128,1.427861501813351,1.4072940476537055,1.384798587186748,0.39909880881022936,0.42713266622247636,0.3775614541852206,1.2902670587436196,1.4583375825794909,0.6425374456860184,1.1966662291434977,1.0286492283592472,1.2201821830559902,0.9529302878337516
4,1.7487643274755695,1.8407098669316635,1.4647390205806308,0.6212011359633105,0.6232323890135073,0.7886163514711728,0.5431481395267056,0.5395846101830447,2.301412008965461,2.508176145708652,0.6153451465759925,1.7483169113852182,1.8420252524190173,1.4786287073049837,0.9367420968423458
5,1.5688610939389849,1.9826562100570102,-1.1475072153413168,0.9959726068266487,0.9889098993309136,0.6480139021037664,0.40394474138039055,0.4257544815979035,2.2419522963406053,3.8464823316346486,0.6153451465759925,1.5680827267521864,1.9742942683727485,2.6557018013460465,0.9181518819873231
6,0.3260868186405752,0.06093213161784111,0.034182599132566494,1.5329739701789058,1.3137033565068494,0.4197356549991476,0.7570170187064806,0.42383524041957343,0.06604204889484354,0.04225970397656864,0.6602640781246099,0.3260841578092861,0.06760061176334692,0.040865919430627964,0.6341162475302238
7,0.29131979190377477,0.12465152932396528,0.08087405292014371,1.4100723041037826,1.371313076904623,0.2344868747777332,0.8288322674972711,0.7560899974944905,0.1810617207107884,0.1530272636918327,0.648888643467878,0.2913183051697201,0.13132687214829716,0.08756952198921766,0.6353941703247232
8,1.2496953610829118,0.966225418953967,0.7364188729365173,1.5704899025683599,1.5496797820324097,0.6489667164678363,1.0363556294200489,0.9082007602106703,1.169450827770186,1.365740611652759,0.6068309995095971,1.249628995633652,0.9725032174087523,0.7416708229396435,0.9539160727866982
9,0.7394653621846858,0.5277569894489136,0.3845210292043888,1.1922059747576808,1.1698530441082426,0.304260174442293,0.7402397233358945,0.6757231549538512,0.6294273474624948,0.5810073490318739,0.6468212168108125,0.7394471145944644,0.5343522419670004,0.3910925407243327,0.9547954907809887
10,1.897033326615068,-0.005564390613584491,-0.21147681271132712,1.631478710599109,1.6022144652157877,0.6515374718095588,0.7227510832663573,0.5820142950897567,1.0409861703244745,1.2952085440436025,0.6602640781246099,1.5635620436111664,0.8500787642898363,0.7076546886283341,0.94207742932786
11,0.3653768806679677,0.1935782801308984,0.14682299473176175,1.2833655310660925,1.2776204115014984,0.12716609095615627,1.0966324856839864,0.8923403805672947,0.25177781624361245,0.2439687741824823,0.6380535849069913,0.36533135036851894,0.19995045919353066,0.1526363199898164,0.7960343311446109
12,0.5623464703464013,0.2638072053865751,0.19357763832612096,1.2060430033882557,1.189094526480665,0.26993654620322427,1.2681694857795724,0.8950250323198523,0.3262172951367614,0.29910508191874824,0.648888643467878,0.562313868929088,0.2703252904494564,0.1999045293198607,0.7185594783228012
13,1.1240515830918416,0.5326736962168663,0.37745727312135813,1.523051376050251,1.5207273491949813,0.6675567999189187,1.5977075936261453,1.1738781058237442,0.6916798656159675,0.5339867450550733,0.6333676938231112,1.1239984750585257,0.5393677794011306,0.3841460496482366,0.947377949406152
14,1.2968612047164092,0.9378464658745511,0.6291724718582286,1.540058096322665,1.5408939782498325,0.5525050845719199,1.3182972098187957,1.0363407653403751,1.0355960249755596,0.7255801359022626,0.663668482632973,1.2968599960123235,0.9445254771096656,0.6358726456287923,0.9527641204357786
15,0.9545546342736406,0.5192151385449371,0.3402677690116258,1.4334056822124628,1.421322939633025,0.35576590467435476,1.65282567208257,1.1064869151327328,0.556957713485075,0.4046901617890265,0.6652988471865258,0.9545408051396715,0.5258688943364183,0.34690786515267935,0.9392044037123114
16,0.25265836785466056,0.0865875468379152,0.06467816107522517,0.8898186085508133,0.8539013326018187,0.16536507880875304,1.1041192252902146,0.7741835614695687,0.11035986682912562,0.10791389143627605,0.6207552362147116,0.2526581878644059,0.09326523753544255,0.07137812448427122,0.8471385636605236
17,0.6194885235560417,0.24891039697754525,0.14223336665065367,1.6740788204564263,1.6688026547894765,0.4359936602749615,1.6261915784629364,1.0099826273256711,0.32736963063894825,0.23886446866051697,0.6584896970785714,0.6194837516453735,0.2555850656871994,0.1489308646264909,0.7293720688397733
18,0.604197186906871,0.25314964204701385,0.15973222084859717,1.0786177705261308,1.0267855714277658,0.41106342584028127,1.4416602489373749,0.908476121178762,0.3655668385805051,0.2265577590095605,0.6713451011121618,0.6038550730811836,0.2592108975556739,0.16608244637118794,0.7337734690452552
19,2.4625921239216284,0.36589617323281365,0.58357621708755,1.3754798820529839,1.3610104060179529,0.6825388031664147,0.23559922214884263,0.3222160257061294,1.8379965485911123,1.898475511947534,0.5883313578629602,2.0519128461761653,1.631647446460171,1.7425904454215853,0.9442991391079077
20,1.8567212915362068,2.1831230498027914,-3.982491051206394,1.4009323592919802,1.4062879829095647,0.7646452000408257,0.3093903376844952,0.3058918716272473,2.5897013716678905,,0.6207552362147116,1.8565469102324947,2.1707622506534476,6.28164349975835,0.9337821493883999
21,0.4837936967095478,0.36060460905623776,0.3433480898762953,1.473025499115936,1.4633813394455177,0.21152191344936855,0.36861858516171075,0.3124459355268104,0.5052659256236858,0.5233658631754456,0.6380535849069913,0.4837510265067084,0.36703810647150764,0.3495975167012245,0.9620899246371065
22,2.204051123253088,0.7000970522162069,-1.4680027280184123,1.6301880264073123,1.6166824040284655,0.740762043059569,1.3059683775873945,1.1323637856691244,1.5439757042533258,1.0724797894015612,0.6180765742263259,1.9555340887354316,1.409652855403691,0.8846425209233734,0.9391512866417276
23,3.4993529049572683,-0.5739674318073757,-2.8871499463948225,1.5246772081203857,1.5417146150415544,0.7478702202400936,1.5906052668295734,1.3803367676029026,3.2073743771688292,4.88364895445119,0.6566669596287297,3.30316364139079,3.0354971057013804,4.375757021660286,0.9463892485442463
24,2.8026542446060208,-2.3043945580667993,-0.42178863302908204,1.2344580707154027,1.2499389548631068,0.3012185371842533,1.278257587473081,0.9259242513705581,5.2933048433360685,,0.6284777104787076,2.706384921783149,4.894517537758934,2.4203681286504293,0.7946240905304803
25,3.910686162422838,-0.5713757317206345,-3.2219898458295186,1.2798613847775497,1.1421366439397886,0.6010971242825413,0.8457105057211435,0.9620603289818419,2.6359445932487255,,0.6038851895711802,3.6897687382988202,2.587897496090508,inf,0.791310679964075
26,4.116719041737659,-1.9873441612610558,-0.455242470169955,1.6581091081938584,1.6104013926406664,0.7075484864236167,0.34092600928140776,0.4247701011628012,,,0.5978297680564633,4.239755764995958,3.948933359448243,inf,0.9451240719513232
27,3.6816046565333713,-1.948410532890954,-1.7331941236424173,1.2275257057949598,1.2304797369598666,0.6487095570636665,0.5962077163110269,0.6623373914008951,3.497376964570834,,0.6153451465759925,3.4726933833672256,2.7587218333713475,inf,0.9498535466993364
28,5.324417988281926,-5.200181568555347,0.0,1.227802977232981,1.203669446234063,0.6788537421560272,0.47459896755505476,0.647846179437636,,,0.6153451465759925,5.2548322546082975,inf,,0.9531327761053517
29,5.697610495506379,-3.380582227333785,0.0,1.5756810615381784,1.5808094879987522,0.5418943961102558,0.5030659741798333,0.7187399067326263,,,0.581717464821069,6.214608098422191,inf,,0.9553546794836725
30,3.9129135663369663,-2.300461296279958,-1.1820317777599423,1.6504488310855536,1.6078524208484721,0.6517115498802185,0.6267217867410325,0.8886936570895742,3.698598739611799,,0.5978297680564633,3.575154022124482,3.7052765421428284,inf,0.9449100735594108
31,2.3772372830827204,-0.03127136433357336,-0.20090513863602322,1.6232253682246909,1.5617521777437993,0.7437947494948869,0.9823166335685328,0.9779533267154283,1.681525434326265,2.4570461435369575,0.6468212168108125,1.962310570423094,1.4469189829363254,1.6703986122237875,0.9550212001675719
32,1.7518901923466372,1.6894224675935803,0.8231900635875022,1.6503754699812463,1.6524100536615034,0.6880942093553696,0.907526395957525,0.8708593452048279,1.945844471400852,2.7348163638798413,0.6509067234006624,1.7506815074702085,1.6837280083980604,1.9472894596188188,0.9387601378690965
33,1.4130130431529275,0.858311341651923,0.692684628482243,1.688788617992033,1.6800371878130673,0.6456779674705072,0.7621823085300075,0.6067673736163102,1.0607935995052038,1.0817436548821406,0.6333676938231112,1.4129121590241827,0.8644384627913216,0.6959680569015867,0.9626732019115786
34,1.5692954196720494,1.3894102488209872,1.4840256132727627,1.398090456509866,1.3623912399277465,0.5484924753899703,0.30851971513008064,0.3571373898770312,1.6576982178442847,2.2469875106976813,0.6425374456860184,1.5679228248250274,1.3937301350761009,1.469563918963525,0.9358897650449159
35,1.8002822612040408,1.957696120251942,-0.3376198713562246,1.6867388285571712,1.6461081544260419,0.6965177238441292,0.3186217157594727,0.3848830067618311,2.0652059330501835,1.8568736886241135,0.6207552362147116,1.7987840841650193,1.9524436987171998,1.6623757391236138,0.935937314140783
36,1.0103012526640136,0.9305698201036439,0.9318989687916279,1.3683993667210659,1.3568858560613308,0.19030042811219,0.49896804975375914,0.620716243717171,1.109724497030017,1.3421092246264592,0.6180765742263259,1.0099910970145813,0.9327463127274981,0.9270477145456969,0.9665306598933014
37,2.323086504247089,2.5458480112063886,-4.754227935188268,0.9586732714494501,0.928288630688953,0.8076887768288179,0.6029735625475645,0.7659322702121688,2.6312486890127986,5.055894859256403,0.6068309995095971,2.320749063621717,2.508954527969639,4.786101888492992,0.945431596780882
38,1.3274850538370542,1.053209203121939,1.0721574257929238,1.24134605919359,1.171876274287638,0.5624871582061843,0.6073622065839145,0.6294194338145612,1.2066455153651188,1.6076795065743155,0.6380535849069913,1.3263915683868475,1.0424520426101909,1.0461146859151542,0.9458359624082882
39,1.435454453259055,1.2107297490190716,0.5392125763074413,1.4575631320164413,1.4283154402904275,0.6655542738165963,0.3795645226498221,0.2983010257793242,1.245283527015201,2.158931529170362,0.6284777104787076,1.3887417980963697,1.0511914860488996,1.460490585439525,0.9683705096813023
40,1.6110418522315053,1.0927724884932493,1.1813713464246947,1.20880659861019,1.1815946217103528,0.5795017438147961,1.0740492447614196,0.9165117034563308,1.3186582512123535,1.1643950253515991,0.6403206450210053,1.6106608821790576,1.0975559994802515,1.1769478362659682,0.9582251684369515
41,0.5085731314911377,0.2883912363447819,0.18535921790301257,1.1533393995802812,1.0721928087061356,0.19037203153673432,1.2843921956013833,0.6465331555044298,0.38004384950788256,0.3193166300805477,0.6566669596287297,0.5085689127954902,0.295063000939727,0.19203276799935637,0.9045260377817533
42,0.552130638101285,0.2670155618026804,0.23518688551441025,0.4962719022889608,0.4842773521881211,0.2242275730403932,0.9077371167517205,0.7669183408728237,0.3304734580003664,0.3473147177614312,0.5978297680564633,0.5400256015038591,0.2449932329279687,0.19803511360200957,0.9534244959120707
43,1.4078280796359683,1.0592529603888932,1.0426367041400848,1.2753997606368503,1.2698834539238628,0.4575413148974353,1.3496575283434478,1.25879411551687,1.2525137353645397,1.5635962302942654,0.6180765742263259,1.3980071330492077,0.9790620712060739,1.0148381304997813,0.959140597345325
44,0.9673381969132727,0.6849244410289003,0.7482191201966046,1.5823351791315667,1.4925251411815617,0.5146735594199939,0.6404620130047091,0.5595292883270087,0.8740127869916269,1.297200232811548,0.6425374456860184,0.967145525925804,0.691482630699068,0.7531519548390234,0.8481720554841407
45,0.9520243774822025,0.6095204327602975,0.5228559763539826,0.9465686225215658,0.9215516017617982,0.5193367674736157,0.5476689704232183,0.38151266245840165,0.7542678483332722,0.9088549935246372,0.6333676938231112,0.9472082345089565,0.5862464809779943,0.4408663393396677,0.8750236385556571
46,0.31934976676815463,0.1605422861155083,0.13526196679723496,1.174134020417102,1.095376096139408,0.17422399761197024,1.1932664902131656,0.8365783688797424,0.18863994480380014,0.14429522670259248,0.6584896970785714,0.3193485758170991,0.1672181337281069,0.1419586200158642,0.9472385514899764
47,0.2161741180497516,0.08893657456919526,0.06367908656985749,0.8154574412142328,0.7115816361978172,0.18126831653012246,0.5102095804370744,0.3279159237353131,0.1293313976346337,0.11185547238927103,0.6357360191111145,0.21616793757778455,0.09559434243002363,0.07034443852312142,0.7757473978664481
48,1.2859213268358987,0.9328847337661579,0.8355057450578944,1.6205395198781016,1.6198570083325023,0.6668250100716671,1.2034317438055058,0.9765256286261013,1.0403518329184496,1.0144803747647297,0.6699045166045591,1.2857855961930889,0.9390157489133653,0.8346993757976823,0.9343148379773426
49,0.8192337961928516,0.46516520227271185,0.28063892951726377,1.3205901392031665,1.2691444238467025,0.2846695758554839,1.4861258953563528,1.165712565829807,0.6181320624011495,0.46134680223201496,0.6333676938231112,0.8191136090243482,0.47162817742880175,0.287089798911786,0.8135012448588528
50,0.9642311147107017,0.5550715055468878,0.3396249569861438,1.0924558043617907,1.099659594063328,0.4275638556372744,2.2333643450855725,1.770183507591529,0.6648490956916983,0.4910738618428369,0.6380535849069913,0.9641979526195462,0.5617161387659023,0.34626037703025175,0.9081890415988353
51,1.1202913420651164,0.4682994729191754,0.4197081764943722,0.8078060299429042,0.7558545750664376,0.5788910485175061,2.1832277364811423,1.824533681946523,0.576364878593971,0.6352391496268819,0.6425374456860184,1.1202786516411778,0.47498245055771426,0.42641480263080167,0.9463280393724646
52,0.6468170901709784,0.20943939676111645,0.14035663378089336,1.0776098714096018,1.0026808111849461,0.48205246040003247,1.9837400809205576,1.3319096948574447,0.2661367692442788,0.23083009538328897,0.6333676938231112,0.6468150613643616,0.21611922809876283,0.14705680755145703,0.773412980400503
53,0.9112489230973957,0.4387246724945675,0.2949612861938895,1.3754524724743586,1.3551762052749934,0.514396071257451,1.510483177562337,1.0747762385295825,0.6536019955016295,0.5215347091946901,0.6547956803312163,0.9112202750610494,0.4453426989266755,0.3015984381712642,0.9427365389339512
54,1.1609868058783122,0.780473452175559,0.9282080948184988,1.197568235346714,1.1650067094617345,0.5108936996587171,2.422796808150668,1.764199861066916,1.1382619221675854,0.9999520219785029,0.6602640781246099,1.1609842695609458,0.7871171675021161,0.9346990553367848,0.7681741447905666
55,0.7911277691441677,0.40950695976516005,0.3068063269263581,1.5529427660777306,1.5559284323948679,0.32792283624443797,1.728904084265293,1.2822671593936519,0.4667827754747999,0.490265286474447,0.6284777104787076,0.7911275889201491,0.4161841166713016,0.31350501518912144,0.7238420435336251
56,0.7973330977850068,0.3610318800579817,0.15813703705911553,1.4344301453526953,1.4291483887098562,0.4708059193677372,1.6241804851509336,0.849371210543886,0.4511091501114649,0.2000700088533156,0.6547956803312163,0.7973232128101119,0.36771381923923924,0.1648349885352259,0.7806446095077129
57,0.49886344898669177,0.24956976481989823,0.19071288392179164,1.489375486144981,1.4308817547646961,0.3662593558153441,1.242373829590655,0.8013658212673853,0.3647704814970823,0.35952534465898695,0.6602640781246099,0.49886045570771753,0.2562330530712138,0.19740027175918426,0.6830642786094961
58,1.4155791581201318,1.1092710423955494,0.8759047739257362,1.4822513516431515,1.5024091440478051,0.73300669707841,2.3088853053027036,1.7361634529854655,1.3404416109787107,0.8620669016878209,0.6468212168108125,1.4155629832455354,1.1158763806706817,0.8821680378226198,0.9530391360188596
59,1.1390888569538467,0.5721251964455658,0.40199272318426926,1.2643305093039958,1.2392068489915706,0.5643510911571405,1.3547929091085804,0.9311018182599997,0.7567771414748369,0.582084978580665,0.6380535849069913,1.1390871212338278,0.5788024994277715,0.40869011710528785,0.9477147216079569
60,1.57664808961111,0.8656989457580944,0.7698398013482,1.2911675478119502,1.2941220881464124,0.6570630533755649,2.93784225602567,2.928631852938283,1.1641583782054783,0.8768454770089809,0.6619902821573977,1.5766480896111095,0.8723767482891241,0.7765399751187637,0.8925108725632196
61,1.0272486352953742,0.4985868351183611,0.4122187769138561,1.2603486696245063,1.226055634314182,0.7100969784389822,3.1618489645956753,1.8599442147324736,0.5746207498900892,0.47131774592182074,0.6584896970785714,1.0259196032746691,0.49398234384857637,0.39485412481408044,0.7353408049566544
62,1.459891699039109,1.2318199253393662,0.624788066085554,1.1957052383935618,1.124431715516774,0.6376349139884999,1.9706035570454536,1.782366668737291,1.3490170035961064,1.2056062619265016,0.6528756675646988,1.424388597874906,1.181857403772255,0.9523852213011701,0.9600926823626491
63,0.84797342944271,0.28365673142376224,0.1302785784473952,0.7307242664320095,0.6903275930263307,0.6663082111922052,1.5231665685520483,0.9193000045639634,0.29008193490079637,0.16682912468487968,0.6284777104787076,0.8479313943608118,0.2903577114601963,0.1369808100166177,0.9609582824630227
64,0.6798658657566601,0.31094561954476085,0.2408690970545635,1.0550392963486053,1.0264567232910238,0.5265086926109281,1.404040448579885,1.4250031712240794,0.41311025860476974,0.5882864284683611,0.6333676938231112,0.6798580951226082,0.3175824385091299,0.24747001265367022,0.8280277065338714
65,0.9160357930351978,0.5595008233102118,0.42438140932108137,1.2981020309154665,1.212394458169113,0.641401477919054,1.3854365708019498,1.4191357284868984,0.7504490135180765,0.8604086023847982,0.6097226960127671,0.9159019185829514,0.5657292893634925,0.4305648144035578,0.9236149279494628
66,1.0588155864193558,1.0517291558828457,1.4477509940556201,1.5853508349942427,1.5405021562331154,0.47752632174387993,0.9835387324029132,1.0882260871288136,1.3029082445035256,2.4588157750411437,0.6509067234006624,1.058782786505494,1.0582452488364487,1.4478654389910024,0.9348714251362749
67,1.0404169899935178,0.5679836901228568,0.37817711131584986,1.6084663015308858,1.56920439295155,0.7433148858850709,1.6350446374242216,1.3630823400224432,0.7902307927527809,0.8220937886559169,0.6566669596287297,1.0404062756037478,0.5745468175184628,0.3847329616151939,0.9548304049691421
68,1.2549986289952002,1.5032611031106995,0.7457730152660917,1.4762627598384899,1.467731194622583,0.4148929413055283,1.0472316821381018,1.2085022539922663,1.8399546793109547,1.6010099830813247,0.6309483474627791,1.2549542565031166,1.5098426784849819,0.7521854796677674,0.9561022742290289
69,0.8639086794739802,0.6168498712869578,0.37965136821263235,1.5670085189268768,1.513414649215356,0.4805092840520815,1.1517021118629631,1.2637442292218146,0.9279142328220884,0.8588846845360202,0.6528756675646988,0.863856422025734,0.623314694684181,0.38623234155865027,0.9492965418333531
70,0.4175327635104435,0.33680825041472623,0.011111616289095627,1.175379944328116,1.1315540457418471,0.24574112842330115,1.0243496491626531,0.7874207745372042,0.3026202783278617,0.27352296528012654,0.6699045166045591,0.3806099071099882,0.20179128551579303,0.13330975700961362,0.8010212988784067
71,0.836788489300187,0.7307053020367248,0.40478700318850924,0.8054806685649555,0.7811295366426455,0.2856780289671737,1.2000248135741645,1.2468469368584003,0.9197588874468317,0.7870318441485441,0.5978297680564633,0.8367353223982815,0.7367457445168715,0.40637661188431107,0.9568499299351035
72,1.5731596581381269,2.5132504850142734,1.5893541230150987,1.600580976708236,1.601189703836006,0.5378499388566027,1.3359497052204798,1.5877082471580384,2.6634892797409844,1.460926718495889,0.6403206450210053,1.5726774882685308,2.5196690712908967,1.5786460922737826,0.9412987630450519
73,1.171431354150036,1.0462000002382768,0.5838405151479393,1.3730040522484526,1.2871669821830447,0.4819800135502612,1.0936190494597513,1.1460051831247753,1.3770396065543558,0.8215728722470613,0.6509067234006624,1.1710396226036959,1.0492488943310752,0.5929370317847401,0.941046759738229
74,2.0912441879991275,1.981468340168767,1.6243809583375102,1.28905855337324,1.2772579238738913,0.6116886731977799,0.7708310519871933,1.1470447184562365,2.0080903471498806,1.5980286818619638,0.6153451465759925,2.09097445749356,1.9868408027773299,1.6326562025361075,0.923892352911219
75,0.2998616449979528,0.07978497511222549,0.07667868170573783,1.4392391453480295,1.4121449744216887,0.2767903888131952,1.078206863174897,1.0459179932641227,0.12286183341482936,0.12724831085074137,0.62595550513784,0.2998596224579369,0.08645666681146653,0.08336739116541193,0.7655879639548095
76,2.2771183306015232,-2.2771183306015232,0.0,1.4616523599487747,1.4497465467436788,0.7967241470020809,0.9309484226150005,1.2872651953860026,,,0.6425374456860184,2.2770256475397743,inf,,0.8957313211518083
77,2.349119519801784,1.9650296924690123,1.3829442742346085,1.512085876888798,1.47673695633798,0.7238251328597095,0.6216332782010915,0.9591262251736657,2.2528531521588206,,0.5748741956352443,2.348978132563756,1.9718488822380689,1.3896444480051726,0.9188918669752997
78,2.1484344131667874,3.5520091602238995,-5.700443573390687,1.596292572646482,1.6119642809910213,0.7498124969308644,0.7381071420131263,0.8785251789841013,,,0.62595550513784,2.1484344131667874,3.5586869627549285,inf,0.9428332952402672
79,1.9425823589626383,3.0647140338681034,-5.0072963928307415,1.561386715898506,1.5632786221405623,0.687541431945773,0.46909877773627506,0.5825662133576072,3.757861214428048,,0.62595550513784,1.9425823589626385,3.071391836399132,inf,0.9355513512676801
80,2.033178732380452,-1.2119041321413195,0.2254168741341016,1.4057287933778384,1.4011188849694993,0.27353622645709913,1.7151808218312385,1.7052024697592891,0.8544663771531743,0.823317544820014,0.6333676938231112,1.1754933330040673,0.6146008569049265,0.5583021752289643,0.842812255570703
81,2.291478551383839,1.663961729981215,-3.198677531058978,1.229383465476037,1.2310368653658668,0.8584186005390891,1.3856445495420422,2.1467714684025196,2.603924991911434,3.5981936242702797,0.5783247308855777,2.3016965989329305,2.4225074046131967,3.4252644077447925,0.9486762774855462
82,0.251957906040894,0.11675193531035011,0.09558960432172875,1.075898310240871,0.9784403378248868,0.22229705877122555,1.165384946910458,1.2408449056917976,0.1621608123457082,0.14512054358645754,0.6528756675646988,0.2519431973433202,0.12333223960178652,0.10220496270619303,0.8260940032667186
83,0.2923166562531756,0.10042469781474767,0.04901221853582938,1.2144238529370746,1.1422667510455364,0.2814687273206636,0.9726480253092603,1.0044094771368384,0.11611867245343203,0.07904529898352598,0.6180765742263259,0.2923150101755085,0.10710175939845251,0.05571138355330409,0.7977675977044888
84,0.2966107031960824,0.05672533947713543,0.020747464693778472,1.0627165876547444,0.9103240261757467,0.37237226934755724,1.877276452942813,3.1837068408650095,0.07111407692923497,0.0410847278256424,0.6309483474627791,0.29661070319608235,0.06340314200816476,0.02744763846434245,0.5875469066455772
85,0.3327732882758491,0.08914713869977392,0.02891044191740355,0.9398313140150467,0.8788304246571677,0.3492075386923231,0.7675128218262988,0.44654695041799586,0.104980961771077,0.03429729146115523,0.6207552362147116,0.33277242271472374,0.09582484945048717,0.0356098559667164,0.9148326388561734
86,0.48877444948095766,0.20101160726257444,0.11693316505780604,1.0751861372083076,1.0641480374199839,0.42538096338501913,1.3579989056221269,0.6849933584568704,0.2281543296091531,0.17614385625852313,0.6547956803312163,0.4887742559044715,0.20768952962551698,0.12363331851115739,0.7469210710905125
87,0.9854799842414047,0.512042067087004,0.3309829008210414,1.5442674915864263,1.4813629245609206,0.3849328713073639,0.8029947066153622,0.6215003936847542,0.6137486696564758,0.6476820423603319,0.663668482632973,0.9854621907354537,0.5186152060408202,0.3375728420652459,0.9542835902283852
88,0.5984913142459825,0.2196361146251148,0.12631404606868513,0.5158955126398994,0.5157302843990306,0.4510069859360365,1.430998445610439,0.6405676319880105,0.30137146182563856,0.1527506565986963,0.6425374456860184,0.5984836744504544,0.22631729745166596,0.1330064401749683,0.7235508143385676
89,1.1617705683214226,0.7020782283283171,0.4160571057292335,0.7566768758956282,0.7147972978774025,0.627907173449826,2.78512495365365,2.277841305402046,0.8423966359243579,0.49498416549120783,0.6619902821573977,1.1615875878296231,0.7087822819803432,0.42193491377652287,0.8945270749706337
90,0.8006128547828828,0.5871964850555296,0.6153798792033287,1.7136556217224617,1.6236260551737147,0.44381182101650857,1.8729385335731215,1.3477426050749313,0.6844103435938627,0.5619217824198687,0.6699045166045591,0.7804252597781195,0.4746849056744866,0.3215916890446693,0.7534583632511334
91,0.8420766066441445,0.22637158912702282,0.10065097631394959,1.4220413359532698,1.3423195432361215,0.5939563189100975,1.7351597670828307,0.7422609084477674,0.2664283944493964,0.1350512755901839,0.6380535849069913,0.8420081717871902,0.23305036392718415,0.1073702390468459,0.8395636420327093
92,1.0797977684696134,0.9548144613961438,1.0941339231474547,1.0213962523573958,0.9237253869548583,0.27546852889411033,0.7445137161913472,0.7760133830513473,1.1008059095245002,1.360374140902715,0.62595550513784,1.0797905344275218,0.9614564614543448,1.1006677878502058,0.8597896093699763
93,0.36055721065756063,0.10145956387807825,0.06760257603734648,1.0886652595342694,0.9657793158494126,0.36337430205886767,0.8273789327141494,0.5503375719800195,0.12961638801943148,0.08796375762917255,0.6380535849069913,0.360555479359556,0.10813345891564388,0.07429645992237985,0.8076226231386939
94,0.2746126701606818,0.10319780010276897,0.0729350655393719,1.0603485268103685,1.03733594852007,0.17733156971232047,0.8667725956500735,0.721943740416518,0.14821158371597415,0.13819485207638973,0.675384900321601,0.2746122996894022,0.10987440203357043,0.07963205517903475,0.877081700505985
95,0.8873760288758372,0.4178023629575107,0.22473168315849912,1.0491071278184274,0.9947287941855303,0.7200810332916342,1.33723951727602,0.7824310783433941,0.5286054630972199,0.3242290814704916,0.6207552362147116,0.8873524025607812,0.42432935185006354,0.2310325259803474,0.9328725127908734
96,0.9248885294744722,0.48970884018486194,0.2687855655591429,1.5792018772522762,1.55808693800251,0.61740915589549,1.714052922540218,1.3124682841815807,0.6108176772648043,0.4875016191789903,0.6125606311107803,0.9248550792019331,0.4962607968599937,0.2752122085861868,0.9438159772947741
97,0.6279543025841752,0.18876357587620607,0.13246912797041055,0.3736194676574701,0.3539341876076445,0.5992997246931773,1.8870222790351636,1.378540012315783,0.21151787813244438,0.21491025501081346,0.6447042257417027,0.627921395642238,0.19520792803108855,0.13894360085595636,0.9173979912471748
98,4.494977927002395,-4.146651690176096,-0.34832623682629893,1.343998896772897,1.3261235495880894,0.6122776462247274,0.9901396068041435,0.8179093569506116,4.107313757074868,,0.6153451465759925,4.249050951983082,3.9396381724611196,inf,0.9618031004900752
99,0.9126342108365824,0.6464670995330957,-0.4578691620485871,1.457225878862518,1.435081103347922,0.28499512201095356,0.9743595623466722,0.7141816363550485,0.37612622660954587,0.27374070630603975,0.6566669596287297,0.6857964854595632,0.27462030445714725,0.1746174653853668,0.7416384246466802
100,0.5856090757580009,0.25258587650118547,0.20682509994023468,1.6020524151326154,1.5560566550157684,0.4259827521993335,0.5830349913467343,0.36723421767584996,0.3759049972158464,0.49280541556490004,0.6403206450210053,0.5850304667084021,0.2569003406277149,0.2090983945938352,0.9538811139765772
101,1.159230166210259,0.8860670673838011,1.053427031194191,1.4957186683851333,1.4635146691436864,0.48764918334201385,0.6967075860058316,0.5763421684074956,1.0965131024518329,1.3611945988040426,0.6357360191111145,1.159105669097072,0.8914245290883438,1.0594912217707029,0.9456890935339406
102,0.3955147772549963,0.0684868333057409,0.03459484467884161,1.6896669570710947,1.5040800652032793,0.47327395086861673,0.8867028820287043,0.4197640795686989,0.07382017928110354,0.04597497967721956,0.6447042257417027,0.3955147772549963,0.07516463583677017,0.04129501844940547,0.8861670126340783
103,0.7343185521639113,0.42888531037323263,0.35375856837614506,0.7030716084519502,0.634260861688329,0.5011876668236251,0.47588122539448424,0.28565856428102515,0.6337021553563592,0.5949501052392121,0.6153451465759925,0.7342933016776252,0.4354212244836332,0.359783247961927,0.9372585108721666
104,3.088806884000907,-1.4482810769812657,-0.8298720934815083,1.65901399159892,1.6337887647729337,0.7315296717535409,0.9585384794470863,0.8923726509305412,1.7304696347349848,1.879131851341466,0.6602640781246099,2.5064708277038408,1.4206658155343534,1.215127093336498,0.9596585116353102
105,0.4863499637713527,0.22410301097526347,0.18572821201334688,0.8113466359888356,0.7902500657552071,0.3378227693538638,1.0703858667680424,0.6253659384969898,0.21378118341251143,0.15498626970534876,0.6207552362147116,0.4697369981283048,0.1843390531150362,0.1234193888867504,0.9654663002459833
106,0.5256729726635957,0.16494066975266986,0.13115492693857078,1.491025973185664,1.484778001515893,0.3459946398643514,1.12334971155687,0.6507055803537276,0.23314385734481177,0.17689309431555936,0.6425374456860184,0.5256572934365703,0.17163178629071021,0.13785698774816685,0.7724123545536381
107,1.1370162995467372,0.45255340967063806,0.17569814456370358,1.5954406412346644,1.4387844778153607,0.7890952206106492,2.048780244611867,0.6157414237394381,0.4860695256778254,0.22386968246209912,0.6333676938231112,1.1370066766554214,0.45924083509298314,0.1823983183342675,0.8788607671482891
108,1.0423971084009516,0.6396852312389019,0.3359869468663046,1.4862188444693083,1.452581377936867,0.5655354320258807,2.66830341190224,1.8884701321996138,0.7428921891278611,0.4416812054085613,0.6619902821573977,1.0423894975718317,0.6463321513680423,0.34264956430969806,0.7314502070110395
109,0.6720108950292731,0.39491676257303543,0.31348850182980037,1.3894081167670247,1.3997044654564623,0.3276674338289305,0.8597347389553894,0.6713930996793664,0.5207182207820893,0.5326334600696798,0.62595550513784,0.6719947021955509,0.4015998234972711,0.3201945171893293,0.8929939761930827
110,1.1007489091528115,0.7321688485566025,0.9265498775145753,0.1711888577982404,0.17147747056993448,0.3661490321388084,0.8203995902373935,0.8083794888741258,0.9036847164177267,1.1396900072602576,0.6068309995095971,1.1007144967599798,0.738416143884093,0.9318593602320112,0.9511434134833971
111,0.881229680332937,0.760977200739318,0.5586257212884798,1.7754796472324041,1.698515611390589,0.4018005441955443,1.217407488018994,1.0445572829553507,0.7798157474111187,0.8488340536625009,0.6207552362147116,0.8318729932362537,0.5551327319541826,0.4854577814525813,0.6130495621015679
112,0.5899101280355306,0.2715091483965577,0.21425747161622932,1.3586883144359119,1.3484472447594664,0.39869802861755355,1.5758692493729936,1.2469569354576695,0.4096384147847098,0.32132282572881254,0.6008849035917525,0.5898688311064436,0.278081573209334,0.2208105683019579,0.8390838896160403
113,1.041386042379134,0.5481836668382414,0.30086128751770924,1.4823030961314068,1.4754588141601515,0.7227795120744622,3.2354310874990766,2.4248321172717344,0.5810710880349691,0.41133726157913986,0.6403206450210053,1.041381655213838,0.5548658565345664,0.30756146128827344,0.7880171013766127
114,1.495978687250355,1.0600032598152478,1.0616699977599655,1.680012714217039,1.659921056697349,0.7405414974700801,3.043072620380566,2.865421808950075,1.159960706992937,1.249412881610086,0.6447042257417027,1.4959604286743267,1.0665474671372255,1.0685220253156098,0.8526462784468969
115,1.469675970058942,0.8985630931565411,0.4384826653937566,1.0268850479582567,0.9625217070619357,0.7305221512145835,3.6389059086680295,3.909959321039506,0.9726710653102627,0.7526505785635368,0.6447042257417027,1.4696759700589417,0.9052408956875702,0.4451828391643213,0.8725700766731771
116,0.7065702008920861,0.08859859406017112,0.034390241097564944,1.4434444200855718,1.3017241573676717,0.5473659113276033,1.0741553033164604,0.30749388943847955,0.09603357254768913,0.04015505931303962,0.62595550513784,0.706570200892086,0.0952763965912003,0.04109041486812896,0.6856843444376722
117,1.335412232027689,0.8412537159676885,0.5708248048750404,1.0857579400656034,1.0859152238129246,0.7056093924023015,3.426492414815536,2.629742825782762,0.8997357869450344,0.6416679833887476,0.6357360191111145,1.3353900312581233,0.8478330264422826,0.5775249324022534,0.7451723239167864
118,1.7697448932722653,1.0818097844405465,0.8628851221694571,1.512905852515753,1.4944107982972634,0.8430486988716877,3.8280363419483856,3.9894549108669084,1.140291152313208,1.200219553840774,0.6447042257417027,1.7695414606616222,1.088363107097041,0.8681000189942021,0.8758297626847834
119,1.0168777421019592,0.6309569103181012,0.7223591702265824,1.1642310899684742,1.0896055319024527,0.5606116799954263,2.0171639893559887,1.3979296742921852,0.8876487126873912,0.9165256077589036,0.6619902821573977,1.016817271032992,0.6373855843209201,0.7268243750580604,0.9568329195407749
120,1.1044079823436288,0.6756676657549692,0.5158204567446507,1.639674032758407,1.6817997004903351,0.4819363922382902,2.243092774806572,1.611959792813484,0.9584617669071239,0.6385037992871128,0.648888643467878,1.1043956467571767,0.6823099481681992,0.5225684862194662,0.9495174822617659
121,0.2780718438361248,0.10720041217805415,0.09352252787744952,1.2220336686017095,1.1388392904471032,0.17630325464249433,0.37704580125138326,0.3074363501309961,0.2580472108625357,0.27975259524837204,0.6584896970785714,0.27806916558972566,0.1138711495875268,0.1002089507353063,0.8408394297223943
122,0.5084618134723947,0.10438542468590772,0.04729364593347274,1.2050578384739123,1.0715191751230528,0.5085815197048978,1.0284787046366985,0.35513417780133816,0.12939048207180714,0.09363509958131123,0.6652988471865258,0.5084580582919125,0.11106698239741916,0.05399381970403695,0.6425054112818412
123,1.1139760460167911,1.2191716973874207,1.4180355940458793,1.6027458221847086,1.5829222124512836,0.25212125082461295,0.5421088004671337,0.6171147221642942,1.367604907349432,1.4730599153550037,0.6403206450210053,1.1139628411730538,1.225862704762188,1.4247357678164427,0.9452827348194178
124,1.4745520394245486,1.518764314422281,2.0106299520986304,1.5817309986384467,1.5618214953661074,0.4457537144349142,0.42118534273761815,0.44814596352772046,1.7410183290679564,,0.6333676938231112,1.4745185945347297,1.5254448399915295,2.017360847720793,0.9468911422229505
125,0.26782417335959835,0.06715781107666946,0.05190777891563597,0.2869572707167235,0.2627046959646866,0.21281524263958493,0.5309383240949725,0.4076786866366918,0.12555569370567418,0.13590606903985594,0.6333676938231112,0.2677632572796753,0.07358529370521186,0.05820075669397299,0.9392781824088812
126,1.372766638880615,1.2227284296123573,1.4186278097485396,1.640446141384287,1.647295710810888,0.6221260143748538,1.902193240106365,1.3344077337978575,1.2920496616396426,1.2761151397912058,0.6425374456860184,1.3472873460120856,1.0516862857841869,0.9370604239594696,0.93999657939089
127,1.4164630773882367,1.0481435435486282,0.8902698601386656,1.4689505422568547,1.46291300789446,0.6680790518397336,0.9246322295151269,0.6764091381690457,1.2471607670887137,1.0614464961495298,0.6468212168108125,1.4151511875818725,1.0470811451672555,0.881639982293758,0.9556202890987346
128,1.3186865577929097,0.7491055850310393,0.6727089308579375,1.0650412174173982,1.0510159765648373,0.7169242958248816,1.1029729129675707,0.7889142797976898,0.9495483318862669,0.7215306071263476,0.6566669596287297,1.3186357126460757,0.7557519547310813,0.6791830490268624,0.9550961543558185
129,1.5409914648014524,1.0178200804626374,0.841988305361848,1.6088206814512729,1.6096454612831188,0.6458352750667407,0.9769497803746818,0.8583366747050085,1.1427473420060594,1.4093429535965385,0.6619902821573977,1.5409488715521789,1.02430053091836,0.8476832354100375,0.9489638558648236
130,1.0989590040124828,0.8516178423722534,0.8290828928506235,1.4609897523349311,1.4453836278001033,0.47231595670821547,1.1741278329667846,0.9789070262741593,0.9800930663951708,0.9100378853309118,0.6333676938231112,1.0989123336771118,0.8580362936045971,0.8344831827595524,0.9519723786648405
131,1.482623822903781,1.133805717231982,0.6987603144780365,0.6050162134367989,0.5622999348292248,0.7081474268619217,1.005360458687671,0.7838116346482813,1.2967244498798596,1.359261758716251,0.6403206450210053,1.4826094901610332,1.1403339243106188,0.705003505450911,0.955349389801881
132,0.4814957674988144,0.18419407063290605,0.12350560794538368,1.5950568124074866,1.603836026828212,0.26268048674821487,0.682171893532377,0.3121991180625815,0.21791443105083827,0.17067214517099408,0.6097226960127671,0.48148259453208025,0.19081675351502705,0.13014200077331517,0.9567153146065168
133,0.5836991037941697,0.20630188930917948,0.1389418196030744,1.512905644671989,1.511446687759687,0.4228060226792202,1.5511302148847008,0.6361495045106633,0.3026626166052775,0.21307699816351494,0.6309483474627791,0.5836950469988655,0.21296250993074478,0.14563497748354576,0.7456419578031485
134,1.2513274732231707,0.4797797816808136,0.20597053691843792,0.8119089022944413,0.7973240255009195,0.7076838429602257,2.614258750977722,1.0919785391079735,0.5371231916287823,0.19510085183855627,0.6447042257417027,1.251297376333758,0.48647908569624243,0.21266616542660985,0.8268014779224258
135,1.4552872326068422,0.8778605107973696,0.7248884134859344,1.1416066388629078,1.0985004537899445,0.6404151150986656,3.1861301397438733,1.977338389689387,1.0671025104358989,0.9774791661264444,0.6380535849069913,1.455287232606842,0.8845383133283996,0.7315885872564973,0.7573021367439238
136,1.0327066828852232,0.27324669873405516,0.1425972633904855,1.3304672309680021,1.1974092725964063,0.7025432823265251,2.057796088700155,0.7187506979931153,0.3419071936809841,0.19535219580193405,0.6528756675646988,1.0326997119773946,0.2799312202279241,0.14929735106279698,0.8266995352340311
137,1.471622476648429,0.7064542795708701,0.3409628999381602,1.6050066842593689,1.581256584783453,0.6923714636369839,3.4350585573882224,2.6889077370640098,0.7630974639521872,0.32689159998529493,0.663668482632973,1.4716102066387726,0.713093090143775,0.3477143356765045,0.8607950799802386
138,0.8285851514550495,0.16232822062330288,0.061789215285679266,1.6250571156230893,1.5139393640598218,0.6460264354503983,1.679072851454798,0.8521065296671955,0.1623282206233027,0.07145112619741624,0.6233814453054027,0.8285851514550495,0.1690060231543321,0.0684893890562435,0.8959315319382875
139,0.958850346292951,0.34714407242529655,0.12841919074584163,1.263888224806646,1.1652613782270733,0.7020077695145583,1.9394042159090326,1.036688591817649,0.3626230982471997,0.2009230626777848,0.6566669596287297,0.958850346292951,0.353821874956326,0.1351193645164053,0.8486374515359678
140,0.42108808232814177,0.2194369901322627,0.16172135060987025,1.1371558822319292,1.1138929410357252,0.1543173134741119,0.9474837286345535,0.8290830099847457,0.3770347587439381,0.35574885700159536,0.6207552362147116,0.4210864890111212,0.22611053522260582,0.1684191539733162,0.9728690583491979
141,0.4515090466095711,0.07845053174296351,0.03133547110260804,1.013776954029466,0.9839627882255575,0.5141835156055425,1.0553901698230586,0.6436275249418322,0.08987922756658628,0.03771139991249172,0.6566669596287297,0.4515090466095711,0.08512833427399276,0.038035644873172035,0.6958031446834457
142,1.1338236070150778,1.4124853036368474,-1.6340823171540444,1.5663848248727268,1.4502217830472486,0.3707816636104389,1.5140942076504287,1.4657189573152984,0.8911322625177066,0.5533595910467474,0.6068309995095971,1.040594984520804,0.7485013672877673,0.4640638578579514,0.8041599082645328
143,2.3849398312831567,1.8699648777734632,-1.5723639544698012,1.3206059747199639,1.2752691710524657,0.8211308105085935,0.45189096930649053,0.8153588584407918,3.063853448617055,2.080213382747973,0.5604843169999094,2.338097136217635,2.6758770591441357,1.510788831364261,0.9375663656994937
144,2.2496441410338317,2.273918479023269,-4.523562620057101,1.634735391717323,1.6015212817999238,0.9317830061203201,0.24564493736211593,0.49090091820119763,2.5808038457933713,,0.585052858160615,2.242221943266955,2.239747808934979,inf,0.8964064497512129
145,2.350956802389734,-0.6801518066847814,-1.6708049957049524,1.714629979893138,1.7055037330198366,0.8930920306879949,0.19605202809539868,0.3865227190226947,5.3613988084318605,,0.6233814453054027,2.3506088842355766,3.8979007658622966,inf,0.8818183640901254
146,2.8210318386053626,2.186264554225379,-5.0072963928307415,1.6693424523272666,1.6353302237741394,0.9115923703629177,0.24876274055588996,0.5041466729617812,2.879597878143132,,0.6207552362147116,2.8208456952475545,2.193128500114216,inf,0.8873034750586162
147,2.0478392177779665,2.083466616325667,1.565787652401771,1.597526007090988,1.5998888448862743,0.4037084087307261,0.279773178236289,0.4872130675954382,2.381534031988939,1.2678749444498214,0.5783247308855777,2.0476845100666443,2.0867878432462357,1.5759991094941177,0.9247240404091168
148,2.4953842950481993,2.1064469896743785,-4.601831284722578,1.626806502175657,1.5860645371127482,0.9053028624152579,0.3289652662287999,0.560666227358144,2.6159451936775207,,0.6425374456860184,2.495226382194855,2.113282705058751,inf,0.9232612492515894
149,1.9349949633690593,3.012634323251785,-4.9476292866208444,1.5243105496862093,1.5106071291436807,0.9239779286010291,0.46350130654070903,0.7181752027699959,3.0509298747410494,,0.6584896970785714,1.9348603128687285,3.0081163327537124,inf,0.9309269914897959
150,2.5257286443082556,-2.5257286443082556,0.0,1.4906930586684626,1.4616774800557386,0.9046228911329103,0.624315209260332,0.8810176259062948,,,0.6403206450210053,2.5257286443082556,inf,,0.9232557077071677
151,1.8101564302835542,2.503992781987242,-4.314149212270796,0.7892911683185074,0.7261611022082112,0.46463753875387903,0.9222286856668656,1.3077731759736602,2.515796822229089,,0.6038851895711802,1.81012712658624,2.5106998882155853,inf,0.9414453081344466
152,2.2380465718564744,2.769249820974267,-5.0072963928307415,1.4326086842154324,1.424160770494898,0.8981491805768528,0.8817687083794794,1.2816322821693413,2.7692498209742666,,0.6333676938231112,2.2380465718564744,2.7759276235052956,inf,0.9055827196279731
153,1.267877135541429,1.001540187264515,1.230451586363241,0.9621327746317182,0.8974215676668182,0.2705327901166931,0.6943841927170897,1.0064307142781526,1.2097421963971293,1.274580167423741,0.6357360191111145,1.2678202063166812,1.0082311515655091,1.2371955275885878,0.9625762181427381
154,1.130159636651692,1.1709413449659325,1.6112369991287654,0.433921597389847,0.3522845098626408,0.12826909946891832,0.6452790336411778,0.9247762821389099,1.2763291249541133,2.7129584707387897,0.6652988471865258,1.1301373560759669,1.1775719544355243,1.6171738106462594,0.6511328768031479
155,1.4986454026916807,1.6368488132374694,1.86845209001631,1.5684655539373624,1.560670913687728,0.258628813349537,0.702446195300754,0.8730452954802557,1.7168947293163515,1.7884093823427731,0.6425374456860184,1.4986421942863346,1.643529824173844,1.8751522637868734,0.6650041681433603
156,1.1170419126673012,1.2424432389842819,-1.3761128020129143,1.455081972580091,1.4293109156062747,0.2262783185039067,1.9086769840887137,1.9208001698445967,1.3250470140630148,1.1933047857338905,0.6602640781246099,1.093027910374209,1.1345527869769096,1.0871332244228997,0.8737604606913414
157,2.0217724953776828,0.19595620289776727,0.38083750019621654,1.3731847559917454,1.3395143297511984,0.4456275535921662,0.4878483437441238,0.5488456391518602,1.5183480470853672,1.9177904843511029,0.6233814453054027,1.6071627248595992,1.314286988607427,1.5965239274909102,0.9726955313945475
158,2.207753636964131,2.711398167147444,-4.919151804111575,1.7452976367900397,1.7075224062162166,0.8829338683141091,1.4991173807901075,1.7700488810977115,2.7998194390301703,,0.6547956803312163,2.2074769538005707,2.7033130053259686,inf,0.9102931265455162
159,2.0149030205422647,1.8937810836203663,1.7884093823427736,1.7078179908870084,1.6674955543411663,0.9280926511793172,2.333303592578475,1.6447266553166853,2.0761026404143212,1.6060878255488185,0.6528756675646988,2.0149030205422647,1.900458886151396,1.795109556113337,0.9260707593456482
160,2.040220828526554,2.0507848324300313,1.6060878255488191,1.5250875400673283,1.4711482062093226,0.9373624330952923,3.611941927236411,2.9805880232224116,2.9670755643041864,,0.6333676938231112,2.0402208285265546,2.0574626349610607,1.6127879993193823,0.9342442190665415
161,2.180208226600677,3.52023534679001,-5.700443573390687,1.5700076049043246,1.5490722385214188,0.9482905961892305,3.168291519522347,7.426682412613589,3.5202727506202947,,0.6380535849069913,2.1801708227703918,3.5269505531513237,inf,0.8869479922264436
162,2.040220828526554,3.6602227448641327,-5.700443573390687,1.7223952542429524,1.683287928206976,0.9556964605552947,3.7574355034465423,4.219726548730095,3.660222744864132,,0.6180765742263259,2.0402208285265546,3.666900547395161,inf,0.925664191294438
163,1.9902104079518939,2.323938804318902,-4.314149212270796,1.65238047191259,1.627586604013623,0.8260851565896012,3.766012936324939,8.55825195882564,3.0170859848788476,,0.6528756675646988,1.9902104079518934,2.3306166068499317,inf,0.918018038186427
164,1.6875873364895384,1.4773752405888165,-2.243530557086592,1.4472280816150644,1.339359906421813,0.6756122094667044,1.9034006582932212,1.7381419202411477,1.106812240140487,0.7850543134288521,0.6509067234006624,1.4686619915553194,0.8722020359825106,0.4747713842443174,0.7831506540160516
165,2.143733742417002,1.7168908932339901,-3.679473526068122,0.31122415903962575,0.3008767368893353,0.6454706880602684,1.0848509788444982,1.5334425728996188,1.9792804921061598,,0.6584896970785714,2.1961251818929184,1.9116424006613228,6.606650186198215,0.9057037581619466
166,2.3636485185911815,2.835160624611636,-5.198809143202817,0.8794956337225388,0.838202003624278,0.7050695128117448,1.3762948119656975,1.9886116116093917,3.570636116894285,,0.6125606311107803,2.3579803562156134,2.834976494674597,inf,0.9510355008988868
167,0.2233250925869496,0.07480864049857788,0.04847480136833959,1.0642314803875648,0.9104249691895095,0.2893173312380992,1.520605024293608,1.7989186804780193,0.1702856140732604,0.273412131549395,0.6447042257417027,0.22319910841303237,0.0809436263704031,0.05408897584354812,0.8526669710557536
168,0.10179165628712906,0.034371438345622854,0.02896922941930291,1.740572597191461,1.711535167424073,0.0870209749302515,0.48202747131985363,0.45761392179550014,0.0759381984207057,0.1499610590501143,0.6403206450210053,0.10177436101133101,0.04099320483922195,0.03554868954956207,0.652884040887983
169,2.7796282026056116,-2.7796282026056116,0.0,1.7503064199666456,1.6807607230378954,0.7741897153996514,0.5861163294876349,0.5636736521082603,,,0.6403206450210053,2.7770430725891617,inf,,0.9328822891588484
170,2.2796359227807943,2.869071767756156,-5.14870769053695,1.6999163248493478,1.6966949679947891,0.7848398270941052,0.6970730765243484,0.6793966203161109,3.490155544896958,,0.6038851895711802,2.2795198200630495,2.842047034740488,inf,0.9489545225204569
171,0.08947651183217524,0.028798062606895367,0.011813831266977104,0.8598807989212607,0.7863671632778774,0.1341243367472202,0.7814924747162197,0.6735701307076429,0.042624054313097785,0.012047838646140542,0.6668815377411301,0.08947501531649173,0.035471114149607755,0.01851375298026711,0.7820242093612241
172,2.726864663054349,2.9735789103363377,-5.700443573390687,1.7039953227914408,1.6672731021932765,0.7015575540650199,0.2106349852415105,0.24846432979837746,2.9742294016608053,,0.6357360191111145,2.726214171729881,2.9809072041918343,inf,0.9426561222295897
173,0.5579324834051071,0.41739640249730736,0.5059502977953534,0.35419695727464473,0.3247130939572777,0.2319378036948742,0.4099670082437078,0.39550075768131693,0.5190166993374421,0.6207475718043913,0.6038851895711802,0.557897820043253,0.4240283306371159,0.5125475099532105,0.7941334758391587
174,1.2215128604659473,0.8558739165638267,0.55492091432592,1.2941823828329324,1.2889926830531602,0.7029500972864515,1.8058351967096795,0.9440131777292127,0.8631601937445894,0.4986067369928205,0.6284777104787076,1.2030473068049932,0.7015076565684063,0.3513586103114995,0.9455243553965983
175,1.0887172924859887,0.8779205111068746,0.6820896752640189,1.2951434268387851,1.221739771181411,0.5121771362491083,1.6953413874629955,1.6268236366117494,1.0929902434109944,1.257266138434797,0.6699045166045591,1.0878042399515175,0.879897179106453,0.6734692532046946,0.9314623298768897
176,2.2512468455326142,2.027826290110195,1.4180203508625953,1.4307182074027307,1.3987273762833161,0.884832065025296,0.8908374199235706,1.3524863636901112,2.0899963749312334,1.520386703501717,0.6125606311107803,2.2504144058503384,2.0318674519513524,1.4281896050053067,0.835102523646228
177,1.4968165736582133,1.6196747754627818,1.0843254337059864,1.2846328139073733,1.210819718351554,0.6086162169499938,0.840885663784757,0.9381196204548037,1.8687783225828352,1.576853564710792,0.6068309995095971,1.496506131279956,1.6065639200688797,1.0510245152790387,0.9464351217819499
178,2.5052684547279878,2.8520788553755017,-5.357347310103489,1.38287700273069,1.3562910777761839,0.8718698073333557,0.4635970789754205,0.8115526666186887,3.195470261452372,,0.5915533975974677,2.5049733119383144,2.8000330427605187,inf,0.8960838039387764
179,2.612880507066363,-2.612880507066363,0.0,1.7187885861738827,1.6978722200088003,0.9134203585975721,0.33120477363248113,0.5652496286336357,,,0.6468212168108125,2.612285579117831,inf,,0.8586798583374277
180,2.1613660847104894,2.8215210373980213,-4.982887122108511,1.4238355091361607,1.3660943209784966,0.9438380198030764,0.3650009037855035,0.5279071046144826,2.846307308076617,,0.6668815377411301,2.160989084754124,2.8233289010247584,inf,0.8528727922088891
181,1.4453355817183997,1.7110263842140379,1.2641781603384574,0.18683165482699773,0.11674556557003851,0.28639834404338516,0.4901000066323146,0.5986359393133445,1.9318612481014426,2.290659564420817,0.6547956803312163,1.4448184129013524,1.7142174116108313,1.263812804681953,0.9044064068393919
182,2.558238978154659,-1.784017338273265,0.1353238806413367,1.6908238297970977,1.5421298172849616,0.3518459160062124,0.7849768618880932,0.9252448627027331,0.6372491515853294,0.5529613566802476,0.6068309995095971,1.464279926902208,0.43195156392255807,0.34327447876805944,0.881570720302059
183,0.7176720550198232,0.5170460997062156,0.35678753399499086,1.473809522625619,1.4469868989903605,0.1628035163589744,1.4389330185038818,0.855328480894183,0.6509927410628658,0.4781514596563951,0.6380535849069913,0.7131004858741541,0.5070769817457994,0.32811308383264604,0.8111742854964317
184,1.7229974525762828,1.5245516430220738,1.350932102238938,1.7303907884896068,1.6703019126339194,0.6153115399171694,2.1389366642319736,1.7569440765924074,1.7740037924785583,2.190155195512726,0.6403206450210053,1.722917720270649,1.5292851087136188,1.3596563451546202,0.9530688008011334
185,2.0403556432319565,2.2737935690388396,-4.314149212270796,1.7703996897836631,1.719280304034833,0.7176192317639978,1.8764907823947115,2.3321312226209034,2.3078597952842492,,0.6425374456860184,2.040306302264801,2.2805207125370246,inf,0.9540529304771919
186,1.896387354661922,1.724614677048929,2.0760914547945535,1.7697000402353786,1.773138525315873,0.36902523737057497,1.9240070141329424,2.6006703085065093,1.724622513352693,2.076091454794554,0.6547956803312163,1.8963795183581575,1.7313003158837221,2.082791628565118,0.7616263654885799
187,1.6613854328285789,1.3312833773279076,1.6042768806027978,0.2591619946209971,0.20013373034832094,0.5874415684717906,2.7454806345156695,2.012562360032876,1.640261896318919,1.7023097209610467,0.6727386042041725,1.6613746886654932,1.3379194764548583,1.61033037121712,0.7161608933119373
188,1.853634872946142,2.7481964117764357,-4.601831284722578,1.672977040586256,1.6660791723333417,0.8770611279015106,2.99205418767496,2.2205204953199456,3.1536615198845985,,0.6584896970785714,1.8536348729461425,2.7548742143074634,inf,0.9233043868317817
189,2.0149030205422647,1.7396304037931092,1.9425600621700307,1.592062957705557,1.5942109426120674,0.7025855604321031,2.8589667155755922,2.35110159344509,1.8937810836203666,1.7884093823427731,0.648888643467878,2.0149030205422647,1.7463082063241377,1.9492602359405953,0.9293324506521207
190,2.120263536200092,2.481567748522486,-4.601831284722578,1.5928976584795356,1.5945409218314162,0.6607003478254022,3.1572790192551596,3.7777341842003587,2.4815677485224854,,0.6403206450210053,2.120263536200091,2.488245551053515,inf,0.9478700237982635
191,1.7525387560747738,1.3829554598543763,1.1753049094563637,1.571963473565776,1.5641813129170854,0.7692087131814558,2.87920968345215,2.72062377820679,1.6453197243218671,1.6060878255488185,0.6699045166045591,1.7525387560747736,1.3896332623854053,1.182005083226928,0.9465175758799188
192,1.9902104079518939,2.323938804318902,-4.314149212270796,1.5597503445749217,1.5182314684696632,0.9392756985292728,3.1131246493171956,3.247222527318686,2.3239388043189027,,0.6602640781246099,1.9902104079518934,2.3306166068499317,inf,0.9354906765772986
193,1.5319368199297545,1.3991672083864606,1.3882085958979133,0.5061858552747268,0.47907164223518445,0.5149470464329247,3.050452375928219,3.5398641512777296,1.6278512184976877,1.4705910681619605,0.6468212168108125,1.5318597777887257,1.4056035876412896,1.3934477684384359,0.9337746265400101
194,2.9311937524164198,-2.9311937524164198,0.0,1.6386623166482772,1.587287316218796,0.9128181692575609,1.4966265866721353,2.8221451919173974,,,0.581717464821069,2.9311937524164198,inf,,0.8922009914484116
195,2.6127400212978853,-2.6127400212978853,0.0,1.4823985105418576,1.4356036424106386,0.913549214515918,1.6441012916703224,2.962821122360978,,,0.6584896970785714,2.6127400212978853,inf,,0.8636323897635914
196,1.52248511088527,1.3272791022042454,1.0671668270464956,0.7200181504039753,0.6986331628014661,0.451260072191386,1.2630091030290984,1.1236616396080403,1.7203145480044528,2.4108148858974587,0.6380535849069913,1.520054351299415,1.3289835431037726,1.0797922293413398,0.9449237408142543
197,2.306381880880824,2.4583882543353384,-4.764770135216162,1.7812206445561523,1.7508814764100384,0.931182905572236,1.0098981778057479,1.1277725470702977,2.93586776402988,,0.552929491858785,2.3059239942595604,2.325133962680659,inf,0.9366948317942103
198,2.065442357133643,2.3641024598093314,-4.4295448169429745,1.7101401833332148,1.6599246874218236,0.9096924894615204,1.0030967032476876,1.3562437743729956,2.4631922769581007,,0.47824363442641393,2.064531035610754,2.3573920960624397,inf,0.9210801887353719
199,2.2410027434330217,2.0154816046646955,-4.256484348097717,1.695164385174861,1.6488079819132166,0.9323337140023609,0.8923286199932653,1.2469485832623244,2.484514223071932,,0.5641709578113449,2.2405497020745933,1.9945906701129639,inf,0.9117291071200124
200,1.6574492863770465,1.2641061700606018,1.0793057658790364,0.19517169521930083,0.06040372695289356,0.4719520699886229,0.9062941375552359,1.4575618896017517,1.4124141469244345,1.4867216298181498,0.5883313578629602,1.656645995420881,1.2627427115457763,1.2116198396270348,0.9037116295383908
201,1.78069263948474,1.8759071174643864,1.9102378835450127,0.7145263727912927,0.6788734427546484,0.30432399050548986,0.534710406384283,0.9676425955733324,2.40910418005319,1.5111244207405374,0.6038851895711802,1.780226233414382,1.8685781717403576,1.8894636310238881,0.6725508461598204
202,1.3865516103409197,1.1847723919890345,1.3899780434012183,0.22688533365436744,0.14273570935239444,0.20210993588923876,0.5199914851049549,0.8477845248740455,1.4288862624094265,1.5257559719240332,0.6097226960127671,1.3850950805444084,1.1715224167975922,1.4807168101633204,0.9458867394129917
203,2.315081831270837,-0.5893375034331743,0.4172687148943566,1.0328865973167423,0.9662002858711228,0.5828161783853222,0.7848798265638108,0.9042108933013111,1.2077602360382163,1.7347175405966402,0.6528756675646988,1.6459866429589671,0.9428001373164253,0.857059353055645,0.9359732153165972
204,5.198738431802467,-3.8137431974848672,-0.1876061076068014,1.3445312697562055,1.27845559229604,0.6848627426460852,1.1040344325938554,1.7657068368954454,2.5111767853463203,3.5196603508455975,0.5490601803369085,4.264737548150782,2.3806534663638645,3.152736022363656,0.9495787514230352
205,3.199593353735653,-0.6590307886405258,-0.7944623581491297,1.627817545658652,1.5886842953889053,0.9025542400896638,0.6810078295556877,1.1532639427467295,2.728355485874532,,0.5604843169999094,3.2172105455491393,2.3882360283861996,3.404223102578692,0.9332960447512098
206,2.182321314811498,2.0252084764238325,-4.0737054475925865,1.6716173936422205,1.6327222492443143,0.9404892778060083,0.6746687773204588,1.1863747987747648,2.3324073335412567,,0.5748741956352443,2.162726536928652,2.212214151355744,5.086714111972693,0.9325205824682551
207,0.08832293489137953,0.03508187248180285,0.026741562328098878,1.1117642552906808,0.9994963993244567,0.11458715404194933,0.6257044289364019,0.9691110075519302,0.08765127701626621,0.14082795062787193,0.6547956803312163,0.08800581066888216,0.04074970305519164,0.03151757355326188,0.878277705930314
208,1.5419621844843485,1.6927218718175503,1.5490689867354028,1.7716266680104038,1.7741130590197047,0.2464853841674836,1.2358395062570386,1.3042751518070042,1.90680424913554,1.9519535105738666,0.648888643467878,1.5414677859948331,1.692803724351341,1.5295037058185557,0.7032698272225235
209,2.267341464533413,2.406361561760177,-4.67370302629359,1.7357385694667031,1.7502693214079257,0.7833071615892558,1.0000296299615394,1.178994528357109,2.5754472404596545,,0.6468212168108125,2.2658246688284764,2.403587785887969,inf,0.9081159011251325
210,0.69574580214053,0.2662709957046133,0.17779964808668258,0.7042982291987879,0.5516449217242361,0.5463265022384439,1.9448227321739144,1.2107316535769062,0.3533063652942144,0.4010988069061595,0.6619902821573977,0.6957282865276453,0.27287965556987825,0.1843197467828563,0.9404666301679393
211,1.9902104079518939,1.6307916237589573,2.0760914547945535,1.7579891865693291,1.7380742662836657,0.8269698986252862,3.440137669644385,3.879410271488447,1.6307916237589573,,0.6727386042041725,1.9902104079518934,1.6374694262899865,2.082791628565118,0.9435525201901108
212,2.2717041136380027,1.3588142987401413,2.0665750741272606,1.562830003488109,1.5472509370976275,0.7933308339959455,4.6009496892755335,14.904127728911753,1.4848214853123376,1.9406471012805975,0.6584896970785714,2.2716248999124695,1.3648729633345271,2.0739735995600013,0.8128213783979407
213,2.111130544804053,2.1283887171944316,1.4575742245069199,1.7730475916258324,1.7514924723842153,0.8068379668804273,4.154921720472461,5.386055634274143,2.127442768330488,1.4586038370797496,0.6684167106117298,2.111046881095167,2.129480191305015,1.4699443904068157,0.9446936750896612
214,1.6080257053395566,1.3306116141731468,-1.6118412481457969,1.299315779519428,1.2461162675999071,0.46708687325607745,2.5055421439841967,1.3961975961001403,0.7990875950755393,0.32082992656813314,0.6233814453054027,1.5022790148348948,0.73192079862622,0.29250152598393114,0.8148027311900272
215,3.2699512664390116,-0.6245265333805841,-1.8488133723955418,1.2161004968845959,1.086709423613466,0.3290426964824341,0.5186063739683258,0.535747732539457,0.7609809625184738,0.7301283780275345,0.5451288209179292,1.9983737185910542,0.5274938242520449,0.40992007858354806,0.9569260249599894
216,2.2781237705698376,2.301254893582079,-3.795550365672985,1.5221119494450226,1.5069441813504905,0.8606697846266663,0.4232550038402286,0.5165920538149449,2.702864617991117,3.0988469657906337,0.5641709578113449,2.260270879053855,2.4294893752348563,3.0042326283193836,0.8991651674931077
217,1.594349241197918,1.332378540200444,1.5573611975335804,1.353091210350504,1.3252749094734781,0.4887752172304416,0.2917985977613171,0.30759846040024175,1.629716807896036,1.859552599322358,0.5677978065141052,1.5841492715418326,1.3294911132936864,1.3938973978476232,0.9549340385013775
218,1.9878922766762284,0.34935682308440774,0.2813734408897064,0.9769730440190363,0.9105116224337908,0.18436798424651193,0.11588573544207657,0.10987278952702963,1.2079268079060688,1.821791304726221,0.5947193981915972,1.7645983611656824,1.008168154656219,1.0449569213078433,0.9638066605408688
219,4.805870585502372,-3.3378633776392177,-1.4680072078631539,1.5372675721502753,1.5137570351984084,0.8324974761982595,0.06732215481247147,0.08450821936964302,3.522352950641011,,0.6547956803312163,4.382026634673881,2.6817328927848365,inf,0.8892029100125415
220,4.515587056347095,-3.057606652965532,-1.2773569211276792,1.6758622377493708,1.6564059050455961,0.444735443082403,0.0603893438940328,0.0791249908523185,2.851048798003518,,0.6207552362147116,4.390955265418183,2.811917064503253,inf,0.9131964105341562
221,0.9632708188601671,0.7040461135784759,0.5779311699240244,1.4695387137681197,1.3751344686125024,0.4078460924282435,0.36157656857556214,0.24557991107469562,0.8596088285959753,0.7681570857707175,0.6008849035917525,0.9520906360053425,0.6769265953267807,0.4998947058220089,0.9439269146521088
222,3.5671016141343057,-2.770436614372529,-0.65292775904632,1.3680398875190185,1.3622895968455784,0.5306407049746352,0.7596851618422981,0.5285845320302677,0.43004478319843964,0.26907952650085515,0.6333676938231112,2.232748133405266,0.33554012532178534,0.15453722795731306,0.9665169723267085
223,3.3909720588123444,-0.32585849536405287,-1.0562644931679526,1.6027657349372593,1.5846051512814368,0.7211211947430431,0.3207097089051886,0.3447893325196067,1.5129296503211218,1.2196396607022681,0.6068309995095971,3.132188574475996,1.3370918908194465,1.1699634882231875,0.9708393157844218
224,0.07695415461628971,0.003938375755468834,0.00033458328069312093,1.4311472528740388,1.3485040612348633,0.14369020149921538,0.20904578920116182,0.14808761644951102,0.013834991194331198,0.007958069140652451,0.6547956803312163,0.0769530411681281,0.010616067082245948,0.007034654458604004,0.905007834208902
225,1.364696590085802,0.8324379110536952,0.3111388265349615,1.270970700675149,1.2268789903181692,0.6025280709137323,2.4187256262493135,0.5653677726916064,1.0145145133374822,0.2291413822366195,0.6528756675646988,1.3645328693383778,0.8380058028216103,0.3183406380868298,0.8723192761307007
226,1.0374563145139772,0.491473879454591,0.2996665691197786,1.2773795009863498,1.249642279534183,0.6387731841335031,2.60953406757424,1.8740140214376253,0.5943154764396479,0.5723101614716986,0.6468212168108125,1.0370155904514593,0.49504984286498355,0.303854931697382,0.8482012229875473
227,0.5376417947026404,0.1574153605638544,0.09387487704841391,1.58000971667454,1.4643841433650562,0.42321656840625466,1.8687914511448154,1.3532386839848016,0.1876181578475462,0.19041695510182394,0.6403206450210053,0.5375689487415016,0.16387925685783022,0.10027452986608391,0.9234776134468937
228,1.6715354351986833,1.3105443439975901,0.983232670803857,1.3236389270147084,1.268627170477369,0.7871738237986263,3.073598738027116,2.204814052496672,1.5657618043922408,1.4817022568604152,0.6380535849069913,1.6708996901233049,1.3133432833829304,0.9790733263094614,0.8679162027779759
229,2.1120668935850504,0.628292171978575,-0.5837994442713037,1.2594445131047076,1.1986933760357918,0.6416653224517384,1.751179852626692,1.4694012456112335,1.3901175774629497,1.2335874415469978,0.6684167106117298,1.8488237698497327,1.1764517505112337,0.8923185301166352,0.9647594417587051
230,3.7169109193689707,-0.6660071866316429,-0.8579262903096351,1.5852731373376567,1.564618971117535,0.7870184512888297,1.785050037042052,1.683742956984671,3.9114801914646327,,0.6447042257417027,4.2313104172952585,3.369592042246824,inf,0.9614443101573535
231,,0.0,0.0,1.661576766778097,1.6574710470372065,0.7656554038016944,2.0539762135691557,2.366706898537752,,,0.6528756675646988,inf,,,0.9352160040590942
232,5.548475809044451,-0.29591870981570406,0.0,1.4661371314672569,1.4677886678535605,0.8232957106689295,2.1250853423053178,2.2662481860482346,,,0.6699045166045591,8.316522495954086,inf,,0.9514011824744135
233,5.703782474656201,-0.30420173198166406,0.0,1.5324641349323582,1.4900095534107234,0.7910562017398541,2.0695227948969004,2.05062324958109,,,0.62595550513784,8.63497622707262,inf,,0.9463337339395763
234,5.33225558587607,-2.221773160781696,0.0,1.402623613465972,1.3708548495605988,0.7615055986947667,1.8412357408175364,1.5713075382206627,,,0.648888643467878,6.15006957728462,inf,,0.942637502975745
235,5.703782474656201,-0.03802521649770801,0.0,1.2890746941015307,1.2712093348038485,0.8155665976291313,1.7943474822438084,1.5477706588253632,,,0.6447042257417027,10.714417768752456,inf,,0.9455556417265853
236,,0.0,0.0,1.623710440606711,1.5514006494165606,0.8098411820860014,1.2219215255608231,1.3957935392889147,,,0.6566669596287297,inf,,,0.9100191592854209
237,4.17228454970869,-1.9192508928659975,0.0,1.6051700102415616,1.5452102779687888,0.7874241033995989,1.8915242702891906,2.4582622509081014,,,0.6447042257417027,4.821393294457727,inf,,0.9564195755922404
238,4.12613662000283,-3.2046327748688643,0.0,1.3536746404714965,1.2383960599674322,0.6598975066758853,1.8227648563790095,1.165879420822156,,,0.6668815377411301,4.243618264969855,inf,,0.9648096835019744
239,2.9519636596326198,-2.627858172182313,-0.3241054874503066,1.6870036118565372,1.655347568029209,0.6782517968802285,1.5912004271570452,1.1273618548522182,6.100858915829707,,0.6668815377411301,2.7350788734901292,5.839272731766057,inf,0.9634473637982953
240,2.238938855565428,0.5736387968445911,-2.7575503595276154,1.6375268168224808,1.585539679807505,0.8930143325830859,1.6038991174109567,1.0363720332295265,2.9588234106734035,,0.6652988471865258,2.2334737100113404,2.8899570782302595,4.897839799950911,0.9547090262657719
241,2.2995811110478237,1.2258311008627216,-3.5254122119105453,1.6050330109911872,1.6005814754351255,0.7521008706979139,1.3957747983979734,0.8289937876072193,2.8997723634942,,0.6684167106117298,2.292524757190544,2.3148701238196585,inf,0.9467587577869667
242,2.0155939139749086,1.9040552885287418,-3.2332259327866693,1.4708751290630864,1.4461902729475,0.7506940905141759,1.2148844185188066,0.676713593877021,2.0933830263515425,,0.6602640781246099,2.0144864406570484,1.884291338021077,3.6801457741451817,0.9507796788793987
243,2.3483175407467978,0.32541871038228676,-1.6783658877761019,1.3444803694106033,1.3165902425857336,0.6359180270550184,0.6597055343483418,0.495149661706607,2.002085232554283,2.905775420571567,0.6619902821573977,2.020418201230375,1.7455823068210552,2.459780890968887,0.9287327860382494
244,1.3610140390362238,1.5274217439311684,-0.5119268763523115,1.7113798143571628,1.6611151375599222,0.6396532977827001,0.7976084385268404,0.5483006753910218,1.6128423299392471,1.4222012786113012,0.663668482632973,1.3588089041850302,1.3609765531356008,1.0011581570471513,0.9548260563319548
245,1.5556932137654533,1.53139193209459,1.5549019582501362,1.621586376686097,1.6161054111286028,0.4463022773336369,1.158211459992938,1.0661225330541402,1.712289103430457,2.238596140034458,0.6652988471865258,1.5544237712130125,1.4839840655105565,2.0009699262383407,0.9404205994296273
246,1.8992259945886094,2.2579362629759565,-2.2094763903062056,1.7516529568471932,1.7454695291658815,0.5959765337396894,0.8649720753435918,0.967979314057624,2.5772826806001397,6.225747842779959,0.648888643467878,1.8980092690707653,2.232999277522927,2.6418274144890743,0.9569955617261446
247,1.2175098984968822,0.9803119079075298,-1.3946923274205334,1.2205542696223555,1.1788743733057359,0.31456698200408467,1.3918931116001516,1.10305287664289,0.4059719899580072,0.30798402683818465,0.6447042257417027,0.8568694481577739,0.2939137128392452,0.18507160336480186,0.7706418758764304
248,3.0667678978681714,-0.0719190525295641,-2.9183777918284677,1.684295511205612,1.6464257341182849,0.47181668083262385,1.9093324557691618,1.672334892709313,2.9955785970999047,5.610070923896007,0.6447042257417027,2.7885374520148964,2.658022157674232,4.574710978503383,0.7267185768143892
249,1.6903872050584834,1.8948489499329537,-1.4817477313986425,1.2555845034031758,1.2240798795303685,0.33920189652170696,1.0273658231651484,0.6270794284065311,2.218628849353173,1.848029735430473,0.6425374456860184,1.4442059997388839,1.5577679347385833,0.829493674211824,0.9531361499738498
250,2.30654663875416,0.9142367844458406,-1.6140803532929535,1.6399234513771348,1.6250304451671644,0.5724818572637536,1.335890935936545,1.0758955061600182,1.7015138686895996,2.0241394390345135,0.6207552362147116,1.8633986963702074,1.4188311662279047,1.5771159839519173,0.8320498419042641
251,2.7421293918274587,-1.1457922996991434,-1.1029189538031776,1.6087416718394527,1.5784566287234014,0.6550256691404439,0.8992608439896999,0.7124581963432897,2.7482176480777687,2.5544897807670672,0.6619902821573977,2.3779074774616653,2.5179121422060087,2.1050260823804745,0.9285133890292089
252,1.2950510104784647,1.1628061768010207,0.940216224863812,1.6521097070954611,1.5762022457494687,0.47836451277166087,1.224990597028985,0.6633678517096369,1.250753317358533,0.9150041051591448,0.6528756675646988,1.1219150342379456,0.6856351208964336,0.4124314093244565,0.7686303512235382
253,2.4468787559815897,0.4535870097089041,-2.061882805664351,1.524414576491282,1.5001722724932995,0.7522724635358893,1.6973685292661669,1.51292353068665,2.2062138893051384,2.9171548882523894,0.6528756675646988,2.1436838104081897,1.8039663726631077,2.4763081445327684,0.8307382216262116
254,1.596489159420764,2.1797180163792174,-2.6533824302078304,1.6918342248287817,1.6800979621587098,0.28952241590620004,1.2779401530565608,1.1992939533725504,2.4094189007408042,,0.6447042257417027,1.5201051578534714,1.7422002249420654,2.8877641944890837,0.9534275109696617
255,0.9596458856399206,0.5560455672588063,0.4745906077778137,1.3596823368550017,1.3380350417093216,0.6536632745321272,2.079550864039787,1.423628399388683,0.937688658240739,1.556183878072385,0.6468212168108125,0.9579521990233505,0.5505349062416237,0.444380524357838,0.8334466713943316
256,1.4950546484496434,1.9038548775616957,-2.2150546233986748,1.5180377313941962,1.4526110221817954,0.42244875494976275,1.8087341990274433,1.5106088621013454,2.052947712069129,3.7502974524524464,0.663668482632973,1.4800679443159221,1.7977325592023083,2.9881008892915117,0.7700219848862826
257,2.6152179582220585,0.8663524730567005,-3.4242171411461544,1.5084627067373337,1.5024567119534362,0.3651126111076092,1.4094218674539836,1.4915232701039483,2.7134207370873553,,0.6425374456860184,2.0999163948692217,2.411965856695313,5.797070409079758,0.9687780687211828
258,2.703024481398923,-0.3091969238006178,-1.3218080485961157,1.5658695560173979,1.5467258803388697,0.6769894390464413,1.844465331060796,1.5003216028432864,2.1312114741688237,3.0227702394152773,0.6509067234006624,2.308379626702382,1.8846809084588765,2.258677356549883,0.7093388666417069
259,2.3990703451963595,-1.718986743985817,0.0846880760039671,0.9390993811317845,0.8398157782765938,0.534739520758933,0.35265632308304357,0.4012026344899484,0.4219480612981034,0.5191706258043037,0.5783247308855777,1.1071486196903961,0.29486870189473086,0.27546153461054285,0.9675065418612405
260,2.203286310424761,-1.0711562330155404,-0.05921915659170007,0.9390993811317845,0.9292267700474431,0.565988970068156,0.33066887703037257,0.3799198477226215,0.46951232457220515,0.48151210395454436,0.6468212168108125,1.1228025274693272,0.3567773977065593,0.2904832859704081,0.9785881875660956
261,1.863385604892817,0.06787479295039955,-0.15375015733591502,1.2651156771484242,1.2521295285620648,0.6403743290089957,0.2071948915988762,0.2583548221843397,1.148280848376022,1.5170870694517908,0.6038851895711802,1.5121095684735384,0.9257862770451073,0.9679791256946207,0.9489744281085352
262,0.7695494465256703,0.3376744039679298,0.2855245451629187,0.6776945704317645,0.6388969804000072,0.6610305669970926,1.0120176811142803,0.637629206870058,0.4735943366121493,0.4574310850221354,0.6403206450210053,0.7688530098042334,0.34270943803950454,0.2904548737413889,0.9535068043869711
263,1.370551042303666,0.6896844844708532,0.5531007285231158,0.9356845567372002,0.9100432441050418,0.8422463547297748,1.822966255264358,1.4928643424394237,0.839060983950639,1.1260175193921982,0.6309483474627791,1.370464757452354,0.6963457811619325,0.5595060774612537,0.9443578895749547
264,1.0678369823799119,0.7126005347197546,0.6257165780810736,1.1283182740139723,1.1102640269220367,0.5164293358676526,1.1008384616056166,0.7481030901616164,0.9037506359030407,0.7539311168887302,0.6584896970785714,1.064532975015247,0.6746972972009673,0.5234932873527006,0.9546616687149768
265,1.733240435431942,1.822907292697197,0.03161058575535858,1.0428724182565223,1.0083424020313827,0.7658042940328321,1.4037465070797157,1.0885150920251934,1.9404061643466417,1.5201353168120875,0.6357360191111145,1.7150453721603502,1.6891565185221038,1.3621808888893567,0.9432556890110669
266,2.283688644663508,0.907518481391425,-1.0208505712666827,1.4477209340155477,1.4439291997106183,0.8195078563844331,1.2781331146766415,1.1934266234971191,2.0848829859608875,1.9771122597016697,0.6509067234006624,2.0540770681177345,1.8370545782790353,1.7575315290383517,0.949758598936883
267,2.9221510555376216,-0.19199162643694034,-2.6728061389680766,1.165345305616605,1.1139870487428642,0.6919475844091555,1.4897273183398294,1.3479430774857322,3.3407915009320623,5.3015675236306405,0.6207552362147116,2.7518279484481054,3.0426088944762264,4.5145158177199605,0.9509186435733803
268,1.4328274122582347,1.2188280277183208,-0.16148101882216137,1.6446389617746227,1.6132899856255694,0.4117373004230681,1.1377160532765034,0.9005192563527209,1.3663200125840782,1.1257171484639419,0.6380535849069913,1.3835425951475364,1.1953817367465853,0.886278379743946,0.9485612733293677
269,1.1410158238259378,0.8426431051475511,0.3521082106329674,1.1089975397359884,1.0946342377594112,0.4330007950273284,1.414156741173159,0.975620940852107,0.8457649609407595,0.658466558353883,0.6447042257417027,1.1179650171839246,0.7041849333681988,0.4285808943072371,0.9371813304304739
270,1.5610007047702519,1.2126354401561885,1.062432229968838,1.6483601107984474,1.6394360833820132,0.6732308058439674,1.2989480793759363,1.079019105257174,1.4295388602381642,1.2050096130575245,0.6333676938231112,1.5599601540239478,1.1625270948760318,0.9721867389222929,0.9231198519358835
271,2.084440639530328,0.007830690686331021,0.16158260822464587,1.1937379792648757,1.1883065243673745,0.6799079350558979,1.2540682147254818,0.897574264873805,1.372760813444307,1.1723275628375585,0.6333676938231112,1.7278461434844021,1.1913366962658822,0.8026790483275704,0.9518715671341691
272,1.287577367116895,0.9519204066492455,-0.6323972174945762,1.695797537746391,1.6655824385974165,0.18794989282422908,0.9414927401764769,0.594371536791569,0.6203907633095866,0.4559265506831894,0.676637947632344,0.9621310843524933,0.462349858152638,0.21221397888598173,0.7419399150489637
273,0.5842233498876264,0.19179734330187181,0.09589942676069552,1.2497529484036711,1.1400020765525418,0.4962236736992913,1.5120058422303493,0.7830878078440493,0.21569878973804996,0.1321722852859622,0.6403206450210053,0.5842130578488295,0.19846989542939666,0.1025937250667594,0.7841103028696397
274,0.5443460112612802,0.17180808796595137,0.12768475440367733,1.6479757685681056,1.6317722196909417,0.5798004985117623,1.3348980355968247,0.5399932543215038,0.2353132597706369,0.19120713572118345,0.6547956803312163,0.5443441070592824,0.1784836609355008,0.1343820165757268,0.7615615282420137
275,0.8879872188480622,0.27663909044435986,0.1632346799795139,1.4576090425265882,1.447336659406359,0.6775592052414977,2.243050173065341,1.6089181260970538,0.3386361287490413,0.24683967760447112,0.6509067234006624,0.8879732607146409,0.2833172534514543,0.16994550510435108,0.8127244903012093
276,0.37185478596825866,0.09630364961941723,0.07611799262126684,1.7291015251502229,1.4942231062417162,0.3987332249573623,0.9082027467640409,0.49992746922025366,0.16089502654785087,0.19675004154952858,0.6652988471865258,0.37180469661555116,0.10286759165631439,0.08268216951005136,0.961407182724679
277,2.3107490595599414,2.1876189562009785,-0.5601087599887276,1.1119053899411924,1.0917639709693063,0.7757468898791936,0.6617270341467447,0.6932049415486117,2.612655896009438,5.77866228787806,0.6652988471865258,2.3097216085633656,2.4952554485597003,1.2747117233997556,0.9618651128518312
278,1.9262559240300183,3.411712474537784,-5.337968398567802,1.7433976828919397,1.6849591815210632,0.843363635516391,0.5211619501974385,0.5264111055921299,3.7756859026997676,,0.6403206450210053,1.9247576706909189,3.3472423875397443,inf,0.9465268289416837
279,0.4276383653199382,0.24966255161930545,0.18985444241984128,1.7451612245220636,1.7392212930198407,0.22492181747418108,0.8932085987594345,0.8043739548102544,0.3310117778059025,0.36872091728625633,0.6699045166045591,0.4275743936962653,0.25610662160459974,0.19606351691582327,0.9488296848316968
280,2.153033960509868,3.204480102016296,-4.764863397822582,1.478782675122943,1.467973570243919,0.6653666078625987,0.7993033318317776,1.0406081110175789,3.9703300529865295,,0.6566669596287297,2.152442434564326,3.0648071088949287,2.756328201368001,0.8960708355727344
281,0.2721629383173621,0.082425370709586,0.046679984139751884,1.3495007940763095,1.3613457018688588,0.23646253147576798,1.044986690077963,0.9441314806105492,0.12147519953640128,0.11470614829448064,0.6380535849069913,0.27215874079993924,0.08909811264390474,0.05336673244923176,0.7433949985632528
282,0.8071941075854061,0.23316411260910708,0.16174174240337313,1.561600336428146,1.553603655980354,0.4764185494478038,1.4238317882073195,0.8901422811940229,0.2702040658565476,0.22248967387807955,0.663668482632973,0.8071374179776325,0.23986329362689857,0.16840759997733573,0.8410807035701723
283,0.5688296644441696,0.18387776911887332,0.08603647387865265,1.685788303117341,1.616372561039017,0.5361896520675925,1.5935168012767722,0.9424456313328566,0.20315132263403088,0.09497705691861077,0.6284777104787076,0.568827530500973,0.19055442383477925,0.09273490621082657,0.7590291629147243
284,1.3469462577088351,0.7159111559554652,0.37613953481962215,1.5272738487113473,1.4963485566175452,0.6755935296470904,2.93373637055619,1.9875637145986333,0.8271375977185459,0.43196798437256345,0.6684167106117298,1.3469454510559793,0.7225897651393506,0.3828397085901857,0.8692233831315201
285,1.660731206821651,1.2671236443292533,1.3829442742346094,1.6755268436800872,1.6615188735490776,0.7377812364923396,4.226363553195693,12.586405158864922,1.7371272735749899,2.2992350061087636,0.5883313578629602,1.6607312068216509,1.2738014468602834,1.3896444480051726,0.6800042560244246
286,0.8210825206657982,0.41322402760083243,0.28794011109600715,1.587690886853042,1.5107065779224007,0.42010531166368026,1.5984092199804092,1.279049713015609,0.5752969129138126,0.4505674046088293,0.6425374456860184,0.8210815672727041,0.4199010626871325,0.294637034826316,0.7821849307044699
287,2.2639746754800485,2.743321717350693,-5.0072963928307415,1.6895664269726396,1.661411174781696,0.7975911801382622,0.8162298727441999,0.7831198399045544,2.743397682226529,,0.6684167106117298,2.263898710604212,2.7500754847575584,inf,0.8576198890524696
288,0.8012697954000987,0.47017814084499965,0.30096574460658587,1.646840556115323,1.5524516921524796,0.3555947386472053,1.0039710710879073,0.8597428012458432,0.542482547036037,0.4413357343761636,0.6778444222523095,0.8012521996650577,0.4768057850515424,0.3076091490996285,0.9418590602633441
289,1.875141078167106,1.6280779178873617,-3.5032189960544677,1.4659394844979379,1.4360172747435946,0.6142638208996432,3.5381336734392757,16.79275882225962,2.21586458278948,,0.6180765742263259,1.875141078167106,1.6347557204183902,inf,0.6469634929951837
290,2.040220828526554,2.273928383744242,1.3829442742346085,1.4335219820790308,1.4105042750197954,0.735282457529883,3.4284460562977706,2.81264459355408,2.2739283837442414,1.3829442742346088,0.6125606311107803,2.0402208285265546,2.2806061862752705,1.3896444480051726,0.7525027818802434
291,1.7879309612841272,1.5146173393081894,1.295932897244978,1.5025360233505167,1.4505613408361908,0.7034121523727456,3.2200143741012295,3.3005535935402603,1.7153187371521326,1.5007273098909921,0.6357360191111145,1.7879002589023345,1.5213258442210107,1.3026330710155427,0.6908390655947163
292,1.2960935185493607,0.7646789062397619,0.5416986006341409,1.676195550748041,1.6363180913770552,0.8062492989157687,3.2109728628355327,2.4415652181109286,0.8779949555407836,0.6326386798347147,0.6509067234006624,1.2960880932337415,0.7713370465676332,0.5483497851916643,0.682525848301965
293,1.1296932633749508,0.5453986192805862,0.38441544412348194,1.3128515092285853,1.2840492159101056,0.5724272639929777,2.3903737393377757,1.936577678319014,0.6995523182438242,0.6353767027026768,0.62595550513784,1.1296902442389711,0.5520794409475953,0.3911156178940454,0.7174739145229106
294,1.3862943611198906,1.2231067589124798,1.4782544540389346,1.7380793816856643,1.723975797972336,0.6627703672857144,3.4946706633021987,1.9428882797727227,1.423777454374631,1.7884093823427731,0.6509067234006624,1.3862943611198906,1.2297845614435092,1.4849546278094976,0.9239468102492334
295,1.1398880395159476,0.4504003350036543,0.2149848138751762,1.1743614125670203,1.1428527221809996,0.7263988027230186,2.5998515976591485,1.6149749809907084,0.5352061086716515,0.284331985566499,0.6284777104787076,1.1398857739838857,0.4570747502724444,0.22169064044004105,0.7709424010700495
296,1.7525387560747738,1.3829554598543763,0.9521613581421549,1.4313159095885402,1.399414319626142,0.7472389840409949,3.085641295577182,3.8341533496437643,1.5500095445175421,,0.6097226960127671,1.7525387560747736,1.3896332623854053,0.9588615319127183,0.9357027332295954
297,1.294849406111055,0.9353299936393127,0.47118181320104524,1.5554091004505803,1.5423355144648887,0.605266566658301,2.758347184820288,1.7296618503599133,1.0383177927500367,0.591357020861411,0.62595550513784,1.2948299506541756,0.9419674018018669,0.47794183679696406,0.8092224378640287
298,1.6130438042083741,1.2134682239625205,0.7911399166546738,1.1645732167932505,1.1571158651539841,0.7325096012599605,3.248926315940764,1.3627211635482799,1.2542304253340093,0.8839531081156208,0.6619902821573977,1.612999804000461,1.219858047695097,0.7981720694316037,0.8161738633845151
299,0.7543397601167722,0.32011949021269903,0.14529742169772697,1.076726999878399,1.0289845180822894,0.6168313949943438,1.9236653006180182,1.1393271704460608,0.36096823247644466,0.1514906853539084,0.6468212168108125,0.7543372399838759,0.3267953788035886,0.15200202954132658,0.9107251592830542
300,0.6177233328506291,0.4513412749177945,0.33112140153066405,1.4218701943756462,1.387062287579458,0.33442488194773384,0.5616758253388802,0.5161776022910579,0.6953219219832696,0.7165203386861253,0.62595550513784,0.6169683382656991,0.45604118302290597,0.3327621867035456,0.962039863239784
301,1.292050714162247,1.0764464533428362,1.1930425529586572,0.9427344384332406,0.9374510745856852,0.32693003887138655,0.5401614755987396,0.535505977110392,1.1560784807215208,1.7048977029238015,0.6333676938231112,1.2875557217709512,1.0631697465510292,1.11589971866263,0.9828838354953056
302,0.6742200281947627,0.5822358031633498,0.7166111965449722,1.323978882081371,1.3275012893518967,0.1872760849544963,0.6634205997951006,0.5406435313170278,0.6712038644723248,0.5745136141135021,0.6509067234006624,0.6621654429512168,0.518561142093822,0.4241108148823838,0.8327153522299706
303,1.243286295844031,1.2134951198871402,1.100558783787978,1.4664763408977162,1.4181405296814704,0.2348568889555773,0.8824000973206885,1.1580706271312884,1.3332891580902615,1.3554686167173082,0.6447042257417027,1.24321425843505,1.2200613712266555,1.104763737946018,0.9586883946284619
304,1.6803043901977817,1.4623683959328058,1.5061513949281906,1.571762709718867,1.535426677571219,0.5382899707667639,0.7957482380290775,0.9832170819161895,1.6268416622850002,1.722316827308605,0.6207552362147116,1.6802777265652926,1.4686057264828731,1.5052435776664566,0.9323267567147907
305,0.9332396950183349,0.39056214042916604,0.13918514646064395,1.4787213740723812,1.4714583272802761,0.6776468042900942,1.867478787503921,0.9645656635606381,0.44971635675026356,0.12458497781633128,0.663668482632973,0.9332391031041125,0.3972211775083533,0.14590467759727252,0.9138815414177679
306,0.7669051567100522,0.2850450529140889,0.208330065109104,1.6083881426482993,1.5093963579699314,0.5500365921465382,2.0008530878240114,1.4703715020803159,0.35173134375884674,0.302925810386778,0.6425374456860184,0.7668894076407394,0.2916051344314811,0.21466956612548313,0.8057061625620671
307,0.8927409827732663,0.3549982163373374,0.1452891941906309,1.4792277327441221,1.4408167162803331,0.5029433171019252,2.4226016964448998,1.843824999595335,0.4683849970322772,0.18066023475130016,0.62595550513784,0.8927369789204196,0.36167178760228963,0.15199760308011853,0.7175593062484659
308,1.0030339197199214,0.7338699973331237,0.3865445683214086,1.6625714296787542,1.6364126519797877,0.5991828129642244,2.087630221462891,1.4467554490443164,0.8561294513189619,0.6598807860641174,0.6509067234006624,1.0030294187743798,0.740447951835627,0.39312258490977786,0.8860854620206662
309,0.7225355415033294,0.4997452116771386,0.4661998087971304,1.5679631253137627,1.5652927316109684,0.11404924731475329,0.9497911179561126,0.8866305869108818,0.6553545052732871,0.7016018599662809,0.6468212168108125,0.7225302204708153,0.5063805969240971,0.4728251491855541,0.6576295410727615
310,1.5309286682328824,1.0794592387612012,1.1911950527362554,1.353601023200999,1.3077828699896916,0.6179632994131231,1.0127011437611233,0.7904492329430612,1.5297530552917362,2.8083029000138358,0.6468212168108125,1.530678078573453,1.08494488228283,1.1905396538723858,0.9443209433189186
311,1.3086771377712905,0.8822555987055136,0.7656527975137557,1.127875180869751,1.1033108588030491,0.6519016194176257,1.9381958881976158,1.6608985928746591,1.0655952811341434,0.9264954412711421,0.5915533975974677,1.308633976104343,0.8887906212345434,0.7719903678977311,0.9463959568294918
312,1.2773087085163952,0.7488129946264588,0.607055741621823,1.187337204100273,1.1196078149748958,0.654247647519566,2.510167322530548,2.3875607562135497,1.1081649565175005,1.071109344640443,0.6584896970785714,1.277180896592757,0.7546987481566244,0.6111633950442183,0.7973472303231928
313,0.8656296752213728,0.2997104911760162,0.17504449341842365,1.4367051440218244,1.3969493126598103,0.6212299027266287,1.61735236403945,0.6246583727608699,0.3598418561226271,0.21606249770662853,0.6380535849069913,0.865624022638976,0.3063836716059102,0.18175494187251973,0.8110609313789814
314,0.700603822005624,0.40850082933040144,0.3282836291025204,1.248242130415549,1.2048030237324643,0.4600089943610815,1.4998586214134286,1.2382721754069042,0.5345243425338886,0.4498497724845217,0.6380535849069913,0.7003956092847734,0.41502379769971753,0.3347381478023527,0.8368755635033764
315,0.4214778148645325,0.18669742501489417,0.10561257022458104,1.1806494282313422,1.174167504665671,0.27041256574196737,1.171723983193264,0.7978711315110314,0.22368090379899164,0.16451859253752515,0.6180765742263259,0.42147593338052947,0.19337365107127877,0.11231409691895286,0.948718444126765
316,0.3091687721418357,0.20244679420799383,0.16312626426198085,1.538718578889657,1.4902409266168835,0.16841817339175466,0.6205520554322302,0.6537134290727823,0.31138056885702653,0.4004098256563722,0.6125606311107803,0.309155427970756,0.20906786154604573,0.1696931508043828,0.9696150846679484
317,3.765381015602886,-2.0855528590823083,-0.11640371922414561,1.5632623414161055,1.5665653955500805,0.7599108681845421,1.0664377671446972,1.2336862516762146,2.067065718034169,1.9965409070238578,0.6333676938231112,2.808791770903742,1.9166645809588516,1.2014696741078175,0.9407476268592736
318,2.5460819610665926,-0.8290922561447709,-0.7915118157543592,1.6254629503367086,1.5992162665846268,0.34705089111077103,0.9750595919986681,1.4340660845891282,1.8697352744911084,5.002600897312555,0.5947193981915972,1.8138006001049352,1.6168255922480321,3.2764583911670186,0.9673990419703898
319,0.5126105565717834,0.3861791965414394,0.41113513274494295,1.3470781095786486,1.3406445719934403,0.22172538558144878,0.5075659019810893,0.4054761647708992,0.5254966570311437,0.8113339447975628,0.6425374456860184,0.5064094634462517,0.35950506110283637,0.32565404984038576,0.9689772765986561
320,0.4791153195930046,0.16030460153399517,0.10801249260266088,1.6561579838105003,1.6605007881255673,0.37481178975888874,0.8834458681946779,0.5379859588730694,0.20531537234048797,0.15308820786931454,0.6233814453054027,0.47911164827646296,0.1669823254869307,0.11471363304972454,0.6862224441907055
321,0.8749882671187666,0.4103709461429391,0.24322049702229576,0.9228140150899652,0.8567630348506317,0.5789499665073754,1.8089125054788597,0.8207811129919795,0.4851665092866402,0.38816493263244894,0.648888643467878,0.8749088940953859,0.41684325880255774,0.24836701522559598,0.8565294582715243
322,2.096066056793028,-0.541398773877471,-0.7429366832212275,1.6691321240179096,1.611377752663277,0.35958582199991707,0.5930930494724332,0.5827221313032293,2.0506996546075373,4.660703246643412,0.6357360191111145,1.738345092593419,1.551310914335829,2.2599757878996947,0.9615303694481095
323,0.9719881799179632,0.7155999909893712,0.8747161396219525,1.6492342793374104,1.6230073723247762,0.5263220207196485,0.8458456177068223,0.6039523107953471,0.9241844666032869,1.3031297298106295,0.6233814453054027,0.9660355182170437,0.6917759785012725,0.7737439775726896,0.9636835791429297
324,0.294758710938309,0.08871991594475542,0.06138551538683512,1.424143051618278,1.4171483835676686,0.28398756335420977,0.6451720407739373,0.45127968976083976,0.1201727012987767,0.11014960847789397,0.6309483474627791,0.29474398620824216,0.09537284495312291,0.06806363461879383,0.8199664330936002
325,0.21484474849951468,0.043181114369378104,0.03189585217639296,1.3392324403309745,1.3188564017627804,0.19461360727821156,0.4726536869479564,0.36689784162881606,0.051876821336932014,0.02320014520883898,0.6403206450210053,0.21484474849951468,0.04985891690040744,0.03859602594695681,0.6571431576256022
326,0.810312233213965,0.28080131687543264,0.09512042989915659,1.5903059874737355,1.527996660871793,0.6571155266086328,1.3898598772053563,0.43377254463703396,0.3123632340594549,0.13906421035074087,0.6547956803312163,0.8103054114474867,0.2874738909167312,0.1018326539259298,0.9153202151602919
327,0.7400899649575471,0.23547196521225955,0.1652713416528393,0.8565592403682493,0.8028588463444288,0.4893764872888803,1.254213629412594,0.5986759852921508,0.32070541971301575,0.21070071902018495,0.6602640781246099,0.7386328107210768,0.2357873945540824,0.15888705318983737,0.9676530896925974
328,4.675707883195361,-3.6615129713908923,-0.3284244222691493,1.7274675597694047,1.752528794485082,0.48952990669162827,0.37844957132772566,0.3237772547936817,4.456928819135275,,0.6528756675646988,4.235908126543888,3.4827773686545784,inf,0.9676161442213808
329,0.16633338024355737,0.07877610330405618,0.06813602601397348,1.5452570300357975,1.557278104830998,0.11655619789947447,0.6292602253325327,0.6886531789297391,0.13062442992942266,0.15869686890693518,0.581717464821069,0.16623825592578687,0.08511903041637002,0.07420358521761647,0.9297233282136561
330,2.1877703713016254,2.1452001938751355,1.0066643617034847,1.5900533556863294,1.530302517165545,0.9413038251375478,0.7604264829642478,1.3368987870086178,2.4199487283078223,1.089672472304041,0.581717464821069,2.1874722858935414,2.1208909198657686,0.9789043246021419,0.8960375202342923
331,1.2261941250146058,1.0409498217245985,0.9613175225004329,1.2372122772242815,1.2227995566569085,0.31653034389654483,0.6961438128958561,0.7628799595547212,1.2613137418994895,1.3579710062124295,0.6357360191111145,1.2226649373380885,1.045626088431991,0.941184674586206,0.6706835122036297
332,0.5234423655404097,0.4295460879812879,0.4454423956243988,1.665859014446001,1.6330520298235198,0.11254054093233497,0.5786255226018566,0.5317849997548907,0.664404887844814,0.8521316413009177,0.6668815377411301,0.5231231515763969,0.43372919205388105,0.44448797569488385,0.9642345858476349
333,0.5773653220960212,0.3654839146185356,0.09878465396064151,0.8363885780190387,0.822743988032072,0.2835504919740344,0.6896870481294085,0.3386208529114272,0.3595595391001699,0.3296551334174285,0.6425374456860184,0.5523616076839248,0.2707677159894015,0.16483644490771962,0.8846689215246282
334,2.4588593323803716,0.39832594159735146,-0.9985120993979741,1.6424601236225882,1.656241115485799,0.3860900686597863,0.5465908679291346,0.4613544022985647,1.024223551686239,0.6844031773053507,0.6357360191111145,1.987531073746414,0.8721175115069102,0.4362882857513382,0.9110065007959377
335,0.39139522037200625,0.13621845034315383,0.0565041945861422,1.0705128424869632,0.9028013937262338,0.388348349473663,0.8996409876084855,0.5802724654513801,0.1524781249865342,0.08192922585098616,0.6125606311107803,0.3913156850037448,0.14283543073246482,0.0631405791802143,0.9250994016599016
336,0.144579080345287,0.04190500680419321,0.030721667197991492,1.196914124434146,1.133310108957492,0.1491871254481202,0.32785892990728727,0.3308692459556116,0.051868989740673555,0.03882330503861578,0.6309483474627791,0.1445762905516959,0.048577052129464116,0.03742052295234056,0.9560928337956484
337,2.2089421300843854,2.0776947436588316,1.3339855592520475,1.1372708579088557,1.133691228079105,0.5337025908936481,0.26191616304293563,0.414689350982163,2.4577065793931556,1.5979927712793107,0.5978297680564633,2.2085889074152694,2.0569394671903303,1.4584568073681212,0.9364745491175689
338,0.5095329150116803,0.24012039322731382,0.11827375785409311,1.3090091852338048,1.2515653119536854,0.3938123003234634,0.8783331604757931,0.7028002735509445,0.3477538933007534,0.27392438503936195,0.6309483474627791,0.5095301669363517,0.2467934997891054,0.12497536715775429,0.6862793541047378
339,1.6431685197761894,1.4182177239992377,2.6357072427299775,1.3371100879023023,1.3222057972430357,0.6740321658858243,2.7988097705437815,2.8609062268502723,1.7546914152184125,,0.6699045166045591,1.6431670651782282,1.424896981128229,2.6424074165005407,0.8323140769058491
340,1.3099958543836856,0.6055064845585698,0.19807220910703838,0.6499640858508027,0.6110306052052015,0.7673793285965277,2.405968615246025,1.5328721528491949,0.6527023547011686,0.20803863412599707,0.6684167106117298,1.3099919730620775,0.6121799482225027,0.20478060306630752,0.964604516630691
341,0.5463528146389443,0.29754980863230585,0.27097593624512184,1.3496455727189807,1.3072008551762175,0.413095422734463,0.8189738013858997,0.6689879123528691,0.44812056368733905,0.579702759125119,0.6547956803312163,0.5462033602519765,0.30349367214445194,0.27604667366371516,0.9553735350715815
342,0.7911275889201492,0.2553556343130139,0.11801077011898542,1.4860515116817905,1.3517696225658324,0.6303859382411325,1.9485451496457649,0.8260406569701568,0.286641041744032,0.20823638216481988,0.62595550513784,0.7911275889201491,0.26203343684404323,0.12471094388954937,0.8053226838354303
343,0.7908933347440857,0.20940071193167287,0.14432505836213472,1.2543757967832445,1.2193552340819689,0.6097616523637451,1.7901903095551313,1.000211429812422,0.2828191969634699,0.2173684583495184,0.6380535849069913,0.7908825209125507,0.21606257922973507,0.15099265461063857,0.8518153125374724
344,0.2922557369450257,0.10515023830544501,0.07962319210278523,1.1590138462930029,1.0990287532073308,0.2446993968161011,1.0859634120721031,0.96756353546308,0.15140716518454703,0.14884891860689323,0.6284777104787076,0.2922554775069391,0.11182725319197463,0.08632317226165089,0.8114689947310891
345,0.3141950444803826,0.1326521464718154,0.10729840001332885,1.2003529672150939,1.1161226471674472,0.29265103366293976,1.0094759895247039,0.8258730208414127,0.2037904648585861,0.1853724772757533,0.6284777104787076,0.3141933748934397,0.13932466920364528,0.11399551596547826,0.8701625373509076
346,0.6603573577369543,0.23606517092047552,0.16594196961833918,1.4246786032013252,1.3672851624615445,0.5668036003694616,1.9271001552259255,1.3453881410825916,0.2779122808559759,0.22622435475921832,0.648888643467878,0.6603573577369544,0.2427429734515047,0.1726421433889027,0.8860106704862102
347,0.9501922835498362,0.25044161951058497,0.0897403361807303,1.0686316020931057,1.0121698048627714,0.8148804943391675,2.477802592909563,1.2283397677444388,0.2818858844823292,0.20285547453665795,0.6153451465759925,0.9501922835498364,0.25711942204161425,0.096440509951294,0.7661236327356905
348,0.5776181472623967,0.11231089781895665,0.0550685172442823,1.5395322698433975,1.514288711529396,0.5318275047973704,1.3549394184407428,1.09121735848634,0.15489130894377945,0.1187530956542424,0.6740851607140061,0.5775987385146293,0.11895423518014892,0.061689920242544084,0.938132490102743
349,1.9625832817613036,2.1009826800122458,0.9403803441719107,1.6880197645453923,1.669949632199597,0.8791841252419805,3.4810547255074265,6.219982400802725,2.5999341557256925,,0.676637947632344,1.9625477902083366,2.1054794636963905,0.949297028342325,0.861737417879723
350,1.83265164177897,1.5655592149242195,1.6057354492422706,1.226209299917239,1.2031994255697271,0.807396701586425,4.261318109333692,2.9212334305933183,2.0940314296811167,1.7704111462201564,0.6468212168108125,1.8326509106041315,1.5722198764243327,1.612453495218588,0.9205648481835588
351,1.7484116471644566,1.55413665342786,1.295932897244978,1.1810024514801336,1.1912861823284866,0.6115965711782998,2.6951036605707683,3.156705538176366,1.87429492634277,1.381270633676579,0.6699045166045591,1.74838074592611,1.5608453571972352,1.3026330710155427,0.8099233370867354
352,0.7927696620335009,0.5334114960284136,0.7509943672867514,1.642182063627476,1.5666148638420399,0.33835453065983473,0.8335348394237904,0.7107820308453573,0.6582319856073293,0.7182347555767027,0.6447042257417027,0.7678707267558817,0.462522107212465,0.4526916186340522,0.681583843067575
353,0.26490418230224444,0.049357500751728456,0.03428493735194593,1.4829023683863949,1.45116131724685,0.3481055492426484,0.5146021317018055,0.31054691801297707,0.05844785417446642,0.05810421683902938,0.6468212168108125,0.26489190069459556,0.056032936649122365,0.04097005606307156,0.8194815859206753
354,0.547768875423056,0.2716322100802886,0.2205281648171028,1.2995419014284226,1.2967960433869656,0.27520638864525093,1.0941298665500079,0.9827382708116017,0.4078011575146458,0.46810790532598956,0.6233814453054027,0.5477393703844352,0.2782537235089393,0.2271042294883272,0.8405976677070152
355,1.525810054724663,1.2709292050682817,1.0253864826817458,0.8302330212166156,0.8118691451191696,0.6133500229402981,1.3064240421392452,1.2847060796040413,1.3284662190788685,0.9875416118413274,0.6008849035917525,1.5248925364901942,1.267445481134605,0.8965414364891371,0.969901789743174
356,1.9679648649819501,1.2849908072377432,-1.5491237726942928,1.633502773882042,1.6035455226291582,0.6478286275687422,1.0919211788627115,1.325024562608152,2.0471586378436224,3.4219944573488137,0.6380535849069913,1.9177006925859021,1.8288078743646705,2.1316272948504063,0.9480562804145389
357,0.3589699286141997,0.2249054841750608,0.19810734906230232,1.50386188228078,1.4802720891636847,0.09756826406485385,0.9982945533896322,1.055445940659345,0.3449486921988466,0.4603411325834795,0.6380535849069913,0.3589155474551844,0.23137424766505305,0.2043734486322193,0.7495456807505784
358,1.272184408778691,1.169535182288282,1.4258526824943036,1.4342276281929622,1.4455617295207426,0.3234336504887016,1.013939157287512,1.1702737416570135,1.3908205991582403,1.4294113422056407,0.581717464821069,1.2721326895089955,1.1756066359375654,1.4309563672235903,0.9555388705665363
359,1.4016434797742647,0.9988277764354714,1.3822664150304989,1.5052820131156301,1.432468763152619,0.585194511887245,0.9839843859853243,0.9128219117709185,1.2103777722047113,1.9864923604007994,0.6284777104787076,1.401611065231784,1.005470719092911,1.3871581854470676,0.952225300272156
360,1.3898356089053654,1.3988986410042314,1.2989213241617081,1.7754796472324044,1.728637879093693,0.6711836847077991,1.1560211484106302,1.1690703846937547,1.5405547129156352,1.5480971608159289,0.6425374456860184,1.3898116506479308,1.4052499274439092,1.3059719722810574,0.94987980903291
361,1.253801699914285,0.8838916661603937,0.8550622787998252,1.6483171640809269,1.6595406370146901,0.7256913384643348,1.0529450899489419,0.8985915003482534,1.1767964802465658,1.6570733802816862,0.6284777104787076,1.2537857135430521,0.8902773156789348,0.8581345438564345,0.9524004082464588
362,1.1064997536042571,1.0693789756389265,0.8042540896381309,1.5808009906881098,1.536794608690501,0.41362364965552734,0.80951713394389,0.9027094102865586,1.2775337082930776,1.4142868832742814,0.6309483474627791,1.1064764637249118,1.0750716342263003,0.8070982292132934,0.9507903346046225
363,1.1006585530476187,1.023815069493282,0.903435743214049,1.5651887381851999,1.5346783397231631,0.5655763973173944,0.6499019819720498,0.676463450979003,1.1892004851250764,1.3852423556402174,0.6509067234006624,1.1006142913387829,1.0303544902203714,0.9088314898289397,0.949801139545202
364,1.1670474697111357,1.1661002736930761,0.9660504703028217,1.5365714012769711,1.5356566939426566,0.3639351113342233,0.7036775059110645,0.8114601628248387,1.3678358531843477,1.5165380357078464,0.6309483474627791,1.167033894786769,1.1727916511484726,0.9727506440733855,0.9547498706450852
365,0.7377798395906668,0.5186847540149272,0.466978588998503,1.1562018134391143,1.1201990491115275,0.35393297247469047,0.9058438661272631,0.9312986053788157,0.750617604489055,0.7642706169473287,0.6509067234006624,0.7377726955986024,0.5253605252379554,0.47363314009745755,0.9537608080340223
366,1.8694666030603024,2.2364650479507455,-4.105931651011048,1.331868335463331,1.3127940852554696,0.5420311917684016,0.26084355845339674,0.31883569160523256,2.4364620542426354,,0.6740851607140061,1.8693607152516065,2.2417909652868753,inf,0.9491106109154139
367,0.5620994817525055,0.14788883032103184,0.07445028869581516,1.0783586583952562,1.0268508286119475,0.41035544495988513,0.8564796216069114,0.3548875536642372,0.17547613025487677,0.09887345012366267,0.6068309995095971,0.5620994251661428,0.15456661266010321,0.08115053924469968,0.9550780173447357
368,1.3898009275091412,1.3772101015675453,1.3015137160606023,1.2951806204068617,1.300755258098161,0.46683678567612663,0.6802276994273855,0.6586914803382302,1.6145138677553899,1.9315677713117658,0.6357360191111145,1.389767050598863,1.3831772904213373,1.3068400698705704,0.9512055134496603
369,2.490349582390701,2.1114817023318766,-4.601831284722578,1.6855253282308542,1.6678250963724703,0.7672543888604393,0.4726306379486799,0.5420590016414328,2.112692477691847,,0.648888643467878,2.4902542561145955,2.1182548311390104,inf,0.9435731128111825
370,1.621036739506023,2.246264349411989,1.8297923975873926,1.420720634533775,1.402595353020957,0.369956298341746,0.3437970384943224,0.3706875864624934,2.4875454218019297,3.5720649356990055,0.6528756675646988,1.621004548805566,2.250196462102325,1.8392704518991068,0.9525684122619857
371,0.4067032202765341,0.382830102572057,0.3577071760314269,1.1913885205861037,1.1687699971866405,0.11359596509116797,0.41162393064814523,0.6678842192601873,0.6419842415197875,0.8493077517814874,0.6447042257417027,0.40669920262297793,0.38949019527185236,0.3643337561130306,0.612854956224621
372,2.837561697217393,-2.837561697217393,0.0,1.629229426087433,1.598212685876407,0.8319684027755463,0.275516512026296,0.5451925398670574,,,0.6097226960127671,2.836641435475197,inf,,0.8890392274876936
373,2.2656777097866376,2.737550471257065,-5.003228181043703,1.1425174846383983,1.0877704686483567,0.8255100482477621,0.37036415737026007,0.4993930710098907,3.434833083188002,,0.6097226960127671,2.2656104902026843,2.7433595245745104,inf,0.8813059166410769
374,2.3351122580727393,-2.316047229399192,-0.019065028673547448,1.5049263170974378,1.4345503361775385,0.9277968836199674,0.781788089844522,1.1391758297393935,,,0.62595550513784,2.331670673889142,9.07589427542326,inf,0.8754611493132308
375,2.5060125340329384,-2.5060125340329384,0.0,1.5530917849034989,1.5055107937170034,0.8749309510317367,0.279052179165834,0.5494303280746431,,,0.5713653840954815,2.5056537229327893,inf,,0.8905543044572453
376,2.814934941129101,-2.814934941129101,0.0,1.7179970592588265,1.6942098408294355,0.8515507275297566,0.220643167776106,0.4558861850298283,,,0.6207552362147116,2.814893296720259,inf,,0.8382746288107303
377,2.746440557519883,-2.746440557519883,0.0,1.3817013071147783,1.4128624729960557,0.9341862480272597,0.22867139432888198,0.4733003943265287,,,0.6233814453054027,2.7459251535311364,inf,,0.864594607872329
378,3.064265192564363,2.636178380826324,-5.700443573390687,1.5005828255539733,1.4961803263392095,0.9007071222625836,0.27073353626300034,0.562144029557696,2.63619450548323,,0.6284777104787076,3.0642490679074563,2.642872308014259,inf,0.8228241483960796
379,2.6412722975539533,-2.6412722975539533,0.0,1.5642213620413274,1.5418158794570418,0.8661550473733319,0.28048724991199664,0.5485471602342993,,,0.6097226960127671,2.641014799766052,inf,,0.8835806279650857
380,2.7376293341990308,-0.7929964094971915,-1.9446329247018392,1.5776834100541293,1.5515435035924792,0.8930919897832457,0.28988783110013305,0.5829343349559009,4.6382280738768955,,0.6380535849069913,2.737307382169328,4.0452847538588035,inf,0.8510143095830791
381,2.758830562545885,2.9416130108448018,-5.700443573390687,1.5839374345023092,1.5655364109660361,0.9138730414277572,0.29546590297458936,0.5743177230017693,2.9416262552348234,,0.6357360191111145,2.758817318155863,2.9483040577658524,inf,0.836220820481587
382,2.0661963149298157,2.9411000779009258,-5.0072963928307415,1.6103985374025673,1.596682714030671,0.9296701857610978,0.6091603464579479,0.8507884941448247,2.9411000779009258,,0.6357360191111145,2.0661963149298153,2.947777880431955,inf,0.8867657601723232
383,2.4522227221602657,-2.4522227221602657,0.0,1.5447297439102625,1.5260655462443382,0.9004610993935818,0.4849001407435212,0.8099811121441063,,,0.6447042257417027,2.4521168269650095,inf,,0.9094639888438998
384,2.1005362747846488,2.2136129374861473,-4.314149212270796,1.4428672597687375,1.42142101442266,0.8856848127090817,0.40514976432677996,0.670109590817195,2.2136883033668844,,0.6403206450210053,2.1004609089039112,2.220366105897914,inf,0.9207250807231243
385,2.5682882587270512,3.1321553146636356,-5.700443573390687,1.504773767321646,1.4606578187735777,0.9274953004593481,0.3890580239438138,0.6584539318780709,3.132155314663635,,0.6284777104787076,2.5682882587270512,3.138833117194664,inf,0.8484795056880459
386,0.6146009889822722,0.16946262405800872,0.13279601041560551,1.2296828559109096,1.2256833544209127,0.43824966799499426,1.0436435457788835,0.7994147173262007,0.2570123744663229,0.30265282987121434,0.62595550513784,0.614582487689282,0.17605502525928424,0.13938597190461843,0.9405490826897085
387,0.2484613592984996,0.05381951257443407,0.014915261092011245,1.476045290232361,1.4486289535876093,0.21050603709177718,0.8441604343254681,0.8062289030983459,0.0674871513030978,0.010506947776144169,0.6468212168108125,0.2484613592984996,0.060497315105463245,0.021615434862575222,0.7652190324966726
388,2.3471310116791453,1.80552124056632,0.24443332458756473,1.6958723839937322,1.669876413202684,0.7851453738701195,0.5306521662805597,0.7944298648224609,2.3730309653367105,,0.6309483474627791,2.3470015026544475,1.8056786365806168,1.8168055011541426,0.9130648703225167
389,2.36474264034362,3.335700933047067,-5.700443573390687,1.6435114514546156,1.6026742148183588,0.9332043572362647,0.5068670196775078,0.7838565880016771,3.3359830766785534,,0.6309483474627791,2.364460496712133,3.3426608792095824,inf,0.8963074375355834
390,2.384432119835905,2.3611426480286974,-4.7455747678646025,1.5170988192439114,1.4812414350767298,0.935681218452821,0.5219673805781169,0.8515801623891648,2.6230190843246657,,0.6584896970785714,2.3842773085060753,2.3499896730386727,inf,0.9065243181773686
391,1.8397857635863413,1.9645915913470176,-3.1876961033713425,1.540694170223643,1.4801928900184762,0.4734226520421177,1.3600709508175661,1.4462679616142071,2.135293024502275,6.736769910903717,0.6425374456860184,1.8289768570448712,1.8746778826512194,3.1713107164630556,0.9681332381674891
392,2.5368052145976607,-0.8713728565706127,-1.1309316245784948,1.1808462754476212,1.1490778507368622,0.8845879738728654,1.0371564282490486,1.9448071689721838,3.2320006496333513,1.7713604510993293,0.5915533975974677,2.499005574167502,3.0708289279789605,1.8123787564307907,0.9496462009913964
393,2.4759352595430735,-2.4759352595430735,0.0,1.6755883964261682,1.6169252408866033,0.9310294428275382,0.7081999026946647,1.2197845501842786,,,0.6447042257417027,2.4753524369831887,inf,,0.9064694103313632
394,2.397572861849427,-2.397572861849427,0.0,1.5991032845829034,1.5768642619464137,0.9382594995160096,0.7343982475467115,1.3161579331578657,,,0.581717464821069,2.3965295391705874,inf,,0.8397687423291591
395,3.0068215253949444,-3.0068215253949444,0.0,1.6059180858672624,1.6008616445602952,0.9429407206020731,0.6481236632279903,1.285546181407173,,,0.6284777104787076,3.0048851446849256,inf,,0.818996125816404
396,2.995732273553991,-2.995732273553991,0.0,1.5661264613579193,1.5366178986437093,0.9354510370525986,0.7961123294164103,1.6315175598535,,,0.6284777104787076,2.995732273553991,inf,,0.8645463694771108
397,2.806021529853099,-2.806021529853099,0.0,1.52504014515973,1.5177968819874446,0.8994763111315958,0.9151676973327826,1.7927792144626276,,,0.6333676938231112,2.8058468028264767,inf,,0.8713764496813381
398,2.22655848595422,-2.22655848595422,0.0,1.4845639804197883,1.482373377830459,0.9357776751239619,0.953113467762872,1.7939535189435882,,,0.6125606311107803,2.226447436013123,inf,,0.8896631179726852
399,2.569769984146079,-2.569769984146079,0.0,1.4912062697463715,1.4790129055620431,0.9153736198249388,0.8594408286134761,1.5899615778041822,,,0.6284777104787076,2.5697385853046977,inf,,0.8572460603440738
400,2.531994050329599,-2.531994050329599,0.0,1.4843090309807296,1.4759127459657615,0.8823204806016083,0.7464284753776562,1.4055447733347353,,,0.6207552362147116,2.5312996893577107,inf,,0.9019543319007104
401,2.70805020110221,-2.70805020110221,0.0,1.4875368461494274,1.4634439562942185,0.9039019351748729,0.9868484318355955,1.7943911748972368,,,0.6509067234006624,2.70805020110221,inf,,0.8680609034898135
402,1.7048484585309467,2.049684965804427,1.2494128816100862,0.5217112463050426,0.44926154739909163,0.4400199332247074,1.4799071591063273,1.8193690441630805,2.0498075540722605,1.7903287687285765,0.6740851607140061,1.704725870263113,2.0564853566032895,1.2561130553806499,0.9613471257302596
403,2.266514571345215,3.433929002045472,-5.700443573390687,1.7254289111968886,1.716059596611808,0.7811093957701233,2.0455201980681332,2.729613888235198,3.4339760933123062,,0.6207552362147116,2.26646748007838,3.4406538958433357,inf,0.9392925833815331
404,2.2742008585439777,2.328986496774279,-4.603187355318257,1.4700201445010406,1.4293478764471392,0.7637825037866726,2.036703321318187,2.585640953801713,2.733190771158564,,0.6584896970785714,2.274105621672177,2.3355189146652946,inf,0.9389709705266016
405,2.3715779644809976,3.3288656089096893,-5.700443573390687,1.6396460577428904,1.6178572631042596,0.8728313020762838,1.6411602885777237,2.2094950746094084,3.3288656089096893,,0.6447042257417027,2.371577964480997,3.3355434114407183,inf,0.9201420397384276
406,2.269795270171055,2.3320360145515227,-4.601831284722578,1.583215382097957,1.5674523692107951,0.6723195280939535,1.6433718734024971,1.65364254401659,2.3320360145515218,,0.6068309995095971,2.2697952701710546,2.338713817082551,inf,0.9376683168982635
407,0.3063367199729507,0.10362230933185856,0.07911175310447693,0.49732963009821013,0.4888977090552621,0.2590437005362211,1.0260415770800364,1.1954972812662064,0.14464851974055595,0.11509289012044095,0.62595550513784,0.30483576682623953,0.10502230958664995,0.07475847000071253,0.9284954578656216
408,2.6240774038690136,0.1186850367828085,-1.7593033551889592,1.686049898975502,1.6645622962728297,0.8004231590810623,1.9358944091412165,1.5768467747402573,3.226792982610922,2.148378782114892,0.6284777104787076,2.463667146795581,2.9228744531672946,1.9779720815149764,0.9366942030622528
409,1.8823630340198565,1.2869813121090772,0.647160541130793,1.2777129384539598,1.24664748977836,0.7522215038415782,1.9895007210672775,1.4914246868543481,1.5895801088435546,1.0107632124209427,0.6357360191111145,1.8811008312531354,1.2844975578274644,0.6193026089082073,0.9499652471597229
410,2.6220440244248637,-2.6220440244248637,0.0,1.619838062747113,1.5915060624628443,0.8196799064847359,2.5499335514349584,10.640397116048968,,,0.6038851895711802,2.6218725048611575,inf,,0.899767258801209
411,1.8409344707692397,2.071002584850943,-3.9119370556201822,1.4058096372695612,1.332797233331978,0.4932537824035463,0.6836087641567219,0.9953481394326505,2.1169991052295107,,0.6068309995095971,1.840809667203347,2.0767843832742545,inf,0.9178655849197062
412,1.3838685355127496,1.2178634979449134,1.3463653240776194,1.2969315399836865,1.2677220967379959,0.27685085644527485,0.36897767228351236,0.47195285214082117,1.3688571285734021,1.868440904396542,0.581717464821069,1.3838085643853293,1.2239439154015166,1.3503144641427067,0.9544904863529065
413,2.410466206130102,2.6227013636864243,-5.033167569816526,1.487468069659472,1.4551501236962194,0.8491970721587893,0.2779821384903644,0.432661996204405,6.100097591087947,,0.5370774965580548,2.410417797797261,3.421198048368825,inf,0.8417829426363114
414,1.5735282894755969,0.5623392193154362,-0.5652699100128777,1.71530934176756,1.7133953616812656,0.25830435961947973,1.9698822167054932,1.8621122200892641,1.1755810183632178,1.0933512464339503,0.6380535849069913,1.282975929096289,0.9443986251908136,0.7743757915924514,0.6778227266623336
415,2.0183644669824266,0.526911915941028,0.9264224460982533,1.4738368074113533,1.4491906642890384,0.8831392996697126,0.8938058499480847,1.3964542940994558,1.596258904971925,2.24655722743439,0.5068466436745385,2.1853948255826423,1.4191434800975433,2.0632337314529825,0.9001381323289156
416,1.252952619476173,1.312991742304627,1.5087990523181398,1.603653923411432,1.569582184398162,0.4773446490459278,0.7661661011313289,0.956687699139366,1.5730729733277644,1.8035342519416562,0.6153451465759925,1.2525407709608463,1.318504909149076,1.4885754460537928,0.9428353486446532
417,2.047144527934929,1.7839308354658683,-3.8310753634007972,1.7219368327273945,1.5947708521995776,0.8251629673305502,0.36233197554275876,0.478819681592692,2.2903457788018704,,0.6008849035917525,2.0440743978425444,1.778209472830732,inf,0.8908169727802111
418,1.1126317101623207,1.0272305659397445,1.1981108811066914,1.3146504234190486,1.2542315618878286,0.43339611983043574,0.3719636673066244,0.4177343120340999,1.2031024683752314,1.919351803233369,0.6509067234006624,1.1124407966046437,1.032665826469469,1.2031821029326406,0.9449587835999919
419,2.1372941603758697,2.183590083691457,-4.320884244067327,1.3209197068631533,1.2815694986879866,0.9099769319483744,0.2546019273072897,0.4061336080220356,2.304323813738841,,0.6447042257417027,2.1371648209085565,2.1895322317130637,inf,0.8053301848716603
420,1.681773258068273,1.211666450457716,1.8084486980905696,0.9930413969140455,0.9476205525076367,0.5595454603080121,0.21391175757512593,0.2607832478575063,1.4141876025569136,1.9097280008241684,0.6038851895711802,1.6817099640840971,1.2177025384642166,1.8012901101613414,0.8747600784351867
421,1.9168807483050136,1.2837581252894659,1.339919759319638,1.1440289963943007,1.0849147199457934,0.6344681973419565,0.1565401328300233,0.2113304822044494,1.3427743827394854,1.5338419121570097,0.6333676938231112,1.916340559385438,1.2903871315471156,1.3401735869315625,0.8612817832648788
422,2.237037133895046,2.7499182000005025,-4.986955333895549,1.7292578364471387,1.7036882155889814,0.9124437795839352,0.16373842863230487,0.2532768849939159,3.0304836564366604,,0.6207552362147116,2.237005447348064,2.752194566028127,inf,0.8213337163151915
423,1.891192266060256,1.6165067722221547,1.4962472676630494,1.4585576696403721,1.4296612768086983,0.9328712815405245,0.24694395352471296,0.35657630284817154,1.8783175689961338,1.2344908237409915,0.6207552362147116,1.8911379132083337,1.622854962599166,1.5033314064395527,0.8555270142505567
424,0.4868995001522502,0.27368916601780485,0.15697494340260287,0.9427309994759134,0.8694391035098991,0.10456006946801277,0.6385927309744674,0.49851658894944584,0.2899990730747454,0.22674054889025894,0.6068309995095971,0.43685258134979704,0.21255420070986034,0.13342200404579663,0.8570919228802555
425,3.333531623467003,-2.0600140840412644,-0.0047071295791361045,1.725196073902699,1.708270593737606,0.8440398882290352,0.9349638310797365,0.8918676822228113,1.7287421866511055,1.6376964236845064,0.581717464821069,2.690210282973879,1.498444958719463,1.5117994428701844,0.9305873579454735
426,0.7563639012223393,0.6306538433041282,0.4999431211276397,1.1436088610437902,1.126095710422013,0.17154855381517023,0.7858634257185604,0.9585457757408274,0.883001671429768,0.9016713155226845,0.5451288209179292,0.7561343131307233,0.6324738338394367,0.5019408814217448,0.9652420722400219
427,2.8198227024096414,-2.4766521862857873,-0.3431705161238541,0.8129387346498855,0.8098551883659877,0.695295442800041,0.5693383216915668,0.8674104503210632,,,0.5947193981915972,2.8156354117821474,5.70155777963409,inf,0.8606668774972057
428,2.2695608256836644,2.737735567147077,-5.0072963928307415,1.3099238994108746,1.2832412744210737,0.634328948049723,0.8658872784127483,0.9205026015103287,3.3480190993249437,,0.62595550513784,2.269042865126692,2.7449313302350786,inf,0.9347519847182374
429,0.3299018964923754,0.21773259046445753,0.2228423627873416,1.3748657242078821,1.3387687984240184,0.1563964626280356,0.8462678564832326,0.8401055317422914,0.31919404092286047,0.375302144633266,0.6403206450210053,0.3298939212610904,0.2243999421589934,0.2295320166042368,0.6761708033213691
430,0.1201986110500691,0.0666281180793708,0.058927544743014065,0.33012945805186594,0.20927347658475728,0.08962371216234931,0.652381049336854,0.7748974202287594,0.08839558397957842,0.10400438931336797,0.6207552362147116,0.12019845042336903,0.0733053957731549,0.06562676328438849,0.6128471555377042
431,0.13162844247843644,0.047354213050003535,0.037471907634973184,0.6563027680080001,0.5423486080130865,0.1847754075178426,0.7338434916687894,0.8411379752545184,0.07615290291237885,0.06920783385219863,0.5947193981915972,0.13162844247843647,0.05403201558103274,0.04417208140553709,0.8021154959676473
