,bvp+eda_XAp0,bvp+eda_XAp1,bvp+eda_XAp2,bvp+eda_XCond1,bvp+eda_XCond2,bvp+eda_XDist,bvp+eda_XFuzz1,bvp+eda_XFuzz2,bvp+eda_XK2_1,bvp+eda_XK2_2,bvp+eda_XPermEn,bvp+eda_XSamp0,bvp+eda_XSamp1,bvp+eda_XSamp2,bvp+eda_XSpec
0,1.4217034776662554,1.4915681717577947,1.2420258532268034,0.4717443275704672,0.43737289041383054,0.732367164167778,2.340347144750517,3.064295929760185,1.8440100620659572,1.728389329827322,0.6668815377411301,1.4215301358087087,1.4960072901602255,1.2415234509728577,0.9318105365027775
1,1.3093333199837625,0.49928995529629705,0.3621096866091835,1.0553687007878985,0.9887430473799306,0.7436621362277367,2.5085515061812855,1.9613068457725973,0.5882453779404097,0.5799680478877983,0.648888643467878,1.3093333199837622,0.5059677578273267,0.3688098603797472,0.7983728142046704
2,1.5041855158944588,1.0693865914972065,0.9278777821219006,1.2338401412084847,1.2409593524570974,0.7656011546932199,4.151500384829289,2.156838583600898,1.2086430454972343,1.3748851305477539,0.6447042257417027,1.5041273980263157,1.0759694387654335,0.934642586269535,0.7718390010040247
3,1.8325814637483104,1.3029127521808397,0.7698398013481995,1.4965908155027066,1.4932730365274376,0.8758469726037883,5.2242843259478144,22.230946840248926,1.5652770166483307,1.6060878255488185,0.6447042257417027,1.8325814637483102,1.3095905547118687,0.7765399751187637,0.8305420438770986
4,1.6262450307504817,1.5092491851786685,1.86845209001631,1.7530237181966217,1.7157060980851908,0.8051352521772178,4.005498598838608,28.382118467648354,1.771613449646159,2.2992350061087636,0.6068309995095971,1.6262450307504817,1.5159269877096972,1.8751522637868734,0.7166924264727778
5,1.8325814637483104,1.9219519605870634,1.9425600621700307,1.253300385592521,1.226277809422153,0.7695636711686745,4.6303893155091576,14.109610071306303,2.481567748522486,1.3829442742346088,0.6380535849069913,1.8325814637483102,1.9286297631180924,1.9492602359405953,0.7930409606692325
6,1.1674776106651585,0.8113635253465232,0.6582070026823457,0.75888145629875,0.7366899567961843,0.7621942787697679,3.1473554005288626,3.021528400134794,1.2607073341689203,1.6271291917876956,0.6602640781246099,1.167462313215314,0.8179628145073528,0.6646706801189874,0.7778596529125922
7,1.2683502373305562,1.3693750064278511,1.1419087225188624,1.3335100207682826,1.3061776744467066,0.6271131705620925,3.5294799143548534,3.316078619798265,1.5417382520081957,1.7884093823427731,0.6684167106117298,1.268333563486326,1.3758033118722315,1.14714451237346,0.6722959572081286
8,0.7201758529478646,0.1762466757095652,0.0470807667416101,0.5470343116166779,0.4492582124254331,0.5930517348677409,2.5811613565767866,3.2411432114598484,0.2266775293364571,0.1550524643701668,0.6125606311107803,0.7201758529478646,0.18292447824059452,0.053780940512173844,0.6219411378520854
9,1.2265172613904718,0.6124695495204635,0.4207135687279442,0.7350469601753337,0.6981535976659116,0.6514681660329428,2.6882273395472787,1.8292541440744094,0.7864950254548475,0.6556144597614192,0.6309483474627791,1.226407782107499,0.6186118267614399,0.4275752754920571,0.8460451784329709
10,2.5257286443082556,3.1747149290824312,-5.700443573390687,1.7504071619747472,1.7267750892561828,0.946035724083122,3.9089759366427046,20.520710777352086,3.1747149290824312,,0.6233814453054027,2.5257286443082556,3.1813927316134603,inf,0.8615952309484103
11,2.75934349548976,2.2479528973409812,-5.0072963928307415,1.6980866820213996,1.662778432586242,0.9478285223229613,3.0977319266855723,23.863119064882273,2.2479528973409804,,0.6125606311107803,2.7593434954897607,2.25463069987201,inf,0.8508781856145161
12,2.659260036932778,2.3480363558979636,-5.0072963928307415,1.7773824140970402,1.7533665770090907,0.9305923564396085,3.023580087275058,10.16571619954284,2.348036355897963,,0.6468212168108125,2.659260036932778,2.354714158428992,inf,0.8326695816321138
13,2.5257286443082556,2.076102640414322,-4.601831284722578,1.7722633552345055,1.752246677722566,0.9417222716683324,3.1613610605161133,8.241247581106546,2.0761026404143212,,0.6207552362147116,2.5257286443082556,2.0827804429453507,inf,0.8473859696676141
14,2.75934349548976,2.2479528973409812,-5.0072963928307415,1.2057275774323455,1.182873892344612,0.9051239321622454,2.6615612065518413,5.638649768805736,2.2479528973409804,,0.6333676938231112,2.7593434954897607,2.25463069987201,inf,0.8583459928131423
15,2.4849066497880004,2.522389743042741,-5.0072963928307415,1.4111424061200277,1.3662967159259551,0.8306742698778556,3.106299608814452,11.73504994938309,2.5223897430427407,,0.6180765742263259,2.4849066497880004,2.52906754557377,inf,0.7556975298701564
16,2.70805020110221,-2.70805020110221,0.0,1.5573716373497941,1.5437345451835345,0.9097091381533065,2.8875402826318677,4.418080262903896,,,0.6468212168108125,2.70805020110221,inf,,0.8365649587258097
17,2.659260036932778,-2.659260036932778,0.0,1.726430573244178,1.6825316843394167,0.9314005412695017,3.0390107706947322,4.508033563404288,,,0.5677978065141052,2.659260036932778,inf,,0.833201681757924
18,2.798271894804359,-2.798271894804359,0.0,1.1852815948241118,1.1774201996806264,0.9390505769729324,2.8643623582475297,9.806280709302758,,,0.6125606311107803,2.7979749086301973,inf,,0.8084992316240043
19,2.5549815666804343,-2.5549815666804343,0.0,1.3448535255232235,1.3289530533115184,0.9173091716438357,3.2659266492719703,3.4813627692955924,,,0.5883313578629602,2.5541852763847688,inf,,0.8490280548034961
20,2.3243450532332757,2.6547802652534003,-4.979125318486676,1.3373997176504435,1.3348438203018809,0.909727788579057,3.1636819706519175,10.478029393420046,3.2855391500181654,,0.524519217297268,2.3223343883790637,3.0987785556489005,inf,0.8154584642612007
21,2.5123361837218234,-1.499052161316547,-1.0132840224052764,1.1767524314987399,1.1669145305371593,0.9148507238404615,3.036666465522888,7.364409347173558,5.061542545460267,,0.5748741956352443,2.5107032048320104,4.785987880307081,inf,0.8700250326214958
22,2.5446825485610423,2.563827589665434,-5.108510138226476,1.0443001023344964,1.0419722302469443,0.7584627428332245,2.772107362969412,9.78659350971947,2.5568617140089827,,0.5677978065141052,2.5414064570274855,2.5382217085557217,inf,0.8915008473536714
23,2.4022792385178984,-1.7298475142412928,-0.6724317242766056,1.0238135874092547,1.0244441685715377,0.8684617763690744,2.8999337546120167,9.429841350227182,6.291781128061106,,0.5947193981915972,2.4010558176180563,5.268839513410978,inf,0.8553818094508862
24,2.5585149723911065,-1.7768487967756612,-0.7816661756154454,1.413422589369813,1.4189575770152252,0.9402636108104022,3.2287745434715114,3.246646618421319,,,0.552929491858785,2.5566174973420006,5.137375385266093,inf,0.8579496374267941
25,2.6880561106587395,-2.573665938617455,-0.1143901720412847,0.8660434943588342,0.8434744820752285,0.902394363725369,3.563053861427941,12.645305395467581,8.714272226399228,,0.6038851895711802,2.686614920382145,6.929190559702202,inf,0.8613569617136261
26,1.8632636102260294,1.8032269912982548,-1.6400076835055835,1.663502612981603,1.6568341045355177,0.7038913404240914,3.472620908989445,4.319115587844779,2.188544056161408,,0.6125606311107803,1.8631122660066308,1.8055289258663143,3.07548466332739,0.769048128285666
27,1.645500018543628,1.6981687275161066,2.35342474044567,1.5998282762977356,1.5829099214175295,0.6963661844532223,2.6977476755465037,2.806935421985013,1.8872798971265328,5.028340747693832,0.5978297680564633,1.6453529841342278,1.7038846585972167,2.361233820075553,0.8886950862972687
28,1.279321283338499,0.44316964333740994,0.2430078469416599,1.51189639913139,1.5184139575548323,0.8110051056016337,3.030822135440512,2.093740900910661,0.6383278845353987,0.3891824351061193,0.6425374456860184,1.2792951887935557,0.4498025193097882,0.24971449229456713,0.674787292565506
29,1.4383948253331122,1.4979842924708273,0.9986157560140017,1.6422345020212212,1.6254310974327033,0.7238671853164376,2.17277223592198,2.1889581331315657,1.7996047435353963,1.2132637789932228,0.6180765742263259,1.4381960276627614,1.50241694667015,0.9803386618395359,0.9534084660120647
30,1.0116349123797845,0.6426312863406205,0.4631114486604069,1.6561331945728675,1.5842332671302852,0.5058238482076333,2.734609466527236,2.4997356299068403,0.8606292637651126,0.623309670518979,0.6447042257417027,1.0116092450465357,0.6492389276796874,0.46983988080975214,0.930586048195186
31,1.3583010394848642,0.7341526547944697,0.5563597356763661,1.439082174091897,1.3771038367031623,0.8136000780085902,2.752693346792148,3.1696344390949434,0.8910007758562574,0.9406421017377948,0.6509067234006624,1.3575989303975498,0.7322072501713992,0.5398950541222846,0.8998718682563225
32,1.4169920318379103,1.0093565051346134,0.9959121131065309,1.354256875077113,1.339737352934609,0.7069861198669142,3.5631555450714245,5.631269553585506,1.159014607831713,0.974570158422025,0.6509067234006624,1.4167535686045991,1.0154341368511721,0.9998125853614293,0.7795161113284802
33,1.5078284566223004,1.0537897685956175,1.36892519193611,1.3203467152807498,1.3359986300679063,0.746741256965826,2.6664403208235097,2.6507836985830404,1.186597577440763,1.6620497191438124,0.6357360191111145,1.5076337129790511,1.0563161441494018,1.360370676110099,0.8295541209464867
34,2.0833130597171476,3.364967655219971,-5.37413565867718,1.3025712439557415,1.2656685967661867,0.7901648129521123,3.905875161228994,7.112251717025194,3.4954620656311755,5.816345721712455,0.6528756675646988,2.0823791856671785,3.296907243414525,4.418840607796598,0.8026158118998153
35,1.4013979911928989,0.978080640873842,0.9721945905931553,1.3235175074454404,1.2792531592147578,0.7921547113902213,3.255264937149081,3.9219075688567706,1.2451383456316523,1.576277050892193,0.6207552362147116,1.401114753718449,0.9842482657332899,0.9756525725775846,0.8112442575994386
36,1.5851089309532236,1.2030191377161932,1.2024304871426277,1.29277826345478,1.2786766999975685,0.672708336571105,3.269418385692444,3.485638725618146,1.3945788865366566,1.531400200217331,0.6602640781246099,1.584745299843729,1.2050574031307402,1.1846868974393525,0.8439007154279278
37,1.8451819909910496,1.3466157031871802,1.0764398657452272,1.3958190120168,1.3863951326790682,0.7946518867977611,3.130035570573797,2.607858636309671,1.525895199255061,1.2816007878425892,0.6528756675646988,1.8426317996018116,1.3293074297462801,1.0381903658677194,0.84343295453484
38,1.6258366439073928,1.3990505142547471,0.8958803722175723,1.1251251483299411,1.1017582616722628,0.6494624451923076,3.660885103369858,4.48710943552344,1.8543972489572498,1.6641342632585532,0.6284777104787076,1.625680218535523,1.3993664426872434,0.8959049749496811,0.6671245746504338
39,1.4745928254658438,1.4738112284969247,2.377974433055721,1.4662536006794042,1.472731092160587,0.5178108886839353,1.5538147406498397,1.1254934876964484,1.7823048180701626,2.892314680281621,0.663668482632973,1.462072102631244,1.4720425782128395,2.322847500022039,0.6793998707310779
40,1.1078067839700565,0.5641376161953435,0.42123136024518426,1.2016270569282235,1.1499383834293664,0.7601483044187631,2.659712983824066,1.590409411041147,0.6737435428680223,0.7017645197443014,0.6357360191111145,1.107014152348949,0.5647129609894112,0.40620445780987613,0.7064203847321718
41,1.0823520186986244,0.7024333785435934,0.38545171176197246,1.5226676658633438,1.4656344382433462,0.591210771544203,2.892755238750867,1.3827312616216756,0.7993534699577586,0.8240671809476263,0.6380535849069913,1.082312521254657,0.7084474476403144,0.3907881290562403,0.788277359079546
42,0.8681720565863353,0.41116900039621473,0.26422078884687683,1.7783699654786491,1.7619259631453443,0.6677100487181755,2.5611181242437895,2.2847039459101413,0.5052865473090449,0.45447485132358073,0.648888643467878,0.8679504043157775,0.4167505277155307,0.268829348464496,0.7179734073170384
43,0.9934028039987175,0.6516449676411646,0.6132303030731294,1.2396428885239448,1.1706643755934794,0.5903252317875344,2.925038693511087,3.980484836780522,0.866782691360366,0.888260207978482,0.6309483474627791,0.9933817814610159,0.6580941423199832,0.6187495464397106,0.7113922609770988
44,1.382306110408744,0.9734877550253118,0.6714289618381986,1.711850900572279,1.6729567188389378,0.7613868694478418,2.8698137289137047,2.298813156332967,1.1275302427095573,1.351775038057284,0.6333676938231112,1.3822580734551797,0.9798411470712735,0.6767725456881553,0.851312273309248
45,0.7413176246437491,0.25425640233593727,0.12470685436451745,1.7125436493646977,1.5728257993580554,0.5907044121198601,1.328467258285736,0.7804096227283657,0.32855479147041927,0.20955553719316558,0.648888643467878,0.7411942875314342,0.2606543327043674,0.1308376487660595,0.8430305243150364
46,0.8975606304519863,0.5508336632094302,0.5507060225050311,1.2579402751310678,1.2278875454026215,0.563660766715523,2.1525390464319383,1.9135432051815848,0.6539354996489084,0.6713090910241902,0.62595550513784,0.8975507605001023,0.5574984052088172,0.5572738525699579,0.6747319555061551
47,1.1351553383936088,0.6655130742611679,0.4822923008528084,0.17293301827745555,0.16205874620381128,0.6654547529781716,2.746893499499969,2.399171677512685,0.8509996515296712,0.9235859846702597,0.6509067234006624,1.1351379700175597,0.6721413108685322,0.4888820443101511,0.8891876083501088
48,0.9402485341054608,0.40921578539014625,0.08322818947328448,0.8709229385115999,0.8432086769943046,0.5652872535106437,2.2489529944173063,1.7478835130507133,0.49752174365270263,0.08478765357449206,0.6652988471865258,0.9402419526966683,0.4158465663661565,0.08995584646283987,0.830884597464144
49,1.5042008788201668,0.9050417462618681,0.4882048415272604,1.6940160336416232,1.6727900965299853,0.6620859765894883,2.817127113573791,2.68644632869053,1.305944417468206,0.8075801293310467,0.6566669596287297,1.5041273980263157,0.9111288187379374,0.4951141876386016,0.9214792349529832
50,1.3730491343698699,1.5548057167810345,1.6706263466863902,0.7320992102885115,0.706614882632107,0.6776381251251069,2.629380679898048,3.5195785027549227,2.024140673317135,1.6067564982584541,0.6447042257417027,1.3730491343698699,1.5614835193120644,1.6773265204569536,0.7401451816964041
51,1.3070429026999573,1.1213738786139291,0.854430301146774,0.5748948430972387,0.5545466563881963,0.4541482963879438,2.9811540410830717,2.7134695314713912,1.4939771441625902,1.292030578408249,0.6233814453054027,1.3070314445839375,1.1276891902908923,0.8609162511268332,0.781124747396582
52,1.3685631528455318,1.0351285938020585,0.7074069023119129,1.2260204682440612,1.184094641525745,0.7387733278760823,3.3962191137343045,3.7654573844633195,1.2337035907560476,1.1026803997343437,0.6652988471865258,1.3679743137839335,1.0309993180123387,0.7093054106188558,0.5692428349051994
53,1.2375599124610748,0.8957402131619876,0.6920312991858086,1.4991683235355489,1.5029867851852077,0.7548174811205511,2.962556456939634,3.523653670131567,1.078015265403312,0.8252689877130236,0.6403206450210053,1.2374146915485684,0.8989029508841294,0.6684270294960297,0.8600114003272593
54,1.0138770239612946,0.5710256417618307,0.6693000863555303,0.5821968492190952,0.5530911185338129,0.5823161847561521,2.587395686634172,2.572859389803535,0.6952970809581467,0.7919173763416387,0.6380535849069913,1.0138116869756446,0.5777317355819052,0.675889049822166,0.8882410421172923
55,1.7854332972938467,1.5792738162143336,1.6392391924372798,1.2020562836404178,1.1685034705705197,0.868992302085515,3.495788988960214,2.6559387808309327,1.6124786181326247,1.6060878255488185,0.6727386042041725,1.7853798622640158,1.5849650559153747,1.6469793640676615,0.9126332695081371
56,1.7924902362151898,1.6747602607971912,-0.4223629317000732,1.6106308081687177,1.6261257367133937,0.6779300653885051,3.6467460623263297,13.530776013597865,1.9985700392378132,3.246948617852682,0.6038851895711802,1.791959489230722,1.6542352583621691,1.7387939336481424,0.8337968681873289
57,1.7488476690555157,2.0934248771642894,-3.0203810364424717,1.3288232582769735,1.3336314065635886,0.4593391842021203,3.178481465033093,3.481513188175601,2.1687245163137336,4.300176279171152,0.6566669596287297,1.7472323471779776,2.0709967789638077,3.0895261528403517,0.7608994344235654
58,2.1593492246973067,1.9698455807441233,-0.5350552904648667,1.1759023275865703,1.1608801398930373,0.7671960029583941,3.192001674494985,5.941108752902665,2.4431541169985964,4.712914146608396,0.6284777104787076,2.1586771677239804,1.9178274763697893,2.0946183423886833,0.941652129888848
59,1.2734374805779207,0.986498906164661,1.5743289795706583,1.440705541322148,1.3862081010189935,0.5738455999432862,3.7576159276688887,8.3844456449274,1.1909112717616264,2.3875205542108366,0.6566669596287297,1.2732831865315415,0.9924343872499782,1.5449529373863389,0.7917115109228675
60,1.5154968526981836,1.4663880316941513,1.3910957292568136,1.2730337810075951,1.292792754443811,0.5463121337928588,3.8571612450017887,12.753151798104213,1.7744681519111456,,0.6309483474627791,1.5153911566765474,1.469950838810844,2.1741800793165815,0.8854091660758726
61,2.0027690720110605,1.5528473547424357,1.4403615110313277,1.6220254551501123,1.592071440289106,0.8547286530272167,3.4643840544607256,4.4611634876754405,1.7996707848731701,2.235614008428833,0.6509067234006624,2.0023159050367934,1.5366121500914414,2.2410157804935302,0.9216953589952588
62,2.147430662926952,1.8738840966698809,-4.021314759596833,1.5260947219584278,1.4907199979174923,0.8185192617598278,3.4924272435777914,5.663116286224193,2.189501594416443,,0.6528756675646988,2.146626524573128,1.8707569965128443,inf,0.7878501297647763
63,2.005262126305545,2.0383011583174264,-3.909738940980227,0.8873388180285314,0.8733116784970042,0.5766963643154673,3.686011251775967,3.750337833392512,2.4208505081907123,6.275566573125443,0.6566669596287297,2.0046227111347084,2.026434111851474,5.4305979772709065,0.8548761255804351
64,1.8254558981166793,1.9139121705420379,0.08418460684826456,1.3664722526886353,1.3645327566430614,0.592688078814643,3.5750651427634064,9.718278391717943,2.2630841781378668,4.4746393144973,0.6447042257417027,1.8232501363194258,1.8999907453118214,2.3860067011331183,0.9022845180412723
65,1.5907342965455964,1.5222767598536775,1.109399930790012,1.1194436679846937,1.0924149395062122,0.6409498167685451,3.193172039721921,2.7491197281450925,1.8822799059085444,4.87682298938079,0.6425374456860184,1.5905616399980513,1.5262089619329957,2.3532581422989285,0.7168466295172596
66,1.7746988619434108,1.6316054841422645,0.8760746504821455,0.8503926035251291,0.8340297913654664,0.5640084671874287,3.8154138819752608,8.965839049561232,1.7503157088538122,2.475931162180301,0.6207552362147116,1.7743125556243344,1.636261987850418,2.58534435398261,0.9466665731459026
67,2.126864419651811,2.8930084508469442,-4.981637343743685,1.4566845430709208,1.4457371582853369,0.8955320962838842,3.166712879044756,10.272221887013613,3.0949210569527312,,0.6652988471865258,2.12388118311201,2.8128842624177905,5.777652323222656,0.9270879833268654
68,1.5246090891674255,1.4925682827398317,2.396969619398897,1.2863420303768651,1.277410400870036,0.7809055041595194,3.867801443458122,8.93807753115868,1.6774687027161783,2.396431434542132,0.6333676938231112,1.524229084987127,1.4942033429765553,2.2978226392710215,0.9100683477874323
69,1.8090920825097434,2.1222746298764115,-3.931366712386155,1.0157491032541248,0.9736654800073192,0.6413645429059935,3.9914774115575162,23.4131752053361,2.278174423861457,,0.6097226960127671,1.8081598905958358,2.116160642642716,inf,0.6750493335066639
70,2.146342249128324,2.4595597500215876,-4.6059019991499115,1.459966249019969,1.456740075587933,0.7005360044535213,3.974287848680321,7.629559675772013,3.1309072714113078,,0.6125606311107803,2.14529648447586,2.42065298835895,inf,0.7034185002952941
71,1.5824979123102407,1.2899985682501671,1.1105383344110105,1.7013675015582306,1.6527384084832333,0.7210448912166838,3.723070026529158,7.662596757345931,1.6432036544417867,1.7276193897085759,0.62595550513784,1.5824173882275254,1.2960257988033652,1.1139466526682165,0.8497425953500348
72,1.5658561057428346,1.4758949579789884,1.5999660352889125,1.3468641407181303,1.2978095094621056,0.6575078046191235,2.767727261905736,2.0732968779542054,1.7022000497897947,1.9672046563211156,0.6038851895711802,1.5656868784079654,1.4743456540426056,1.5068687454135448,0.9370562004576227
73,1.9395650046951796,2.156350149071308,-4.095915153766487,1.2719746102902234,1.269227140728933,0.7449045544423234,3.5101734813053125,3.821833720322303,2.379017050373932,,0.5978297680564633,1.938482248782146,2.163222667846247,inf,0.7621740010915397
74,1.4800615831415835,1.1686072574174489,1.0052651878868057,1.5884993723546121,1.5899944703977829,0.7429507297493475,3.3770021517121718,2.97961011968253,1.4198938000029517,1.4221449665580435,0.6284777104787076,1.479726305912443,1.1743093068835286,0.9981905236699291,0.7418496776291871
75,1.6380868723052704,1.6795266672279376,1.0656111311938998,1.410339438803246,1.406865043791696,0.846139799910434,3.6048070252789173,7.882397436364616,2.0111444267469647,3.586322075948374,0.6309483474627791,1.6378373869557985,1.6768765348182197,1.9880577951233986,0.7789790987298886
76,1.8181537406748953,1.1438413923948443,1.4647457885287483,1.113090419040548,1.0883551611108675,0.8008158612572022,4.164077072521162,15.259976559194104,1.3725243302793695,2.4932690639593407,0.6380535849069913,1.817966561397229,1.1228567399950338,1.2304023051657955,0.8115621776312457
77,1.599146536977483,2.309478006446761,-3.908624543424244,1.5798337422397963,1.5969412184221772,0.6775429537713908,2.8895336050905116,3.136034493828351,2.7206256356766385,,0.648888643467878,1.5985529249991595,2.3073775664298295,inf,0.6466413820972217
78,1.7844986962063423,1.9172355362494595,1.253229711436322,1.0206407155303114,0.9982558339877308,0.6814934572550615,3.7589351764262955,6.811213641270886,2.119359383446999,1.129204571859758,0.6097226960127671,1.7843205401310567,1.9193341995650341,1.255020815469454,0.7444394680894115
79,2.1119280496544484,2.678988721382839,-4.571202844593769,1.031209126810187,1.0073920787228619,0.5581382074813587,3.1442289356503412,2.803335272132399,2.7154981008348296,4.958937754394956,0.6153451465759925,2.110313205346923,2.6026896854443837,3.8613487144648793,0.7913367972183847
80,1.9162404084293743,1.8911331037217527,1.6085786056332925,1.1801231986440097,1.155106150740287,0.6904836913862161,3.770028406704907,7.405081339354179,2.0914004174429217,1.5953937644077778,0.6207552362147116,1.9143791827759657,1.882332976141186,1.5517295948134537,0.7823210203018321
81,1.6359961734233919,1.4839373935540048,1.4564559489722781,1.368135849164715,1.33864141490218,0.8172880874104541,3.4277492344011535,9.65559053915487,1.5171565943384782,2.152260652383211,0.6566669596287297,1.635724850842274,1.4868312030202497,1.4077128239524501,0.8721027552815224
82,1.7636123885678068,1.6973938674186442,-3.461006255986451,1.2555054280230804,1.2103527427057608,0.783266581613508,3.7909177673155208,17.42072667977611,1.9919845298246606,,0.6566669596287297,1.76207122552623,1.683774907804807,inf,0.7167046592073002
83,1.747148887164393,1.5353979905582438,2.1468979214972785,0.9667239560048411,0.9399639374940456,0.7246957710894505,3.3016544943881314,2.25207921194532,1.7433829530886749,2.2980883721899166,0.6528756675646988,1.74691358143622,1.5367971047702687,2.4748800249447074,0.8316497587313648
84,1.818787951241239,1.4016814126809614,-3.2204693639222004,1.3097646494427582,1.3236020654074456,0.6503601722113865,2.917579756628921,4.394614060735762,1.5006551958938894,,0.6333676938231112,1.8178296969612389,1.4068965415851373,inf,0.9274079420757915
85,1.5543648661340899,1.360942023606178,1.2517101780736906,1.3433630052449814,1.332826156305929,0.6885761463737227,4.216973204688188,24.81993511998601,1.5655181971259753,1.701090517163958,0.6584896970785714,1.5538980917602299,1.3648731406576327,1.2339089068172016,0.7917635966429373
86,1.6155297223659482,1.0910934362681826,1.1087528263201856,1.0986416537299912,1.110938679193283,0.793387624275259,3.7996804491828584,10.987595203396856,1.4698013789838296,1.9727743441198424,0.6447042257417027,1.6147855187606956,1.0932646823415144,1.108157701511641,0.8661476239246624
87,1.8254449539001598,1.557459413961403,0.7084952255270944,0.9975499322629694,0.9735591595696083,0.8836212602198346,4.569693606382292,3.947921108055473,1.8332378115765466,0.6539932619396429,0.6468212168108125,1.8252473133890443,1.563692170877609,0.7154554138089488,0.8174047633985494
88,1.530687327982501,1.1750020193794555,1.4137121482188677,1.4404990699638969,1.4230162030614584,0.7341770547082275,2.7515578849345483,2.1930370353947097,1.3729658971486385,1.6851798144636838,0.6528756675646988,1.530318707981501,1.1788988408727157,1.4012563952977675,0.8218701525637903
89,1.3569310081224153,1.1251711072954083,1.9525904842964832,1.0609770544357997,1.0292921918604236,0.636532809726785,3.0358038565327066,5.079814352313441,1.4164219073416955,2.2638342800981888,0.648888643467878,1.356088519062825,1.128684806279941,1.980634918270167,0.9106680332799543
90,1.386514160165296,1.195408303314349,0.7053422832706748,1.0780354518043924,1.0581100380643158,0.6696916357584847,2.3474846760605783,1.2356493811423168,2.34725624192877,6.570697469590214,0.6309483474627791,1.3776209728237148,1.1086198999774222,0.886693043588159,0.6483747254096708
91,1.4950256611900856,1.6657098915373945,1.757499636824106,1.3507789778001222,1.3405860093633875,0.7330247112205744,3.701923357076246,11.411179527903956,1.815389301151951,2.1210417561414,0.6602640781246099,1.4941765720990114,1.6653826756127696,2.0077298564298514,0.7874940868381831
92,1.4660018085454283,1.1636567911368298,1.1117194268272663,0.869727502626537,0.8436291042169011,0.600336217365935,3.394642673601346,2.0512118686348852,1.3867093001999218,2.004433087341415,0.6619902821573977,1.464904761701802,1.1635643767300692,1.0979968093441719,0.829180564766946
93,1.7910634332413193,1.7446320746617572,-1.9871566743227487,1.399386760465361,1.3746940365652938,0.642512160718112,3.0452064244610444,2.827300560843052,1.9642824746350527,,0.6284777104787076,1.789295839790082,1.7321877077465755,3.491632247103306,0.9290145465950971
94,1.496245800016641,1.5328485456377479,1.7061024726111236,1.2608153363101398,1.1937937822521796,0.7304663344552115,3.5489722519502744,4.606476358686743,1.6554507547762412,2.462131460437305,0.675384900321601,1.4958612420049335,1.5264431871520567,1.6869924660399989,0.9177590156837095
95,1.1941752009429873,1.1916068911446074,1.7155349159551077,1.3454717577589541,1.2988996912129864,0.49026325717856095,3.413403652873412,2.941601458025507,1.4108051234966925,3.892252713953187,0.6509067234006624,1.193289335610018,1.1877378948019541,2.445898581615481,0.8181674769114522
96,1.6441945474136128,1.2830078495242345,1.346763937599631,1.200824247515762,1.1728080216642258,0.6975336934985833,3.7918336172039178,4.129308557803053,1.5325032336514468,1.5510425957674638,0.6509067234006624,1.6436843511626915,1.2860521302557497,1.338961467948437,0.8227034114183488
97,1.715030458391086,1.7795197733667876,1.800320616372593,1.3254039328925609,1.3242408295463048,0.7656952854608648,3.7024693550667935,6.10674441190077,1.872031313386318,2.1068519278415403,0.6447042257417027,1.7148601583922642,1.780281669446433,1.753327732981772,0.8831093411544789
98,1.5393676962893654,1.2828836350119726,1.2633784073942982,1.3845654535684973,1.336066918477994,0.8307447438326986,2.8603359585356576,2.1760132991061916,1.6938354024197437,3.049798454999575,0.6547956803312163,1.538565327234947,1.2794857690815915,1.3460008783303823,0.7403619400373374
99,1.455706351766416,1.1655190742872181,0.9917132319435695,1.5150611912041856,1.4803053255474663,0.6945683995533848,3.133600360285425,1.6106429051042839,1.4617403994037375,2.3747912044388504,0.62595550513784,1.4550967745546524,1.1618946956005913,0.8895664271647382,0.6103470838996375
100,1.5499086118406944,1.2472729410166137,2.196436346376378,1.667673870339366,1.6756089023421947,0.7295126998932899,3.3118690823372403,3.851091849438261,1.381027696356674,2.494233811924475,0.6403206450210053,1.5476636249391968,1.2397905989502815,2.047828182728916,0.7255529387386143
101,1.2046530519019787,1.1765753200356555,1.3784313128020718,1.6021262603580506,1.5909110465763703,0.32300685561856546,2.7490797475607356,3.142342098500491,1.3018254967231604,1.5866851561719575,0.6584896970785714,1.204528514259659,1.1809552125372684,1.3676379960453626,0.8092406541077594
102,1.2352814572881605,1.3943911626533796,2.3472816218171877,0.36664282574060947,0.32850366658194924,0.4765775769892271,2.497161397796129,3.5330969903129597,1.7264725940800598,5.94784101923282,0.6125606311107803,1.2349667099099284,1.3999879361217307,2.347741279375355,0.826422341007811
103,1.8918019853687718,2.0195096371253287,1.7666641006337676,1.4483770140001822,1.438843776518055,0.7641830351564823,2.997870201572413,9.103245461989932,2.4200641872435926,,0.6153451465759925,1.8915798045102659,2.0260142459673354,1.796238760032101,0.8327851321319744
104,1.3296622758098275,1.1986453564818913,2.1067227151614207,1.5835253666277578,1.5791886190762994,0.6685102379538694,3.076152545530022,3.357258548474488,1.4663302176983335,2.473637337116989,0.6309483474627791,1.3295360273012817,1.2045608666774903,2.0212254862817516,0.7267469551514932
105,1.4583666965021571,0.9862698195396358,0.9263179851706416,1.7173434773426315,1.7028783003381507,0.8033121273600551,3.773750942863375,10.60496653671337,1.121748371776515,1.106185327771663,0.6153451465759925,1.4582917416271408,0.9924067368311225,0.9306962759077123,0.8618477844771132
106,1.210536038304272,0.5205449868877661,0.16085791979980502,1.3257889787915267,1.2990689953694152,0.7150463871512962,3.6364562261884754,2.6938498705220266,0.5788448003934766,0.1987578957709395,0.6309483474627791,1.2105126611663377,0.5272006396446303,0.167513530005868,0.7149544216269346
107,1.2518949734338791,0.3816714541209971,0.3117610854478332,1.579512968425851,1.541720419730221,0.7621920269793946,3.783853177802151,4.867859980890225,0.4852125264276523,0.6274758034736282,0.6447042257417027,1.251841171258792,0.3882850699807581,0.3181601788838187,0.888862941021955
108,0.9459349785827139,0.4650989053823483,0.2657713756127993,0.966310130469913,0.9091164189432345,0.6196132114460203,2.5393402939434173,1.459708300261981,0.575362720345501,0.45815491306808986,0.62595550513784,0.9459198143630759,0.471704694682999,0.2720598355156829,0.6197979525634163
109,0.5543271942990703,0.3055011732928782,0.21367199362673395,1.2164710707057893,1.176962343348982,0.49091922185050796,1.6094588083579433,1.0759644026499608,0.5405799295476797,2.024072184704588,0.6357360191111145,0.5541584839221348,0.3111751211735803,0.21878423742194192,0.5411453003912216
110,1.0496373873295393,0.6647156712036371,0.5032491056758699,1.2217605604190436,1.1971653553132302,0.7512498234654408,3.0666554844410565,4.198385406434127,0.8060870798499786,1.1407344753354332,0.6684167106117298,1.0496316664464878,0.6713587318933598,0.5092740330745718,0.6733073709620825
111,1.5709482120010645,0.8436827012227723,0.41301598813014584,1.099209698241698,1.0942709901131247,0.7683766429798254,3.6223270461494925,5.493058841458793,0.8851641576523401,0.5345344657657012,0.6619902821573977,1.5709118849634975,0.8462115135220425,0.41460216397789124,0.6333918200216779
112,2.305948191997923,-2.305948191997923,0.0,0.9778730375846457,0.9559726668031341,0.602804032837125,3.937768790629928,5.801557241406426,,,0.6333676938231112,2.3058125177531186,inf,,0.7804480866339256
113,2.0160428559250665,2.5857884287975113,1.0952622017828268,1.5313764876994767,1.4911275238122157,0.694680901721167,4.45379959096018,29.138438057452305,2.5859277638467284,,0.6468212168108125,2.015903520875848,2.5926055663777574,1.1019623755533916,0.672820154247786
114,2.148340510243565,1.9426651507130206,1.6060878255488191,1.1756339005266092,1.0792356243952517,0.6115763565052311,3.369472430046874,3.2943227493313767,2.2234604030253022,1.3252939038736935,0.6380535849069913,2.148339179606409,1.9493442838812065,1.6127879993193823,0.9297832595425563
115,1.6966939446059728,2.6174552676648233,-4.314149212270796,0.4814739998800514,0.3848385554132511,0.6214289411750601,2.953695190211207,3.2090336527010637,2.8962604600257857,,0.6097226960127671,1.696691743055661,2.624135271746164,inf,0.8701286600541582
116,1.853634872946142,2.2373707880104434,1.6060878255488191,1.0144827585527307,1.0004426531782766,0.7449006784718221,3.691355614476245,14.316568931191679,2.460514339324653,,0.5641709578113449,1.8536348729461425,2.244048590541473,1.6127879993193823,0.8136349739106725
117,1.7531212986504867,2.5610279136203093,-4.314149212270796,1.6209408683835669,1.5574883836653948,0.7865032777167337,4.297420400037964,10.8337827647527,2.848715439086726,,0.6447042257417027,1.7531158456358507,2.5677111691659746,inf,0.7807952724558426
118,1.6094379124340998,2.299246191728531,1.095262201782829,1.4251114362578405,1.389605641376859,0.6954896619135759,3.446242198383539,17.479061666732623,2.6988755183725934,5.006432000524279,0.6207552362147116,1.6094379124341003,2.3059239942595604,1.1019623755533916,0.6969675731641966
119,2.3024757935846356,-2.3024757935846356,0.0,1.105166327863868,1.0757396636404597,0.6731250008549969,4.145646614936726,49.52255169736405,,,0.6038851895711802,2.302473988055317,inf,,0.6968086081333985
120,1.4272095972533112,0.6900919056005521,0.2844616992308753,0.14696382737077213,0.14312841624374883,0.645436165363942,3.5194326362312047,4.910126300948747,0.9132309118601101,0.7924789580533536,0.6425374456860184,1.427208952519697,0.6967651630769296,0.29115774625855606,0.7381904061311193
121,1.3996726380509243,0.6898530226955377,0.31173095975461385,0.9308655503377776,0.8982677880082676,0.7811023915350194,3.281730637043791,3.7716678589828136,0.8643057154695892,0.43738316006034034,0.6233814453054027,1.399672337421484,0.6965311258560074,0.3184311335251774,0.7259922058098233
122,1.5058067738213963,0.8085193723314348,0.46227760013806707,1.2899500351582034,1.2574874375023521,0.7588223106499169,3.657859665532716,4.8613685073906385,0.932460355624781,0.790015636648411,0.6468212168108125,1.5057788434160315,0.8150833743783661,0.468759637001624,0.6697008359001534
123,1.6117358429874817,1.7949735919624847,2.290384051555438,1.0605595393914031,1.054873946684877,0.6569165141454516,3.597647668395644,10.902714154905958,1.9012095218877623,2.1841656763239765,0.62595550513784,1.6117182882936658,1.8012143495869106,2.2975388249264213,0.8386986655931914
124,2.2706696654463348,3.2772536785559727,-5.5479233440023075,0.7980572113486877,0.768274275344594,0.7806297566890144,3.122596418992542,4.108344875912598,,,0.6097226960127671,2.2706558554221026,3.4635858267188073,inf,0.7924647664634563
125,2.2072749131897207,2.1068742990810754,-4.314149212270796,1.5224334599313136,1.5181696611628985,0.7408625113591034,4.096357386175941,32.134105344478236,2.3945563715328557,,0.6125606311107803,2.2072749131897207,2.1135521016121044,inf,0.8797388856178733
126,2.1484344131667874,2.1657147991040087,-4.314149212270796,1.7061813403991453,1.6971666369292142,0.7088220589339477,4.291287971238339,16.16720380609578,2.165714799104008,,0.6668815377411301,2.1484344131667874,2.1723926016350377,inf,0.9330247712405124
127,1.5345115863174321,0.8722157839417499,0.3491516262827776,1.2773551199032394,1.2548994444183192,0.7439759575027728,3.357892693453279,2.1201125997749974,0.9879046838450412,0.3414903994064475,0.6528756675646988,1.5344850591976997,0.8782869928311016,0.3552050976537577,0.7580942822405041
128,2.0074233852318124,3.510843113938861,-4.830027017579416,0.06698765724152846,0.049433343948291394,0.6772492383701408,3.7745387124681664,10.279927790508085,3.5945288989077935,,0.6309483474627791,2.007265593413053,3.374433382074034,2.4423470353692043,0.9501019649683424
129,3.1388331171946646,-3.1388331171946646,0.0,1.643585028274788,1.6114250671906416,0.9327194832296902,3.5842537076500283,9.442244329429395,,,0.648888643467878,3.138833117194664,inf,,0.8334084287208496
130,2.3056656433997813,-2.3056656433997813,0.0,0.43335219024404,0.39300405818713946,0.5025654051631281,3.2372321150478447,3.5575489774554576,,,0.6284777104787076,2.3055896020143445,inf,,0.9246486269651573
131,2.1355697126853297,3.564873860705357,-5.700443573390687,1.2166090588291072,1.1613958945857354,0.4899405716975992,3.2046225973805837,7.261381927390714,3.564972392329949,,0.6357360191111145,2.1354711810607374,3.5716501948609785,inf,0.7020914016453962
132,2.659260036932778,-2.659260036932778,0.0,1.5823554572181076,1.5534226334587709,0.938696705317633,2.832864863372462,4.977198759692641,,,0.6207552362147116,2.659260036932778,inf,,0.8060305642617681
133,2.5682882587270512,-2.5682882587270512,0.0,1.7429923548790491,1.7186017108845368,0.9362603701848724,2.9244268857839764,6.674615296974647,,,0.62595550513784,2.5682882587270512,inf,,0.7911437802917616
134,2.995732273553991,-2.995732273553991,0.0,1.7653864284287257,1.7405139255434092,0.9470346594163888,2.935357684597277,4.574262034695591,,,0.6180765742263259,2.995732273553991,inf,,0.7966000038531271
135,2.813410716760036,-2.813410716760036,0.0,1.730484919619621,1.7193737827100244,0.8088033564819245,2.8477377068424223,6.757181124890083,,,0.6403206450210053,2.8134107167600364,inf,,0.8429466819284797
136,2.569621811604176,-2.569621811604176,0.0,1.3567837878448006,1.3566017914512276,0.9512980156581906,3.1934836832747906,8.386618959755253,,,0.5978297680564633,2.569593457955194,inf,,0.8145270392200327
137,2.659260036932778,-2.659260036932778,0.0,1.4656941576730311,1.4570771834626697,0.9338530498455242,3.050709737899825,10.188968195597521,,,0.6380535849069913,2.659260036932778,inf,,0.8343136300517023
138,3.136445879163436,-3.136445879163436,0.0,1.324384511962076,1.3174679790375325,0.960092407104318,3.225529555451758,10.36679114014202,,,0.541134803179459,3.135760918157694,inf,,0.818044282381637
139,2.4898036941751474,-2.4898036941751474,0.0,1.3915560656027397,1.3957212076305836,0.9182587392026713,3.5091268736421575,6.8109835721308665,,,0.5113665138247345,2.488914671185539,inf,,0.844113148037602
140,2.4877993738969333,-2.4877993738969333,0.0,1.4086495270062371,1.4046380431494323,0.9601333509760656,2.9682328302128296,8.534043414061811,,,0.5490601803369085,2.487576878343879,inf,,0.8061859163400178
141,2.328547896094897,2.1472420792926195,1.2213035111178883,1.6578112235720293,1.6026443982219976,0.7688336511210397,2.8100368151642052,3.302771556577793,3.5514093613328837,,0.5748741956352443,2.3280168675862427,2.1441776357110487,1.2382769595097058,0.8755847705119778
142,2.5433246048778977,-2.5433246048778977,0.0,1.5009569140670833,1.485089817207366,0.9138324735303217,3.0203747909113514,4.9148013355605205,,,0.5287703885177266,2.542677015538213,inf,,0.821820897048398
143,2.5796975444535652,-2.5796975444535652,0.0,1.679297041943626,1.6473082902089518,0.9709199324341123,3.2662879372252784,8.925003835911646,,,0.5677978065141052,2.5795104124969788,inf,,0.8199986924225356
144,2.606338303446028,-2.606338303446028,0.0,1.2668745210450414,1.2397678980074098,0.9298118812145828,3.0671890354030107,3.8245206015537656,,,0.581717464821069,2.6060954785792165,inf,,0.8847248484170674
145,2.5189249785548795,3.1815185948358073,-5.700443573390687,1.763164409261326,1.7346362835125002,0.8956864184872733,3.23727371423671,6.488418115118979,3.1816353719270047,,0.6153451465759925,2.5188082014636817,3.188313174458034,inf,0.8510058475429149
146,2.5807347522468844,2.426561640583857,-5.0072963928307415,1.5207488645358536,1.4898318900506562,0.8930881548408515,2.579355522307241,2.4173673648147385,3.1165677913219216,,0.6284777104787076,2.5805368808032503,2.4334373145585197,inf,0.8786747267477272
147,3.032528471680365,-3.032528471680365,0.0,1.5756559341390366,1.523078050957751,0.947203132126802,2.3877588589945793,3.593925090798548,,,0.6447042257417027,3.0319353222179517,inf,,0.803574417648222
148,1.7721587136192276,1.8481081417894678,-3.6202668554086954,0.5000236937427271,0.41438806383986665,0.49070714189079034,2.5752393370665607,3.1230624931214606,2.135973906269857,,0.6153451465759925,1.7721529395891367,1.854691123605347,inf,0.7832849861812814
149,2.4491451421434416,2.152686142579136,-4.601831284722578,1.173371474589278,1.1614872269802352,0.8869863680602492,2.3520502005171964,3.289068571221637,2.152806446822343,,0.6403206450210053,2.4490248379002337,2.159484249353372,inf,0.8795934715338566
150,2.5981051596681257,-2.5981051596681257,0.0,1.3345303092931886,1.2891973622779722,0.9111269630337097,2.322666186409482,4.863668891498616,,,0.6207552362147116,2.5977021439333448,inf,,0.8841289185902381
151,2.5748038969387705,-2.498543782244581,-0.07626011469418979,1.4483035316502586,1.432543041650152,0.9221767398594289,2.2638295987483588,3.5344206847323076,,,0.585052858160615,2.572063491902623,7.449207096289888,inf,0.8709844178218178
152,2.4641669275554183,-0.15881331618139072,-2.3053536113740276,1.6446057682436002,1.633025023649776,0.9331855172498894,2.253866092093426,2.579504500023315,3.8214427606129586,,0.5748741956352443,2.461450573751659,3.461317442070088,inf,0.861806674493044
153,2.245422362488743,2.9499240371295348,-5.176228636240743,1.5341935144206906,1.5001082140182327,0.928553593805682,2.204299789695538,3.2316683140660603,3.502568784712881,,0.5978297680564633,2.2423265512486394,3.2875026162841237,5.877735781779639,0.8388314925520335
154,1.814469645180808,1.5712361209640997,1.3898760887278638,1.593759351060303,1.577085719550385,0.7703616470894211,2.383600898809695,2.621274889779627,1.7138898286522886,1.5779895689743424,0.552929491858785,1.8107384358258578,1.5612238205679625,1.3983446616341246,0.8593613073992352
155,1.9567758493570546,1.5836885723854601,-2.871342703528793,1.512679994800581,1.512411641648231,0.894352677774169,2.125204534218142,3.2603447627272044,1.817824464996719,,0.6038851895711802,1.9535727653906587,1.5368201950759675,4.361823927356362,0.8405208891009814
156,1.9027354143602504,1.8111134319323368,-3.6373777927824475,1.5117344180880625,1.4670394539971756,0.9353028173026071,1.9731660937448168,2.9267895785393128,1.9486033798677598,,0.5915533975974677,1.8885640984992467,1.717200448904183,6.415506040789082,0.8364543573570178
157,2.195401064323124,2.308884387424567,-4.504285451747691,1.3273731064968561,1.3122830409981456,0.6316510767081296,1.9701055373612701,2.721932064315773,3.5380068215401312,,0.6125606311107803,2.1624367518505556,2.9406793950398655,inf,0.8996576457833094
158,2.870309511163742,-2.5080739663663403,-0.3622355447974015,1.316519122667877,1.294050109401556,0.9258628795832664,2.116730104866203,2.4211858444717964,5.724323449898707,,0.6447042257417027,2.786191938986501,5.676934031159461,inf,0.8664137761742124
159,3.086197838278895,-3.086197838278895,0.0,1.3211324623655722,1.3171171620923507,0.9420900829391676,2.1509094578486723,2.671407506854452,,,0.5677978065141052,2.966605063895754,inf,,0.8440476693927406
160,2.8696855596665434,2.240795405584032,-4.648818861563611,1.3863884919560805,1.3199996264212028,0.6485328828854803,2.507485006939352,2.8867694652620526,2.6537936215880458,5.361609564597508,0.5915533975974677,2.68563660626531,2.521419169004402,2.7347732712429638,0.9432639108230979
161,1.7601741181450998,1.2933666108094133,1.1814092829052663,1.4808941477559028,1.444106252616118,0.4913839980074513,2.945148688802875,3.2248526595127207,1.4643520892717588,1.5971433184782122,0.6008849035917525,1.7576157246612176,1.2803283977020827,1.169942481257929,0.712167019965954
162,2.4391242544598812,-0.027931865891364982,-2.4111923885685163,1.774184800364161,1.7813269973904713,0.8886114694466465,2.1747867219869543,2.3865788505760377,4.396767294975412,,0.45235697871908603,2.4294088733025783,3.274373601353623,inf,0.8216742254068495
163,2.263139011435445,1.550681533599323,1.1901257609106923,1.7689063530222728,1.7577653449157942,0.9045722907642836,1.8281830578874412,1.9733806926311204,1.911954577111786,1.5224153498247033,0.5370774965580548,2.262723559568915,1.5494541108895148,1.2051466117886225,0.8296930976847652
164,2.24152267861188,2.360308606110698,1.0952622017828268,1.760589377116913,1.7346873306598394,0.8695194541523492,2.262959981987071,2.2762716668978342,2.360550321189437,1.514241029057715,0.5915533975974677,2.241280963533139,2.3672281237204666,1.1019623755533916,0.8678562683181649
165,2.3017718634001016,1.9713308762209247,1.2960608981233133,1.7646611652471154,1.7673969693287739,0.8487083779413885,2.1771183117086683,1.8737872353946825,2.171743647842094,1.2237642460023483,0.5713653840954815,2.3015855926609623,1.974280846184529,1.2652304535336143,0.875314237502339
166,2.2297030420297492,2.084446170241047,1.3829442742346085,1.7176053602355341,1.6729272456330695,0.8652947829706397,2.0200943207263258,2.34540737079566,2.3732192341447247,3.054686070004864,0.5748741956352443,2.228612050577852,2.092214964223973,1.3896444480051726,0.8692605166136511
167,2.3980051192451666,3.3024384541455203,-5.700443573390687,1.7472295101553483,1.7075643911200564,0.8389678724835886,1.8895207215014274,2.1656839011610316,3.302570522567628,,0.5567373465730988,2.3978730508230583,3.3092483250986575,inf,0.8153575057663406
168,2.5118289341828706,2.114411621261938,-4.6262405554448085,1.447632937789894,1.4046686472829228,0.8399034696955977,1.9923657113387756,2.3134318082813454,2.258679313446709,,0.5641709578113449,2.511524447692292,2.117255603934933,inf,0.7740396532943393
169,2.1890775377721883,2.0654131172959356,-2.055947866651609,1.3953987835625616,1.333533558686515,0.708015542113301,2.3043490702547773,2.139139176126243,2.2915799823728813,,0.6097226960127671,2.182730131185767,2.001539138564321,2.4783635511990645,0.9056112140429844
170,2.242385560626134,2.071763651644662,1.3829442742346085,1.762442758576763,1.7275266552694162,0.9303169383521271,1.590959373286894,1.8014871115064903,2.181279253901986,6.277433987300238,0.581717464821069,2.2423265512486394,2.0785004635531856,1.3896444480051726,0.8331866692437886
171,2.0706873114643196,1.4077921366149075,0.6699028301457339,1.6812618863463258,1.643038975432646,0.8980442586105333,1.3847227247934237,1.5167689615138824,1.6842938587536425,1.9425600621700312,0.6207552362147116,2.0702395655817307,1.4092797828558947,0.6717483611840963,0.8632398881126627
172,2.2072749131897207,2.1068742990810754,1.3829442742346085,1.5109867673523638,1.4645796063434924,0.924606565669101,1.4790814576156541,1.5728640742517033,2.3945563715328557,,0.6309483474627791,2.2072749131897207,2.1135521016121044,1.3896444480051726,0.8345120855824404
173,2.3142616833644523,1.9926403817758942,-4.3069020651403465,1.7274186687175466,1.699086281275,0.9014850704687015,1.3872640709463913,1.4956365438254973,2.3392050908844224,,0.6584896970785714,2.3140955290676346,1.9984050429576368,inf,0.8242710713562359
174,1.9425948196982141,1.2739316606855724,1.335616665514967,1.3616901590446502,1.2954785845688055,0.7344632641556321,1.1204914466500537,1.2144753755359603,1.4549417291887863,1.6064222177940344,0.6233814453054027,1.9425823589626385,1.2804688373160427,1.3365084784573575,0.8456013559360899
175,2.2563549878845492,1.963014187540412,1.4777243110804434,1.7067494419282283,1.679718226229676,0.8547247816780706,1.7810437509477826,1.6093411152611197,2.7510646349144894,,0.5947193981915972,2.2562317579162516,1.9636760272811946,1.4905636776095512,0.8262287420224613
176,1.9166102376209353,1.040488362045079,0.7971884427470419,1.7432050537920891,1.589445984655266,0.8797122136149174,0.9611604476323132,0.9970446989588708,1.4090484806625119,2.3714778860214896,0.6547956803312163,1.916567119821403,1.0465904078004145,0.8042842489952211,0.8045798222616463
177,2.182060650757462,1.726623453405169,1.095262201782829,1.6463213417162619,1.6219308990447932,0.9147457925223799,1.200808204108766,1.4895343879576506,1.9090637071515235,1.6060878255488185,0.6233814453054027,2.1819419538050626,1.7334199528885983,1.1019623755533916,0.8100620110957384
178,2.0653012974958886,1.3040960102574237,1.5892077812907917,1.3034125010286615,1.2669180558331257,0.9282699162599101,1.1459647406109432,1.3479121316418954,1.42889733971895,2.359319890497358,0.5641709578113449,2.0647061976360748,1.3062853419690146,1.582948410814621,0.8201092961467058
179,1.3310469892693149,0.7798441659692592,0.7413386977010954,0.3541542699462532,0.28095842711719876,0.6448770506751189,1.5943125416817263,1.550819861728366,0.9311433615683781,1.0147243177439522,0.6153451465759925,1.331006832096505,0.7863904453801601,0.7473067336709219,0.9262774055531241
180,1.0922110747394205,0.4844804393530142,0.44425500456957767,1.325626751631715,1.2650266254055458,0.3339328653829057,1.377109260531221,1.5922102010290646,0.6302570850721767,0.7510397944213711,0.6153451465759925,1.0921002050528867,0.49085807457683506,0.4502784476010477,0.6992054080427389
181,1.9691169488911935,1.7445098215764714,1.352580524579087,1.6461407941206256,1.5305694572937993,0.7244420280004445,1.2561689785005836,1.5861296645137928,2.1992595112690485,,0.6097226960127671,1.9688944993347097,1.744733124468421,2.1142074995230495,0.8235036017256723
182,2.0288059110606316,1.2373277140802688,1.1247917150550095,0.822694336224,0.7431682715042655,0.8257931491450573,1.1713823332397868,1.349751836221033,1.4761270868073733,1.7388776663986478,0.6207552362147116,2.0285794513585085,1.241297312976289,1.1264741976272377,0.7540064508086636
183,2.371699189961567,2.0001788662794873,-4.371878056241054,1.6407465093117026,1.5781303469366044,0.89776312113653,1.6434471722875115,1.7985629840310418,2.0315941446126713,,0.6008849035917525,2.371697019186775,2.0005993308445307,inf,0.7491788112679378
184,2.1681459382405985,1.3350730578138692,1.0952622017828268,1.6349758208304743,1.5479459077416882,0.8466215495493987,1.5030681420812508,1.3682017791728427,1.452947831674411,0.9774791661264444,0.6309483474627791,2.1680542000364396,1.3418425985490567,1.1019623755533916,0.7813729168921023
185,1.4759651135857461,0.9940697215890766,0.5882843357203145,1.0939935335396684,1.082580318153751,0.6010344993960186,1.8548635808105252,1.7920626811902949,1.1460665225222637,0.5919208332972651,0.5677978065141052,1.4758787424175954,1.0006629910387774,0.5951121216590843,0.9146346962725511
186,1.6584263987317787,1.1743525632584593,0.8256307483108367,1.1697786350843085,1.0918916907746887,0.6519560006581815,2.333161485710846,2.096145230411636,1.2272174994581897,1.2183985132524484,0.6357360191111145,1.658278077853574,1.1779843543955586,0.8315080586545684,0.6879068017981467
187,2.2888281904597587,1.0216891887115143,1.0244161482655647,1.4895983078333217,1.404187915170135,0.9118121054689309,1.7892944273287392,1.883919843126911,1.3323198438857962,2.076091454794554,0.5641709578113449,2.2886821878250543,1.0281740454033503,1.0285170837974416,0.8072445634689817
188,2.2380465718564744,1.852959089100111,1.6060878255488191,1.705737850540007,1.6499147322489294,0.8925389027045134,1.8050131338261657,1.8737047033702805,2.0761026404143212,,0.6584896970785714,2.2380465718564744,1.8596368916311408,1.6127879993193823,0.7997821900518354
189,1.0325613364577797,0.48115850602315646,0.29553634590082245,0.3178772714314242,0.28310098064831213,0.5520994958701364,2.276999531065221,2.1804680636384277,0.6103442122954454,0.4626097336297993,0.62595550513784,1.032543688698405,0.48781554065215194,0.3022031490325432,0.7223990580213598
190,1.7100730368205488,2.384664121649653,-4.094737158470202,1.0865948939859842,1.0855214541536289,0.6866156308162896,3.1836518681879995,2.031208147945286,2.8907833417752813,,0.648888643467878,1.7099337367038923,2.391099813669005,inf,0.944080506508575
191,2.1869532767356503,2.4148780079869274,-4.601831284722578,1.1970824288873176,1.159231371091731,0.9397639084184836,2.530153840660421,3.2778852704905828,2.8205170733560605,,0.6207552362147116,2.1867793194746805,2.4217297677789253,inf,0.8275889046257665
192,2.541191970880418,2.4661044219503236,-5.0072963928307415,1.7578649168956209,1.715367009438089,0.9100232797389738,2.2134308377366017,3.900139682039079,2.560954603917025,,0.6357360191111145,2.5409832960084056,2.472990899353365,inf,0.7502015759850145
193,2.7095889999338367,2.99085457345685,-5.700443573390687,1.7522996000132849,1.700942957805982,0.9053014377266918,2.397626643296695,3.4019452666744514,2.990892246162209,,0.6153451465759925,2.7095513272284775,2.9975700486932384,inf,0.8268330022254214
194,2.3748510524563757,2.81083674674853,-5.1856877992049055,1.7388601894041418,1.729088268726199,0.9370840733022816,2.565497604563116,3.5455121706370494,,,0.6357360191111145,2.3747974271079704,3.4269654559084346,inf,0.8216129605437882
195,2.4616356933170533,3.2388078800736335,-5.700443573390687,1.7188865331802727,1.6907096253054743,0.9194052749092079,2.9761594771161977,5.600863719719915,3.238992999639027,,0.5748741956352443,2.461450573751659,3.2456708021700567,inf,0.8303182751468434
196,2.6127400212978853,-2.6127400212978853,0.0,1.728846076565768,1.70687962339116,0.9544323821210592,2.8418988629446873,5.809754158417533,,,0.6309483474627791,2.6127400212978853,inf,,0.8333399468577799
197,2.4079456086518722,-2.4079456086518722,0.0,1.5198286600022435,1.488154732700359,0.9215917538767915,3.07512857557827,8.911701193864749,,,0.6180765742263259,2.4079456086518722,inf,,0.8021260045726804
198,3.036438067731292,-3.036438067731292,0.0,1.1698850236715117,1.1539361678216995,0.9216709228422298,3.080042713230203,7.256394190386624,,,0.6509067234006624,3.0358600646447704,inf,,0.8298684618322599
199,2.237943999660919,-2.237943999660919,0.0,0.6719717469356595,0.6026934622155491,0.35873072419098057,3.188125387674408,12.30918017133614,,,0.6333676938231112,2.2379424106147785,inf,,0.6171444233865516
200,2.3118515171187317,2.2678503774152476,1.066219652466999,1.213132574912845,1.2031906366037413,0.8951629573250611,2.7047899745216606,3.0676430133057266,2.270225117380871,1.115130404999553,0.5978297680564633,2.3117379641249802,2.271453315144336,1.0560526742493137,0.8913748167664903
201,1.9615014415958656,2.128788479383929,1.4347436951277945,0.14257358439717902,0.11118161440078136,0.5320110783092326,2.879804353015997,4.350546882881811,2.748072862620873,,0.6180765742263259,1.9607305416538718,2.133614020568229,1.646793698977869,0.8909290384112444
202,2.2777741270579828,-2.2777741270579828,0.0,1.6446823780919182,1.6113162244718002,0.9172873548079722,2.41513978642232,2.278195772978289,,,0.6038851895711802,2.2776757017338465,inf,,0.8488531745367238
203,1.7695655974886035,1.8510425110260722,-3.6206081085146757,0.8226639245153587,0.708509179829052,0.6275881011503539,2.563586826772125,4.854226817058252,2.139142643501009,,0.6380535849069913,1.7695414606616222,1.8577204007424064,inf,0.813123274586709
204,2.306321675204055,3.3821368850145372,-5.688458560218592,0.1515848085745051,0.11044583035772784,0.7097175554385613,2.4583110946420725,4.232650475532262,3.380895842911649,,0.6509067234006624,2.3062584983603545,3.380994674344636,inf,0.8763384688184293
205,1.853634872946142,2.055049231216489,-3.908684104162631,0.6849540775672031,0.5314244850728718,0.5330391159103587,2.508669763886676,4.229139471695683,2.055049231216489,,0.6284777104787076,1.8536348729461425,2.0617270337475184,inf,0.9401801612599521
206,1.8968285792934088,2.0149043803340048,1.6324184198577112,0.7542190781179917,0.7312650667481788,0.5361599680918594,3.014348393328599,3.1717228796094257,2.2062951317733295,,0.648888643467878,1.8968237324766637,2.0213291333270194,1.8195311605281994,0.7542411447488324
207,1.8627391664896837,1.1552669440431118,1.7315040369689494,1.0445760932631565,0.9415459567777497,0.44487282991418503,1.9051519376175057,2.17415077407221,1.2456558585736581,,0.6068309995095971,1.8626827742319543,1.1614489738437348,1.7203005052459102,0.9370456468071635
208,2.3715779644809976,1.3829554598543763,1.2494128816100862,1.7718663406787565,1.732198771888698,0.8538111270680107,1.2939902465262796,1.6237154021641893,1.5371061396816343,1.7884093823427731,0.6380535849069913,2.371577964480997,1.3896332623854053,1.2561130553806499,0.8150040006296787
209,2.0767747196057393,1.4264442764487284,0.8075801293310461,1.6011966751427231,1.5724878525349821,0.9033681594186285,1.4199000731389104,1.7034725126150745,1.7293129838573718,1.1979435463806056,0.6425374456860184,2.076689775707482,1.4332070228780145,0.8142803031016107,0.8291730883936222
210,1.448951428977102,0.6181837299584094,0.5665545081575862,0.950688523685045,0.8392371388281105,0.3798162439561615,1.7800144155743827,1.957136747335373,1.004154501412893,1.2286620850115,0.6357360191111145,1.448926552311426,0.6245770980350346,0.5732946747239863,0.9320613033461091
211,2.2358016221089057,-2.1999897827569943,-0.03581183935191113,0.06698765724152846,0.0370249634871432,0.4943305776671091,2.8611153601531307,3.973529681890533,9.165337455123487,,0.6207552362147116,2.235549691657887,8.073402968986406,inf,0.9198742433885349
212,2.5682882587270512,-2.5682882587270512,0.0,1.6849330505636857,1.630986939503985,0.9329898618827647,3.1442252919011624,6.62471493900429,,,0.5883313578629602,2.5682882587270512,inf,,0.8927275167093491
213,3.401197381662155,-3.401197381662155,0.0,1.730701898866534,1.70580986544139,0.9404791119925987,3.325896467291227,4.8635975877207684,,,0.5490601803369085,3.4011973816621555,inf,,0.8642137097993742
214,1.937610663312289,1.8000585285817303,1.854754418352333,0.4155548027011733,0.37825526952299265,0.596465950347371,2.7437957111202853,3.0561893122462522,2.0402251285504773,1.7197747839831983,0.6509067234006624,1.937093573971729,1.7944614433117854,1.8382794848629478,0.8488254701622663
215,1.9840898282094002,1.0662548515859598,0.6825284835270566,0.7823091327950886,0.7578101214782547,0.7580349356335333,3.5294124781147596,3.2300128838167876,1.23073139378291,0.8729544215160141,0.6233814453054027,1.98396975877238,1.0726927388452119,0.6879646012332754,0.7412970547006394
216,1.6392209828787594,0.9994185749449438,0.7670016003233133,0.2303631307044071,0.21467747361958975,0.7175802626614408,3.6074396630854784,1.7813908342863303,1.1219695650035912,0.9948663257480747,0.6740851607140061,1.6391528379733638,1.0057660816887566,0.7730855803164163,0.8723081281581271
217,2.0804679407241027,2.3172283562761944,-4.397696297000297,1.22673611695781,1.2010875447557496,0.7671556998086237,4.072402435315621,59.15669552502387,3.0058209013506576,,0.6207552362147116,2.0797082439083803,2.313941230593494,inf,0.884458977837839
218,1.5188540909340558,1.30316063351413,1.083319292829164,1.5964637414755658,1.5436091110947043,0.8157028450055396,3.9005396716216203,3.768609117395828,1.4787793284056783,1.0903448919192011,0.6447042257417027,1.5185313537464247,1.3062399470657913,1.0939406927667268,0.7734051656058241
219,1.428134870777266,1.2312600937628744,1.2026921383391596,1.737987153926139,1.579677740942441,0.7501203387394596,3.390342998385212,2.1703348440192403,1.4323254195613622,1.450430995323875,0.6357360191111145,1.4280427105002764,1.2369480011414866,1.204611577902431,0.7953229915969517
220,1.9329267613082648,2.3812224509625315,-4.314149212270796,1.6759141207509347,1.6033999963157868,0.7121761217070304,3.55959361627673,9.40749355485676,2.3812869020647405,,0.5978297680564633,1.9328623102060554,2.38796470459577,inf,0.9211567638989959
221,1.512222934830267,2.22533994462306,1.9595306070520775,1.3714012115590757,1.3444677439329151,0.5071182824570255,3.4122497420256095,5.502291627713188,2.7828906372936384,1.4019924692053032,0.5978297680564633,1.512210380006463,2.231007937207322,1.9672531455932127,0.8367761354461809
222,1.8909658910046243,2.200039769951961,-4.0910056609565855,1.0649825002462763,1.056149318180541,0.8097076241610149,4.200045980591751,22.108535635653848,2.2557922595635813,,0.6097226960127671,1.8909170407612736,2.2067664227263415,inf,0.733155138865274
223,1.823957996450663,1.5609275656640027,1.6046104280357678,1.5551106937639856,1.5273525683717895,0.6762310324607816,3.9318979694747664,8.824840366943157,1.6642284029444034,1.856355591688159,0.6284777104787076,1.8238695231462887,1.5624392460221161,1.5980092166104776,0.6397035234230573
224,1.802224381656158,2.3326926907712195,-4.134917072427378,1.4068655052173875,1.401443143390658,0.781656822836076,4.343699324165477,21.52152183302662,2.7651032739521026,,0.6097226960127671,1.8016751340154316,2.3327972192974484,inf,0.6328536110375413
225,1.720352835620868,2.3706528253357178,-4.0910056609565855,1.6334738791804266,1.5449058863598621,0.6971419897438917,4.001739042406757,10.30204194412448,2.3708844499813253,,0.62595550513784,1.7201212109752608,2.3775622525123543,inf,0.7868437830734291
226,1.922610804992596,1.565066966181791,-0.08471588997317347,1.463217414672151,1.4571283755992157,0.7168637783742101,4.142975116357794,16.460432112806384,1.782124094298853,,0.6309483474627791,1.9220959709560583,1.5661127876957268,2.7375726403685317,0.7943736611103457
227,2.2543929112067813,2.2476156173173187,-0.009334134803395067,1.2351720043050909,1.2117430760287113,0.8629021876782575,4.121437955690197,29.4022801902205,2.83141670571577,,0.6333676938231112,2.2541124395432677,2.211295804069665,1.4825711915553104,0.9235626109791597
228,2.4966106209093764,-0.6603932003112438,-1.8362174205981325,1.2568615629866158,1.2144826543241352,0.7490747918054311,3.699474762076721,59.628399705151566,5.170144289376943,,0.6447042257417027,2.4930732391210606,4.094210144586304,inf,0.8462709324593922
229,1.9697934232934535,2.427162958895977,-4.396956382189431,1.147149242406414,1.1159338906564207,0.7037101757451709,3.7579536554267534,2.0589538215441605,2.634370528418878,,0.663668482632973,1.9685762053875646,2.412561935225202,inf,0.8749569491534864
230,2.492797106992144,-2.492797106992144,0.0,1.2394634243885227,1.1974555218807958,0.4249838795414917,4.276728190634245,154.5817551734677,,,0.62595550513784,2.4895842393391114,inf,,0.6517769490387962
231,1.8785017224776206,1.518334240687077,1.843001441133132,1.3071615482820627,1.2646997774848472,0.648446508950885,3.5675780374167427,7.224954019528506,1.662730923262087,2.104091897793348,0.6468212168108125,1.8779711660471203,1.524894272715732,1.8001417479808595,0.7902707994969088
232,2.3230711889287243,2.040301305345236,1.3337209922314441,1.4569166274611336,1.4371723242970995,0.8157315651404535,3.5910559144074337,2.933923829879569,2.1301087425322853,1.3327252533577887,0.6380535849069913,2.321881181935775,2.0381665460193314,1.3504237348518913,0.7991807282890467
233,1.3144120768566976,0.9875980985806134,1.242505311364165,1.4809436976523742,1.4378058843039576,0.741865012769373,3.46385099754689,2.4954679886908644,1.5536509344296632,1.616416215385871,0.6566669596287297,1.3143665415504648,0.9931194300432917,1.2276238276546656,0.7555066118048981
234,2.110695173521035,1.5137140013299057,1.186328925217473,1.4534848016820154,1.4389103877235139,0.8090513501564879,3.956300426306192,4.7918061132817265,1.983067796788508,,0.6333676938231112,2.109946569229159,1.5139777838619901,1.1796967716207807,0.9503551624007152
235,2.0159157328616355,1.8927683713009955,1.7884093823427736,1.4415910195902082,1.4481170282651974,0.808645330931126,3.6258882289086487,10.495388530908826,1.9656030429868327,,0.6309483474627791,2.015903520875848,1.8994583858178122,1.795109556113337,0.8279152673320965
236,1.5049825461942579,1.6067548583919802,2.5703314617363526,0.5294825305301436,0.5259224678161849,0.5759605564578847,3.517725318695593,5.125341240894333,1.8581932339047769,2.3273835862828527,0.6447042257417027,1.5048276781669783,1.609938412945049,2.5530059460211407,0.6409143400770453
237,2.610641150295421,-2.5794657469338778,-0.031175403361543605,0.5294825305301436,0.507546601064487,0.871229907077458,1.547543116013445,1.1768403154981122,7.407292487659415,,0.6180765742263259,2.607300298002067,7.00850518208228,inf,0.947750605616515
238,2.436530633742161,-1.3879540566970505,-1.0485765770451103,0.5294825305301436,0.5217158531748226,0.8684013253615305,1.6750716065915192,1.5717873912662055,6.329389107281416,,0.6284777104787076,2.4324407098846983,4.967791054195233,inf,0.953374677955575
239,0.624459053243049,0.4777753932490105,0.44762568836838,1.2692335174533254,1.1773389528783564,0.2576635245886917,1.542413613023561,1.0976368649630968,0.7401908965977798,0.9223053293016087,0.6180765742263259,0.617751149421592,0.4438222918115312,0.3600487756069578,0.6540521416311388
240,1.590189912794956,0.6721412766528199,0.4051741528989852,1.3024375275387101,1.2947938559838912,0.764241285617821,3.8542539035574888,3.154188577337447,0.8346082697182494,0.6777649767898956,0.6233814453054027,1.59001662145393,0.6781670448227833,0.41208925382605016,0.7585590818773514
241,1.5642264953887925,0.9368510971924724,0.6609744806851765,1.409326888293991,1.4225225384110207,0.8531828650015558,4.248671422594475,8.735464315321721,1.089972089262386,0.8559752121234266,0.6584896970785714,1.564039737948957,0.9416139849838325,0.6657555646964876,0.8126558050852938
242,1.4610948644636998,0.9943265693207177,0.6210758461593184,0.7826707603877571,0.7829454849559868,0.7743089211610894,3.608879574364092,4.095815401890407,1.2446019475875931,0.8800772462976905,0.6357360191111145,1.4607784723811266,0.9886323417220334,0.6764301447978515,0.891333509259826
243,1.776192387679055,1.2226622331071746,1.389361850654708,1.564604506268778,1.5354910996466238,0.8358899947603259,3.6997087660187664,8.811279529458172,1.3665197758524181,2.1884550805302876,0.6528756675646988,1.775426907940495,1.2276657200197885,1.3683238276015826,0.8449654512922967
244,1.6101024943222335,1.445089255065554,1.2369490340272997,1.604503578956375,1.567528187306083,0.7321504287410793,4.350844336727905,23.44801353920773,1.607272526684933,1.650481549279303,0.648888643467878,1.6099380374757828,1.449089086450522,1.2378417024072699,0.8897358890870571
245,1.668808573631202,1.1604521216556614,0.8000163222613832,1.4457495283996886,1.4072766975020157,0.8032748671879648,3.163218477978864,1.6310797019423084,1.2680156080619505,0.8125947478959301,0.6468212168108125,1.6686572720940716,1.1655232061523506,0.8073913916583049,0.6646281952620495
246,1.5209647623518687,0.8963760044393883,0.6860715653377745,1.3154352470172368,1.284563222728227,0.829352266851755,3.6028536152522554,3.2453997820397236,1.151968220938696,1.2011674748169132,0.6652988471865258,1.520816720780572,0.8971792237248013,0.6543774213738258,0.6795319203600347
247,1.3432585087034692,1.0063747238043992,2.0385847571392683,1.2236658713943842,1.2189944098662282,0.620147768034501,3.0057414279143266,4.036235372479265,1.0653535926117763,2.308898115874843,0.6309483474627791,1.342851803277054,1.0102082056172934,2.0061185316961723,0.7701259042846832
248,0.9013601859283915,0.5764100364462903,0.6432877864777344,1.3556744661883782,1.2869161068623816,0.6544428967354009,2.8822657411097534,3.3451360372285475,0.7950906735655979,1.0095425345523732,0.6468212168108125,0.900089352536147,0.5764701582033878,0.6163951454208878,0.8435939479264966
249,1.0977941761031649,0.8940207940231033,1.3914041279775982,1.5109752027099217,1.5009639442474374,0.4778488379611737,2.7576602431740094,2.7215711714391433,1.0668888070387041,2.0646912783668854,0.6333676938231112,1.0971134125443738,0.9001952995969398,1.343107197260983,0.7063815785778554
250,1.2126649094246629,0.8844560150928262,0.737378838699958,1.1030909084695653,0.9636348395019032,0.622898676864225,3.127792459431002,3.4201828466517026,1.0005064453955004,1.164542192310224,0.6528756675646988,1.2124904582472815,0.8908795436173137,0.7431762764915399,0.8982972655722338
251,1.564313297783061,1.5213775675452526,1.2690460955114578,0.9198682795273713,0.9135277833938074,0.7971640699471993,3.672228156544237,22.31119027141433,1.8840730150127183,1.557353532334806,0.663668482632973,1.564199020117655,1.5258439329075775,1.2622091529474182,0.7351147327033796
252,1.3560210287187657,0.7918498586565734,0.6519826216911309,1.4343372397382206,1.4115095902197528,0.8177643609699778,3.5254116435068026,5.731198157662881,0.9863411687089091,0.7775296362217905,0.6652988471865258,1.3559591613238178,0.7983017165802859,0.6567453246113205,0.7245783420851019
253,1.579235891848302,1.7362160096143104,1.120846114589785,1.3577895225854086,1.3375761766014647,0.6682408885327421,3.291286082798068,2.4878707783985536,1.9993181461928693,1.2907148978752923,0.6357360191111145,1.5791242710991853,1.7420304028894338,1.118501073521899,0.854308762562851
254,1.45288334498039,0.7755523570806804,0.5432950885305154,1.2692986511270778,1.2577775732090712,0.7937208782768411,3.255619043997444,2.8323354739937843,0.9984262370895085,0.7820945991616322,0.6602640781246099,1.452576623913871,0.7801715094913951,0.5493074810074398,0.7557684277099509
255,1.2366166705936046,0.4870915807681213,0.3473257839186221,1.3908038154850062,1.3491652144547899,0.8071464540682891,3.3505074190294066,2.478628693393185,0.603848724316735,0.7611025275923842,0.6468212168108125,1.23653425816538,0.4921878160513711,0.3506305825245793,0.8441259738134284
256,1.4138228326447255,1.0164037425646384,0.7819483360100006,1.5778657538474579,1.5066813032714295,0.7134923471491083,3.0910944073582263,2.413195997810817,1.1919650572817355,0.9376965316141558,0.6357360191111145,1.413642719305066,1.022981831864886,0.787263815521793,0.8490359597735994
257,1.5981428894341063,1.2633466994274054,1.238146847025321,1.2934212110900765,1.1760864489869391,0.8220124915366467,3.6078005942838893,10.210190841780358,1.3838551359306077,1.6165126732038189,0.6284777104787076,1.5981133887028682,1.269714404758402,1.2440020831018501,0.7716273923644437
258,1.2064002708908121,0.592606966590673,0.4279691904237568,1.42034655620425,1.3933157196886325,0.8591999969440708,3.2418091630873525,2.532189880072669,0.7078964909709395,0.6799441483351034,0.6566669596287297,1.2063831141977681,0.5991372702803242,0.4345073151834367,0.690171060269081
259,1.4843190042876835,1.0930706989177505,0.8812354907589421,1.1254016108434681,1.110027142979588,0.7281898360846375,4.049785537609236,6.1670490908521005,1.2457177305369804,1.1995038165835261,0.6528756675646988,1.4838826894907549,1.095188130354995,0.8678215210785353,0.5822342506807364
260,1.2065461845545065,0.4540461735360526,0.2771604726712511,0.7380639246711151,0.7302708508523756,0.7761929319928303,2.71703884741869,2.737180958609667,0.5496853171580937,0.4428546803841658,0.62595550513784,1.206420241302415,0.4601760849716341,0.2835338255921741,0.5694461020146537
261,0.9838685326592372,0.5101712627832008,0.31323580615927193,0.9666875853123792,0.9623661853592136,0.6026799938822761,2.6759543347766517,2.734400673605332,0.5687688973500666,0.5011884870232628,0.6509067234006624,0.9838263323631282,0.5167073507897808,0.31976244421733474,0.645510613690228
262,1.0269521568319613,0.6731831263643697,0.6150740053302071,1.287017600574416,1.2398313963473668,0.7313459216059932,3.0254971107139506,2.531283796208709,0.8530557529678728,0.8525827016313704,0.648888643467878,1.0260435958352743,0.6758751693929913,0.6166827982745535,0.8416757058418144
263,1.1855239497649155,1.1359126797746408,1.272941860953504,1.1986717854307323,1.1674242747420986,0.5617127183723643,2.884245499593899,3.093610964854403,1.2615992921171317,1.2685385873007415,0.62595550513784,1.185260095393782,1.142073167289458,1.2670444191077461,0.7605835518770014
264,1.5082540281346133,0.8613869101316971,0.5991383079649601,1.108122941428334,1.0919840615412546,0.8476703868100754,3.8630063570994277,2.7566464858491413,0.9653872108999596,0.8360515220547284,0.6602640781246099,1.5081858248208173,0.8676870639430607,0.6048613092126781,0.7509583893648328
265,1.7093115953604656,1.303185643553461,1.0341184192647477,1.245807286408816,1.2332468306097149,0.7995505438384495,3.478695838028553,2.0728064851207337,1.3924625850430148,1.314620653931335,0.6284777104787076,1.7088899914057605,1.307725493064655,1.0391495957842105,0.8912279151221548
266,1.0260961370381214,0.5404621572655577,0.31041628770533514,1.5209744581166682,1.531809879862715,0.6331670033234846,2.865108880379374,2.3952418123621735,0.7451934141949609,0.6395087211132559,0.6468212168108125,1.0259196032746691,0.5460619721154779,0.3137223400144499,0.7428958536704343
267,1.5577900148590471,0.9209820224280953,0.48859115513024864,1.4230545772267473,1.417352752631518,0.6338069384665684,3.265147902321555,2.2647117476569094,1.0228466674248904,0.7732570104119721,0.6584896970785714,1.5576364138708372,0.9267370447555043,0.4843923666978351,0.8491101164389165
268,1.3435449049106774,1.1073339843088077,1.039620905875573,1.5718042793848477,1.580464048871315,0.6909218277947835,2.574750762820939,2.7384178063976217,1.2315798011629935,1.4409872096499734,0.6468212168108125,1.3394955964603295,1.0782509714851483,0.9938379066031648,0.8625565822130582
269,1.414963252969494,1.0969608698621163,0.9951997480765709,1.4792891306512472,1.432476073832832,0.8025604070681922,2.649059563539599,1.660684895182122,1.260247047051155,1.9327687291818922,0.6468212168108125,1.4099497340515759,1.049159222915284,1.4142276660714528,0.9053872499778679
270,1.485540180198816,1.2041922260883215,1.3256662474391305,1.6007382766005471,1.5775715900275213,0.7903150878309613,3.3783989736662683,4.669082750553667,1.3801072116579265,1.5107166826996377,0.6068309995095971,1.4849612795840441,1.1993723949008501,1.2193905281285569,0.7715757959825922
271,1.2846002415075402,0.8612136469066949,0.9392177731341214,1.7199493584546723,1.6835856937949936,0.6632988151693266,2.8044173285648886,1.8867772363792779,1.013449237895067,1.2147177628202206,0.6207552362147116,1.2844600552386225,0.8669311057544246,0.9367000958771688,0.9193910715293881
272,0.7506334420219684,0.6998804065741872,0.6635473740552955,1.6068354112488745,1.5911256967014897,0.18562114471213553,2.17277466932134,2.2856703794954414,0.9352989158438316,1.0031817212444258,0.6333676938231112,0.7505409162035449,0.705365555711436,0.6650980795098295,0.7987223933325148
273,1.019877072038475,0.587045598577034,0.47770991811662866,1.6196444612215668,1.5642427207236416,0.6776700304447774,2.6641215424186733,2.146621411569472,0.7507244961099985,0.6646738137692924,0.6566669596287297,1.019862724436575,0.5936389896209887,0.48378703466605627,0.8780274980920624
274,0.7310395209426641,0.40670965465256725,0.4029888669180548,1.4674713509031196,1.344708451175828,0.4697075923244316,2.244213480416521,2.3493118376213813,0.6215299171293357,0.9887558696593941,0.6403206450210053,0.7310336730704603,0.4133433609653936,0.4096261715101458,0.8230614840797815
275,0.8980242593466786,0.6425540669476136,0.616687772188943,1.1481960007061618,1.115478755069324,0.56661742503872,2.157909963851444,2.097494073879506,0.87958951842675,0.9165957825477135,0.6584896970785714,0.8979870487845022,0.6491022385850628,0.6226174039299149,0.8461255841213221
276,1.2499153174388695,0.7996723375501582,0.6156341941704047,1.4864793401328622,1.4666657483242456,0.5793758874954178,2.9424436639495406,2.9083141165898625,1.154659994931475,1.1302909729487387,0.6403206450210053,1.2498228504370117,0.8052947102743778,0.6156368556471236,0.8176698586776369
277,0.8216036396185243,0.42183113257186833,0.2989527241161687,1.398309673432615,1.3598861373070277,0.5971036690202439,2.7467541433683413,2.5090815602776515,0.5361378157679052,0.44665868329269975,0.6380535849069913,0.8215867964048577,0.42827482950279616,0.3051933256334877,0.6120007105100154
278,0.8803790257242254,0.36386177533043096,0.2608766603412056,1.0948916260488541,1.0279286885271441,0.644530048774812,2.370251412517153,2.0403236552197783,0.5740273152176696,0.4128247079810801,0.6153451465759925,0.8803606834343277,0.3705484489220412,0.26757149473064895,0.7576752582458233
279,1.8897969756405113,1.0479868787623274,0.6830047338736414,1.457848645431884,1.444035957756941,0.845167686645634,4.1025819203289835,1.4843534404528231,1.1848724817963496,0.8782542239085835,0.62595550513784,1.8897398775882588,1.0544546870054126,0.6897759173585369,0.7808571176459069
280,1.4416189412969216,1.0599880656870104,0.8643995118660173,1.2566218819485842,1.2178541029805394,0.7957893079710818,3.8118422605397884,5.040257748359519,1.2953486245358288,1.3821877740024542,0.6207552362147116,1.441478255019754,1.0662194830690614,0.8681568359015448,0.5982918777407983
281,1.6083945921890783,1.5872131725054142,1.5776030736617308,1.3473165460675525,1.3206453332660015,0.8089029713853677,3.953174686311224,1.8344902817271174,1.917931585092143,1.556304142248332,0.6509067234006624,1.6082164365174194,1.5903122470199116,1.5665494644078148,0.6950551789880026
282,1.7657277620864595,1.7210753666596539,1.3816949503990443,1.7028596294645597,1.6643896234354465,0.8195068110946242,3.884786405107994,3.0214405361193735,2.4508158331533765,,0.6468212168108125,1.7654421609106816,1.7144377427859425,1.3210348594175627,0.8680091951141803
283,1.4910068243867687,0.7881341372924191,0.42222025127222507,1.3428537563083975,1.3265292081206037,0.811268174257584,3.7567733604482374,4.007202804633188,0.8664643894803757,0.44836187547697265,0.6333676938231112,1.490963757630891,0.7946549704679238,0.429120461154192,0.9166178980994732
284,1.0031963871928895,0.27111685457790546,0.14681875210972417,1.1290825848929962,1.0706121672264344,0.6988445887189206,3.1852539120191734,3.2565872317373348,0.4443338872280788,0.2623984121367957,0.6380535849069913,1.0031809040881683,0.2777129421738746,0.15328442313456397,0.80795732335424
285,0.8858471147442357,0.320392231435664,0.2641005357306523,1.2426836196504882,1.2070208340309414,0.6909155416856797,2.693131021277619,2.720885992018162,0.4745151714542001,0.5289143328400896,0.6380535849069913,0.885734584643811,0.32668116868785213,0.2694599354609243,0.7970434377754984
286,0.7632892213042305,0.1426712703027816,0.09246073826783208,1.6195242449552474,1.4942756901436212,0.6256410056071767,2.075723930607553,1.570901840680341,0.24676376391592048,0.243802895439463,0.62595550513784,0.7632835627489757,0.1493472082936922,0.09916182567288155,0.6466453692020482
287,2.1836910723014724,2.4181402124211053,-4.601831284722578,1.487467525398853,1.4758378086658326,0.9047157590125409,4.264435672219381,9.409073930437927,2.823678818900739,,0.6333676938231112,2.1836175739300026,2.4248915133236038,inf,0.675999509374661
288,1.3862943611198906,0.7032312996265715,0.4720736098297933,1.4455288379380993,1.34772490304521,0.8029557077647793,3.1449331823506035,1.8712149840836774,0.7877886876546345,0.7832534855025849,0.6309483474627791,1.3862943611198906,0.7099091021576006,0.47877378360035666,0.6428791520043458
289,1.6983497755283175,1.6153552350745382,2.383388475902549,1.400143039348737,1.36395568905664,0.6770608324274056,4.404883403654973,36.24869725150474,2.10365684547177,,0.6180765742263259,1.6983298444381936,1.6215948170952252,2.3905468012735787,0.8684556975861791
290,1.4002616075342624,0.6902720422291533,0.4299341813745401,1.3534371973016894,1.3228947989607514,0.8712082327409861,3.8386990490209443,2.0124669836146154,0.8700897768714679,0.5980827059253387,0.6668815377411301,1.400258068137277,0.696940195131818,0.43661855788891346,0.5757199447263676
291,1.4718190423721125,0.5373568392664505,0.19193504924445293,1.4963437457217166,1.4531606198316422,0.8179775251987513,2.9136533230076114,1.115728243924306,0.5454748593083043,0.2503724740539838,0.6566669596287297,1.4717070167458233,0.5439462851871456,0.19831059940754853,0.7283146675158749
292,1.6653101756435622,1.402872864583527,1.2180192557171075,1.4165031177074257,1.3988571634870826,0.7571571539388343,4.12174035156919,3.8343243219486,1.7604220086301312,1.5583457829166791,0.6207552362147116,1.6652442994978316,1.4090502965592615,1.220128244548221,0.8444286229564354
293,1.2809517965796757,0.6683962859795634,0.4477725810121269,1.503696097071661,1.4878393840746522,0.6547924769068691,2.8178016556363077,2.371870742408495,0.7408920047983902,0.533104710059058,0.6284777104787076,1.2803340253900968,0.6747289947961511,0.45374715963045253,0.7427467558394241
294,1.2603481010201096,0.7458984626516036,0.5828102043783043,1.4538817376120696,1.4112585794025743,0.7025695358558429,2.7683115362406108,2.165750538601177,1.049976719850538,1.2393869403613322,0.6403206450210053,1.2590158101611337,0.747753710484409,0.5689374934689544,0.6892610780110225
295,1.3113736454338962,0.8403542700370719,0.6478330630385121,1.4074201109102673,1.4037502775629283,0.5724044033758686,2.736137703310471,1.9054293247998477,1.071427010009054,0.9617763112741614,0.6447042257417027,1.310280270257295,0.8164858434303628,0.46855081742731264,0.8446180564934785
296,1.7139065730483791,1.5382973948093341,1.337679104203175,1.565891761954392,1.5693278116501843,0.672161177007668,3.2908971633849364,3.71299292758612,1.8047315962924868,1.99938725934195,0.6357360191111145,1.7123323355967333,1.5082115463721646,1.283273809758906,0.8333791975812849
297,1.4859463218661528,1.1217378100921034,0.6890367298738509,1.4719780510484262,1.4232993391332922,0.8418835133178323,2.941595044352092,2.7909711784545066,1.440792613839811,2.3987249400851915,0.6602640781246099,1.4839316910833165,1.1048550891920759,0.6616943840081394,0.5914632625978397
298,1.109091139995297,0.4217541218509071,0.10517975733635199,1.2018120964310686,1.1662698807350536,0.6274412211756971,2.301248354540884,1.491609773151235,0.5057317263970069,0.3657575428436399,0.6547956803312163,1.1087636397244849,0.42711406960158693,0.10970564974438175,0.7327975881417726
299,0.8194483691959733,0.36022463061728294,0.1909922853305921,1.372534109781361,1.34088958674151,0.6612549092787903,1.9241428759922603,0.9913166992422537,0.45921499465964105,0.3859526893876977,0.648888643467878,0.8192900625608089,0.36662455451009734,0.19714055145791806,0.7463093987456003
300,1.5389790029800883,1.0186934551303823,0.8002984207233199,1.4181164591033781,1.4356869097528733,0.7605432704313657,3.2215180893126267,2.5630353178963667,1.2530965426836946,1.9904840682590752,0.6284777104787076,1.538565327234947,1.0210648687489896,0.7798451270502219,0.7494127291300821
301,1.8002991284332928,2.0242311487577376,-0.8841549930333468,1.435196371763559,1.3622287978882262,0.6650784715612936,3.353021079804793,4.0010290588422555,2.1951237498815352,2.5324761059514938,0.6584896970785714,1.799052666722197,1.9526482649741483,1.8269184000058496,0.8242502911540498
302,1.5679175497387667,1.1715144326900162,1.9923900898870364,1.4952429398903522,1.4341633986747084,0.8718084965032677,3.4965828910096395,18.293216421463022,1.446868322398212,1.9896879805592071,0.6425374456860184,1.56739000298804,1.1735278017397868,1.9870479587401921,0.6938994793007858
303,1.6199043840656009,1.1988249327041707,1.5180816723147972,1.4752492855787878,1.4633058285332607,0.8297930890067907,4.061566935169425,8.593098354980897,1.4083697136266233,1.878476628271143,0.6380535849069913,1.6196566126284322,1.2041786214674883,1.4779435857352101,0.725400502765376
304,1.7053336103727068,1.6118494953830769,2.030654014244103,1.6552312630145465,1.6304749585132565,0.7047183333085866,4.019150707101652,6.987987285205101,1.8706103896313677,2.3547133126356,0.5947193981915972,1.7050314657182308,1.6127443078048522,1.9456035416636732,0.7179046004511553
305,1.3799724387484298,1.168402774029994,2.3563366944249577,1.6483511665911745,1.647557331063423,0.5814467927723173,2.853695836122833,2.952970257957473,1.3595709062612045,2.666843331915864,0.6309483474627791,1.3788113179438768,1.1683963580415029,2.344164197284058,0.772901487281055
306,1.6508313528089054,1.3274319732526094,2.0954628973899796,1.5588627144224099,1.5115257555702726,0.8242978119028315,3.504623480617157,18.37529448499475,1.547423371928894,3.19911779418018,0.6425374456860184,1.65043353313762,1.3289880415920556,2.0895492963795435,0.5938262607137642
307,1.3769955076033404,0.8212211694162834,0.8859794517551292,1.370773078558282,1.3557303030452614,0.7573331947567736,3.863957631523238,4.4241191395196395,0.9723192904383847,1.1983666370722372,0.6425374456860184,1.3765200633613988,0.8255160709720426,0.8794961290238822,0.6452369272329079
308,1.6381832251505866,1.583783713404303,1.3653102299528235,1.159304204830169,1.119501233310056,0.7108223193799815,3.5916262751134966,12.812625557189493,1.9374050276055854,2.239214732463203,0.6357360191111145,1.6378373869557985,1.5832631329345135,1.3289503668766998,0.7283589323829794
309,1.5627178445653782,1.0972383288568386,1.2582662956430068,1.4651271385956142,1.4617295272833604,0.7461112766805832,3.588943698748731,10.6668694811309,1.2509479935898757,1.5005521252897709,0.6233814453054027,1.562660354208572,1.1037681722028185,1.263532179703423,0.6333743337564967
310,1.0505627195685359,0.597281154765863,0.5529115411332219,1.3847287632766152,1.3194789606919837,0.6795187656630757,2.870625895517963,2.8082972499457193,0.77103796349202,0.9025034537505356,0.6684167106117298,1.0491874053405867,0.590423386730883,0.4964246169523272,0.671368753165876
311,1.5363717777700927,1.0653571580367416,0.8241029208112498,1.3969073467176942,1.3733196282370825,0.6841939030817001,3.5697868066294713,2.9770916144886708,1.1924553692215347,1.0837279259932846,0.6528756675646988,1.5357744835195286,1.067765563379694,0.8291480018543035,0.6574308249206091
312,1.3222558775194966,0.792444373626435,0.5502951535599059,1.2697428689983155,1.2278784099938547,0.7959187794894255,3.2535516537884805,3.0608491719584148,1.0216758549421374,0.9761895328810037,0.6619902821573977,1.3216725101210156,0.7879075573631577,0.5167365485913671,0.6610437145225905
313,1.510548912753736,1.0655769084537876,1.265687476086538,1.5795250671476493,1.5790088095978796,0.8431672009354377,3.3118513527514484,2.62618998148922,1.275900186542374,2.0801736508300537,0.6403206450210053,1.5057788434160315,1.04171268156359,1.0558220408046681,0.6480308629920142
314,1.6898239070227297,1.3160841146644613,0.9242500903803483,1.557885116270025,1.577300357972064,0.7311085557562866,3.960813892017089,4.168802310567765,1.5177312423146674,1.3727099525332203,0.6619902821573977,1.6892028809029629,1.318152232479021,0.9091222423955425,0.8522153137634113
315,1.6871427003614483,1.145435115693821,0.778750207392775,1.4436055851026395,1.4102419552058139,0.729133024651661,4.382221095500758,4.6888946162652685,1.2894281970598382,1.2391741337296187,0.6509067234006624,1.687039158457652,1.1514994507984955,0.7858023237202176,0.849861139526505
316,1.5288753004941105,1.3137776440554696,1.0004459628124303,0.9920744184858301,0.9651925636669705,0.8500424159976675,4.2345719825130415,2.199815103100092,1.401581801398802,1.27486240481501,0.6447042257417027,1.5285750283766744,1.3183541716766536,0.9948424668305597,0.7352781597656585
317,1.4746051116914516,1.173099695781893,0.9685135369874902,0.720969250287067,0.7045715323038196,0.6692594640506965,3.23059077224184,2.962294213807484,1.2902776821244213,1.3187919929496321,0.6403206450210053,1.474567139402333,1.1796263889091663,0.97515994648841,0.871752488866337
318,1.5862345586365456,1.2168035653001992,1.1022958933406048,1.6637415149042227,1.6201958951226236,0.8018624690542314,3.1176814895158778,10.135322541540686,1.5631219909209184,1.1615759022097307,0.6097226960127671,1.5861012322548647,1.2234281377971992,1.1091826235268787,0.8261793095639014
319,1.808356201670822,1.5389178339237344,0.8110831203393687,1.1166428920291673,1.1103269513978848,0.7878826456899499,3.3535735242736413,5.563150974996502,1.9081465991279623,0.8646391702413246,0.6309483474627791,1.8079566041306263,1.5397000106034993,0.8085633512060626,0.8008229435884554
320,2.1001348708343732,2.2593712327587268,0.9743498787391411,1.2193909470838409,1.1912161338151184,0.6299451173242813,3.846397521629011,14.54847077070781,2.407223665557877,2.2817859948439803,0.6233814453054027,2.10000712662086,2.2548367734592194,1.421509267410957,0.8616345301621205
321,1.3674514931579425,0.849271038006806,0.7100281332068743,0.9741653634303155,0.9552388625151375,0.679360707861532,3.239988096305111,2.5242324022782765,0.9434317739409138,0.9741666725194884,0.6068309995095971,1.3673635734604521,0.855691763910289,0.7162966027471425,0.7086686482191784
322,1.4810985292430217,0.8626866120545551,0.5387018908809291,1.5276843639532176,1.481194668118352,0.7006104194560857,3.4560750064784638,3.298983705500399,1.0397230615449704,0.5912380108362002,0.6528756675646988,1.4809958373329528,0.8683315182132245,0.539246020408608,0.8033337647294436
323,0.9196110413655222,0.2951877943096025,0.14931385507700345,1.2566628710983014,1.2418694878139116,0.744085599118476,2.0328205720836063,1.6235979577553965,0.47853065686466106,0.4339669483836319,0.62595550513784,0.9189331087679843,0.2990259375326917,0.1523744804260025,0.8111992460791128
324,1.6851399654354942,1.4520359148869342,1.1542670139521078,1.4934268836060758,1.4585679624402381,0.7508244838574755,3.740574121426833,11.227774177243054,1.8393086674719255,1.7279008816175425,0.6684167106117298,1.6849400183339847,1.4477581102931638,1.144768310559676,0.7743834754021288
325,1.3550607156433006,0.47917609843505415,0.3344607635337402,1.3951631795441546,1.3727404121731097,0.8268110693455993,3.500081786587055,2.8731733602507665,0.6016931527706453,0.6705082247399524,0.6619902821573977,1.354967974188433,0.48570166640963003,0.3408784573531487,0.7153263160274882
326,1.4407678240061481,0.9167131145990945,0.8161868644852133,1.7176037581178702,1.6508657390778403,0.8077082404944219,3.5691269273360335,2.349465199806874,0.9992727487180726,0.877144361534543,0.6602640781246099,1.4406332242197393,0.9230001914503856,0.822452586375085,0.7002395678269182
327,0.8457763623107287,0.5036640574915415,0.40541972249438074,1.531485242583844,1.5239088243763286,0.5499435184680682,2.6887478971855128,1.7409149721521855,0.6421729150572036,0.5878738587466484,0.6357360191111145,0.8455734221599028,0.5092222719006168,0.4092189148589766,0.6409365799628564
328,0.9855626888874621,0.6383070860363761,0.4544489050165803,1.4938343180564473,1.5141338295903908,0.6915799069930664,2.649921218404097,2.1810817404472504,0.7854771913887025,0.6376411940248018,0.6566669596287297,0.9853728930615988,0.6435876858613653,0.458423532733723,0.7783644882758759
329,0.9864104623410117,0.6300859299720727,0.534399735294786,1.5419227800163564,1.5163994280993738,0.6066857602344367,2.4241064708873994,1.7818449725617116,0.7465727748058139,0.8122346592283788,0.6284777104787076,0.9862960204442777,0.6355519120665044,0.535867511730725,0.8396119374781673
330,0.6963299475513096,0.14805549417424024,0.07699984878747301,1.3316606723821145,1.2554915274378726,0.6364247928453612,2.445867701378236,1.8820116329567083,0.17147038918554666,0.11634469643292736,0.6509067234006624,0.6963077253796311,0.15466354037388147,0.08354001223417086,0.7830735432826664
331,1.1065141800516938,0.46327295171027827,0.34170685894329966,1.2880109899092087,1.2556222075522503,0.7722286265272638,2.644072556320575,2.3539528629992117,0.6694933021411833,0.6609641850260665,0.6380535849069913,1.105704042481866,0.46381895336947737,0.33645088415607005,0.9104563564026592
332,1.369344601363099,1.0787242316083272,0.7937239421352955,1.543236047366694,1.5173863472916296,0.6690755178115815,2.252166539372775,1.8999394923348225,1.2744823128720388,1.094578992311565,0.6468212168108125,1.3650113486532767,1.0700897795992173,0.7697074394042713,0.8990922383893047
333,1.2210059415668373,0.6620980514825634,0.396662086235144,1.319077703286511,1.288941531123053,0.707189286859909,3.5308764107912993,4.111675499640144,0.7816364311168885,0.4425898173080839,0.6447042257417027,1.2208552550465865,0.6686640586323855,0.40322546551465954,0.8035968402488641
334,0.910141077062656,0.4496074009255643,0.29765587084065315,1.6538283841685981,1.5536116260692345,0.6580934512397985,2.56299285604981,3.62956357885662,0.6905910419322006,0.8168944422326331,0.6547956803312163,0.9100601821235189,0.4559088125351258,0.303572841845161,0.829124171853676
335,1.6940548201172738,1.139464664648535,0.5453508266161595,1.614277724387993,1.5944148619722174,0.839104884328709,3.759493650480745,1.6022709201415752,1.446168269010679,0.7651982251964895,0.6509067234006624,1.693967523070181,1.1453309646419831,0.5522786505730007,0.9056545192146961
336,1.8478893303525308,1.2165841800041968,0.9326331026222778,1.5764524330960932,1.5714802640747927,0.7869523280969102,3.6611940931152396,1.6401240799117494,1.2892028999640066,1.3063331891557584,0.6068309995095971,1.8478361154484602,1.2209448624217436,0.9375527070291837,0.9008331889704856
337,1.642398909845876,0.976618386645884,0.6991006664121193,1.5546954734312812,1.5496144711730464,0.7237963366459166,4.391195228243769,8.177684678602736,1.1491064071932595,1.0783286406262813,0.663668482632973,1.6421906989059083,0.9828979814819545,0.7053396303860854,0.7446984021863636
338,1.8305029517232576,1.6066154850691814,0.7949051612476521,1.693841977047173,1.6664975913456197,0.7459977362499868,3.873264133399757,10.365710125284789,1.917989941636001,1.0810552699982638,0.6509067234006624,1.829876791341183,1.6121425848412274,0.7877631569347944,0.7928652119888404
339,1.7537061959519376,1.8229128387287008,-0.27282279103792284,1.611587923439681,1.609268874724496,0.7716938973572207,4.2366729451937735,40.908216256065266,2.2620913002847134,,0.6566669596287297,1.7535649234300856,1.8066281897225274,1.5392733946502581,0.9208795299178316
340,1.332742713977379,0.7633324662487562,0.5898008363437266,1.5844604399671027,1.5511570612688963,0.6634185524569771,3.7332861425825827,4.4701015156345285,0.9117629691671747,0.8787357757775581,0.6309483474627791,1.3323955750866645,0.7680653338172467,0.5945085526597683,0.9234467093849968
341,1.201747925909759,0.5260499907991814,0.350861381581699,1.6626159271165524,1.6298957564705605,0.6186290457846102,2.7216387562342232,1.7814413630545105,0.7245821396709926,0.43146263088611275,0.6447042257417027,1.2016791404888125,0.5321888503234647,0.35692664290809534,0.7721176963971473
342,1.8382879779019474,1.975205520209783,-3.3807629321790307,1.4552377647991448,1.4436766966690904,0.8297539627067582,4.331661604377519,60.21136784106648,2.439410953847304,,0.6207552362147116,1.8378034077294618,1.9784044948843893,4.333260508677069,0.8884067910257967
343,1.730775756641892,1.0965009325837178,0.715278689241861,1.7139328613883844,1.710475711970059,0.7404909401819552,5.122811727778366,9.07315963268421,1.1822524441737945,0.8853802412502321,0.5567373465730988,1.7306643698682442,1.1029490542093117,0.7207351370787743,0.8509482691590564
344,1.5307412680710657,0.991511946561908,0.4661403541144735,1.100446678272317,1.0828443488338702,0.8100252889513417,3.381591009070497,2.1846638463955745,1.0358207449900347,0.5589049681293357,0.6425374456860184,1.5307294277737007,0.9981987741086297,0.4728221439972237,0.8078027950503439
345,1.57957498336803,0.7887857107644127,0.49572288664498876,1.3237984691654971,1.3107188454313166,0.7884129838152271,3.6357981285486116,2.7138651212136717,1.0283265175316112,0.8768154248532073,0.6713451011121618,1.5795555379522308,0.795480780700115,0.5024192139772727,0.8276680229622104
346,1.2068234350435103,0.8364375394097128,0.6497396614535278,0.8123731946657916,0.754725493914634,0.5014194291796805,2.727994216752668,2.0815589878603387,1.123477129798529,1.067601023233736,0.6602640781246099,1.2067915881817983,0.8422716381739005,0.6505228963343818,0.7407004343561836
347,0.6998138720835724,0.3277697551640629,0.16966310894030068,1.4670880186316164,1.456081316574274,0.6004928770158109,1.6395255843689305,0.8887247171488271,0.42947647508452536,0.27734377267616406,0.6566669596287297,0.6998137975963239,0.3344474875145371,0.17636322245320715,0.8349081969188302
348,0.7040561622110509,0.20059686558289436,0.1103092315872396,1.2277836427846287,1.0616405724475468,0.6361073426172932,2.148947321087211,1.5582030566320109,0.25146059043820357,0.15637489833650653,0.648888643467878,0.7040508545892327,0.20727997573574194,0.11700940535780333,0.5855041823385598
349,1.3980618756110674,0.9310040756181461,1.1708029579399715,1.2991143570763035,1.2671851021476728,0.7303156249293692,3.0316336276505926,4.472445180895791,1.1386536748829768,1.3686282402614027,0.6207552362147116,1.3980521021329702,0.9376302683508164,1.1775645149869918,0.8543319250914786
350,1.5315978001450965,0.8128459639160077,0.6723076545229434,0.6492349371369788,0.6504978031133777,0.7406466831741849,3.9214679239996895,3.6317880510128084,0.9989537069342057,1.2178060671147606,0.6097226960127671,1.5315513737770292,0.8191740945449515,0.676841528752029,0.779017638992994
351,1.7004793686577464,1.0832558256395874,0.6685116909268829,0.8078285069699989,0.8062559707949761,0.7392330144565245,3.896657601103454,4.1337078576121735,1.4917936038965742,2.5612452365925944,0.6602640781246099,1.6992410615835265,1.0680284991786548,0.883672054011363,0.8896495271099126
352,1.1537682317813518,0.558954044906834,0.3107016668748728,1.4908585739220797,1.4451346086800816,0.7126388791462825,3.3990302123997327,3.8315053078124084,0.6458164595087255,0.616133848432694,0.6357360191111145,1.1537022549860696,0.5655505234552372,0.31729957350601407,0.8903766493419698
353,1.8458226498832224,1.453310483230029,1.1172080293291753,1.6948613851551555,1.6836240768331252,0.7987685023692056,3.5259027014888313,12.05744332674059,1.9108641092992456,1.96098678551772,0.6403206450210053,1.8455822759255616,1.4581859604050478,1.0871870290875736,0.7147270499977538
354,2.041803390248492,1.7604316133584637,0.00898612192188164,1.487135516247076,1.44886949270614,0.8182921287823329,4.488794620520341,7.128268625026562,1.9797265352736475,,0.6584896970785714,2.0409048230812656,1.7533351466904972,1.5152506973743993,0.8320600490685441
355,1.6066334552891954,0.8977426470007763,0.5331556180083514,1.152442155551377,1.1243013608335075,0.8459878985969875,3.5618580719383233,2.354880586794547,1.0541264960342303,0.7327614279700316,0.62595550513784,1.6059440231798447,0.8942793307200491,0.5278025692950664,0.7539543964159626
356,1.4576999927673888,1.3820312881674905,0.6231458863131669,1.5981868493055829,1.558875139850325,0.6974622380355965,2.0436175378075725,1.5784653594918252,1.1505316766711395,0.6329088860605496,0.6153451465759925,1.373531706929631,0.8741444139026867,0.4744730046493942,0.8681026061840817
357,2.939318716501285,2.4099718547031532,-5.349290571204438,1.6974886538362268,1.6926015082458845,0.49892468436868054,2.1158774387434978,1.6542788319942683,2.509400698963353,,0.6097226960127671,2.830029528890003,2.383130029317727,inf,0.6956951939850844
358,2.3089851118652915,-0.9034150683515856,0.36764181621151915,1.3891764894579914,1.3130887059631176,0.6788473820387507,2.4098578541744113,1.4301200060973898,1.8849665717879927,0.849791744638846,0.5947193981915972,2.1140789962495505,1.6235239575892746,0.6129250137756855,0.609395441937896
359,4.087545931651285,-3.8778306162422633,-0.2097153154090219,1.5782960703195563,1.5468408188639338,0.7175733428676597,2.226511182003534,1.4544298564828573,5.51927302060407,,0.6468212168108125,3.802172584497468,5.207497092016564,inf,0.8170016213505804
360,2.607592045243624,-0.35359972694618236,-2.2539923182974415,1.6572403919634633,1.6279203211133557,0.7774776118023513,3.3465762388186215,1.768711491951335,4.430148629783675,,0.6684167106117298,2.6012906645306764,3.9009995063432963,inf,0.7858738342959839
361,2.4279814008689597,2.171469678442563,-4.599451079311523,1.7080935633156349,1.6894565813451226,0.7328459072471706,2.9950587977115313,1.4379950802858845,3.3164329047074874,,0.6309483474627791,2.4214937619379393,2.7113091661325237,inf,0.7527848221453483
362,1.745375434894233,3.349127769277091,-5.094503204171324,1.6931554432894036,1.6487348035361449,0.6841931153822611,3.6515249278741746,4.1391132114728535,3.4118412867086745,,0.675384900321601,1.7410029855642695,3.279682644385488,inf,0.7661335005370632
363,2.2426594285893127,2.16681816827982,-4.409477596869133,1.6709213977801818,1.5576893159623342,0.7204863939330524,4.614725425185065,16.21250322725383,2.3664334365352593,,0.6727386042041725,2.237629991971258,1.9264219826756626,inf,0.7371403447693875
364,1.4635856172720385,1.225573541199,1.263728727342928,1.6371039145996282,1.6011856052804108,0.7763564600358652,4.38145252255029,4.285266973667647,1.386551666330538,1.3190264234506566,0.648888643467878,1.46312741044732,1.231348670627772,1.2641727656931094,0.7863657960771887
365,2.2456516208247224,-2.2456516208247224,0.0,1.7674050091066873,1.6332441999921563,0.7330204502122594,8.266603289625797,234.18611024280335,,,0.6284777104787076,2.245469889964214,inf,,0.8313050683322848
366,1.6584743470367456,1.1053268234943574,1.0244853098658404,1.0651051475164437,1.048609335158103,0.7688412719791279,3.768876811269047,11.50697387689453,1.4150079734324765,1.9543137946862632,0.6528756675646988,1.6583947571606312,1.1117081683445886,1.0285913946159229,0.7294275048249077
367,1.6081347773741563,1.8172762812600016,2.2716824278712466,1.3395033405234313,1.2914693711501433,0.714575253925792,3.59106030748075,18.625045367285733,2.007060783046427,2.081927236258656,0.6380535849069913,1.6081054672003217,1.8228640727955039,2.279501922811172,0.5671659709663383
368,2.3312884067461224,-2.3312884067461224,0.0,1.682622330164142,1.639998294437749,0.73089165240114,4.57318549322129,15.26672439208841,,,0.6097226960127671,2.331213217339536,inf,,0.7160410893970199
369,1.9910334950382398,-1.9910334950382398,0.0,1.56239182729682,1.484329089894766,0.4936791863060965,4.200106051948044,36.188765721091755,,,0.6180765742263259,1.9910237467523215,inf,,0.5773561624340616
370,1.0429215184751843,0.8194756279120172,0.7119900015309923,1.3464289481365876,1.2546979759556958,0.4297882194731218,2.866085555592467,4.543322341006751,1.139847068217146,1.1071078486627017,0.6333676938231112,1.042830748209349,0.8260977837898345,0.718527772804611,0.7838740037451613
371,1.1669605301028547,0.8360873273936591,0.8704525841014354,1.3738935271701647,1.2371391108975944,0.5518945076778398,2.8947195174639053,4.336635916333411,1.156844239627531,1.4770774108405833,0.6309483474627791,1.1668911294214042,0.8424440868173972,0.8744582262972408,0.6508223481070257
372,2.6642980839426262,3.0361454894480606,-5.700443573390687,1.782620428344952,1.7270788578794294,0.8358770796289055,2.951482014834262,7.807166261970714,3.036729186108528,,0.6584896970785714,2.6637143872821585,3.0434069886395574,inf,0.8846150703848129
373,1.253662320956505,1.0080894523159876,1.209445031274742,1.244254957450184,1.0699938566847147,0.4410090747043374,3.257534171448598,6.387872385414806,1.3640141721057493,1.9392099752847494,0.648888643467878,1.2536300109347192,1.0124088824018602,1.1798072399944584,0.5408116492473678
374,1.0428394497854971,0.37891112302414265,0.22640373010999992,1.6564689769660323,1.5629590749466438,0.5467451637519416,2.6842113593448453,1.493446199236708,0.49294591515690006,0.39428079623978035,0.6207552362147116,1.042830748209349,0.3855363893324494,0.23294903566096717,0.6145135661620357
375,0.9774517211273431,0.43882577799513023,0.37024860092259715,1.296970916365634,1.1972811451879999,0.5194342143846213,2.836453621826784,1.8374318217435133,0.6093792963093453,0.5684817387862521,0.6547956803312163,0.9773981090871162,0.44546803226433457,0.3763208437054008,0.867408084230297
376,1.0316483861483865,0.4804715029844804,0.3689863382638936,1.6123414278575963,1.5768993114288408,0.712641844934931,3.058707905758347,2.5677056283265878,0.645521468050128,0.6703023066426911,0.6333676938231112,1.0314833754948431,0.48638873230362023,0.37518207958117294,0.7534017010853712
377,0.7193385152907688,0.2733720078500774,0.11825233598076257,0.8333012329456085,0.7847503576770747,0.47383688091384774,2.39233115126776,1.9321821710944547,0.5453199505448431,0.4945188999591573,0.6528756675646988,0.719263027690505,0.2796547669464052,0.12429461089943218,0.8818917355245526
378,1.4299409733576018,0.8179161429674418,0.29560479392516736,0.8469604602457738,0.8509388651707652,0.6978044095501451,4.124682360234851,2.175325570502629,0.9545976692381015,0.675940298217105,0.62595550513784,1.4298979986020226,0.8241085928331814,0.3011794713652131,0.822425333749857
379,1.5934694425208427,1.0098362853195406,0.6089044936733838,1.048952013042046,1.0233134022454675,0.8504227783655677,4.120775675997047,5.633303002269396,1.1828203506703743,0.974907778852226,0.62595550513784,1.5934552079274908,1.0164101612659886,0.615699443825518,0.8297763095919514
380,1.7239575732678811,0.9370220744035707,0.7335287458399069,1.43080054957103,1.4085531941471747,0.7948907497847044,3.7884139636001493,3.14057514518646,1.4064481293933144,1.1821163351789317,0.6357360191111145,1.7239139223329878,0.9436343354598924,0.7403381120200718,0.7437939607149331
381,1.353405256680415,0.7854981498866269,0.5955731732109566,1.035597225789706,0.9970352861950244,0.6002599858653485,3.3677586870375413,3.30494901425716,0.9314150601201684,0.7034012607567169,0.6403206450210053,1.3533325100838487,0.7919639743920115,0.6018411053343967,0.8631321211982339
382,1.6145369977112862,1.0563964961619559,0.8652979632167055,1.210604869034272,1.1850343854619427,0.7808491012301332,3.6163094703457492,2.1603298149209356,1.3681244126794962,0.7685526342249321,0.6584896970785714,1.6145062905456629,1.0628530632357505,0.8707924408374054,0.8107370645783494
383,1.7575288501964437,1.74123784855643,1.5051796071925865,0.4754261469480498,0.4674102201892002,0.7277050315681525,3.9869026645851466,8.363193803630397,1.8614270370610297,1.3917664257798148,0.6509067234006624,1.7574868752859587,1.7475906368635885,1.512246770097505,0.8613982728345692
384,1.0310475375977932,0.4354848328601306,0.2234126536875083,0.7499066298391591,0.7030095020244247,0.7006875359655524,3.069421162189546,2.5013940053131405,0.5003230113107124,0.33686314983775567,0.6468212168108125,1.0310471025056858,0.4421616706081219,0.23011255965237026,0.7116916383592938
385,1.5985874530830237,1.0428988324547253,0.6562520057365728,1.2763321493128639,1.2511277100633427,0.7029264750496291,3.4661690209807445,2.2546019100592374,1.105711780995575,0.5949884603156929,0.5978297680564633,1.598497972395766,1.049398305886697,0.6631557535283464,0.7864359337299786
386,1.733365946883998,1.5698198799946348,-3.2840680635010977,0.3904052966070586,0.38932957186512196,0.8502901408933724,4.36159490168551,26.556481293118388,2.159832286110496,7.50098990404934,0.6357360191111145,1.7333647828509733,1.5764695927972092,8.097730573664219,0.9304234836277553
387,1.2425197528235912,0.43954242999395987,0.28725894012593733,0.7361339362034628,0.7211177887044895,0.6289055147966539,2.729515503356015,1.263408628773361,0.6101643271049803,0.527701235209623,0.6528756675646988,1.2424826590878115,0.4461788521366762,0.29385499361862344,0.9050663826735096
388,1.757011083408763,1.251549363643713,1.1322602013252343,0.6870708879772583,0.6485134199756888,0.8040073780251832,4.3270547491753195,9.045626941798645,1.3785225721867587,1.5841313652672333,0.6619902821573977,1.756971643742391,1.2578301925319506,1.1350554358780178,0.7678542224282744
389,1.1574233767800057,0.5868916125308439,0.4488626510732534,0.4091392915102788,0.3951174331417063,0.5774481278795234,3.116393367119203,2.679419955366332,0.8247441106612736,0.7190419959509937,0.6652988471865258,1.1574073351786152,0.5934661415770973,0.455391845232656,0.923198310884928
390,1.5737173241646958,0.8626176966448926,0.8490546311198552,0.08467349851939517,0.06835746926061076,0.8114557333659086,3.7447596572559894,7.7369720698886635,1.048095872243698,1.467879690649812,0.648888643467878,1.5736954636571439,0.8691739303397988,0.8551698955625864,0.9358887435861245
391,1.7720228506895288,1.6261880060136606,2.2797648664246783,1.4810970127638416,1.4709767056127554,0.8646981336392047,3.814335487842762,4.970345412777352,1.98251122079035,,0.6684167106117298,1.7720222035450233,1.632848583483441,2.3089620234812385,0.5671550994600129
392,1.6555029128051388,1.1738015832890611,0.7079607928269311,0.7436935449842865,0.7412408730739425,0.6792703421917836,3.9386724249942806,15.360156148888679,1.3867971843224645,1.0454347104779311,0.6740851607140061,1.6554236792709087,1.1797026043992775,0.7118678801035515,0.7532766058076974
393,2.0268023902948804,2.2873468219759157,1.3829442742346085,0.7309569917955911,0.7237752244099154,0.5633657413658183,4.208188025754397,5.988772059610718,3.2896651363585945,,0.6333676938231112,2.026722597347607,2.2941044174542182,1.3896444480051726,0.8377078185684806
394,1.714798428091927,1.420695787837223,0.7698398013481995,1.011691626479338,0.920806252958589,0.6450437885293344,4.027425917941582,4.636535200553727,1.5007384955107592,0.8727900167241137,0.6180765742263259,1.7147984280919266,1.4273735903682523,0.7765399751187637,0.7578166601517096
395,1.9661128563728327,3.734330717017854,-5.700443573390687,1.107642546745594,1.0051305673376196,0.7425633606870209,3.7089456854290015,3.1804265633533992,,,0.6425374456860184,1.9661128563728327,3.741008519548883,inf,0.6611104803239306
396,1.7525387560747738,2.156145348087857,1.7884093823427736,1.3929751591705397,1.3358079014509616,0.5916456101668688,4.916409145451126,76.77650259462318,2.3384669048818125,,0.6403206450210053,1.7525387560747736,2.162823150618887,1.795109556113337,0.5248212864956238
397,2.4079456086518722,2.5993507841788692,-5.0072963928307415,1.0819807118246065,1.0586108412743447,0.7752308281908294,5.114564301731752,212.67318838099908,2.5993507841788692,,0.6447042257417027,2.4079456086518722,2.6060285867098982,inf,0.7810706729926384
398,1.91959284073794,2.1714128202186456,-4.0910056609565855,1.3724048237259112,1.3426138219201784,0.8148491879960267,4.856932638370555,9.011489056517426,2.682238443984637,,0.6097226960127671,1.91959284073794,2.1780906227496755,inf,0.7483008418334132
399,2.0495720036317278,1.3863431178720882,0.19645992022781744,1.5401143071084968,1.5236943437745512,0.7274787710813518,4.422023174828429,59.2761557956401,1.5715075663989668,,0.5883313578629602,2.049494465311884,1.391830707441051,2.719215704398981,0.5551724705434706
400,1.7525387560747738,0.8568623639575965,1.008250824793198,1.2628635123407028,1.2145040555262416,0.7375011630591538,3.5889723327093614,7.36472062386739,1.1146914732596966,1.2217685282833013,0.6619902821573977,1.7525387560747736,0.8635401664886261,1.014950998563762,0.5901932385343029
401,2.17742195004004,1.1251263505522768,0.4486350368577745,1.5094111740727718,1.440924389647601,0.8672364123055077,4.564643423443468,10.923630525484636,1.7312621541225917,0.6897970936746635,0.663668482632973,2.17742195004004,1.1318041530833054,0.4553352106283393,0.8428781536324645
402,1.8745675793612138,1.1868186644142134,1.0262693302958779,1.4218047067979795,1.3326342982883168,0.7345994324934028,3.9348143552248422,40.35154875534774,1.2791055580469501,1.4448141038011517,0.6403206450210053,1.874561535989193,1.193502510317264,1.0329695040664402,0.7754334342915629
403,1.8123745622896292,0.9976972532048922,0.807580129331047,0.6925777176158949,0.6714680384255145,0.6376307081509748,4.537977655020562,5.390683276874049,1.115484428018726,0.9774791661264444,0.6125606311107803,1.8123704231321793,1.0043791948933716,0.8142803031016107,0.6090317189519708
404,1.742506706723541,1.0118247109043732,0.690028763493356,0.7469429542876806,0.728365454511072,0.6679601185642502,4.36937941673024,9.19221693437029,1.2499318747817074,1.0952622017828277,0.648888643467878,1.7424614975067687,1.0172329367477797,0.6966633585848824,0.8365869173221481
405,2.041355085655138,1.9078860751086157,1.3873227519604714,1.2205810760914773,1.2013833508235943,0.6529421521468676,4.274328293283479,25.629907447141033,2.3790621078875596,0.871746972337597,0.6425374456860184,2.040819298172084,1.9045307113721295,1.3463228142851549,0.8787248960290606
406,2.242237640798147,2.0218006168863982,0.6532305457411436,1.0871040966743888,1.0685820458537945,0.8291303234140661,4.162056016278821,2.443776234357058,2.0729729222894084,0.6906398850494174,0.6468212168108125,2.2420127601263533,2.019567721471661,0.6402004075861593,0.8995840660222952
407,1.6557850994471839,1.29232333905998,2.2910570941486976,0.24074827726556633,0.2223345250760413,0.7447520780023964,4.138088533747253,4.210462770977953,1.4964982086674437,5.197568122202426,0.6333676938231112,1.6555982044175164,1.2979263684839168,2.1773968870693245,0.9245694589531085
408,2.5682882587270512,2.43900813410369,-5.0072963928307415,1.4013518335118957,1.3740395165716015,0.7445472461498535,3.545222294940002,42.43019257154847,2.4390081341036898,,0.6180765742263259,2.5682882587270512,2.445685936634719,inf,0.9371571079881647
409,2.443421516955748,-2.443421516955748,0.0,1.2009370808315833,1.1738477270465373,0.7646433535268915,4.530023324906928,16.433022769718082,,,0.6038851895711802,2.443380902959502,inf,,0.7390534935149136
410,2.0148207118336297,3.685622861557057,-5.700443573390687,1.6022584850708614,1.5951763361612068,0.8488216093652671,3.620168609436311,35.4313870689724,,,0.6233814453054027,2.014819690680961,3.692301685240755,inf,0.9144268017147564
411,2.307638847355676,3.3928047260350107,-5.700443573390687,1.6308795943055232,1.611098617101794,0.7612499288229672,3.1856177989920216,6.515023684090814,3.3929576017969296,,0.62595550513784,2.307485971593757,3.399635404327959,inf,0.920712437036885
412,2.092242302913393,1.9987633580431923,-4.0910056609565855,1.3925530584157966,1.3174593662463512,0.7196968359815976,3.281573189906641,2.4303570307004474,2.509597154577295,,0.6068309995095971,2.092234130145282,2.0054493333423333,inf,0.9122164124387937
413,1.5903095289386584,1.8902852977242437,2.1909126900902893,0.7280411836309864,0.7023500791306829,0.6808130896040128,3.657498375052784,11.435593326558095,2.312282182419052,,0.648888643467878,1.5902890935953395,1.8953774446932659,2.1885571341260515,0.9053041575795794
414,1.7222786700362989,1.5800296843859207,1.3002547069195192,0.7476337091129271,0.7110528089506342,0.3353759046463501,2.8362026396260123,4.737664717489564,2.451717721708639,1.5332604883829053,0.6357360191111145,1.7222334065794447,1.5866886989735398,1.3062984162886082,0.7480543362437364
415,2.271387715757097,2.666454710691692,-4.937842426448789,0.4079211395890464,0.2772478008054644,0.5135262011538354,3.1369487609486555,4.96627973502119,,,0.6097226960127671,2.2713017807325353,3.579435106880329,inf,0.8855456101891401
416,2.75934349548976,2.9411000779009266,-5.700443573390687,1.7735151973591197,1.7025471280093778,0.8458986431113399,3.2965204192122703,5.077708138648701,3.280251485582187,,0.5883313578629602,2.7593434954897607,2.947777880431955,inf,0.8802578824193792
417,2.6127400212978853,-2.6127400212978853,0.0,1.7849334702037463,1.7543470726203432,0.9370082252506888,3.5346989414650425,9.177646048634532,,,0.6233814453054027,2.6127400212978853,inf,,0.8065972809190702
418,3.0511565469818422,-3.0511565469818422,0.0,1.7877728763450083,1.7487892618300176,0.9278303213044917,3.353408769115379,25.888734845442517,,,0.6333676938231112,3.0507752793891885,inf,,0.766146041010866
419,2.813410716760036,-2.813410716760036,0.0,1.7544067379572232,1.7246881291110658,0.8596171011048089,3.0584883985898217,17.919245939512543,,,0.6233814453054027,2.8134107167600364,inf,,0.7747986402735484
420,2.880066988017894,-2.880066988017894,0.0,1.7365675849639544,1.7132575213480847,0.9160118369808731,3.6417108573767667,21.886079767895655,,,0.6233814453054027,2.8798275440204937,inf,,0.7985731449324514
421,2.6127400212978853,-2.6127400212978853,0.0,1.7350810038213313,1.7213936681063906,0.9447411187007463,3.6499560286618515,20.13024282529884,,,0.6038851895711802,2.6127400212978853,inf,,0.8200228199016356
422,2.659260036932778,-2.659260036932778,0.0,1.7191188672125062,1.700749163287884,0.935135811379256,3.6673562810853473,17.635448865124886,,,0.5978297680564633,2.659260036932778,inf,,0.772914036567875
423,2.2261481971719963,-2.2261481971719963,0.0,0.7469597247691783,0.6856602411274473,0.544137750603285,3.163342906893607,36.68311308557058,,,0.6207552362147116,2.226035659190339,inf,,0.6893962487528925
424,2.5566552974525805,-2.5566552974525805,0.0,1.59809120694586,1.5778017007737124,0.9176220777718987,3.4972475063904174,4.362103602920408,,,0.6068309995095971,2.5564742616474208,inf,,0.8763369039355726
425,2.75934349548976,-2.75934349548976,0.0,1.262010811906364,1.253130899049185,0.9372151780793426,3.758474685123592,3.8165145889370495,,,0.6097226960127671,2.7593434954897607,inf,,0.8518671333020532
426,2.445685936634719,-2.445685936634719,0.0,1.6088038832662421,1.5949637271392518,0.8790996368488504,3.7764284498714518,4.259913873288137,,,0.6447042257417027,2.445685936634719,inf,,0.8550986382242193
427,2.6127400212978853,-2.6127400212978853,0.0,1.6440738666855657,1.6144013480051747,0.8793038105310191,3.6167101605557335,32.004020882636006,,,0.6233814453054027,2.6127400212978853,inf,,0.877918444275924
428,2.7583176296020095,-2.7583176296020095,0.0,1.4895762822563434,1.459038022631151,0.9327685370750599,3.6058418464216846,6.615065351507563,,,0.6333676938231112,2.758291417538957,inf,,0.8481775265069491
429,2.75934349548976,-2.75934349548976,0.0,1.6078817873026048,1.5886528076476232,0.9074710686157987,4.453426630407587,22.397490162279972,,,0.6619902821573977,2.7593434954897607,inf,,0.8497528034324688
430,2.0859772344062337,1.677930380945385,-3.7639076153516187,0.9920744184858301,0.9551310504460542,0.6124149034358718,3.010531972311056,3.1430877238249804,2.0058126716058515,,0.6584896970785714,2.0858621094827585,1.6839864071648447,inf,0.7240146792715574
431,2.4849066497880004,-2.4849066497880004,0.0,1.6421242149747535,1.6272060262478925,0.9177075648072449,2.1862805443383,3.7862366633081774,,,0.6180765742263259,2.4849066497880004,inf,,0.7218975931255216
432,2.70805020110221,2.992393372288477,-5.700443573390687,1.6182863896898085,1.5721283739498104,0.9420150373281844,1.919980726556672,2.5528755122620934,,,0.5978297680564633,2.70805020110221,2.999071174819506,inf,0.7257376420417341
433,2.5257286443082556,3.1747149290824312,-5.700443573390687,1.680200434716555,1.6502794209373624,0.9503080728057968,2.097274901271013,3.648080603693255,3.1747149290824312,,0.6284777104787076,2.5257286443082556,3.1813927316134603,inf,0.790486918961668
434,2.70805020110221,-2.70805020110221,0.0,1.58960561157082,1.57848937787442,0.9578113951203097,1.9849364272734145,3.062603005373586,,,0.6403206450210053,2.70805020110221,inf,,0.7570845731089826
435,2.1031544063010355,1.7220099315337838,1.8719291486705854,1.6061422262633485,1.4505091623511321,0.7302083317024152,2.964568718697305,2.9129603758722897,1.8056782020653936,1.7884093823427731,0.6153451465759925,2.103005902097238,1.725902196620402,1.881563364089358,0.8486799500947881
436,2.696665829462676,-2.696665829462676,0.0,1.6303765220491078,1.6243813167523165,0.8884165706838496,2.809911421506273,3.1409436416078056,,,0.6333676938231112,2.696451065258858,inf,,0.806181021500596
437,2.605035049118941,-2.605035049118941,0.0,1.3360273479468363,1.2888236578092485,0.8746422514516492,2.7989087548698612,2.1485444092163597,,,0.6233814453054027,2.604892108999584,inf,,0.8369550646010228
438,2.70805020110221,2.992393372288477,-5.700443573390687,1.7758630970033566,1.7901110546118097,0.8676760224460048,2.659135414915122,2.7265959307251135,2.9923933722884763,,0.5883313578629602,2.70805020110221,2.999071174819506,inf,0.8255509894592148
439,2.70805020110221,2.2992461917285314,0.6897970936746631,1.5622282630731277,1.530348184108638,0.8143172355735132,2.7386935290546606,3.248473531226655,2.9923933722884763,,0.6180765742263259,2.70805020110221,2.3059239942595604,0.6964972674452273,0.835735029180252
440,2.445685936634719,-2.445685936634719,0.0,1.5935291985974076,1.564731821805538,0.9205029770422536,2.4252336139017903,2.3846037905040314,,,0.6447042257417027,2.445685936634719,inf,,0.7611281159749053
441,3.0647251450409425,-3.0647251450409425,0.0,1.6938120828606689,1.6726487469386997,0.7608770475969366,2.5248876934880156,2.163326631730249,,,0.6357360191111145,3.0647251450409425,inf,,0.8355773716561158
442,2.70805020110221,2.992393372288477,-5.700443573390687,1.5117119866397297,1.5075042592984016,0.9392585722427911,2.952201943270156,3.917523582217293,,,0.6357360191111145,2.70805020110221,2.999071174819506,inf,0.741610890854913
443,2.4079456086518722,-2.4079456086518722,0.0,1.725180122266076,1.7007357713600695,0.9070547935379311,2.616351653840204,2.617314094622532,,,0.6380535849069913,2.4079456086518722,inf,,0.7932604516094263
444,2.4843935761804263,1.6066120847761591,0.5074755368807091,0.8958382745324568,0.8766677320784645,0.6113603390391319,2.689017751836624,2.004757812151093,1.6066322023302444,0.5074755368807087,0.6233814453054027,2.4843734586263415,1.6133100048612738,0.5141757106512727,0.89528648229331
445,2.4851787964181358,2.5221175964126057,-5.0072963928307415,0.4356451356111407,0.36076926384612074,0.5211717473729788,2.245849839256212,2.590254764879494,3.2152702213741415,,0.6038851895711802,2.485173352016545,2.5288008433452256,inf,0.864194865820155
