,bvp+eda_XAp0,bvp+eda_XAp1,bvp+eda_XAp2,bvp+eda_XCond1,bvp+eda_XCond2,bvp+eda_XDist,bvp+eda_XFuzz1,bvp+eda_XFuzz2,bvp+eda_XK2_1,bvp+eda_XK2_2,bvp+eda_XPermEn,bvp+eda_XSamp0,bvp+eda_XSamp1,bvp+eda_XSamp2,bvp+eda_XSpec
0,2.2398491351759953,3.212749065458576,-5.452598200634571,1.4812657766038098,1.4390924122731912,0.906429957243699,0.023465297995137333,0.02783651917861635,3.6436152753480253,,0.6602640781246099,2.2398189749686397,3.51175416352391,inf,0.9336412682117122
1,1.8281036631600764,1.8761864055359478,-1.02203366588145,1.5506387615673707,1.5461240918077426,0.8296023816094173,4.5258550958829655,2.723800320621076,1.8096215103501174,1.475489089218509,0.6602640781246099,1.81012712658624,1.5778250283258948,1.1028977740466583,0.8879721246448852
2,1.932862012298751,1.8216008846235918,1.025241759816299,1.7049669459382968,1.6776224506640303,0.7942298805100241,3.405125970680732,4.4640096776419735,2.137908921856661,1.4387512181970918,0.6380535849069913,1.928648874624175,1.8197447070221688,1.4647659765613859,0.6866228394763026
3,2.0270315287766953,2.1283961449284625,-0.8671723727691534,1.6279410453468186,1.5780231894508217,0.6430883666324378,3.6053810443648713,5.233418402080204,2.4287980604753794,5.161888086102689,0.6380535849069913,2.011741357204686,2.051104537958044,2.1972245773362196,0.8648291197410506
4,2.0563902192290318,1.8418892435054932,-2.155686718129478,1.6857035171716261,1.6886518035125755,0.7841599801923798,3.5425067271803354,3.4254263334844084,2.002405924725873,2.0039513979143426,0.6468212168108125,1.9942021040182316,1.7378168427563225,1.7406518069182604,0.619591046126247
5,1.5948250241638695,1.3592615809359863,1.1897804862369048,1.481372263439185,1.403709999516275,0.7315342744983225,2.7398621194930173,3.0485975205958558,1.4820712329209647,1.3002040569128173,0.6509067234006624,1.5935098841078263,1.351106888640734,1.1767564618614594,0.848540488198794
6,1.8050158880895468,1.477265862731592,1.028517374564375,1.541674259320242,1.503637928935665,0.4897074410804481,2.82422771091387,2.4266274520466413,1.5229143148476059,1.0994027866267033,0.5677978065141052,1.8020792016349099,1.4834113723152749,1.0386865277369222,0.6804134112669243
7,1.5007445937328734,1.300582355234693,0.980715891815338,1.3813415436757934,1.3464488323220796,0.6752362173745095,3.059095596932858,5.786098106093212,1.493869974115936,1.187199963553267,0.6284777104787076,1.5000853755067365,1.3068647742503559,0.9818724218848964,0.8005244351689815
8,1.6507417437205774,1.5058739513528991,2.1316453309292474,1.4358450288947384,1.3928770934738521,0.7346603350708061,3.61324011520559,21.418700802047027,1.663370260881861,3.063045460082213,0.6180765742263259,1.6504914152318104,1.5061923893799427,1.9611655737916518,0.7087104288820394
9,1.4425715490016167,0.8941836058292401,0.5558033619274525,1.659166159154286,1.653558220207409,0.7222849173305312,3.6152571532391633,2.9952127505565502,1.023176704102748,0.6390057566351677,0.6403206450210053,1.4424650276487516,0.9005948979110123,0.5622224450721549,0.72050414083156
10,1.5187239808570943,0.8100324471079392,0.6258865458299314,1.5847688494950476,1.5589794666260666,0.6964560628986471,3.4854557035093756,4.350557285325452,1.1361096311851966,0.7057154256552582,0.6284777104787076,1.5183791814871337,0.8159259363974534,0.6277774875655779,0.7915004414122617
11,1.6884407676554913,1.400501664578633,1.3428635778925901,1.4766001178544863,1.4648428476241249,0.7904999994690709,3.8915680587545114,19.84122914624109,1.583494440892483,2.8609631847557884,0.6528756675646988,1.687039158457652,1.3884580835652016,1.6948096760050915,0.5837648489576112
12,0.9111815835258613,0.31232320830399496,0.11838252756331458,1.5652538090661148,1.5105467297081976,0.7874389080419706,2.008421153692184,1.0499064156783877,0.37678408245329587,0.24866936070499343,0.6284777104787076,0.9105572000263945,0.3186574417603579,0.12463404174283063,0.7450346521906672
13,0.795901338633709,0.18604336346188277,0.042319949947907,1.6910673752778296,1.5858397716245263,0.6300860590257864,2.068047486656245,1.4861727207272337,0.21470647369189313,0.10234784585192382,0.6528756675646988,0.7958938313902155,0.19272867323640558,0.04902012371847035,0.6219736697757206
14,1.3873136840718494,0.8648480579728639,0.9228502398880756,1.5938511546496872,1.549285200457356,0.5183346564500945,4.247176066293305,13.021883935559096,1.1094339231377446,1.4088054128489451,0.6684167106117298,1.3870946812906597,0.8709420354423171,0.9250966593582675,0.7838736221679945
15,0.7971910611440451,0.393047341770681,0.28458653321720995,1.1264450857978308,1.1105640520320994,0.4677038851802463,2.1354095083672004,1.5996381907605421,0.5472457786641712,0.45559276340541127,0.6425374456860184,0.797175250983993,0.39971160695245717,0.2912679782960088,0.6310186607141811
16,1.0828185493949916,0.3602912414251518,0.18575045459344475,0.8974250144810136,0.873519485311341,0.8428429122925608,3.1103689452364636,1.5470743494774455,0.45959240171338456,0.2629447143332644,0.6380535849069913,1.082804558462596,0.36692670857356485,0.192344627897404,0.8286338258707389
17,1.3006886530593131,0.6395621006744163,0.4947452887199195,1.2937058282580087,1.2730588774822025,0.7886817690493284,2.992721158116624,3.0860353087779653,0.7339631120912523,0.654120959772232,0.6547956803312163,1.300606081259585,0.6460154318662743,0.5007324806095569,0.7061817919667319
18,1.730989227599608,1.2124197620838262,1.1442465843878709,1.3912698740841367,1.4174218381285244,0.6688595085673074,3.884667215524437,2.9067966634939832,1.4814709349174002,2.401245434881308,0.6153451465759925,1.7307270874197713,1.218970136561208,1.1513363263919179,0.7264332107937603
19,1.080426561275562,0.5500313088798974,0.319113876440682,1.4534958546901973,1.4358227832639983,0.7813744408186087,2.948912414917146,1.745559176818651,0.7006437261624743,0.5797992249343045,0.6547956803312163,1.0803795204070499,0.5566008950334514,0.3256464605363924,0.638058276360374
20,1.022397143256009,0.37709064590467944,0.2412717545189147,1.0180339481550524,1.0012697593275293,0.7102848690054525,3.0955061093975336,2.8289702477980057,0.46085790838412466,0.359705399110877,0.6528756675646988,1.0223922627567006,0.3837420596896092,0.24795234165667243,0.5827396112822786
21,1.29652529761699,0.7837905130459397,0.6477763907252854,0.7790068471729973,0.7625342470253913,0.7217577374091864,3.157251609529229,3.84346247064377,0.953750429897246,0.6493293438328789,0.6333676938231112,1.2859865890987159,0.7275007673023866,0.5321605886760844,0.8503594209791331
22,1.7685015064933964,1.2629384867998523,1.361546027424144,1.7458440650098699,1.7073909499590196,0.7115032765720187,3.7607865042070454,5.293987600227829,1.4433562455499855,1.6194512196372772,0.6125606311107803,1.7633015964115706,1.2640360165577516,1.1993961372985242,0.8685237451680813
23,1.1486720101812886,0.526830356581639,0.44751904988048063,1.469434103026913,1.4028664740555872,0.5324288587589449,2.6701354450391417,6.054674375019301,0.694102600099863,0.6186035715457733,0.5713653840954815,1.1486081794337992,0.5329823531441246,0.45397466437156786,0.6184481847300202
24,1.1215112894337305,0.45948902599630026,0.2646050119593273,1.6629918324651183,1.5551808815896444,0.6853363037991073,1.9901133563721283,1.598662608473555,0.6043457378065442,0.33457858788230993,0.6008849035917525,1.117761129729093,0.4588869598820165,0.2630419133744955,0.6775358634390857
25,1.3007890628912453,0.8379035678826032,0.6759501610617891,1.589025170966411,1.560577468170768,0.49694665028106044,2.0238226242486888,2.6457792750017908,1.024149324554891,0.9573524445474572,0.5490601803369085,1.3001574404298235,0.8448542654594616,0.6818220312028918,0.8423562759600197
26,1.5682154101731107,0.6880508787535289,0.38132606404186875,1.532882361249193,1.5127354742329056,0.892011414477434,4.360156092559841,2.038947935016135,0.7897648714003639,0.5364425154523261,0.6509067234006624,1.5681360330769945,0.6946943013572188,0.38789480004872745,0.6642168782624245
27,1.351999044542126,0.9815988605095021,0.7923157609900224,1.5255025723097095,1.4490032041296044,0.8218496506875188,3.32295559668133,3.4943727894709373,1.1263577023766014,1.1751437702642487,0.6357360191111145,1.3468172705776906,0.9126019103516466,0.6303527568948598,0.8934607395395512
28,1.3820361173767566,1.0507088687268906,0.8034963364809684,1.561501292477323,1.502227443505721,0.8017994757723085,3.5617151084921828,2.459207626995282,1.1757176671690015,1.0703813765722234,0.6619902821573977,1.3804006520826761,1.0453569738521908,0.7646387276114648,0.6824557041593846
29,2.0227617938472022,2.9194432103909245,-4.942205004238127,1.6926069363230063,1.6797664274008663,0.8299640150619972,4.421107854675978,13.328017860827185,3.3145027109170297,,0.6509067234006624,2.0225992271767352,2.914166218353065,inf,0.6264852105439356
30,1.7057461863489498,0.890423472583741,0.4618664979574554,1.5911489599698272,1.587902013307489,0.8794355473727388,4.676416345003827,3.3571478875521663,0.9264532249214736,0.8673387930354769,0.6619902821573977,1.7057041046282342,0.8969355820661079,0.4687744464973969,0.7863894360739542
31,1.2056374591698142,0.4756767611823538,0.27967148184808943,0.9013239435124356,0.8704264899024493,0.8060657933814724,3.0806819065130764,3.1761698508808758,0.5888550652633282,0.3499747701681684,0.6528756675646988,1.2056037632462946,0.48215611596327573,0.28648115961380494,0.7903909675562157
32,2.404017738542686,1.1134452969769333,-3.1583835384356527,1.57872178831128,1.553282517048249,0.8207987221989855,3.25636049283876,2.2079292735287273,2.7781272753936213,2.4328677954283746,0.6509067234006624,2.333044300478754,2.422948775243921,1.8393875182173096,0.5493460419586853
33,1.995663994245959,2.0702052740794805,-0.2841318433466151,1.5058033841521232,1.4699042277634424,0.7724289032875828,2.654162206365757,1.5513221302260454,1.6391384030774656,1.3199127652430847,0.6602640781246099,1.867057893278283,1.390327786351793,0.759997841455896,0.863391732130319
34,1.003755938820692,0.6488615724976088,0.5739433548040651,0.5832253924484623,0.49252006582176194,0.4802774301296337,1.964177871809755,1.179407641006046,0.9954068811727691,1.4648884045891615,0.6602640781246099,0.9947328692920816,0.6199967975877874,0.5222468301109935,0.8499899279843135
35,1.5256510922729667,1.7213002738145955,0.4891805879315285,1.7373294092559277,1.7019440128992718,0.5700935049598668,2.405101098380405,2.6877496792055307,2.206127498787138,,0.6528756675646988,1.5243311258035421,1.7110693713969563,1.3554285715169352,0.8822650345836706
36,1.049023805296752,0.8332990983387543,1.0754490229206612,1.76421597037068,1.7499501782737599,0.29902774901671086,2.1425107786379094,2.204311314682321,0.9625151619532124,1.3364773612035232,0.6509067234006624,1.0489653487786958,0.8394518744907943,1.0816473035359229,0.8660661825015595
37,1.1479766729086125,0.7549946140255719,0.5173745867692743,1.0381081265559056,0.9756058805807613,0.44907876844376443,2.3124448351184825,1.6396715778308364,0.9527984904124136,0.9597298952518285,0.6425374456860184,1.147907580392987,0.7612100147783709,0.5220587321956744,0.7108576634385211
38,0.9726722865609679,0.4452232335454481,0.2990836495674525,1.6757182739725884,1.6594739212086402,0.6334993252264783,2.565153510313793,1.3193894920030638,0.5698003920907306,0.4453073650473794,0.6468212168108125,0.9725965680852499,0.4517920297896562,0.30546080156926986,0.8515359912314217
39,1.3682577610885878,0.7979539336289359,0.5972775649349953,1.5025001158844455,1.4897809864448717,0.7626786135364169,3.440651959628815,2.3662605546561952,1.0459601611964233,0.7986808808419528,0.6357360191111145,1.3681052352530596,0.8042316265753808,0.6036353557592281,0.7492935771104523
40,1.3635017591893384,0.8115671378017666,0.4163898803926691,1.727537557763108,1.7051338289862614,0.8444480011724029,3.4530653843939905,1.5853005967492577,0.9552545599098899,0.6592108037653326,0.6447042257417027,1.3630119564976713,0.8173555037721253,0.41643956201643173,0.7034453535211916
41,1.6644738155222394,0.9107834807330575,0.5743026351084417,0.8917293620736075,0.8434816210648751,0.7962308686063753,4.419200332145899,6.025967095840453,1.0654083463832624,0.9298562555631742,0.6357360191111145,1.6643635267096162,0.9152934596241947,0.5754618727316386,0.6162168853582315
42,1.4729708845560576,0.7416736917355238,0.5753659627925884,1.446136358023204,1.4405959188406408,0.6649276109558694,2.738265908249441,1.0333690288808914,0.8805839032847153,0.713010417249791,0.6207552362147116,1.4716586105207734,0.7428138602249994,0.5760539521806759,0.9075924459239596
43,1.8986900138790057,1.5591321782481136,1.081757129195005,1.661405398771313,1.623812001487357,0.8659353608055471,3.7529249738985784,2.5497790913832157,1.9560120111344756,1.336510601213015,0.6528756675646988,1.8910642836386655,1.5054772864872958,0.8195940491500616,0.6405681848441089
44,1.5217812187137432,0.9679665663922681,0.7583647391217179,1.614037108211441,1.6000583730575986,0.8538630735985688,3.8450778194595445,8.425064265308102,1.1339655552263395,1.2007808465598198,0.6547956803312163,1.5214779114564414,0.9737484707384138,0.7610052292171146,0.7112470922454964
45,1.7163841205768073,1.3651979474431646,0.7708169278136041,1.5394549857715438,1.5029614536566436,0.823692543039156,4.6667838270212565,18.733154370259,1.4617840079155635,0.920386884293814,0.6547956803312163,1.7162810080521496,1.3713229193737242,0.7671989376723812,0.5982212726818386
46,1.249336246986677,0.5154539082168181,0.37558514093320605,1.5256982934226146,1.513429390776901,0.8130228259645546,3.1714460896027323,1.7415270451440148,0.6472904020980883,0.5030329064953963,0.6233814453054027,1.249318906092813,0.5219192399144942,0.38177817666459196,0.6445231269277213
47,1.8163033485766777,1.7453824680702272,1.4249676591987224,1.5624579183380445,1.5360897232839132,0.8186534711204618,4.660379015560261,45.539125260658444,2.0897804426898494,1.8047062928412876,0.6509067234006624,1.8161204701409903,1.750344713749292,1.4292814977122226,0.6221115826624675
48,1.356577511957626,0.6629927449149247,0.43069225158291013,1.5143994216666328,1.479910048373959,0.7811606744730911,3.167451559581099,1.4078693775100457,0.8713566668804983,0.589760078721917,0.6447042257417027,1.3564766927107086,0.669655809783105,0.4372736158481843,0.7102943280001354
49,1.0980350109258632,0.43698641997020937,0.21066720109937065,1.526185400337308,1.4959843242139792,0.7904922585857284,3.089541104014577,2.440628075389779,0.49123260413184316,0.363584818421965,0.6652988471865258,1.097679390619509,0.44384030163263505,0.21706293228135368,0.7039226316724142
50,1.181193809543571,0.6629120483372675,0.3878485880389533,1.6355015769463788,1.6465645488158307,0.6589205303903541,3.514924401524154,1.3276387216379004,0.8052121501030957,0.41185364309099276,0.6566669596287297,1.181088510492348,0.6695013577995541,0.3945652428018671,0.5029694379081827
51,0.49939842275051416,0.1382815750005406,0.08263361962714622,1.2062605153629038,1.1686652452553712,0.482667961330293,1.2554328960801409,0.6603235526728122,0.14504087609753089,0.09028617350550949,0.663668482632973,0.4993912461403276,0.14496577025018567,0.08933441948501326,0.5597323415740577
52,0.8553271886735687,0.3614370091282557,0.28153035546001637,1.4097781961935922,1.3878773788957013,0.5905986746391463,2.2795650668045404,1.4758865025805106,0.49556981025970065,0.47650008968731533,0.6380535849069913,0.8552217643494537,0.36759412777796213,0.2873801856570354,0.5702381258230047
53,0.8562403343952885,0.34452532250439005,0.20441835378323803,1.6260980944523782,1.5606052018926526,0.6313963705203618,2.3830405003655986,1.3060163070950574,0.43350548399828276,0.3137256839185732,0.6447042257417027,0.8561891226219437,0.35093679569540076,0.21072791171031208,0.6730629495839455
54,1.0224789605995503,0.23247306673264445,0.14174275841952144,1.2627204429133716,1.225061843589919,0.8160233297166029,2.654796084200346,1.4902382552512297,0.3124325147494015,0.24063940711943244,0.6357360191111145,1.0224231503105632,0.2390610713301879,0.14846551241082478,0.6457702566603392
55,1.1093848933783625,0.4242455627677344,0.16487263632237514,1.2035404197146078,1.196494319104372,0.8368705108130136,2.343018630231142,0.8105128275021225,0.508007331041502,0.20809333078213088,0.6584896970785714,1.1093025598763004,0.4308166082472392,0.171597593430979,0.8349708895208694
56,1.1876690140929327,0.4841821995579998,0.38117975789861513,0.5764535320324636,0.5598119397130108,0.82595683324809,2.9467479259004272,1.396614928710643,0.5294083352626271,0.5121284938359618,0.6509067234006624,1.1875163647741165,0.489130297353434,0.3859596134839077,0.5853995624352705
57,1.84833636987621,1.3931409746333199,0.9382811047686461,1.7135628582257418,1.7046514003541064,0.8905849774188632,6.983128489624199,14.924747445529082,1.6592059661282748,1.1629570344882176,0.648888643467878,1.846990330227474,1.3963489668191011,0.9438518155418775,0.8873905696719753
58,0.8784014594154208,0.3884691476084021,0.2575870721339819,1.4762336932971105,1.4520690478149383,0.6003313607212323,2.1592483889011023,0.8916596368344316,0.433785979424384,0.2735590248795358,0.6468212168108125,0.8783796365798712,0.39502264246684643,0.2643353192221915,0.8488223081982642
59,0.9681194953606289,0.3573422690775747,0.1907718624511372,1.5330128135458538,1.5286089485165302,0.7197347802698494,2.229151232234155,1.3979449584547368,0.40519932399486985,0.2562515893610322,0.62595550513784,0.9679934667961888,0.36339192216197375,0.19718963941851186,0.8357722399759174
60,1.1510465561692735,0.5095508701263782,0.3543823319872388,1.6186362588046763,1.5571577062859543,0.6103126697579518,2.4535340286671876,1.4915788871847142,0.5569415631705078,0.3782401163408079,0.6566669596287297,1.1509938943498643,0.5161319838767792,0.36094681636426357,0.8511284829027415
61,1.2517363010052018,0.7501017262076068,0.5414869531035342,1.6245243806917489,1.587334729919624,0.6227908025804961,3.3862797109920026,0.9830962892171273,0.8406071084301574,0.7143900013010047,0.648888643467878,1.2517246188780777,0.756699435566478,0.5480502072028652,0.8413529368235321
62,0.8040099046618224,0.3401004471094379,0.29748182526079847,1.5118097254362348,1.5008646247915698,0.5734993923356376,2.4564223497945963,1.6844326690072058,0.4842944056946754,0.39044333511427726,0.6528756675646988,0.8039794290045637,0.3466983819668985,0.3040857492518907,0.6411812711143267
63,0.8335301852628688,0.4658243881814098,0.3561990588170574,1.4031741085356488,1.389406438418078,0.5809817740599474,2.396667127899119,1.5334309582664223,0.6211804357421531,0.5927704761574514,0.6584896970785714,0.832920234107944,0.46004570757795926,0.34327235869270994,0.7401304387491983
64,0.7515760186082331,0.23913448088416112,0.11434543491700844,1.5787023745184479,1.5638362404871953,0.7045012106950204,1.5483535018863819,0.5666026545948326,0.30251627758457783,0.2057287186387409,0.6447042257417027,0.7512236627545334,0.2453436004240691,0.12007322800889846,0.8287315045467979
65,0.9557657721369871,0.3870311169005135,0.14959496707084718,1.4118107741368318,1.3594344036213466,0.6345005172828305,2.1777235756750777,0.8286208415324037,0.5152474238005148,0.26579067277658464,0.6566669596287297,0.9557536965901992,0.39358747753676543,0.15628742514204605,0.6733534087519476
66,1.3345904985651182,0.8400977514466386,0.5788941717281828,1.2653304042431606,1.2147856700169095,0.6268374800260862,2.951409321191666,1.866777816392072,1.082734093555752,0.7415044169040111,0.6684167106117298,1.3345878187976978,0.8467634093822315,0.5855647257893172,0.932121721614327
67,1.55933538518399,0.9575932214680813,0.615215522391797,1.3755778013225064,1.3245093575562625,0.8455324974487192,3.8839447645226426,11.5248819710189,1.1517602197520675,0.8825282275813389,0.6619902821573977,1.5593258710067526,0.9641830165631899,0.6220132177755184,0.7551491269646359
68,1.064966123969579,0.6387679164403965,0.42477674442031854,1.277326926466344,1.2721216848464385,0.46057304751167877,2.595783381595579,1.171128003210041,0.7594251721291716,0.5761341369464587,0.648888643467878,1.0649518771754964,0.6454119538485643,0.4314260394240579,0.6253027993501776
69,1.8651697498273052,1.2948320343565511,1.615740112182643,1.5096838223848512,1.465760153763507,0.814749883410463,3.075465272800997,3.3959431317553483,1.6013264179012225,2.224030815455498,0.6547956803312163,1.8650472649978873,1.2979209279320176,1.55998502871457,0.9338527520203492
70,1.4229978657305145,0.9487038137168429,0.7080335682470169,1.5092021305172243,1.4768723334104388,0.689696645085421,3.190536287395027,4.390562862867874,1.2107379565179839,0.9980329254834149,0.6790044388599258,1.4228200424693407,0.9517385501497944,0.6778616172314286,0.8465609474610577
71,1.7342776487975577,1.120098364738791,0.5507228441112919,1.194228691618738,1.158149328381729,0.6935052858477709,3.3979320811797433,2.146399431696584,1.4910939877328975,0.7411085817175697,0.6602640781246099,1.7342455630274483,1.1261791185007644,0.5572408928412501,0.8112537602999081
72,1.260635694808054,0.6212386657790554,0.6353844703060432,1.6246253393853556,1.5526855311514172,0.7415119539213122,3.5478861763831397,7.146668062779915,0.7044237496770922,0.8305920444993184,0.6566669596287297,1.2605823492141668,0.62790830897366,0.6421109508623031,0.8167890892676238
73,1.9736009711726206,0.8709698185431007,0.35877564202211687,1.6069670480069536,1.5905336843672786,0.8189585898778855,4.3660670006937785,20.67453420841794,0.9976349986702712,0.5711404819769874,0.6468212168108125,1.9733612850976607,0.8772130029244378,0.365804656647515,0.7842171066606277
74,1.1301077748563728,0.44483290387769525,0.23240827682877052,1.4625072061805466,1.4497636121999382,0.7293321020552367,2.466541410259758,0.9600431762521242,0.49694984671263515,0.28585105011502765,0.6566669596287297,1.1301029557594804,0.45150364352603134,0.23910119189843576,0.7946085908286898
75,1.0647386346138745,0.7275183922788824,0.6957533495309247,1.1949823498403058,1.161428477557059,0.5511062237679734,2.4883097619289147,2.139457148095443,0.9198960044491525,1.0986901409285565,0.663668482632973,1.064694070464649,0.7338886241115316,0.7008286414147016,0.8380939562425471
76,2.0924447233019565,2.509386561420621,-4.601831284722578,1.3532878062054514,1.3325144160756848,0.6121950019905742,1.8074107885763528,1.9014759362566604,2.5094170717387025,,0.6468212168108125,2.0924142129838743,2.5160948742697316,inf,0.9249216551174938
77,1.6358484368854769,0.9272313107616639,0.5350324056214042,0.9450911581497539,0.8994810230755445,0.8318879228426712,3.7562594494817687,3.0779813611705285,1.1054831175228508,0.8335708174772566,0.6357360191111145,1.6354967356431094,0.9242771488244427,0.5329588855602938,0.713805426923517
78,1.3459809677503953,0.864763477239419,0.6115748417382103,0.5894970042155535,0.5771383444709471,0.7848785411557534,3.1450044730553914,3.7438152197298913,1.0514847968909533,0.7004419097947667,0.6566669596287297,1.345963153682582,0.8711580553680938,0.6170592691957462,0.8227860875635428
79,1.2795030295864809,0.6524311331273507,0.4337312765821315,1.2998333631043844,1.2452135158946918,0.7207304915647395,3.429352163133804,3.74388695208089,0.8081240252381665,0.5283220196453662,0.6333676938231112,1.2794149994927946,0.6589128568233973,0.4402987007545986,0.58078871692787
80,1.1697453662487363,0.7884822734129777,0.5407574776342876,1.2711081810595997,1.2438554269037334,0.5299565714896719,2.864025242614881,2.126803483207239,0.9780601568000629,0.8632077386365672,0.6097226960127671,1.1697145261612583,0.7950500332234026,0.546896827712159,0.7628275801776304
81,1.7522249850674598,1.288458183350799,1.7525627638409484,0.7644951162390455,0.7600991667839931,0.7469741205056554,3.100786954697579,3.0605623774960735,1.3434320226812586,1.8933081976911865,0.5947193981915972,1.7522182946075222,1.294573382559944,1.7053329217772883,0.9432324132883761
82,1.326751661296701,0.8128453371014255,0.6576238371299357,1.406680450186635,1.3663063859703282,0.6408044934431317,2.3909093748913306,1.5511966565440165,0.9536355724918144,1.1825401323573639,0.6380535849069913,1.3267265066357397,0.8190447891115639,0.6630204751564381,0.8753367413984949
83,1.721778516188872,1.670371647900066,1.611796141856522,1.2187892659364987,1.2031467464852805,0.5914396332316583,2.559802102124563,3.092944538745671,2.0569221898782843,1.2257231104876813,0.6125606311107803,1.7213010055794935,1.6739143044051144,1.6221089722624444,0.7421874387217079
84,1.2427827901386537,0.8203043593455175,0.6348635028617293,0.7071052722170217,0.6456499517346569,0.665294489816037,2.5579802187139298,1.8132232183961778,1.0307869139177033,0.6106333434173414,0.6619902821573977,1.242598139196491,0.8267610671418323,0.63969149509747,0.7486121116346081
85,1.4763431400455935,0.9778403738961867,0.24370523585522808,1.0459556078281849,1.0437311700022482,0.8799353678839866,4.012290606196777,1.4987648494438046,1.105988296717015,0.44840685433691596,0.6547956803312163,1.4727240891182782,0.963519388690441,0.4133702876152776,0.8575303595736601
86,1.6224788014803646,1.3054335569434847,0.025313094556052906,1.5788869215008496,1.5485731426250853,0.8010530427047353,3.3331697354426555,4.183172572230609,1.4076754221138275,1.226102052162266,0.6619902821573977,1.6175820975730948,1.1995391985834774,0.9421806222539101,0.872228484528972
87,1.139705130630825,0.7638595058298847,0.6332872380526218,1.4619271902130186,1.4089106589638702,0.6622650375431642,3.3450330000764086,3.556191381988787,0.9898248751633442,1.32462172675953,0.6425374456860184,1.139156543983691,0.7668920716464918,0.6356400482568021,0.7236702595724351
88,0.9745416714862415,0.38951409710870866,0.33695111822537727,1.5495367315251591,1.518318265203648,0.5458438471252904,2.4616673599098893,1.6582134693743757,0.4722930112890054,0.4844203789160943,0.6584896970785714,0.9745085301931481,0.3959999746617108,0.34342609890989084,0.6755302360076787
89,1.6607954099452131,1.0451260135958158,0.9121786132060987,0.6869747825731096,0.640455744968685,0.8462500310078929,4.484217684039724,18.111351350715765,1.2058505127354988,1.1623666461904885,0.6566669596287297,1.660789688063809,1.051770668516287,0.9188891156335639,0.7667285980916874
90,1.420006004805783,0.7477722133580447,0.47523911463872537,1.5313730015587779,1.5015829787081851,0.8373325024103093,3.529150831640771,6.634630751153337,0.8002155257772593,0.6224107749423583,0.648888643467878,1.4199660541576216,0.7536396575799638,0.48058781657391386,0.6822686471086331
91,1.751719499140817,1.078830184904967,0.6000217047578507,1.2202071654560276,1.1730231300725078,0.8721941613810564,4.400862351108416,1.7346351222424587,1.3030137826463568,0.4347635067198238,0.6380535849069913,1.7517057697708818,1.085125221197253,0.6058830708969543,0.740547389606394
92,1.2080696812119154,0.41483644827305155,0.22403975531037879,1.492283709872376,1.3853856443044543,0.8198460624474423,3.1491175852440847,1.9182454001686757,0.48511599871411204,0.29239847868694036,0.6509067234006624,1.2080552000494917,0.4215287319665044,0.23073992908094285,0.840506734350245
93,1.1841432814784916,0.27352008077166023,0.08997618673417662,1.1600651477628696,1.1402175492754234,0.8724613808569349,2.8997541792687658,1.112945537240817,0.32306356985700224,0.2391687267690948,0.6468212168108125,1.1841338668683536,0.2801460600338544,0.09657948397305058,0.5893852943191121
94,1.0001594659231476,0.33513940417617105,0.1039222834392255,1.214593320696894,1.2232092942643642,0.6873823993133769,2.4112080830450715,1.3395693010782495,0.40155506523324513,0.10728482209487265,0.62595550513784,1.0001253419534557,0.3418332053463832,0.11061807661403204,0.8074971414592711
95,1.3206655858499292,0.456890747785087,0.35596678766709333,1.659190381626973,1.617960518302288,0.7953636932483372,2.6537043699620897,1.9208610397123906,0.5504446330488403,0.5171382807416127,0.6566669596287297,1.3203401758411573,0.46212924647980536,0.359888253574417,0.7081962264114913
96,1.441790817122714,1.044917647842896,0.5953284918961836,1.25181405164046,1.2276898620587549,0.8405990197484388,3.699632356229146,4.535496091881903,1.1897968567809905,1.0123832357958176,0.6403206450210053,1.4409617624621989,1.0456797246195182,0.5629604963850047,0.7074308554752938
97,2.339740350919134,2.4002566809770225,-4.056518806056927,1.6152849872752888,1.5493562295539178,0.6663953480177475,2.6979060300456545,2.312121416128949,2.2806267666115216,2.5938708668135346,0.6207552362147116,2.271194097536394,1.93519996849433,1.5880427768936083,0.810741757259238
98,1.6195778592622732,0.7798061750981675,0.5363881932425056,1.3983372958253695,1.3809113720661939,0.8046674918963417,3.4554500414252884,2.77581063138539,0.859075689496877,0.4255543382538682,0.6584896970785714,1.6078835655018633,0.7139976164339118,0.3230377377263452,0.6513980587678725
99,1.7960363329312274,1.1599832723963792,1.1298193085530612,1.4125223552419495,1.4009699640915874,0.8547532014479697,4.161644713507643,9.735595855193152,1.379215623067286,1.3402912508774658,0.6403206450210053,1.794296016880052,1.1617882843814942,1.1191114421217938,0.7690186601797055
100,1.6430696548541235,1.2731013662288038,1.275838464846038,1.2754573111368304,1.2121494067157716,0.8150382649003183,3.359965773398724,7.3154042140845625,1.5397545907872103,1.3558945026954472,0.6403206450210053,1.6420758949335648,1.2680904902907795,1.2453446122352438,0.9104818605749038
101,1.3135879024522898,0.9969512284647166,1.1141694630728636,1.6414229282609143,1.6063980555517352,0.6969139396223539,3.834839036151716,2.697600062728925,1.1835835417137692,1.4544111871222667,0.6068309995095971,1.3107746874730855,0.9726615866821993,0.9230170307143588,0.7978524853407674
102,1.0138676508497397,0.5901345935450373,0.44964867333303027,1.2753244260590642,1.2148053645447638,0.6378517857026861,2.0098091473310227,1.0373604909414955,0.9481042478615898,1.1608203589566972,0.6357360191111145,1.006580203221616,0.5519533793507169,0.36060481598555266,0.7927780265695903
103,1.1075583142052092,0.5755729685705644,0.37476101640137327,1.565395601419624,1.5699355910749375,0.708320492348211,2.6195507044336495,1.336739788888932,0.7391103850954757,0.641875052095918,0.6125606311107803,1.107350354611395,0.5751362621389182,0.3748021202883896,0.7496756623042024
104,1.2937699224190304,0.6080735769685037,0.3863042096457454,1.3556530339502082,1.3339153707224405,0.794641016786127,3.380760201130592,3.0386923886515804,0.7147803265017665,0.4623869796768017,0.62595550513784,1.2936949227646786,0.614748186676459,0.3929205076362273,0.638906070579645
105,1.833295655374806,1.1918973646669975,1.0665601321242288,1.4283087970267458,1.4043787926178868,0.7958835868711728,4.037935284300872,18.0160834917318,1.4172019302396954,1.3483505213314733,0.6584896970785714,1.832928746266126,1.1980853414325048,1.0733808103769715,0.8343925467527104
106,1.8197989527559308,1.478500761521121,0.6034133138768389,1.3201079953230845,1.307663908974503,0.8366349325102457,4.680529003393603,5.318874624956854,1.578110974628417,0.6897970936746634,0.6566669596287297,1.8197475057682237,1.4849283089033096,0.6101288337184895,0.8198430823998969
107,0.42633348166854473,0.18715896762125667,0.13618583922526672,0.5560407033351379,0.4017050528773433,0.33205492078366317,1.922136701403413,1.6567254393393371,0.24341207332378076,0.1769728498327768,0.648888643467878,0.42633130078954923,0.19383393817659142,0.14287998452961537,0.9303721175136112
108,2.0661963149298157,2.2479528973409804,-4.314149212270796,1.456096507161472,1.4462756101343799,0.42762691674005554,3.542477509675818,10.660923756730538,2.9411000779009258,,0.6652988471865258,2.0661963149298153,2.25463069987201,inf,0.8728122290935607
109,2.5682882587270512,2.43900813410369,-5.0072963928307415,1.351484170619411,1.3355718467362432,0.9423763503803965,3.0245968274734185,2.2560747794590217,,,0.6425374456860184,2.5682882587270512,2.445685936634719,inf,0.8862844562033301
110,1.2750344483424567,0.9483639401825958,0.7274841683575142,1.1564729851465916,1.0747823600716415,0.5534823704071367,3.2917183277562527,3.536078740396348,1.3567788622268024,1.047372494008331,0.6468212168108125,1.27491201314357,0.9548357558982093,0.7338400511856444,0.8754757900454578
111,1.2724710817788147,0.6545198476700906,0.5606926230200888,0.439786610588964,0.42779561641910724,0.6819934562570853,3.426686843786667,4.096058003691609,0.7852281659170116,0.8113475102146288,0.6284777104787076,1.2724499358137542,0.6611035390321875,0.5669406982837722,0.8999858342549784
112,2.3436218796980186,2.6460455953888897,-4.989667475086908,1.6657661114245865,1.5985253475645531,0.9011059773606035,2.6968228077233842,8.07501201371822,2.663773557877223,,0.6447042257417027,2.343522834953518,2.6489451551872887,inf,0.8202608837625245
113,2.2043891267519182,2.3974421579706595,1.0952622017828268,1.682592188769675,1.671294176193434,0.8216352532272594,3.0012454245291664,3.4917715178520483,2.3985968315276347,6.098093058644421,0.6284777104787076,2.204349902278808,2.404159184974798,1.1019623755533916,0.813318651641248
114,1.6590012675820902,1.7292444606837618,1.2197598177484799,1.5184036017673552,1.4913314809052947,0.7509101824904275,2.329706080695649,2.516724282774616,1.8487099192425274,2.1894052092686405,0.62595550513784,1.6589783579942365,1.7352434099314937,1.2254981990770923,0.8127378590231905
115,2.0933212115817783,1.663274429206134,1.8831445555848862,1.7661957481774997,1.7378979015527258,0.8457493405814654,2.4282827878670723,3.158296006817363,1.9976905470108781,,0.6333676938231112,2.093315113945708,1.6698090738101286,1.957465405216746,0.8269468564892105
116,0.8793320917003996,0.5117872104810547,0.37807797477196226,0.9200694453861544,0.8363556669830556,0.38159603528469177,1.928893625568902,2.427324291204158,0.7016792068646331,0.770183120902012,0.6233814453054027,0.8791019963196628,0.518365665398353,0.3845395160673608,0.8119327632824389
117,1.790341426206256,1.191946389513243,0.9200081258897761,0.06698765724152846,0.03539026102306659,0.7407771087500259,1.6821107376692737,2.2451839157469764,1.3476515631144177,0.7935855046195851,0.6380535849069913,1.790160747864358,1.1978238388988072,0.925706475765678,0.9140663106594612
118,1.771956841931875,1.0381149735626465,0.9411115219555697,1.7108294526374794,1.6997220691079697,0.7344947035485544,1.469557526424578,1.6498572629644241,1.5894503857490487,2.3356862588244804,0.6584896970785714,1.7719568419318752,1.0447927760936757,0.9478116957261333,0.8171140017963348
119,1.7461893577512089,0.8483449520568027,0.9053345993611734,1.612852428691238,1.6130495323490466,0.8076936882693365,1.2471640150363683,1.4401748964158592,1.0386050495342292,1.1205800097671177,0.62595550513784,1.7461489579760026,0.8548421708327996,0.912255756661976,0.842210708486007
120,1.8806522698179093,0.9987434354663471,1.488360608942382,1.779256471539162,1.7695576550948715,0.9138705011102881,1.1400267425379598,1.2596799248621509,1.1118026893538056,2.7047001142169282,0.6547956803312163,1.8805906829346708,1.0051916226276867,1.4891583827220383,0.7336268037537973
121,1.7148607352019674,1.3465255085734598,1.942560062170033,1.406468621759705,1.369203591164023,0.8156429196305706,0.9614314972530985,1.1926185639662479,1.5876881422000517,1.7013980053531434,0.6509067234006624,1.7148601583922642,1.3532038879141928,1.9492602359405953,0.7695877465406432
122,1.9501121181339007,1.2654248054687844,1.3829442742346094,1.7593966728823447,1.762362978730279,0.6892687477945538,1.053440766852733,1.25554373972614,1.2877487229755094,1.7661455347473014,0.6380535849069913,1.9500520482226484,1.272162677911067,1.3896444480051726,0.7995008156673182
123,1.8971948944053885,1.6060241016490793,1.5007273098909923,1.5054813650773164,1.4774365627291595,0.6295198581979846,1.0529918000240353,1.3069898631747352,1.7722010558321135,1.3345511884097705,0.6528756675646988,1.897194061703575,1.6127027368819211,1.507427483661556,0.7771915521504978
124,1.9534081910352794,1.347510141597495,1.4880498287452695,1.7155329522888079,1.7105169752426335,0.8627332800302122,1.0629289619118403,1.4142039925948184,1.5454319356208153,1.5051767054405338,0.6509067234006624,1.9533376648841099,1.3504305714464995,1.4784043449738367,0.6972609256609524
125,1.3294384968732977,0.9273034918705032,1.0826190926168011,0.1711888577982404,0.11038858541687231,0.5498378247405679,1.1425023612512781,1.3246568957227474,1.0647647539194083,1.515685502820809,0.6038851895711802,1.329368072984461,0.9335690477171398,1.0866170278087162,0.8572473383005621
126,2.3243747301375386,2.277456554585039,-4.601831284722578,1.640840232125452,1.617614883024091,0.8638162865946982,0.8805535358995115,1.061069795829105,2.2776820138126905,,0.6447042257417027,2.3241492709098863,2.2843598163437195,inf,0.7013801152158722
127,0.7240919952042083,0.3134491555880389,0.2266507983306465,0.37306966172582584,0.3408927010579813,0.5200041270666401,1.6508366234791705,1.4279743323274803,0.38751736582514223,0.3640054036170303,0.6153451465759925,0.7240417634482382,0.3200192106153678,0.23319962603216207,0.8920037209411852
128,0.9623816515145339,0.5289631731939127,0.42578269807545244,1.2518657594877438,1.127771791204844,0.688038195150016,2.844541414810222,2.157144285890957,0.686440290927589,0.8098742131031093,0.6097226960127671,0.9623637574768888,0.5355327802243042,0.431823164622063,0.9152985370837744
129,2.2952583679896112,1.4886616407944362,1.2200262971614126,1.6307857981129308,1.5976983863649468,0.9689186382815457,2.3387339280720947,2.891264231798998,1.6137364382977972,1.0952622017828277,0.6468212168108125,2.2949476658648345,1.4938749057771543,1.2285017106050637,0.7619843685950592
130,1.833110333869168,1.2397455658318057,1.0031751455814542,1.5647148818229115,1.5563324465282056,0.5850708720555733,2.447921913948067,2.843663250601311,1.357695048567375,0.8968928324541976,0.62595550513784,1.8330676930497314,1.2460461894433106,1.0092486080515113,0.6767505918568955
131,1.866875153044211,1.741915259585208,2.0883030738759856,0.9037574687759673,0.8781070009993328,0.6221915586203731,2.1860334072748566,2.5206555256597927,2.2242352479160163,1.6060878255488185,0.6547956803312163,1.8667704130405696,1.7480328154553069,2.0956682343111215,0.7626725367618241
132,1.7447924901200242,1.557464802522494,1.2952585291127239,1.306179830667273,1.286214458292832,0.5986907960245322,1.9730736489804588,2.6429894757818726,1.7584703310957668,,0.62595550513784,1.7447486649587003,1.5641734405942842,1.3018191254845621,0.8297042104443518
133,1.7398530793120381,1.6668517933659504,1.5101616785059861,0.822509258539401,0.796440721308686,0.7239113174276691,2.4922015731164273,2.51970402314039,2.014031716644014,1.7462058243208234,0.6097226960127671,1.7395465977811206,1.6713644760686737,1.5044140404421364,0.8227079210215472
134,2.17742195004004,2.424409334682538,-4.601831284722578,1.4112224759830438,1.3948548603715474,0.8793148624595776,2.104577545041324,3.0195173292427735,3.5230216233506466,,0.663668482632973,2.17742195004004,2.4310871372135665,inf,0.6780351343670782
135,0.4660680537910099,0.21093829474896186,0.17777730342816866,0.7300301513110805,0.6558473424853266,0.22903903872337716,1.1005434121254214,0.9638436437201776,0.3425471722256582,0.3063602281677206,0.6284777104787076,0.4660647302370941,0.21757226032185906,0.18447222794455892,0.7094750864240355
136,1.9888831233364381,2.071361889136403,-3.524947637901864,1.7749564343220048,1.7488077484652016,0.5706188002612599,0.4380397481225968,0.5191539102093075,2.325401149205382,,0.6547956803312163,1.9887480630654135,2.0734520458301198,4.013160330241664,0.7994872208537367
137,1.5955904826258502,1.2144813328686712,0.9411115219555697,1.7845692147988188,1.7846223669608374,0.43367747526732964,0.42817850558693493,0.5310654670017139,1.4167291573509448,0.8931246396767868,0.62595550513784,1.5954802202496179,1.221269397775933,0.9478116957261333,0.7996238810860954
138,1.553757966116474,1.193020554289245,1.4299847134185764,1.7590884720941737,1.7381590112385448,0.3930193291771605,0.47635817654390444,0.5792615477594559,1.348478796043207,1.4087375126621935,0.6380535849069913,1.5535828166801133,1.1985934424646518,1.4320930106053225,0.8114924873875472
139,0.6907407005803979,0.4550358771635462,0.36060630669753624,1.3662885279705401,1.3213874743302558,0.09885397516582545,0.9869513841031748,0.9891142292079123,0.5788988873580025,0.5583652189324233,0.6180765742263259,0.6907278871893703,0.46167203220846353,0.36724807236939805,0.5595855144988842
140,1.57664808961111,1.8212103907855315,1.6060878255488187,1.54284755026919,1.5173550483108633,0.5990856516910931,1.7165846081971303,1.5991976299984776,1.9265709064433576,1.5007273098909921,0.6547956803312163,1.5766480896111095,1.8278881933165605,1.6127879993193823,0.7774881259879658
141,1.4552872326068422,1.109662124854694,1.1862339799885548,1.374710885341134,1.3482264718425805,0.46895820369437097,1.3263470120148946,1.525792348269454,1.4109598091545728,1.571394488097825,0.6125606311107803,1.455287232606842,1.116339927385724,1.1929341537591183,0.7517361214922577
142,2.0149030205422647,1.488315975512203,-3.5032189960544677,1.074352371657155,1.0580727049433363,0.8131848740335568,1.3982562329447445,1.4729019479295362,1.8915539112075423,,0.648888643467878,2.0149030205422647,1.4949937780432316,inf,0.7215978371458615
143,1.6785509072910694,1.383331041983714,1.2489171761107305,1.3483158213969018,1.3428206849646414,0.6517421016297701,1.6422950907721734,2.0268597879735073,1.6239984619654861,1.295932897244979,0.5947193981915972,1.6785498386268296,1.3899921049408137,1.2556351581194636,0.8086090991150701
144,1.7143328047583164,1.1887855786280233,1.00221563389101,1.4098616296368829,1.3980099087130595,0.6018964358731133,1.5366140336657461,1.910536917247156,1.6790057993146672,2.303906352608057,0.6038851895711802,1.7141813345826804,1.1951693899112872,1.0093612690849751,0.8467783261467471
145,1.012557761733595,0.8083625105565506,0.5299032187032333,0.8656883453140092,0.847965399891752,0.4070486506882181,1.7405613105320714,1.4816562236490598,1.0359695907164723,0.777774152494292,0.6097226960127671,1.0125569240682888,0.8149679016065087,0.5364629695395239,0.7017417154764092
146,1.660731206821651,1.554805716781034,0.8721186504686198,1.403366908521458,1.3858644170172776,0.7901154224278014,1.8088514374404026,1.7634600080181788,1.7371272735749899,1.200622717440654,0.6380535849069913,1.6607312068216509,1.5614835193120644,0.878818824239182,0.7612505512330411
147,1.182030327842268,1.3829190296192684,1.3403846598158133,0.9967657802202675,0.9644945071902717,0.2518759140394995,1.8338298567766098,1.6407309403235482,1.4631194773272935,1.2601844098024466,0.6447042257417027,1.1820301301476093,1.3895970298449567,1.3470848335863765,0.9179196495575395
148,1.4271629764467286,1.1823937289222133,0.6899613411562271,1.5650095191124476,1.586299569307243,0.6225086953504095,1.3378040228252472,1.2564846488782748,1.6131851124023635,1.2704513599750016,0.6528756675646988,1.4271626530081487,1.1890683030029023,0.6966503446025364,0.8703723795585566
149,1.0611029120974713,0.7125263987625934,0.6055169491260008,0.745050108736744,0.7378451317557573,0.12340086601564905,1.039305467781184,1.0398809408428704,0.9504723813558202,1.0464720376133958,0.6547956803312163,1.06109173792093,0.7191344954934521,0.6116759229253761,0.9307813405229904
150,1.139123842780676,0.6399772354907025,0.4326329322729743,1.132405342687243,1.0761251122446642,0.5463921160736542,1.9275830688772815,1.211002051356558,0.7353303161111132,0.4883726695109902,0.5915533975974677,1.1095721289044518,0.5489393211788863,0.32174862701538726,0.7672815206445458
151,1.962551027675501,1.4059428654580666,1.2276301736360957,1.6631650697136764,1.6470725617357531,0.646681055999493,2.026102086001114,1.731196840310464,1.6504266452248717,1.5374754414513563,0.5490601803369085,1.9601781208530182,1.4043659431611017,1.1564892427677718,0.8861780370232396
152,2.043683595703384,1.933614353068239,1.545345743968694,1.4489831695685118,1.4153391257195649,0.7598522360949634,1.8524437344749825,1.8469792082997956,2.304341801262906,1.1415237053685425,0.5713653840954815,2.0429596183247902,1.921526956639097,1.5214999547046997,0.7728383233591026
153,1.8049585713421674,1.8298878522461424,-3.63484642358831,1.7493575662423986,1.7421732838353001,0.5433568929880916,2.030199208202459,2.4798690623903528,2.486912755287845,,0.6125606311107803,1.8049122558063555,1.8358121564205336,inf,0.7816579335603961
154,2.5700663292298844,-2.5700663292298844,0.0,1.6149394846881915,1.5701498499906825,0.8165959805869406,2.0848410007628546,2.745494790735412,,,0.6403206450210053,2.5700289032048356,inf,,0.7173851249198178
155,2.0663741032436964,1.6881593210916774,1.2494128816100862,1.575199568700226,1.5479269575474224,0.8860715885201977,1.700086696533705,1.8188289416073273,1.719217038038101,1.2217188466926057,0.6284777104787076,2.066371768917457,1.6948394579489452,1.2561130553806499,0.7230592762355447
156,0.5755877716052661,0.28254876854452804,0.21541799927927874,0.6790741653962489,0.6263233946703172,0.2601002161152072,1.3033688718354413,1.065776776796238,0.3501890886566722,0.31709271544967055,0.6357360191111145,0.5755814524637568,0.2892243367218899,0.2221085217366535,0.6941247575103244
157,0.3475007190947555,0.09587416952075134,0.0556746190803214,0.14696382737077213,0.07435662898001572,0.1986950598151957,0.7492846541698931,0.6073810788578599,0.12191151205379515,0.09271795095863598,0.6153451465759925,0.34749498675487533,0.10254916475125647,0.06237533437610286,0.9161539671713202
158,0.8707942877935231,0.3683818456759709,0.2531253035390042,1.0090822440052913,0.855446286742801,0.2959734151885619,1.5440239218489467,1.2841061994388856,0.4543419899350971,0.4853631735399039,0.6125606311107803,0.8707863833696944,0.3750506250549404,0.25984166971861306,0.6799204992067786
159,1.4990652434662104,1.4724563326559152,2.0324247298233344,1.551265886093311,1.5630121816697844,0.4568416721654558,0.7314883793542881,0.8978685157382059,1.562395886047711,2.6357072427299766,0.6619902821573977,1.498990357727717,1.4786837285712444,2.039650195948091,0.8250839070577056
160,1.0264393804298344,0.8322848661543545,0.8994414869757505,1.1586372393047881,1.1740399064465483,0.1160485503050259,0.7482329975158198,0.9678824524889605,0.972839690416959,1.146295929080161,0.6068309995095971,1.026260619817276,0.8382129216995844,0.9054520633034372,0.9123994113703652
161,1.667786945995034,1.296928461394682,2.0994409946183707,1.6917708353483005,1.6759963098447772,0.3432261661528417,0.6042849939063913,0.8388351363919015,1.6144284390482444,2.4150093367040664,0.5915533975974677,1.6676557107530934,1.3026254303713733,2.077709939515558,0.8603670999674466
162,0.5361458397929862,0.35169538813337353,0.2840577410045765,1.4674252557440175,1.4362279744558624,0.08412952182365957,0.6781457146414381,0.8116969144231091,0.5098744210598005,0.6041050314222063,0.6284777104787076,0.536067461226807,0.3581356741833431,0.29033021576559886,0.9443588820357364
163,0.9992927700513996,0.7733069703403748,0.7211462051353019,1.3112569409315704,1.3148521076721453,0.2637930150553464,0.7291500053135795,0.8517315475086896,0.9718904043115992,1.018096714017133,0.6468212168108125,0.9992799057486252,0.779958282925758,0.7273688880929561,0.9015204406515294
164,0.5241056893430788,0.297955345075274,0.24769665960917409,1.0819009060126064,1.0284235807016484,0.2579635689869036,1.0896835723156635,1.0016966798892397,0.4131997047257224,0.34180406311573386,0.6509067234006624,0.5240985052193867,0.3045884325862011,0.2543473208992034,0.8242789048673739
165,1.7918941539435052,1.7113248421109626,1.5007273098909923,1.4981615598603324,1.495687672176447,0.4982200013680298,1.7459126007363681,1.8660887940468913,1.8291092202597832,1.3829442742346088,0.6425374456860184,1.7918928114510673,1.7180039871344288,1.507427483661556,0.8407768522959255
166,1.6358327788993183,1.155108496159588,1.7148638189013043,1.4989118365747824,1.4753967491337228,0.5327618744258551,1.5863265106717457,1.8326075293384352,1.2521209123654877,2.116043505806269,0.5883313578629602,1.6357818877737023,1.1598252936780393,1.7142528247320248,0.8514622737742913
167,1.9416699912894568,1.4561884891071846,0.9129406449888724,1.2843798418648664,1.251959657639775,0.5432874225578794,1.8336255584292767,2.169921278119241,1.6953633001584787,2.0600776275442536,0.6153451465759925,1.941652558802672,1.462883724124998,0.919640818759437,0.7020721502755851
168,1.8407922933354648,1.5570661870611766,1.6060878255488187,1.7096708771015916,1.7209560472437213,0.46263383362467986,1.7384718261866312,1.659293615580597,1.6624793446046935,1.5007273098909921,0.6153451465759925,1.8407396514497736,1.5637966314778964,1.6127879993193823,0.7275577138301899
169,1.4733519293517885,1.0467440639870125,1.2768521807025701,0.8088825250999033,0.7696933496909084,0.43883353949170045,1.9986023760129565,2.2926466194901844,1.2838040499953818,2.561779637490355,0.6180765742263259,1.4732572544363878,1.0534440850086582,1.2804612753669562,0.8189698046604085
170,2.377154336587198,2.736780084021996,-5.113934420609194,1.7162743736190373,1.673745130948888,0.9085530724794717,2.4611733491424364,2.6050896785554856,3.323374369135405,,0.6425374456860184,2.3770692042552817,2.716947698780025,inf,0.7926857018263885
171,2.0661097299751376,1.3314299872783457,1.6050459675238287,0.589098193624604,0.5741077344215251,0.6421811713973512,2.701107909107576,2.609607210076121,1.3317498809179584,2.3059690382901077,0.6038851895711802,2.0661085994786825,1.338093291203772,1.611445945237346,0.8753805349024848
172,1.3440162817800263,0.4647449151535632,0.22503214162743612,0.6488096268995269,0.5375104580845205,0.6335083464550465,2.1708084605176334,1.8991617940538625,0.558738261235619,0.4106462622243532,0.6038851895711802,1.3440014489296392,0.4714361476529931,0.2317303845469081,0.8602965056434058
173,2.125928587704574,2.3094511969037628,-4.435379784608337,1.7043713102386402,1.6206840405778022,0.8393563776384267,0.9650919120657707,1.3857740846581013,2.6030196200707594,,0.6008849035917525,2.1258345812495465,2.3063164406069037,inf,0.7381120119925573
174,2.0412598479826842,2.272889364288112,-4.314149212270796,1.7353907481111235,1.7167349785307293,0.8521065087355878,0.9721700672342548,1.1557794219521158,2.56058428884071,,0.6008849035917525,2.041246995881867,2.279580018919958,inf,0.8000418966922636
175,1.1484755981908858,0.6546815587178667,0.45324806388186123,0.15643652800837793,0.0767950926121071,0.23999421185779227,1.351074989734107,1.4700487424988842,0.836529071539015,0.5015775397996498,0.6528756675646988,1.1484680203530133,0.6613196513944328,0.4597925677809135,0.9406336112296868
176,2.3715779644809976,1.719427696475588,1.6060878255488191,1.6407499130869423,1.608720523509393,0.9220946828802966,1.5143928763042998,1.9259145858028306,2.2302533202415797,,0.6425374456860184,2.371577964480997,1.7261054990066182,1.6127879993193823,0.8471025374514352
177,1.3179160240578947,0.820974074765386,0.684626597324077,0.21900676972234398,0.19970031363480378,0.5237899903037604,2.0084442577191317,1.6948531782035432,0.9815938619505878,0.8377030063500092,0.6068309995095971,1.317763818712782,0.8275326657630783,0.6903977121296089,0.9146668868211406
178,2.3715779644809976,2.23025332024158,-4.601831284722578,1.5786275442491322,1.5472471133374863,0.9389965159597407,3.291525505041355,4.45724644889732,2.2302533202415797,,0.5978297680564633,2.371577964480997,2.2369311227726087,inf,0.8074724756562237
179,2.269795270171055,1.638888833991576,1.7884093823427736,1.7152763609147401,1.6966250703213264,0.8108645650947746,3.239575500915059,3.5997728144478183,1.8212103907855313,1.6060878255488185,0.6403206450210053,2.2697952701710546,1.6455666365226058,1.795109556113337,0.814783672793997
180,2.337188471065952,1.7538171898906336,1.6060878255488191,1.715731792364082,1.6923553711824666,0.9702685022006459,2.417085612915693,2.978450348421464,2.2646547469589122,,0.6233814453054027,2.3371765377636646,1.7605069257239507,1.6127879993193823,0.8375983450771434
181,2.052058511808276,2.1189787159090865,-3.2402252432169036,1.6760819495647463,1.6349437451798468,0.923653640110024,2.5844766181160286,3.5197051710155325,2.5146635492652556,4.26568328345349,0.6180765742263259,2.048890782830526,2.1702614299849228,2.9399174944475948,0.8788187725188048
182,2.5437646336153477,2.8761745623581034,-5.419939195973451,1.6948009053880622,1.6593158393201146,0.8670718962222055,2.518696301586103,2.4691645809233638,2.818237905843331,,0.5783247308855777,2.542394529660628,2.82491570837436,inf,0.849184970070383
183,2.2302121097569194,2.0976664089620383,-4.327878518718958,1.1474623141038691,1.1193218123036621,0.9033608487915601,2.703109184434057,7.676922824099453,2.315872120472392,,0.6097226960127671,2.2108165308556864,2.05946998119633,inf,0.8668654166130685
184,2.3030251859297155,2.401185304038519,-4.704210489968235,1.5939256151592913,1.571935204248544,0.7095911145431522,2.932702132048312,3.6303083367192843,2.896577296599425,,0.5947193981915972,2.2957198240853187,2.397674595317612,inf,0.7638594445958895
185,2.4308143353062674,2.6962070806279645,-3.004949681027856,1.7283989872067593,1.711320915081555,0.8352280506787159,3.6033274167836584,2.81473411278379,2.8238925345118333,1.9521133801206574,0.585052858160615,2.4285263163518924,2.6800893861045667,1.5894190455436086,0.7467677133320836
186,2.077224401259343,1.970003330186462,0.31920517315396957,1.4148568598092803,1.4098951348305995,0.949926721156277,2.689778314555993,4.466731604829956,2.4460940804931752,1.0121061216291862,0.5978297680564633,2.0723555952903503,2.3891953629228246,0.8456950390791633,0.7996984334352538
187,1.9378376773006805,1.7052923995723033,1.429053632344881,1.5058130958182079,1.3940812173180837,0.8793431417635377,3.0440025443320846,3.5796181158958924,1.8894968940354169,1.9894823405381927,0.6038851895711802,1.9317114296555002,1.6863989535702288,1.3063472146294743,0.8803964249718323
188,2.3127555584967503,2.926362633852368,-5.239118192349118,1.707873021978767,1.6391863131716806,0.8543757290227347,3.5486309341482936,11.525682757008283,2.8776516409091726,,0.5915533975974677,2.312635428847547,2.884329443440202,inf,0.8326632893871693
189,2.4310459961707704,1.721156224009111,-0.022765330632339875,1.7856889555507183,1.7502491964515552,0.8912130258890979,2.842074306300801,6.610536918320154,1.8844880367087742,,0.5978297680564633,2.4296611755620217,1.724433391065853,1.8781919750003624,0.7693817628409048
190,2.156550923491298,1.7521331806713332,1.7884093823427736,1.76859668802896,1.730088427123395,0.8758638356507161,2.752436845501079,2.498671148025042,1.7578072487773664,1.9386495942109647,0.62595550513784,2.156466584864052,1.758895321829609,1.795109556113337,0.8246315135991863
191,2.1059247397083114,2.4959065450142663,-4.601831284722578,1.7477007554753263,1.7367676996400192,0.9407473308218189,3.2576236599067037,5.356728451648449,2.496000135815568,,0.6233814453054027,2.1058311489070087,2.502677938346597,inf,0.8011451340069474
192,2.1133224627391027,2.144107987324737,-2.8044804333711864,1.768460351119208,1.7399543250851026,0.9391566828619823,3.1360775652252566,6.107798510137055,2.1793918634897915,,0.6309483474627791,2.1132511435600407,2.145968061852294,2.817612403613736,0.8265031118317959
193,2.2072749131897207,1.8837307477668648,-4.0910056609565855,1.7469944681735297,1.7351450409228304,0.9177562685420424,3.136598765796382,3.010413670253454,2.3945563715328557,,0.6447042257417027,2.2072749131897207,1.8904085502978945,inf,0.8381127641383572
194,2.125428196977319,1.1943333133455436,1.2787196875144318,1.097917444442765,1.0772056404454053,0.9258225747262474,2.995123757713112,5.045778944921317,1.629164284099582,,0.6403206450210053,2.125369140235791,1.2004116021416098,1.2860784317614868,0.8696746495268071
195,2.210472835460737,1.4318924215833317,0.9212776062568135,1.0370457658507939,0.9722368174315706,0.8889432420952736,3.064454871254201,3.036815103976753,2.1579822842257474,2.2393145677350876,0.6097226960127671,2.2093983782679283,1.4317496730248183,0.9887703043845391,0.9000583381656816
196,2.466472914605958,2.1353583701166197,-4.601831284722578,1.6571065148108572,1.6300383184878307,0.9324655951501947,3.3385417541884874,3.5038563021118097,2.5410152071659056,,0.6309483474627791,2.4662811856648355,2.1422279015887704,inf,0.8428058140642213
197,2.0601353681023875,1.7248157489079299,1.2189951889351427,1.0726049518210332,0.9761892563329073,0.6041581508736174,2.344195864440693,3.3709042910888942,1.7235445939640406,1.913474153352378,0.6097226960127671,2.0600747391889858,1.7297306335149112,1.2275189095431556,0.8681888526843942
198,2.3715779644809976,2.23025332024158,-4.601831284722578,1.535802527000796,1.5272352914814153,0.9000881174031184,2.401180865603703,2.4776936236099347,2.635718428349744,,0.6097226960127671,2.371577964480997,2.2369311227726087,inf,0.8246048626818041
199,2.352394709650836,3.3480488637398507,-5.700443573390687,1.7415277337363093,1.7248938805464007,0.962882251321929,2.160799541399731,2.4102365438581526,3.3482012737878577,,0.6207552362147116,2.3522422996028287,3.354879076318887,inf,0.8472026324972324
200,1.223600672731044,0.8151774780808618,0.619598239856495,0.16921395908888537,0.15153021728734067,0.6754835539552411,3.133441563578797,2.811240220616845,0.9075754234501539,0.5883309121958454,0.6357360191111145,1.2235710080735889,0.8211900261361615,0.6237479922719271,0.7898992500012367
201,1.5147705398697155,1.5530789573921049,1.5726066986016787,1.6450509121737042,1.6468738022318423,0.5640633262868263,3.0433750492718112,2.468504009459919,1.8487110509468856,2.333749524842728,0.6333676938231112,1.5146329107157908,1.5575005607158146,1.5241870992795037,0.8231437390005095
202,0.7993787684539749,0.41350280701219944,0.29190097824690286,1.6002982386970543,1.4848237520960537,0.46435357111277653,1.9575607524654381,2.0414554984347424,0.5350584985845054,0.5736039351862274,0.6602640781246099,0.7993722673825998,0.42016548921439006,0.2985878559053432,0.8183807754234607
203,1.788857751091424,1.4087930576166678,1.1131483166774219,1.389448886846082,1.3848378759231994,0.6426984343770101,1.2187547704542236,1.2438178149255485,1.5158484454091616,1.7043136988817467,0.6357360191111145,1.788830429722175,1.4146095870161863,1.1207370849487455,0.8711034166530194
204,1.7397764654444081,1.7634425306100596,2.193874490450937,1.513275435502997,1.4945997904150716,0.9318776331520024,1.1503335164292903,1.2659141653820623,2.308068785105038,,0.6403206450210053,1.739736441160903,1.7701603574245932,2.2005746642215014,0.8118258259396589
205,2.047926889492855,2.2662223227779412,-4.314149212270796,1.550498217978217,1.512684523614974,0.6038557107938843,1.1846138695762698,1.2938798943739578,2.553974539037181,,0.6180765742263259,2.047856745685396,2.272970269116429,inf,0.8572528754071538
206,0.3189213486456565,0.06754541750628751,0.062391877005489205,0.6167080713264961,0.5154448628674586,0.37296887062104356,1.4146571658378224,1.2652542399328133,0.12430644030133041,0.1522828114992707,0.6684167106117298,0.3189205067079786,0.07422085171135387,0.06908812352568174,0.9229249728451309
207,1.8798505487474404,1.6168783325725566,1.368434065474346,0.8480429610587522,0.8375223172039732,0.8133441139361125,4.31282053150355,18.699671107940624,2.0384746656701744,1.7873090151915065,0.6547956803312163,1.8780438378250675,1.6152688327448936,1.3660331759800688,0.8549695043171469
208,1.5843185509159918,0.7811477716199307,0.4424339895990088,1.6533707698572693,1.6245761304885693,0.7009127406173592,3.2576230451345,2.320356106249348,1.1154108987964568,0.9179308900198101,0.6566669596287297,1.5826337096820493,0.7612364479956548,0.39429566732912946,0.9231825772726222
209,1.3741317470916525,0.8459490986279679,0.5274675300769132,1.4332211821039882,1.4003792541448528,0.870493459487641,2.9108678542176407,2.386730767875671,1.0578530234949017,0.8171648453120273,0.62595550513784,1.3736194724202961,0.8514903084054588,0.5333569061904709,0.8105406446905333
210,1.5472100986917794,0.752036093036752,0.5646339507206575,1.3618924093175488,1.3437010038467747,0.7766081981119358,3.59118443872295,3.219381955087301,0.9302066618388055,0.7725021582548169,0.6180765742263259,1.547089287369565,0.7588347068899952,0.5713341244912212,0.789586141670235
211,1.5684571299454657,1.1468307883036248,0.9152120378048156,0.9524433038925608,0.9345597793043031,0.6929877157282209,3.045918405858955,2.931205977366967,1.6048418315441122,1.627897999991428,0.6153451465759925,1.5684026073328317,1.1529017094477942,0.9194200954462631,0.9248659401855256
212,1.4528670160782406,0.849001955359556,0.5739355353219411,1.54418419649123,1.5393850947085534,0.543267920747239,3.3821649140263905,2.883024920240645,1.2075588465236318,0.934613119554883,0.6652988471865258,1.452671608716374,0.8544794479984498,0.5804246138793396,0.8896728920760941
213,1.4917897103178086,0.7914869672872566,0.5834084882148307,1.3469584416086067,1.3056745226606574,0.7141829616063414,3.441318655178102,3.598568900319833,0.8679220907257195,0.6320557212518331,0.6584896970785714,1.4917536470874422,0.7980249118593851,0.5900489850736662,0.6869524407208002
214,1.6262450307504817,1.3016098204004227,0.8233284862991868,1.6306999061196108,1.6304634315654507,0.45006540067381784,3.360069600676823,5.088268214013493,1.4351412130249461,1.0222505707009584,0.6468212168108125,1.6262450307504817,1.3082876229314528,0.8300286600697498,0.7988621832517778
215,1.733490561104079,1.3278956826713482,1.0262693302958779,1.554609343590951,1.5617970488379793,0.8209543035773578,2.9765577412007356,2.230477434707823,1.3278956826713486,1.026269330295876,0.6447042257417027,1.7334905611040792,1.3345734852023778,1.0329695040664402,0.8532850507994042
216,2.047461099539493,2.5514837429845714,-4.541591552391459,1.4130139804815185,1.4066414876798083,0.6326032064704864,3.4217335773562607,2.462515047778206,3.653189522630762,,0.6380535849069913,2.0472540507599244,2.557916135228167,5.703782474656201,0.8111559579155788
217,1.2374388197508361,0.6846235744764895,0.37829524708797657,1.3606039457419512,1.3395032202397554,0.8125258339316993,2.9404980678922827,1.6312152680790137,0.8333066901882732,0.49599747875331424,0.6008849035917525,1.2374146915485684,0.691004869105559,0.3843281079376308,0.8646995466570218
218,1.7396494774779367,1.490170142251197,1.7727660650481782,1.539744552687937,1.5232152499627545,0.7888789519059146,0.15021320241179786,0.14120115736567843,2.014923549432075,1.9425600621700312,0.6447042257417027,1.7396098749032984,1.4963555940636404,1.7796823669528612,0.9523887660569579
219,2.222888684505992,1.8681169764505934,-4.0910056609565855,1.492542524078842,1.4861262622830458,0.9117697302578749,0.03653325538123165,0.04480976817380998,2.0914016777034905,,0.6380535849069913,2.222747534567305,1.87493592892031,inf,0.9478361538566112
220,0.7702441840025006,0.20991586176149424,0.13086594631607207,1.28410402201347,1.2080812848484983,0.5940485515006407,2.250246719786697,1.607273839784126,0.2849020366438353,0.2884192709764332,0.6284777104787076,0.7686133395893003,0.20689675194482593,0.1259729805590039,0.7946419448274761
221,1.7742604713181238,1.6121459959622502,1.271113563513802,1.7157422378424054,1.6441643579678096,0.7872996200842584,3.7317340532838217,4.119605016808384,1.706247272365283,2.1689950467130794,0.6357360191111145,1.772741463392293,1.6089801417692056,2.085672091430472,0.6513743535514779
222,1.670294737666545,1.9314748994878523,-2.9905658248950147,1.5541388557070452,1.5386755939345391,0.8025293069752543,3.5527008649614618,3.0669433718693737,2.282609532398913,,0.6357360191111145,1.6647157427390868,1.8838222268217777,3.3372384027024973,0.7875006628213964
223,1.793733346337906,1.8815792178483002,-1.9012107825470488,1.6679699464217697,1.6338690793331736,0.8194373155402074,4.244897604169668,6.422828846763499,2.095628391392309,3.4181052216771586,0.6403206450210053,1.7861087977192407,1.8554630721854866,2.606937780193146,0.7335068797473936
224,1.6454478786830062,1.6143306048863462,-1.083231415420058,1.585524869935298,1.5624478986880055,0.836680468385686,3.3795618023536296,2.7687991352375345,1.3728399345078817,1.0571779518119946,0.6566669596287297,1.6291872078191183,1.2192751469998366,0.7948065880429289,0.6159900536860261
225,1.423168635994042,0.9775465970493504,0.9624517994692812,1.5254012750676018,1.4862092773846727,0.7805399804254015,3.855573836092456,2.6856782357632185,1.1281330724974659,1.1114652036236634,0.6284777104787076,1.4230966676439953,0.9832452892733418,0.9678889765150039,0.7149219807906034
226,1.3095789670431575,1.2475154018958576,1.5627894138556688,1.2628261145904545,1.1977826450536524,0.464624705265295,2.2877315198382178,2.5414193088101746,1.5105428357369817,2.806648041036266,0.6333676938231112,1.3086751004437889,1.2482289298514615,1.4823212327057707,0.921045667050255
227,1.3843243541568178,0.7128196162660243,0.6962877379888193,1.4587027804133998,1.4350174543330834,0.7710435717625016,3.2444560406730902,2.183877921897758,1.0103373316153221,0.999672247606479,0.6566669596287297,1.3841633001109366,0.7194798636037524,0.7011015082140388,0.7987035333261773
228,1.7417263735450699,1.3519789124859924,1.3154252131650606,0.6684471743689379,0.6396022595714814,0.8240523335727332,4.261032941648394,18.707489950880536,1.5241963783449588,1.739792329295376,0.6468212168108125,1.7416368598248444,1.3574825691017978,1.3135955345526893,0.8610158254555785
229,1.512023442443918,0.7912457997300515,0.4654189459441427,1.5239385396528924,1.5006455444085598,0.7776490919539036,3.335306905905036,6.344361352739175,1.0526556317587472,0.5668568194858964,0.6333676938231112,1.5118575840952364,0.7977521238357739,0.47190764505307253,0.6109743097314232
230,1.4513105463487783,0.940924280304164,0.44540386983779623,1.1734581536597422,1.1587717380534794,0.5037703363384717,3.0668430349723637,1.5865584069860863,0.98686331752934,0.6084854653196695,0.6380535849069913,1.4512477831317419,0.947236552018683,0.4507454794145646,0.8092531965549441
231,1.680039894171303,1.0246714056653925,0.3533248570534506,1.3507782216512885,1.332336830735443,0.7285926442744375,3.502942754280821,2.1438585709766316,1.1868572365306673,0.26530729074515513,0.6233814453054027,1.6799796017680453,1.0314095005996795,0.36002503082401427,0.6763026934669902
232,1.529966083597691,1.1334496491539041,1.4777508094517664,0.3372438600594607,0.3128354040541148,0.6763127482880437,1.941600069346729,1.8397926623498604,1.3989410817128367,2.103983947234599,0.62595550513784,1.529959466490378,1.1398320224947418,1.468156710719113,0.9317768947190878
233,1.7912974079244774,1.3441968080046727,1.1753049094563637,0.8056085637424468,0.7879302622629171,0.7841195922002195,1.7456226323648627,1.7547415499892574,1.5112553891759033,1.295932897244979,0.6233814453054027,1.7912929114164124,1.3508791070437665,1.182005083226928,0.8168244147062744
234,1.8339850243614995,2.074183525687997,-3.908168550049496,1.2655500256715502,1.2712194418025269,0.7785731417541703,1.7976756127939078,1.8776792280671837,2.4464714563515204,,0.6125606311107803,1.8339713180373645,2.0808333303526583,inf,0.7937002019952948
235,1.2858886532126803,0.5407641380033594,0.24448565062477612,0.4937618347876139,0.4612340224630501,0.7978650430860411,3.5146455129784537,1.9374437193522027,0.7036164772510477,0.40586341930707054,0.6180765742263259,1.2857052103409554,0.5465985142026808,0.24980804569207857,0.8983923808932689
236,1.1091271408403363,0.8034793115920218,0.6702092327424833,1.5077285087059658,1.48113421529683,0.7054044982770178,3.4160640843065524,2.7404460578069085,1.0518915083430829,0.9505602029113752,0.6425374456860184,1.1089993815545967,0.8099118733339419,0.6770014462768214,0.8222885319418782
237,0.9588091439189538,0.5266480151532652,0.3381974969360779,1.1892185167532667,1.1824759911525802,0.7815327715625987,2.727044965398524,2.4372880060740694,0.5870389399217014,0.38642988427131,0.6207552362147116,0.958763393551711,0.532990253535731,0.3444454635727867,0.9127115853677196
238,1.5227617888510823,1.2955716875920849,-0.541041421591554,1.6050834587272746,1.5408067395469043,0.7928568396806416,2.6540369749978105,2.045399876961509,1.360701876309844,0.8721602704989402,0.6284777104787076,1.472869469652081,1.0083107983951056,0.6561155698285912,0.5183242499779765
239,1.7676813024936158,1.4357982595625594,1.2835876512700533,1.703678801617519,1.6890551136865628,0.8127676793698683,4.497876872374777,11.669696737309247,1.8709143264658568,3.8876678964188613,0.6602640781246099,1.7644037392182,1.4054174062032694,1.4936846175795855,0.8609344358708729
240,1.713786681683842,1.2239215158918628,0.9765275086823118,1.570471697632855,1.5285047147968027,0.8095178294662074,3.6103286002474104,7.251973907348935,1.5631939793235952,1.3027864750929932,0.6180765742263259,1.711470637999252,1.2132855467587436,0.9636588068845834,0.7785756177865137
241,1.6409404194433879,1.3775703978618907,1.1449184123161897,1.7377619319260313,1.6805955268858626,0.9113534897950845,4.1726747692005395,9.245013184135964,1.7335425336984258,2.141873894448472,0.6528756675646988,1.6382375584632107,1.351954534715165,1.3794668926868445,0.6543721845574342
242,1.236930217494457,0.873263331200804,0.8204992181540605,1.521149883867352,1.4630890909268168,0.7187261509541488,2.6732073464687605,2.5586309828863105,1.0423234221392783,1.1123344320424893,0.6309483474627791,1.2314962718597333,0.84972462972018,0.7486203565762191,0.7135514220191984
243,0.8215162410371678,0.4986284566089073,0.4713801249961793,1.3782576840644654,1.338330778050235,0.43388422297658163,1.8933975507622702,1.4868991974278938,0.661424590756264,0.8078189452925324,0.6207552362147116,0.8173004632241723,0.49462881594041147,0.45429240627563255,0.7444757227654285
244,0.9803214995601379,0.4785553848946673,0.3449721242802928,1.4981493316849965,1.451251831743891,0.6330279345092404,2.8103503363983022,2.332655983312628,0.6827465195409103,0.5073156222526127,0.6468212168108125,0.9798815540721117,0.48290995579861956,0.350736517830472,0.7744277356896837
245,0.982661224464424,0.709641705815519,0.5628463298882278,1.670017880393151,1.636452564518421,0.41511292877692263,2.1340659382992486,2.084197753966142,0.8580970351371879,0.7630303352250807,0.6547956803312163,0.9826382957506724,0.7156915486875213,0.56717357365132,0.935395339617263
246,0.7048522750271052,0.3086774649334555,0.24992543613777918,1.2697823386796443,1.1548847489420193,0.521167589879703,1.939202447436451,1.7565682285601347,0.4757231841450986,0.456426587658419,0.6180765742263259,0.7040957873025021,0.3133974500808156,0.25523437153164735,0.7588735616974844
247,0.9951282686442903,0.5080976802803833,0.3628271871748563,1.473407082093325,1.4326344822926467,0.4810350244325383,2.1033929961439095,1.3682728546791605,0.5974963133593392,0.5220106470488183,0.6425374456860184,0.9950934678896545,0.5144991095747297,0.3693964743765979,0.9319184807774106
248,2.1786063062748298,1.216784313861714,-2.1377937422609943,1.5534686499855588,1.5089871735377396,0.7182618908752347,2.4695102732114242,1.7744993131155051,1.0952856173564323,0.5969017623491086,0.663668482632973,1.9462324232022703,0.9633221541106683,0.46014413728984566,0.8302188841891415
249,2.6381145992820856,1.466505751256078,-2.9751429551358264,1.5933406137901172,1.523083556054503,0.5508346944999554,1.9453824262670207,1.6113093271514203,2.6843188163262863,,0.663668482632973,2.2884630577704907,2.2346152394991288,2.430139355789275,0.773090827970603
250,0.7993818673918537,0.3454572715355474,0.23477112875659767,1.4246576914697617,1.4289009912183044,0.4952634008167741,2.137707327708925,1.194497952285623,0.5994867654240489,0.9208639171877625,0.6699045166045591,0.7970273110473374,0.33766130620346246,0.21756938646529506,0.9102189502536486
251,1.4279691606599814,1.042347623554472,0.8105110256239296,1.4831233276220994,1.471679579944956,0.6342203487328818,2.6913986666468643,2.12745129787207,1.2718179633723543,1.3339953088553327,0.6684167106117298,1.4257284303652977,1.017268816345493,0.7452416086955203,0.7150401693811161
252,1.1928994576269822,0.6507457222414372,0.6701560968741969,1.5849692759807783,1.5896227044214781,0.6352322051308258,2.5617504819053374,2.1817721019014313,0.7891967733824734,0.7708277631822593,0.62595550513784,1.1926299707742312,0.6566879923151121,0.6766884975840829,0.9441108564892396
253,0.8792051654033861,0.41126774046834935,0.2559560568342838,1.1124268896764322,1.0873357073907288,0.5791715726404363,1.2036153345472695,0.4896793046478556,0.6171101755560474,0.5352378721468357,0.6309483474627791,0.8759488525907773,0.39884388811452404,0.22335228741786461,0.9623599781916824
254,0.250604150214282,0.049443791782271374,0.03802950384785575,1.15035960299313,1.1055340898701511,0.3025601798313056,0.878710726524507,0.6583098721561225,0.05266462950796342,0.047968110743092575,0.6403206450210053,0.25060039754724905,0.056121038005395495,0.04472908424928151,0.8557284919797373
255,0.8325624344375525,0.3249318876367083,0.1795704181418698,1.3333487513789255,1.283750888346891,0.6452245153576986,2.071550488975554,1.2436328374291605,0.3935394207048965,0.24325945087203393,0.6468212168108125,0.8323837054355008,0.33154963268783827,0.1862219763806784,0.8401806903251227
256,0.7017778160121212,0.3695151566101501,0.2052201515883314,1.1885684920653743,1.1555023174309065,0.5341280540584563,2.237060249919966,1.4305795188589876,0.45585870614750534,0.3544493697989154,0.6509067234006624,0.7017171312430124,0.37598203584489026,0.2117104968552053,0.7473485451296413
257,0.7944412115308722,0.3731484962013695,0.2890748007214299,1.4253986705049002,1.4310922738654475,0.5542214184947101,1.759423723583657,0.9657399534013997,0.49974009609467435,0.6211845830717551,0.6425374456860184,0.7942697753232215,0.3795690595873585,0.2953058753256711,0.8773902649320832
258,2.2165905089377924,1.095814438444711,0.42727852160722923,1.5451513088426385,1.512368737041385,0.7033279991000967,1.6488658828964537,1.1833191753989718,1.2732039649802316,1.1621450519286733,0.6233814453054027,2.0661963149298153,1.0586327541808325,0.8573779931746028,0.9503573120107514
259,1.6846417863343017,1.6129831805227708,-0.5782991807850597,1.6565302130938313,1.6209698925734803,0.5361902859630471,2.927350979400583,1.5795431076901498,1.8546188097394334,2.8106778182152823,0.6403206450210053,1.6474859800716302,1.4244076544479247,1.261554498595485,0.7801545006827151
260,1.5372086682182635,1.1229889181813517,0.8265406373443032,1.3727086759586313,1.3470226708159114,0.6598544662857395,3.1840152630259184,1.7129255747894838,1.48711125288194,1.3296341958419904,0.6509067234006624,1.5351553523471355,1.0848839714323613,0.6958982139318352,0.7062116079259985
261,1.1258953536250949,0.6023308480905114,0.5658725150842359,1.4203245024622806,1.3468489138535016,0.770960655263968,2.8950883380722567,1.85632937499269,0.8012522960459835,1.0351762498010395,0.648888643467878,1.1254697428379923,0.6036905846335426,0.5627046540188052,0.6956722152774103
262,1.3879259534414385,0.7349612398948755,0.5741058105397365,1.6305154828159776,1.578867860206022,0.7576512240242611,2.5939338201737834,1.2570720452505806,0.806268150473447,0.6716083139669818,0.6403206450210053,1.3875840813404696,0.7405809600642551,0.5654892794137529,0.7539627048760329
263,1.2782781370719218,0.5339821973842034,0.37279521887734113,1.4968477161438858,1.4636812892224902,0.7608601282733768,2.4761382194736146,1.0364857388227389,0.6142090025299478,0.37182530650169743,0.6602640781246099,1.2779383364822658,0.5406443467896648,0.3790419740856285,0.7762941111352248
264,1.4019326007894892,0.8739543228270072,0.8557728567750558,1.272674920334821,1.256539657179969,0.752987254409869,3.6598567285550865,3.7299025108139836,1.1705903326859664,1.4454323173214965,0.648888643467878,1.4016561966771262,0.880146357134391,0.8619142641319786,0.7598166344962084
265,1.514363198108275,0.9528291209745579,0.4205297833858479,1.7122547813654794,1.6731661669436622,0.8266941382945167,4.288472909973251,2.002525915919433,1.0666002633170617,0.43593722249694355,0.6699045166045591,1.5141782389557035,0.958009638424522,0.42803221657075347,0.7101808076102929
266,1.5690754619722118,0.9146545370736545,0.5979618226879553,1.618099378010694,1.6150426524859343,0.8059956971072746,3.7663906099977797,5.46392283541099,1.0593890985408325,0.8395136756703815,0.6602640781246099,1.569042675628633,0.9206755311565893,0.6039944751289724,0.5841527399788614
267,1.2478943113623189,1.0694896469463628,0.9775522129768559,0.4512522397015548,0.43505054445372743,0.5652879867960705,2.4040842140127534,2.6368126167477572,1.1185063792831866,1.114970301518466,0.6403206450210053,1.238449233855909,1.0454231502059825,0.960321248790599,0.9403548435515481
268,2.755474949377929,1.724534161441452,-0.13923981056024903,1.6510110569585612,1.651124873255767,0.47837585198499544,2.231687084671428,1.894350608006723,1.8314404830086066,1.4241380606373075,0.6333676938231112,2.6747766243392848,1.6697401615849452,1.38972489621668,0.7615140002253201
269,2.3681052762906285,0.9223653549240782,0.37203580942362446,1.4979734153370505,1.4806816549972663,0.6060396813383656,1.9467552644758142,1.3872833436961889,1.8362912895788588,1.543610418044918,0.6008849035917525,2.2553834915097517,1.4738551012957646,0.7313503643714676,0.8572837352699845
270,1.3979544400414872,1.0185277770097816,0.8790304726347165,1.5397297811554527,1.5474583178207966,0.6056464559015471,3.212802558386814,4.66845231998428,1.2119506512107534,1.2172881435175475,0.663668482632973,1.3976025022692684,1.0242667525074278,0.8782768828157312,0.7134498518281402
271,1.795823610429249,2.6629714382463856,-2.3749588405243287,1.6383581605472295,1.5755962629538052,0.7069763598628339,4.2793126345444,6.201698158448066,2.910825299416499,,0.6652988471865258,1.7954997888437783,2.649821696202417,2.270895582037063,0.600422978766834
272,1.7311228171242392,1.423401157190033,0.9973085745990025,1.0642574741552666,1.0592907557235989,0.801522673002884,3.516759617874593,3.0653194554766054,1.5542924743608504,1.3181967951126166,0.6468212168108125,1.7304762408111565,1.4290830069006248,0.9543079809991833,0.8126228048424623
273,1.486012568564134,0.9495952619653747,0.4784497535149037,1.3039067548050085,1.289468440862683,0.7951269904113003,4.8722032074308075,6.8988421258080805,1.124017463327319,0.8746880877798412,0.6566669596287297,1.485991929229889,0.9559829531745987,0.48464600816679787,0.5999470046404787
274,1.2301388637624344,0.42836353096417334,0.22858921407887212,1.6490080759893542,1.56693125333834,0.748009632348484,2.964010804083813,1.5456297979325027,0.5293632848009535,0.3940974812901053,0.6309483474627791,1.2300506351474945,0.43331561931216156,0.22961416212580407,0.6900566799496382
275,1.2067755205188635,0.511924196015606,0.3427637251489042,1.665695167093748,1.600515715451582,0.798283599012568,3.034737327979851,2.112216350532417,0.6305703503944051,0.3976417330963151,0.6509067234006624,1.206717307773222,0.5181938100303712,0.3495649942735727,0.7196265683574172
276,1.4525448698417305,0.9520618375446268,0.807580129331047,1.0556848916538035,1.0140531828011714,0.83313669029794,5.6105382001965065,25.611134663467276,1.2033920007715662,1.4317344384040405,0.6652988471865258,1.4525291348956975,0.9587553750216891,0.8142803031016107,0.6604307844199663
277,1.526219583642243,0.8056128133196003,0.9680054823814608,1.2726122164085831,1.2697553918597773,0.8547614137329549,3.8235736381992274,10.38160700590377,1.028076690429797,1.0634056111446815,0.6425374456860184,1.52616964325109,0.8122729360006669,0.974743925087685,0.6167960306719846
278,1.658470280269108,0.9494579932094827,0.5242158555652776,1.5912134780965717,1.569802877671044,0.7456237244773224,4.375746272726213,3.385284651702565,1.1904530279596415,0.7716863757711434,0.6425374456860184,1.6584531019198299,0.9561067560950413,0.5309622473305897,0.5565824449082496
279,0.7869970387801721,0.3469259517019476,0.3039452359416326,1.097704618749425,1.0290595943328062,0.5613659233977129,2.52120367324493,1.8463289634250688,0.42634189353219476,0.4995944386638702,0.6509067234006624,0.7869695787714854,0.35361119471912594,0.3104773193100265,0.7123775851831872
280,1.6253589964873203,1.4212725638968344,-0.4061083936918539,1.378726249031014,1.346357702140903,0.6144574528912121,2.847706884206844,2.8907168035462782,1.2989481166413448,0.9677202832315277,0.6447042257417027,1.5789625939680632,1.137792047764293,0.7606041008953629,0.6788303054003535
281,1.4562305756769254,0.9635990181927472,0.6806638499109692,1.5425459761628189,1.4455856237157338,0.759774327697758,3.0808934884882655,2.098803891620405,1.1241242889414027,0.836131092693605,0.6207552362147116,1.4556206215080798,0.9633734515892055,0.6598782926695496,0.8306347017258656
282,1.707904351189248,1.2613755353879204,1.1277777509942908,1.3209237087092942,1.3038804754587179,0.7521016946071136,4.0198264352468565,30.329567494597047,1.4967868866713925,1.7861624395296483,0.6425374456860184,1.7076634488749531,1.2676128161116558,1.1311408784697612,0.7231154234060723
283,1.1915620570321508,0.6021072265376819,0.29667715639345116,1.2429151986250935,1.2213610219093831,0.807475339547623,3.908350348126588,4.234749961475566,0.769393158086229,0.5538696609855143,0.6468212168108125,1.19131254395703,0.6064649975965881,0.2972515234679316,0.5782364885624373
284,1.0656475964677607,0.5284217317928976,0.2845071210044896,1.687597091889224,1.6503534444093308,0.6270412778243575,2.814620391813997,1.715587652296232,0.6515192861558805,0.43652442500686506,0.6284777104787076,1.0654676900758075,0.5329753327361877,0.28718766202613033,0.63224315347736
285,1.1496696157187691,0.6358744597939137,0.6076091340887693,1.6531490179077188,1.6048364929543015,0.7467436744318285,3.140151454490359,3.8818371504240345,0.8200308062456176,0.9271649928534063,0.6284777104787076,1.1485731378218818,0.6418538861723948,0.6121011865278218,0.7350339115352462
286,0.8268184659949386,0.46713151405230746,0.35115592166390797,1.1718653191125163,1.149583161979285,0.636282066767801,2.299371688830299,2.0881910807547737,0.6464879193083256,0.6995973434980406,0.6180765742263259,0.8255363686056909,0.4673890897087516,0.34645633049273,0.7728628110838422
287,1.5779287050448436,1.4183176287574748,-0.4144016003597386,1.5408794952638079,1.4927812275177217,0.7983309258700966,3.2845063365690974,1.7439209909264215,1.4242010993539171,1.0776168747107193,0.6668815377411301,1.5463587890328803,1.2129847064568804,0.8241754429663495,0.7269012990784984
288,1.7954077609647738,1.7089366191328788,-1.5693938988069216,1.6993406121200465,1.6606896026623517,0.8316651045753949,3.9563505406780153,2.811048137741553,1.8872386230134512,1.7441328677482735,0.6309483474627791,1.7738540653592205,1.5703330615861553,1.2710333948962171,0.8004250932645716
289,1.8236166884263896,1.0977818505961534,1.1691533890186117,1.2176933287355585,1.1943982523344834,0.7562153502336767,3.673317264574496,2.3150341157619687,1.3049976002206485,1.6233836332870832,0.648888643467878,1.823318938135821,1.0991628736785775,1.138427974321465,0.6607766852717987
290,1.4471536257403188,1.3879933332680006,1.2552776461040263,1.3718845611471127,1.323279080560491,0.653344037759027,2.526205317048644,1.3768772374899636,1.7608369333147225,1.522652836006977,0.6425374456860184,1.438664258228042,1.322259432481236,1.165649095733599,0.6970699444886697
291,1.318246650786077,1.0085865259349414,0.927219700754192,1.3348201002080815,1.235684742205418,0.6283278031481496,3.2133025160186044,4.114573113177972,1.2296286296903385,1.6261458295615514,0.6668815377411301,1.3173074155764235,1.0058205786489516,0.8965815113914031,0.9208138016247361
292,1.1237789351367327,0.5321582208443365,0.37610006269071095,1.2015472374173444,1.152426017661902,0.6581362921481964,1.9774724590710762,1.0818433838988255,0.6108590808537901,0.4508313556655034,0.6284777104787076,1.1136920861032034,0.48228132537760776,0.2990746472531749,0.8651149690458325
293,0.7006280825877607,0.31656261350623227,0.2005457211447832,1.273454720028474,1.2027882100683953,0.544064208572014,1.5797064749368084,1.1785851533270695,0.4693240847363227,0.32595343902600066,0.6008849035917525,0.7002836961292651,0.32226301393804263,0.20556700721138393,0.8857890117471287
294,1.017399827462592,0.5796853224188634,0.40990244432223544,1.3458516608374151,1.3009398238766607,0.5879434160192113,2.188376575318941,1.79242300096162,0.710507726282381,0.6213814308141078,0.663668482632973,1.0171859233059144,0.5857178277772547,0.41483662427925605,0.822200697813316
295,1.7226109768666484,1.158309491097488,-0.496030956332985,1.7534312780238783,1.7286324275190748,0.6814842076484373,2.5364399504627007,2.3548598307988593,1.20310811240579,1.0476494061130772,0.6008849035917525,1.6686572720940716,1.005635832210005,0.8570129627050992,0.6535938521895859
296,2.169208264309092,0.9828683813214734,-1.884755245608062,1.7658254248527387,1.7318413200736127,0.7579673909545676,1.8209583833194773,1.3379128593784932,1.3034681727305542,1.0683299965912014,0.6403206450210053,1.90761935532259,1.0283775805998503,0.662838706645563,0.6667230361941653
297,1.2543428589301862,0.5354806125536478,0.37725767533640653,1.6971339711947184,1.6755110312514379,0.7012781054822613,1.8639825120666471,1.2425846907881126,0.6350232952529858,0.5177642391027397,0.5978297680564633,1.2348903069607375,0.5126609076029971,0.34847148226351743,0.954226205591933
298,0.7605958269424709,0.3999948831127542,0.3133644164420559,1.625723829564266,1.6080961406171184,0.42287914162865886,1.3450379924254114,0.9998358251433932,0.5478776236996205,0.4837172748897761,0.6008849035917525,0.7601420493842237,0.4062138913704055,0.31885063527139346,0.770857415862802
299,1.1156498706165194,0.5246825473864514,0.48845785477311665,1.5160516245159243,1.4680913637657194,0.6837150287543454,2.6573126551625528,1.6966676413109298,0.63961348325805,0.5464825464400604,0.6547956803312163,1.1155211070710236,0.5309842828375283,0.49263897635114273,0.8766074722933905
300,0.8612759966911947,0.4860196172094364,0.3824546139345726,1.0692666141929692,1.0563700263668683,0.4058069621458682,1.563843072539797,0.952544627301432,0.5865762234831648,0.4712235889749671,0.6233814453054027,0.8612240102707958,0.4919794980713505,0.38811636412783923,0.8830689655491232
301,0.9811425935650852,0.23912982874523736,0.129854741156763,1.5457917633544265,1.4302351637576276,0.7611155705403736,1.8885110525391404,0.5776267818979868,0.24746898435071005,0.13931215432466193,0.6528756675646988,0.9811255932124429,0.24581261248860925,0.13655150276557512,0.7678692769414819
302,0.7160576715296717,0.3382279434302934,0.2412500682698222,1.588663383566285,1.4993210052981032,0.5426939980168586,1.907297707559215,1.2621240900416313,0.46623650732159744,0.43503137110405515,0.6008849035917525,0.7147113584757858,0.33943757348580367,0.23869556452630986,0.7386640894022242
303,0.49094777777614257,0.22443013797833195,0.16946201864047183,1.2399357734060148,1.186172482243539,0.33624115654982617,0.8735247357321622,0.4971884004625825,0.32376565996573653,0.36880996555303963,0.6509067234006624,0.48942659528903726,0.22419543846029372,0.1671943099311643,0.7456477384608203
304,0.8499857536241394,0.43959357175577163,-0.08571989784830913,0.4834503394071821,0.47553708420469715,0.5311826104289155,1.4919929393595053,0.6816492953585118,0.39357360784143847,0.25821741139922244,0.6333676938231112,0.8161689142645305,0.3217040883568817,0.1917890089320045,0.8607314082184234
305,2.3146796923633817,1.3623121819927082,1.2424280425442653,1.4099239832924726,1.3150704422896962,0.596302667090742,1.1094268686947404,0.8561300681454556,1.3677866171539308,1.1180473457100917,0.6357360191111145,2.156082634005044,1.1091280384575242,0.7596078271109222,0.7200552296910411
306,0.9580309622962886,0.4491103229011748,0.1408466113750526,0.9133445857385174,0.8459018714333997,0.5468568118745298,1.5532403731730289,0.8010613437154039,0.4912351529775746,0.2669096288099234,0.6233814453054027,0.9427202687111355,0.3779112036094748,0.2368994451897536,0.9025891229565027
307,1.138847526990734,0.9885158569444756,0.8006103947206471,1.2247081570660185,1.1853601218131413,0.2352774583029339,0.4919703685598737,0.5422419509148586,1.1259388910329355,1.0960109233541,0.5947193981915972,1.138254423940553,0.9915919180657182,0.8095055981116122,0.9199116497579928
308,0.4737689558738394,0.29960147121228653,0.25283835244438313,1.4050330784043272,1.3479898264913082,0.2963230659757258,0.8946533936389442,0.8269805453213542,0.48211654646185115,0.5763382323293998,0.6447042257417027,0.47374394886145876,0.3061964506681259,0.25933436979301777,0.7813901779184299
309,0.8142612983568804,0.20850001831330145,0.1361338005000452,1.3839407032391398,1.3520685785087654,0.6604306725490465,1.8952822916802448,0.6734865954841658,0.23224755000810782,0.12271257631422623,0.6566669596287297,0.8142356732250552,0.21519265110439387,0.14283050450695903,0.8837443847630438
310,0.7217998281086548,0.2572606631617841,0.18208639669366378,1.3915241881059441,1.3916039407506584,0.5356705073998801,2.121345464915564,1.237436462023274,0.332219398675286,0.34761835585900763,0.6528756675646988,0.7209752591458638,0.2599428867056027,0.18340668618202452,0.8726029770629105
311,1.222151167951424,0.6580893086669388,0.42422965770661114,1.1894928221354,1.1727760514085797,0.6281232679269062,3.0034859460321472,1.7297604964686002,0.7285728029256424,0.4969839536954534,0.6602640781246099,1.215895449282842,0.6136351176322117,0.3504436570146381,0.8302979950283577
312,0.6685124365546234,0.30666018676205475,0.2247205045321865,1.3113210485642384,1.2490607456754663,0.5037435297589646,1.927214927560077,1.2491115185335848,0.36832907370265844,0.29226472580055457,0.648888643467878,0.6684545679695739,0.31326396922703653,0.23136976137038676,0.7838432023251168
313,0.6858284437624621,0.31631136933126125,0.2046102589460128,1.6898818936597886,1.6847334457897032,0.3438433070641768,1.845548679394239,1.1902122405368474,0.4009403728723881,0.24753658249581872,0.6333676938231112,0.6857744262305322,0.32296668967588377,0.2113234317924615,0.840350010153199
314,1.2987517058426783,0.7949477459831051,0.6087953092093299,1.2291483540043655,1.1865671712714292,0.7024924564301727,2.346069275360204,1.7094662027369858,0.9320714436977607,0.6794971318161913,0.6233814453054027,1.2985684246738736,0.8013479701953478,0.6158300128674589,0.7986149625974102
315,0.554451113509625,0.2017050115872865,0.1099579412796523,0.8909557004289149,0.8661639383330677,0.515971078142404,1.3409165499910398,0.7911109492818336,0.235346206537819,0.2047596567683266,0.6684167106117298,0.5543132048445802,0.20818405385015828,0.1163371361354631,0.7729992885543419
316,0.5314488424163669,0.1339650446417453,0.09929603032923284,1.7385481984563809,1.689651063419087,0.5150311401336373,1.4303122846191922,0.7393390747092594,0.1491094382355259,0.13860541606918259,0.6528756675646988,0.5314441393640857,0.14063759503343468,0.10599414494786112,0.8812948694524806
317,1.0719743958349937,0.4503948206548263,0.37939624568898345,1.1641799586635315,1.1750310510935325,0.6720306683303985,2.654138907659405,2.0672122263947217,0.564558811462314,0.596079970075105,0.6509067234006624,1.0718729914784881,0.45659956213250763,0.385680563831126,0.8523973423608793
318,1.323709695895219,0.9607147296705005,0.0705332096449216,1.551487823761826,1.5268344501241584,0.5621303535444556,2.1533053972510383,1.5046563552835446,0.7151509189621404,0.44842321023395915,0.6425374456860184,1.1722588288364082,0.5829115921610312,0.39393088115705177,0.7705137604753086
319,1.9136054357032262,-0.6523621543030809,-0.4611553704343595,1.6736703544897684,1.568264113756925,0.6041707635968333,1.67688485179735,1.0551482840007227,0.9520953207030782,0.6693482107233707,0.6380535849069913,1.4907663827166018,0.6805955350938903,0.32130812259534236,0.7758988446678364
320,1.1775077529446976,0.5464249458525383,0.4619479084635574,1.2529509538795192,1.2261561483601915,0.7906069649690906,2.5191690420759616,1.5545287455213352,0.6925405154971735,0.6153780935187736,0.6447042257417027,1.1763576372929625,0.5502385060286791,0.462858696750217,0.9259969230863601
321,1.4323613847753125,0.8863015475058831,0.8938976224992232,0.9500643824023902,0.9610797867879447,0.724782927852211,3.303934412533142,3.380475885868285,1.0675245311429704,1.3845108866830835,0.5915533975974677,1.4322684940298414,0.8924486038216548,0.8969403699785815,0.9154227408923384
322,1.1757176638213573,0.5846662293732214,0.22514959388205136,0.7400223311111241,0.7074466472149921,0.6375861591627773,2.501250131746359,0.7491526688096593,0.61952601008074,0.19885368451665913,0.6380535849069913,1.1756733348045714,0.5912634489921378,0.2316828666724546,0.7941383341291405
323,1.4455941767018734,0.8070276781946628,0.6034823256748285,1.4115528791688954,1.404525739658818,0.7676286355765368,3.206855400496376,2.4241506225328004,1.1971063937219222,0.7643703212287555,0.6468212168108125,1.4455255098266586,0.8134680939071927,0.6090297504985517,0.6473936331434745
324,0.9772242910361365,0.40618009926413035,0.219289066526825,1.286083949935351,1.2456856321364296,0.7280429344196631,2.9407880202417207,2.2025662908522987,0.4741541999962097,0.23844616001301602,0.6619902821573977,0.9772209559377557,0.4128583367851066,0.2259916810143369,0.5726834499042984
325,0.9139904475275002,0.3018226185287616,0.16856693830614367,1.5646254499969088,1.5408614861909646,0.6733714737665611,2.238664232259394,0.9753611297484133,0.3494746877635788,0.20819755345800345,0.6357360191111145,0.9139601165358728,0.30851615935462284,0.1752610851144519,0.6692541170553995
326,0.8874512828148817,0.32916965079732075,0.22222833403214803,0.48317288135906644,0.4406475744399821,0.5645195194306418,2.2538658515567884,1.6117440029590036,0.3775458439483819,0.24561684603831163,0.6619902821573977,0.8874333622024441,0.33583553106522124,0.22892788163161978,0.8563865101365534
327,0.8043976600705278,0.23734100732340901,0.15200747255966673,1.4699672751400308,1.4488318475134627,0.7382420549113399,2.3434384016937804,1.1215396083940723,0.3488198947520636,0.2844134892169245,0.6684167106117298,0.8043519008562062,0.24394757393831434,0.1586778385517141,0.8968178813017704
328,0.8359252706428768,0.2645131412674486,0.2121024364923325,1.5771807375205724,1.5432156621200315,0.6547917580261914,2.155269361135504,1.680821760640805,0.34587151045427433,0.2953061602036913,0.6357360191111145,0.8359147464104982,0.271166637348991,0.21872431249811267,0.6819028600427486
329,0.48340868008242655,0.1355891104626069,0.09442035648286962,1.4559998289139344,1.440505092751473,0.44473197583997065,1.3148038535847992,0.8024886972613328,0.16702887278623077,0.14919189120152346,0.6447042257417027,0.4834086317221808,0.14226683372275184,0.10112042519460614,0.6355266052228896
330,0.8448261057431552,0.3451644768432309,0.11407108374305941,1.403688489559605,1.360649944232428,0.5698902930064548,2.2064673955566207,1.1717366536046239,0.3994081825858267,0.14879706347589508,0.6447042257417027,0.8448231472395129,0.35184308190398494,0.12076563935876707,0.799432767275336
331,1.2919318514332554,0.4964887165292844,0.29775500589864,1.600122372026701,1.561634432484943,0.9025849848016748,2.2960513917704017,1.0532636342538186,0.5141190471447308,0.3668737075463337,0.6068309995095971,1.2919139063052274,0.5031844641883422,0.30445517966920355,0.8528027576535141
332,1.384925687689055,0.5754873479456684,0.3026932463855354,1.5039453386984287,1.4793068004744336,0.7900578278660663,2.526932700292165,1.536193573395399,0.6266465876697338,0.3533248570534504,0.6403206450210053,1.3849175316070164,0.5821481595210882,0.30941856719374683,0.7916624138847241
333,0.7918905658155028,0.25639265994038307,0.1300954783929511,0.8439760182032509,0.8276816412755494,0.6439961682332144,1.6856929207802607,0.8279453754722939,0.32444196133278935,0.19869526343071772,0.6284777104787076,0.7918876816390128,0.2630586603771105,0.13676856491431072,0.6472496737560295
334,1.1315714354001039,0.6641338851774825,0.582050120480629,1.0119490509129927,1.0077754364614862,0.6043928304702141,1.7695075139788004,1.4669209896503734,0.5207620237875445,0.3283461694454241,0.6584896970785714,1.0320445777294387,0.42553098539541545,0.2612432817014857,0.7802030520433808
335,1.3234980364226565,0.9406434237596051,0.03420174614406957,1.6976260919047996,1.6585372636736564,0.7997842147080373,2.5157314437485216,1.2404302665204319,0.9491347455939406,0.6854951797385135,0.6602640781246099,1.2978765661923761,0.7036167674399708,0.467933745307267,0.6701566926013518
336,0.6046123729801276,0.1772073255026595,0.13683233737292633,1.1826137895376083,1.1235967341834285,0.5677075164993125,1.709697050072129,0.9163724224145644,0.2171219051041698,0.15815454902205828,0.6403206450210053,0.6046073426324625,0.18387668475403615,0.14354095220788873,0.5995674451089695
337,0.5375726510353372,0.1493315228003137,0.07336671356018787,0.9448572706217193,0.9004216365623634,0.5243422168165678,1.4257968520081388,0.8643353179215534,0.18438944721771802,0.09878570823219168,0.6652988471865258,0.5375689487415016,0.15600054320156645,0.0800649395295639,0.8297944312281736
338,0.5006279532903364,0.1609704737966754,0.10166803121616208,0.7758690676375252,0.7416483327555322,0.5061056670053905,1.2290534624500016,0.5815042855412205,0.18518429996899233,0.1203864998246436,0.6425374456860184,0.5006186335167632,0.16764083153540307,0.10834179084057173,0.8710741416763065
339,0.7182423008178898,0.21571983007011275,0.1603292709691132,1.2438723890244088,1.2295104830802368,0.6392783553086593,1.917691446598909,0.8263488517523347,0.2548482580125152,0.2221498552821457,0.663668482632973,0.7182370942861841,0.22237479139991986,0.16697387778111392,0.5906654777732854
340,0.8675915131927845,0.3731871835456213,0.3148641902340079,1.358791854023092,1.36627174279015,0.4295384645683017,2.414703606718833,1.8789595484212311,0.4951841118444295,0.471438540246928,0.6468212168108125,0.8675534791574193,0.37963616034048425,0.32121296783492803,0.8043238809578097
341,1.349759658597954,0.7268257394433668,0.6394729344079315,0.8195439716783356,0.7567026623222363,0.7670806342967562,3.2606296927834895,2.0829107116576777,0.8795513047308254,0.8462127580402176,0.6547956803312163,1.3472446027494858,0.715798793120714,0.609639661394719,0.811326116729345
342,1.6465496228872754,1.117817252114797,0.27075495926961013,1.2660242226172287,1.274441073707749,0.7222813010571263,3.742907414163559,1.8480940070999452,1.2279225786229269,0.35639105428205287,0.6584896970785714,1.6462171639373968,1.1196387192612003,0.278366599515828,0.8933285819519715
343,1.5063204571382978,0.887525275898893,0.5061153546632684,0.9630604293045019,0.9597580566191143,0.806338244662017,3.745182571795912,2.091892490063336,1.021049333887846,0.7495954661765724,0.6584896970785714,1.5062297113444167,0.8939682105166293,0.512010530644293,0.911738150997535
344,1.0529545298859593,0.4071425652634679,0.2874801113114931,1.3258408277468967,1.296395874235232,0.6495924124874706,2.50095682173514,2.4113781204351192,0.5239377105701064,0.4538206257939097,0.6357360191111145,1.0529380851769352,0.4137953584589178,0.29404428798347365,0.7201919451315625
345,0.9433548751293409,0.2835074656407274,0.10498477268265916,1.2881309393320992,1.2020574559760504,0.7280808289257552,2.0434491483851125,1.4227164603459714,0.31680797507015396,0.26208576993230603,0.6180765742263259,0.9433479434820994,0.2901681076508118,0.11167902058317099,0.8195579857974902
346,0.4519289950804627,0.11346593872094257,0.06357770370575033,1.2525280409706934,1.2186870482633123,0.5150116888790911,1.4805122652662661,1.053584651028921,0.14184067799937505,0.07970926429492851,0.648888643467878,0.4519279825185053,0.12014282594361102,0.07027764443268533,0.7766939805650099
347,0.6459281982959661,0.2320582981071342,0.15295985842617288,0.9407510781157987,0.8602092251476482,0.5545147133633986,2.4602699911391617,1.9902864805792442,0.3356023476256788,0.35114382699202984,0.6468212168108125,0.6459243816320621,0.23873310998142624,0.1596560236472426,0.7599993844812847
348,0.8628365117955261,0.43386931792762695,0.4595392441842088,1.3867896370860744,1.2612983169548122,0.6823483938213862,2.853199107577741,1.9359308685720364,0.5413080067780909,0.737704343104041,0.6425374456860184,0.8628289570074642,0.4404323003386909,0.4651723865784032,0.7986966093659529
349,0.6149196581301352,0.24767970443443954,0.14517327063689933,1.0694087963321794,1.032111791242794,0.5452364822281667,1.8510685709481198,1.4932693748913475,0.284833877845999,0.3281286138769908,0.6380535849069913,0.6149112322987766,0.2543368932420672,0.15181687411492323,0.8296238697812307
350,1.8236053580709994,1.1692815098495501,0.9126362156451671,0.9208301229172151,0.9070168039729279,0.8413331670682412,3.866307397210495,1.8878023437516949,1.23143151281065,1.0326986892689476,0.6038851895711802,1.8235253719917064,1.1759918331652564,0.9191947884219801,0.8241900243476443
351,1.8998499657187835,1.4061035127379287,0.7894862921276697,1.2106826358404392,1.1901472520276957,0.7360933885125803,5.8987606170351174,14.224704057735472,1.9917616673230207,1.8055416057406235,0.6403206450210053,1.8997902134417601,1.4124809590259937,0.7948209625768495,0.9160996012762169
352,1.9528970366235774,1.760996398652159,0.5287645385339617,1.6321215327211889,1.59590914867343,0.8540934244832343,4.144999674278837,9.48334861958102,1.9553375339712724,1.0958194600864657,0.648888643467878,1.952789311887721,1.7658623005598855,0.5319569722491592,0.8523671882801729
353,1.398823698720436,0.5943064267000209,0.4177892407367745,0.7958809019778066,0.7560682799523981,0.9188974212287577,3.5543441449936566,1.8060392940549912,0.5993754961920796,0.4587761398442165,0.6509067234006624,1.398816886118781,0.6008691686186233,0.42431366014707456,0.7389394876292362
354,1.1434689734086707,0.6197404027392841,0.49132047135295087,1.543255545414041,1.4755724125555394,0.7050169968029707,3.099128615846064,2.3839419788830885,0.7381424446860975,0.6266171464999479,0.6668815377411301,1.1431564797527514,0.6235852265000159,0.4820920048166824,0.4727081840859031
355,1.321731961574702,0.682575622222833,0.3689562765996106,1.5538839122206038,1.5480835769466537,0.7418769100172709,4.2130003186813365,8.967326908010282,0.7821462611743505,0.6014089674447676,0.6008849035917525,1.3216725101210156,0.6889065389411949,0.37502539965192766,0.6294410364664936
356,1.5338500838880968,0.9885396591546438,0.9774791661264444,1.2216585355068692,1.1689303211067121,0.5872781058785688,3.0054667422206927,3.72868853136904,1.1299918278532397,1.2415784822774756,0.6068309995095971,1.5337637071466343,0.9953038384271357,0.9841793398970082,0.8522555914423399
357,1.5204750229397674,1.1558814214983928,0.8065416434170123,1.3446536909381719,1.344623042495859,0.7858704376483858,3.8149262110284607,4.708949224253673,1.2155537919436281,1.1693701739365496,0.6547956803312163,1.5204100513971717,1.1619724029564606,0.8131256067797644,0.8740751486233331
358,1.5996599204973707,0.7486362219696074,0.5469135025316438,1.6369271660679767,1.5889156915335632,0.7686929198631134,3.384981648563358,1.8675174359751257,0.8432641047859933,0.7684865588251032,0.6380535849069913,1.5995975986336863,0.7550998375270971,0.5534310433246402,0.7967791508901535
359,0.8672897629178667,0.3204018945088577,0.18961466942772143,1.384045815651795,1.3216434703439413,0.6512256289927552,2.451288599917805,1.667639678429917,0.34783063682174575,0.2249817810041308,0.6602640781246099,0.867288949885713,0.32706361106323234,0.19630686879177187,0.7040815001569233
360,1.3734029330618107,0.6142181023854214,0.37787813625496236,1.1520724033806333,1.1270257860112256,0.8486608295393785,4.08873172640957,4.280647931520674,0.8000929471047047,0.5786317793093397,0.6233814453054027,1.3734000731346578,0.6208836602048712,0.38458263188588765,0.6800347741407482
361,1.3862502103640573,0.787832838410468,0.5785714585644386,1.130713572760356,1.1212886655190217,0.7818659651968204,3.534834489067036,2.634967631888528,0.817686094261135,0.5487184954147577,0.6528756675646988,1.3862499176630712,0.794510933642483,0.5852716323350028,0.8315083247489298
362,1.2729656758128873,0.5773302958677404,0.32043699020861527,1.2143212828708405,1.1866538973148468,0.7511113639311708,3.319272567382646,2.7392218724652686,0.7139058308734915,0.3780174696438219,0.648888643467878,1.2729656758128873,0.5840080983987697,0.32713716397917925,0.7470742719665012
363,1.260922589366988,0.8329148213495521,0.618212361001532,1.2740584482841335,1.267771777940035,0.7507532034390215,3.628204617436463,4.5320445554195885,0.991419849477265,1.3486968246187818,0.6180765742263259,1.2608959517255571,0.8395649571783543,0.6247354510332693,0.708680090241297
364,1.3181947175827333,0.8108890948875089,0.5947672768354586,0.997720152389215,0.9941935059689936,0.8186179381005869,3.545976338617462,3.1007743528088,0.9099658937285316,0.6963599590451146,0.6447042257417027,1.318178911491977,0.8172922695687603,0.6008070414980272,0.6834965430026151
365,1.2970228228568403,1.028868401125152,0.5855934872760744,1.3057841546059419,1.2699234635829268,0.7943363415580815,3.5174913385059665,8.718315426104521,1.1598362437091292,0.8052093785342234,0.6333676938231112,1.2970225778116493,1.0354491489325959,0.592077482953506,0.7906668556419866
366,1.7269483145498254,1.1800879193753704,1.1806193401461091,0.8551785290363113,0.8312993844770235,0.8571618466370793,4.197503348105174,1.9123888905327053,1.2654848753800376,1.5265615134457555,0.6713451011121618,1.7269084969084387,1.1863225551338086,1.1878024983306499,0.6967409859994866
367,1.0128965683497353,0.4992318443375563,0.2739645748641404,1.091360838154966,1.058792585781212,0.7344117108988214,2.823841948711566,2.04370190288398,0.6802777854980318,0.5390256632120689,0.5978297680564633,1.012893413265572,0.5058916123829762,0.28067065021397697,0.793927927450143
368,0.7343626670929304,0.34543260367705897,0.2670982449965127,1.65255278237092,1.5529194637183348,0.5543171917084975,2.119006462911751,2.104997474069741,0.5145307377606432,0.44844461534877295,0.6713451011121618,0.7277616299649994,0.33169405016858866,0.23423924263109036,0.7172108548789036
369,1.1301776913559511,0.5139993809262651,0.4035617519946708,1.4152450902921592,1.402682743290367,0.6828073423131539,3.525851187813017,4.49116763115658,0.6282835347916436,0.5829052639615981,0.6619902821573977,1.129896578707876,0.5197269566997368,0.4090572324805476,0.7229401174152301
370,1.4478085398151632,0.8974452428203314,0.738758515352893,0.18683165482699773,0.1732178352541654,0.8589191859564452,3.585146181440849,7.329320678539797,1.0455561838163905,1.4624818471550944,0.6180765742263259,1.4471773496434623,0.9016844023557169,0.7382550833566645,0.8059630077744722
371,1.8505058030328072,1.2009362085000295,1.010427998862852,0.9176356812759171,0.9042098359243624,0.8960504728252604,4.916735800859537,7.420520228803722,1.3642526869785554,1.8268564241359526,0.6425374456860184,1.8504484655767346,1.2071592116953438,1.014323290113122,0.4822015561291152
372,1.389024317359838,0.8843446621366757,0.7274967582428684,0.6504191866319451,0.632917911856844,0.7885980592978628,3.883966154502308,11.323930846322032,1.126437081125188,1.077758666679281,0.648888643467878,1.3890091539485994,0.890945070986616,0.7339420192464468,0.5637622757987885
373,1.0091673782265158,0.38608533875984996,0.1834667883002492,0.874077910498868,0.8342933942453932,0.5955915483792031,3.0004713017584597,2.790136689742849,0.431281530520793,0.3017559998778725,0.6619902821573977,1.0090763233572548,0.3924444850939272,0.18925892216438503,0.8736480281507918
374,1.1875677235785778,0.5690356823601443,0.3295721679224577,1.7271578501040654,1.690642932149893,0.7825115963132255,2.803008499020386,1.6819927979770068,0.6633838115282927,0.5546794873026422,0.6284777104787076,1.187552797964757,0.5756840043300966,0.3363167478679195,0.8141703924707051
375,1.2021311649615052,0.5280204948770595,0.2292722083834715,1.2540664941538302,1.2528380449188916,0.7769700820883539,3.106295031638654,2.0897868646291857,0.6104672410758526,0.3292514007759689,0.6309483474627791,1.2021226650377745,0.5347067973318194,0.23597238215403554,0.6161726294384365
376,1.7133916607940314,1.09668015470049,0.489126398212512,1.4299280617490058,1.4186539400015867,0.8301518002526876,4.224447650257041,7.00505816661567,1.3477676988602265,0.6900359566878616,0.6425374456860184,1.713379681902003,1.1033699361235478,0.49582657198307617,0.8932555709806622
377,1.0020954641277957,0.5570380406738034,0.5014925174472864,1.4093094309633503,1.352721987920416,0.6430050571723475,2.323208195428897,2.4952945879624036,0.6756923087314527,0.7368613408767551,0.6652988471865258,1.0020907216774877,0.5637025170794399,0.5081523224191206,0.6879245476615804
378,1.3902323891897306,0.8775574067887255,0.5580205309723838,1.4059285744366552,1.283566693384617,0.7073487156758778,2.9347150043971935,2.51501892482626,1.0933633129563394,0.8966055246477845,0.6403206450210053,1.390213140627227,0.884000478237128,0.5637554602387613,0.6944246958094002
379,1.1101194983582956,0.6875487771305382,0.5476212616021776,0.6527802539592625,0.5914293260244832,0.6579868721029496,2.7530109205841624,2.480997177389952,0.9255705791831446,0.7753367284267638,0.6380535849069913,1.1101114850611304,0.6941255056780372,0.554095746991809,0.6345435360863307
380,1.4200034567886057,0.925751424192564,0.7324432522346225,0.3889197220426841,0.3244509063310696,0.7394163690539023,3.0890219506547423,2.4075314941523276,1.064192701646395,1.1327005799370018,0.6713451011121618,1.4199200887695507,0.9319719685788074,0.7376626144171728,0.8403476285379754
381,1.526893509245751,1.0983849075869323,1.2800556004446664,1.3250838169274985,1.30602767867248,0.6585493633073141,2.436755341905507,2.172721538893344,1.1969540539566228,1.5033606582430759,0.6584896970785714,1.5268343838988903,1.104872250615986,1.2870053590640664,0.9201409147451055
382,1.1353001671038414,0.8679200469628991,0.6190706741677903,0.9430532920708087,0.9196456026611075,0.635761227808558,3.0439324813906676,2.390834466277419,1.0737400180491505,0.9259713192556761,0.6008849035917525,1.135276273039701,0.8743904807073173,0.6254428229534766,0.941601943162978
383,1.3069257291898317,0.658427228093172,0.334183582639513,1.510884933838179,1.4752686617441024,0.817930940718073,3.3782614195506984,2.253657497169597,0.7359083835465544,0.43513257850847525,0.6309483474627791,1.3069082792343,0.6650949069927439,0.3408567347080999,0.880528146023354
384,1.0937490325970276,0.7200011564820847,0.7880946192667746,1.3891633218608979,1.2833590419601537,0.7061726385061706,2.3891992292701194,3.432755139121873,0.937632184908171,1.0803807000230343,0.6447042257417027,1.0936910843490417,0.7265364488585385,0.7940287886082691,0.878164472187026
385,1.7797590346653045,1.5961047888534161,1.3260245830978379,1.3252182054055068,1.275008032480184,0.5920979707968371,3.1500128836316885,4.532638722934053,1.9759878755201863,1.9517221693182498,0.6207552362147116,1.779501571832553,1.6022200333289456,1.3189810075481565,0.7746206463527837
386,1.69099560641267,1.5834880691536208,1.6087625915000743,0.5900693905288283,0.5547942409905086,0.8002125309481796,3.2153340248400277,7.164891552087384,1.8093012430943214,1.503695772182091,0.6038851895711802,1.6909492906690466,1.5892110959502748,1.5979857244308553,0.8543544188241061
387,1.2302552254525352,0.8152295978439621,0.656220639952819,1.2333746466450357,1.2220983195812474,0.6733390339581076,3.515874087845423,3.9321194786155376,0.8933018148781702,0.9344936108654295,0.6357360191111145,1.2302407311465462,0.8218450805234346,0.6629890043691938,0.9027208789357662
388,1.3997173814520314,0.4295251810307641,0.17897146990867285,1.5925830685219653,1.510671620404508,0.7817054745614428,3.0020682428665237,2.4953035494583786,0.49413802674379054,0.4516869318391027,0.6357360191111145,1.3997173814520312,0.43620298356179354,0.18567164367923664,0.8152181602799907
389,0.9683782701068416,0.35236591737791423,0.16101781354457123,1.157041622365966,1.1278425001006875,0.6506079180416571,2.53024341951758,1.761841112794671,0.48347896754489394,0.3135466794140183,0.62595550513784,0.9683738117443804,0.35902290812802484,0.16767138274628138,0.8092990443769791
390,1.6442921413659035,1.1050953902415301,1.3149467242236255,1.100595269943476,1.0798948175928846,0.8464968445075851,4.250956996235712,16.51715268315468,1.279954984326782,1.3850233090580872,0.6233814453054027,1.6441443856733924,1.111521669370481,1.3175695439679922,0.687823556734493
391,0.3823047710083337,0.07286198324187843,0.017970978054919873,0.9121473961709031,0.7746889682713208,0.43889921890647066,0.9818186938096621,0.4574641622191905,0.07839605083514938,0.058824684199368746,0.6619902821573977,0.382302120081737,0.07953935480373563,0.024671012076013927,0.7831891310869304
392,2.311789028041916,2.6955073647888255,-5.0072963928307415,1.7437714745409738,1.6836220363771845,0.9122876786267143,0.2818494028351814,0.30315051598423265,2.695670555184546,,0.5783247308855777,2.311625837646195,2.7023483577155756,inf,0.9505582698260254
393,0.04430025889657995,0.0001515036742538653,0.00015254366592010876,1.5474663078879511,1.5465305199856278,0.07100400006384301,0.26006556789608026,0.23500966919549077,0.0001515036742537491,0.007194826291332991,0.6468212168108125,0.04430025889657995,0.006829306205283132,0.006852717436484039,0.8109840095142506
394,1.4673609434729336,1.0368594573582721,0.695412507466969,0.36203737365830313,0.3492515689926449,0.7881580269154239,3.6276267882331616,3.156878711546599,1.1397494104827794,0.7296726965652638,0.6713451011121618,1.4670706711471784,1.0424019325860716,0.7000030966230356,0.9205087713579678
395,2.092864562011976,2.2205383507560974,-4.3134029127680735,0.266637617605454,0.22602488114615038,0.8953601094442158,5.066376233521935,23.17522147081526,2.221284650258819,,0.6584896970785714,2.0928645620119766,2.2271266817424524,inf,0.39323978258486214
396,2.07110474676856,2.081843772914043,-4.152948519682603,1.6621780444121304,1.6670753196592858,0.6467583630054298,1.0989008200276664,1.4492124431778444,2.451704399968635,,0.581717464821069,2.0708562785214126,2.083946252737802,inf,0.859926625785383
397,2.2579424228002782,2.7493539700304632,-5.0072963928307415,1.7056467779223583,1.7022676169552042,0.9271224811724079,0.9096246431375248,1.2711089932550759,,,0.6233814453054027,2.257824199465149,2.7561499958966214,inf,0.7872174046539133
398,2.1121351738576175,-2.1121351738576175,0.0,1.5809092925321513,1.5466788106171494,0.9461238422599915,1.0611775058463215,1.5054774464928906,,,0.62595550513784,2.112056564966341,inf,,0.7836173576158603
399,2.5257286443082556,3.1747149290824312,-5.700443573390687,1.5747735869045123,1.5807630988897012,0.9203391029659209,1.0523129701051672,1.4630828070264825,,,0.6425374456860184,2.5257286443082556,3.1813927316134603,inf,0.8392834877362161
400,2.271452150715291,3.428991422675396,-5.700443573390687,1.424597042497552,1.4077322725236008,0.8931734773023569,0.9903038402765422,1.3125257504088954,3.4292494758542924,,0.6180765742263259,2.271194097536394,3.435927278385322,inf,0.834178635471666
401,2.269795270171055,3.4306483032196318,-5.700443573390687,1.5430779335007063,1.541776546965637,0.9184395681427181,1.022266880332184,1.5196397986154488,3.4306483032196318,,0.6602640781246099,2.2697952701710546,3.4373261057506608,inf,0.7919424325347577
402,1.9902104079518939,2.611620876770684,-4.601831284722578,1.524244476808011,1.4785577085382888,0.9133577228742153,0.9358970548743578,1.277436294727715,3.0170859848788476,,0.62595550513784,1.9902104079518934,2.618298679301713,inf,0.8145751247491989
403,2.2072749131897207,2.394556371532857,-4.601831284722578,1.5864004251031454,1.5760480286844587,0.9348635065921788,0.8179992864187012,1.0818986136406727,2.3945563715328557,,0.6068309995095971,2.2072749131897207,2.401234174063885,inf,0.8234364814395767
404,1.903456839946453,1.5807848172085541,1.418785828778938,0.4604916489391617,0.4545390172546172,0.6084121506213565,0.7953155833029124,0.967757594741869,1.8540425938948146,1.591777419270625,0.6309483474627791,1.9033616458093574,1.5863027171751285,1.395807788157764,0.8428073685616215
405,1.653890454688316,1.4667325962601532,0.9670325231228358,1.407982441189953,1.3858172822796326,0.39923327958576704,0.9132268232456757,1.03272977968026,1.5196573178528356,1.2049629125762418,0.62595550513784,1.6538543220945023,1.4729995515550527,0.9741796767233424,0.9104277876509599
406,1.313039857704477,0.7801698553798442,0.5268037948123592,1.0173210578856327,0.8989040095381582,0.6659186294985457,1.8835982201930692,1.6976619921979839,1.0604684755261125,0.9602584596261367,0.6584896970785714,1.31291999131992,0.7866335588428531,0.5313813007219128,0.8668516657303044
407,2.269795270171055,2.7375011226596864,-5.0072963928307415,1.5275403642293872,1.5421842869749818,0.9142262915609064,2.9199754319658235,4.29367401458468,2.7375011226596864,,0.6125606311107803,2.2697952701710546,2.7441789251907154,inf,0.7889940075840121
408,2.369238543160246,1.9292383795533654,1.3986165637917933,0.9086501320463557,0.8909365456331141,0.7849755971984492,3.1931631489213257,4.683944389572026,2.6380965507547116,,0.62595550513784,2.36919984207603,1.9342210142488454,1.4070506064821227,0.8938735574249275
409,2.3025850929940455,2.2992461917285323,-4.601831284722578,1.397766730773619,1.3568038304892538,0.9437293697788893,2.5489056958235854,3.55637035117607,2.299246191728531,,0.6547956803312163,2.3025850929940455,2.3059239942595604,inf,0.8378546111840266
410,2.659260036932778,3.041183536457909,-5.700443573390687,1.6931807948351991,1.6801106217203476,0.9004329825087702,2.812231759036294,3.7582475399720656,3.0411835364579085,,0.6097226960127671,2.659260036932778,3.0478613389889375,inf,0.8181253123058236
411,2.3025850929940455,2.0115641192767506,1.3829442742346085,1.5108911046857085,1.4942869202844564,0.9272434879726729,2.6261522896315213,2.6101205349298873,2.01156411927675,1.3829442742346088,0.6468212168108125,2.3025850929940455,2.018241921807779,1.3896444480051726,0.7849700104540014
412,2.208036814855755,1.7001317351937408,-3.908168550049496,0.06236667603779548,0.03442154512653692,0.7765680042240259,2.340217583863524,2.7735534535209396,1.881686528372565,,0.6584896970785714,2.2079822339891795,1.7068224144008435,inf,0.8834835270260804
413,3.4472946754262055,-1.7116223521177791,-1.5759983543815392,1.264692211918033,1.136013517071181,0.3487079386887674,0.7325328907849552,0.7268293149984868,0.5602715355997216,0.3506345313585582,0.6097226960127671,2.24368745174656,0.40358127709579095,0.21373842042390953,0.5157543575556771
414,5.703782474656202,-0.6844538969587443,0.0,1.7239152530834088,1.667942629982354,0.7381004744507977,0.46983469641933406,0.5354079127199561,,,0.6097226960127671,7.824046010856292,inf,,0.8789048797801331
415,0.9369963488000754,0.26310997999664165,0.32257381432453003,0.7884748667465241,0.6843336913346516,0.17375255509978182,0.9098487977064856,0.9665793846510246,0.6570033124437378,0.6481044126496197,0.6068309995095971,0.8110802274674539,0.5137637091140987,0.41394364788039667,0.912842644223502
416,1.987420812344138,2.1386609252404334,-4.126081737584571,1.6085957973696565,1.6053731131856515,0.9438779992750239,0.8672712211053271,1.1270824646366058,2.242066017911869,,0.6333676938231112,1.9863965517446585,2.143229824622082,inf,0.858056756255712
417,2.1642384174724336,1.5013310662484538,1.4453726957338255,1.7592940041427674,1.7379801197499296,0.9546865883675834,0.9911754400917601,1.1999367292965606,1.9270224174001687,1.6060878255488185,0.6357360191111145,2.1639832435564172,1.5033521809928032,1.430311246536665,0.8637408165518126
418,2.120263536200092,2.481567748522486,-4.601831284722578,1.6807268041049899,1.6554374650767492,0.9155285173766873,0.9868028319510024,1.3734816986390919,4.444341703629804,,0.6403206450210053,2.120263536200091,2.488245551053515,inf,0.8617174398995441
419,2.0187850844331887,2.9885113083975527,-5.0072963928307415,1.6528541142163422,1.6339349555216283,0.9185743890501281,1.0667201128868513,1.5028444242919377,3.681699853462484,,0.6668815377411301,2.0187437199282026,2.995230475433568,inf,0.8440941210214685
420,1.9108284269556368,1.9978556772069942,1.7884093823427736,1.638457865030772,1.6097986080177502,0.7517697362289633,0.9194958071225542,1.1440006291944598,2.8142956693362677,,0.6403206450210053,1.9107682558102572,2.0045936508834035,1.795109556113337,0.8560871980681589
421,1.082951247622976,0.7345723105197146,0.5383728152404699,0.7705829848965767,0.6257785461366764,0.4633376817202375,1.07424099128286,1.0752008408582903,0.9210619878717762,0.6854519818316638,0.6333676938231112,1.0826733248666072,0.7403704344012141,0.5440205973602967,0.9311729224132792
422,1.9908083878160838,1.9173601622334122,-3.908168550049496,1.0198961466315812,0.9907186517389344,0.73461800705411,1.5300339613486527,2.0982955379302846,2.098221307059147,,0.5978297680564633,1.990779675645061,1.9240249727449616,inf,0.9132266864731994
