,bvp+eda_XAp0,bvp+eda_XAp1,bvp+eda_XAp2,bvp+eda_XCond1,bvp+eda_XCond2,bvp+eda_XDist,bvp+eda_XFuzz1,bvp+eda_XFuzz2,bvp+eda_XK2_1,bvp+eda_XK2_2,bvp+eda_XPermEn,bvp+eda_XSamp0,bvp+eda_XSamp1,bvp+eda_XSamp2,bvp+eda_XSpec
0,1.4391911445450047,0.9955825808610863,0.6227993920781025,1.4389118444772553,1.391026509186835,0.6986620714411924,3.2728741013843847,3.6359085134098583,1.1405653452510514,1.0020638565727165,0.648888643467878,1.4391795651984312,1.0021568698881944,0.6295984265886306,0.6540306102797447
1,1.6642917291234478,1.3869704737296553,1.9167832949909163,0.9625492590567564,0.8871377467223379,0.6212258466984456,3.3045593201860193,3.6747850945739238,1.4733670141363964,1.8663918266040536,0.6403206450210053,1.6641874652050093,1.3929475105692575,1.9126783238017337,0.9043588735660506
2,1.1963190110362247,0.4718118610956017,0.3304172104988903,1.521696605062837,1.520602497501755,0.7607063658468755,2.7763883919572843,1.8398766755276852,0.5207506336798281,0.4179119469996167,0.6180765742263259,1.196298622625371,0.47832987534594246,0.3369467324782768,0.8737125128470481
3,1.1101890049744596,0.3514320227811556,0.22221372472784706,1.4275562264483952,1.4322578057333724,0.7710403045712073,2.4190941432766566,1.0012215359475438,0.40842695499621184,0.2619449455788376,0.6380535849069913,1.110145204481834,0.35813077983105696,0.22890084242921632,0.7292439037897723
4,1.0369355599501517,0.4578244184117668,0.46308466184601027,1.6038380192806516,1.554837146593079,0.7025680299717061,2.691521712159283,1.993663848351133,0.5320814444352604,0.6541043018829911,0.6509067234006624,1.0369215686696773,0.46450933316569126,0.46977426344117684,0.7262651504185953
5,0.9807160757037885,0.45341552134963514,0.4094323503790518,1.4483571630245875,1.414075049396104,0.6120625962952941,2.365062334823681,1.5711751545855805,0.556499348420658,0.5937890971767699,0.6684167106117298,0.9806811158364314,0.4599521083833081,0.4158425597280069,0.6760506032601938
6,1.2108743692804693,0.8369247981724777,0.5621545515695523,1.480147518707369,1.4710367953683585,0.7129310733403931,3.0464083754650018,1.809138676828142,1.0245913058005502,0.8948992979459759,0.6333676938231112,1.2108482378953764,0.8434888518922953,0.5689125096220731,0.7453671835463916
7,1.2837046440018072,0.5457114882278251,0.2874980663638693,1.3911423606565325,1.3321339484752215,0.704103223420714,3.284715714770103,1.5714976387979376,0.7531787319080055,0.4022007734846509,0.6153451465759925,1.283617443091266,0.5516063975508732,0.29350132026938786,0.7510605552587761
8,0.7069140550871187,0.15078518329011903,0.06982873000643808,1.2628873889821872,1.2022164768581718,0.6290120284600211,1.7638636035030224,0.8925947097331026,0.17947670741393612,0.10836915601422321,0.6652988471865258,0.7069080958099825,0.15744926878920748,0.07651070873153122,0.5682121838752828
9,0.8025935842667017,0.33921620688298637,0.2699801619666422,1.4936766265729071,1.4513554629332162,0.6183500907106428,2.5206289323153768,1.6742289182876586,0.40287388704920013,0.3963035323341043,0.6509067234006624,0.802565299884701,0.34586768376736454,0.27669461014580715,0.91147513782046
10,0.28394359944465986,0.07603215087337661,0.05708881776290364,0.8963249244132115,0.8191514591776203,0.3400228599349275,0.9847385375009101,0.8397857565403252,0.09381900727705934,0.09629675628876222,0.6547956803312163,0.2839409311080002,0.08270418515058214,0.06377888989077751,0.6373807895933442
11,0.813589001706007,0.33537029986636546,0.2522655453560214,1.6464122757677608,1.5944167953809878,0.4871816934033291,2.0501941328514266,1.5758237580422714,0.5078897108582584,0.5007206213429645,0.6447042257417027,0.8135837336818922,0.34202227650633793,0.2589506606496322,0.8291563122769411
12,0.8666575585244379,0.41523017960425046,0.3048912519886926,0.8922757125376122,0.8610574204368051,0.4909271619474071,2.201791103481118,1.4954073306132187,0.5357532819009861,0.48899324584414655,0.5978297680564633,0.8666543649886904,0.42190850763786497,0.3115849929004523,0.5896350370669448
13,0.905248429347288,0.42574729157637714,0.3230464977471892,1.1826045850086249,1.1572133763961925,0.5983925834912956,1.9251319659036135,1.7904489679658229,0.6008463269552402,0.5758347586698903,0.6233814453054027,0.9052408956875702,0.43243262776712416,0.3297466715177533,0.7769702229568682
14,0.5089982777488549,0.19406062824973835,0.135512298247354,1.4558268536179801,1.38594532966113,0.45375241548147466,1.3675995457643242,1.0123166291345025,0.3287893754572237,0.23420574122225143,0.6357360191111145,0.5089939689370208,0.20073436677034082,0.1422061833130345,0.6219573841081378
15,0.5106895113164539,0.22953907606679824,0.20359554789979073,1.6398878134984178,1.6364999368137665,0.4281438692745283,1.5701829355142867,1.3231277884066504,0.3303685879236161,0.31093363679867686,0.6425374456860184,0.5106774865906957,0.2362221499684966,0.2102998991585938,0.8422335498405689
16,0.5223421493667999,0.3787502131936319,0.3603228836808047,0.9998555437121734,0.9579354360825435,0.2353038049652589,1.0515766033219907,1.0655687533675247,0.6233015626678569,0.7788282686552912,0.6357360191111145,0.5222798626999995,0.3854090819608391,0.3669447882527459,0.8579029002537641
17,0.690253155769434,0.3096963651651289,0.2155126229339096,1.4134652721813001,1.3905271100562708,0.4918484768203083,1.812514917324087,1.4236149187725584,0.4345273447050926,0.3620891695249099,0.648888643467878,0.6902402985272281,0.31637030768604457,0.22218630082896398,0.7173648402756863
18,0.776143709607077,0.2993270504993383,0.2521748739319676,1.6379301383769362,1.5762415048302376,0.5699003439785315,1.6145342625384198,1.2487971741859263,0.4193394410361449,0.461449284352878,0.6425374456860184,0.7761423907306648,0.3060061719067798,0.25887504770253156,0.7664596873537531
19,1.5852128598738455,0.7832694651755567,0.43862301707554163,0.9329789502986763,0.9123754944037168,0.7024895801745252,2.807697325371381,1.2966201951249139,0.9803521774464521,0.87815336254219,0.6566669596287297,1.5851789982133155,0.7899767876155656,0.44531684468761645,0.7233592515024856
20,1.139574262229368,0.6907979328260414,0.4687574910655916,1.0580399847126203,1.0205735117605645,0.609798758046793,2.6459782588985115,2.5334226347420907,0.7995147307877254,0.7136429445015116,0.6309483474627791,1.1395731817232087,0.6974626323744818,0.4753751730476465,0.7895178731952155
21,0.7367345437522476,0.4160983168757336,0.37898293070196454,1.0705981909979934,1.0001092880567894,0.3458321575611324,2.383091148281887,1.8260841463702957,0.5547966788137382,0.4321796471382111,0.6447042257417027,0.7367276056838167,0.42276767150786454,0.3856645646858228,0.5843871403994801
22,0.7815810154546599,0.48154927950457926,0.3815635502385053,1.225460277209142,1.179593907534127,0.4321011536628873,2.0355546675598877,1.6954907940297392,0.659101239861081,0.6287638541261354,0.6652988471865258,0.7814927805627118,0.48767060930043715,0.3877738535574608,0.7783887400126985
23,2.1861257711226205,2.726245680010557,-4.912371451133177,1.5778910407038238,1.571936058178359,0.9070405982502715,4.66762934493006,6.7952354134097135,3.51475223186814,,0.6403206450210053,2.1856913415225465,2.71758543425321,inf,0.8759595683611557
24,0.9362468053676624,0.5120674002521309,0.34441843152043505,1.4734357935574445,1.4169514288518223,0.62025877781852,3.1287711353946546,2.8182848368550033,0.5634638736240694,0.5439477272334221,0.6566669596287297,0.9362383696838511,0.5186679830859736,0.35115490116909004,0.7740674713017709
25,0.8169999969417246,0.29439911151035714,0.22805743766030862,1.361627475601113,1.2804184112332184,0.6412552374013962,2.4287983505170083,2.2125873661688256,0.35478726779874337,0.3379937900408513,0.6380535849069913,0.8169482885418918,0.30088079905335047,0.23455779594059936,0.8968336455398213
26,1.0564569438698754,0.4543318874943856,0.3361570534310847,1.3661668896296417,1.2376982049775989,0.6821728945186886,2.57070860946227,2.4090422447008892,0.5415465129735165,0.5887571047010686,0.6233814453054027,1.056447196507431,0.4610194373878593,0.342857227201649,0.8136967209608975
27,1.3472887047138746,0.7426951328584752,0.34967117656850677,1.4123572529690458,1.3704598346045327,0.743242321980286,3.8537053169197666,2.6471665072636474,0.8570541398152937,0.4970197271240342,0.6584896970785714,1.3472873460120856,0.7493681764024384,0.3563649385111547,0.8002203679290097
28,0.7916935773703188,0.3445823536890288,0.3125264093335125,0.8710953547261175,0.7586194055657444,0.5565778646880499,2.1229625526779277,1.7342505953608773,0.4463483654347533,0.5549139833116665,0.6547956803312163,0.7916914733632993,0.35125591801400385,0.3192206023217613,0.8887883579792802
29,1.0626189928777503,1.2145748032552177,1.0214716817289364,1.238189902023485,1.1939552726630964,0.3883412844201719,1.976878995412601,2.1697738472955717,1.468605920902781,1.3769265830998108,0.6528756675646988,1.0626018511450765,1.2210524541895305,1.0283119425996057,0.6052177308460226
30,1.2264456601779943,0.9774903517462119,0.7851072734789883,0.844876134235702,0.7621437534431318,0.5272349436626533,2.9313198475624525,3.747901447298379,1.293438862347809,0.868935383168342,0.6403206450210053,1.2264456601779945,0.9841681542772408,0.7918074472495522,0.8278550849463343
31,1.5448993912965288,1.1598119085401668,0.9129406449888728,1.4133413334502787,1.399441035114933,0.8552701617514865,3.613331637464271,3.4804389913191716,1.382955459854376,0.8233284862991859,0.552929491858785,1.5448993912965292,1.1664897110711956,0.919640818759437,0.7655276006723807
32,1.5293952047605637,0.992994538282177,0.6097543860011276,1.6152473522151192,1.5748682278992487,0.8862104954392066,3.9132371445786633,1.4273416203911995,1.1265259309066995,0.6432770780397703,0.6566669596287297,1.529395204760564,0.9996723408132061,0.616454559771691,0.8643959390806703
33,1.7651605118818898,1.2962257318935373,1.2494128816100867,1.6816574068884766,1.656434234471462,0.821687698861266,4.485550619581351,3.42425404547242,1.4504193853210523,1.3829442742346088,0.62595550513784,1.7651175382816338,1.3029465080248233,1.2561130553806499,0.8617849311857012
34,1.7618594372861822,1.373634778642968,1.86845209001631,1.7460663246144672,1.7038384618692977,0.8454228214819272,5.39362690045858,55.27893386112198,1.6360460875365377,,0.6684167106117298,1.761812392860103,1.380359625600076,1.8751522637868734,0.8310659956754305
35,1.5837480715381005,0.7661206579197264,0.4844968920372983,1.5911096275992667,1.5642517819611477,0.776373651822364,4.986804956352603,12.673764971745026,1.025739243913254,0.6027857166850337,0.6357360191111145,1.5836618761191166,0.7724412062845909,0.4904431959524278,0.5416229359955903
36,1.448951428977102,0.7417055056932327,0.6732232077788542,1.5777122047827934,1.5129288063345236,0.8022793698999034,3.4552374127409173,4.222913207327609,0.9193125109040564,0.6208042221877119,0.6684167106117298,1.448926552311426,0.7482980250247934,0.6800335414145621,0.5294172180320477
37,1.441480854548005,0.570760664273475,0.4267554296624425,1.5064050948754388,1.4826859554963152,0.7934235173525288,3.2316527747295853,1.6154099002876152,0.6213791586445466,0.415360247972903,0.6425374456860184,1.441478255019754,0.5774327869200494,0.43346388284571213,0.7869515129647601
38,1.6784307839210513,0.803136964601435,0.5074755368807082,1.3340321581846502,1.3110259503098538,0.8751952847146213,3.475179191607007,2.809081321165988,1.0262805159156438,0.6897970936746634,0.6180765742263259,1.6784307839210517,0.8098147671324631,0.5141757106512727,0.7021521171697733
39,1.7525387560747738,2.0019946682606,1.9425600621700307,1.6345834990556023,1.5987490999378222,0.7159170149224269,4.672317543317017,25.938310774018273,2.0019946682605996,1.9425600621700312,0.6380535849069913,1.7525387560747736,2.0086724707916286,1.9492602359405953,0.6952686613874143
40,1.607449590366664,0.992730910888477,1.059201263830385,1.347958623741668,1.2954906115398395,0.6900051095467726,2.4319088557910757,2.870765658563564,1.323246914678517,1.6679052565720291,0.6425374456860184,1.6073290265867486,0.9986159515783078,1.0631318486527002,0.8568458183189148
41,1.9969597220599284,2.604871562662649,-4.601831284722578,1.7129057906225507,1.6404280806297284,0.60555997419939,3.559557452585913,6.217359066703725,2.6049318886198867,,0.5783247308855777,1.99689939610269,2.611609691150916,inf,0.6514989996050974
42,1.5141277326297755,1.7014091909729097,1.0952622017828286,0.9851876608210932,0.8645436089957147,0.7901245362529793,4.160416920319422,14.009258498108593,1.7014091909729105,1.3829442742346088,0.5978297680564633,1.5141277326297755,1.7080869935039398,1.1019623755533916,0.729114760036077
43,1.308965217206008,0.6538087379013098,0.36702370141161267,1.3403098651055765,1.311778394988808,0.697347668098384,3.3794761610017043,1.756541576790155,0.7262908722155876,0.5707971427479336,0.6309483474627791,1.3089630181835672,0.6604887394547801,0.37372387518217626,0.7624562262920394
44,1.6262450307504817,0.8553227177720046,0.5764684083676599,1.7616321455982453,1.7356449912938432,0.6239874384613963,2.6812927952943304,1.7247892867732997,1.0764615908338357,0.6918017719270414,0.6233814453054027,1.6262450307504817,0.8620005203030333,0.5831685821382241,0.777813170114514
45,2.4068545793267457,3.293588994063941,-5.700443573390687,1.6734048467370783,1.654158266363522,0.6832792465199856,3.1892610015829477,5.792925631058363,3.293608459022842,,0.6447042257417027,2.406835114367845,3.300286261553871,inf,0.7532973478549224
46,1.7721722410465657,2.661283248762762,-4.433455489809328,0.713374089627727,0.7063437884972203,0.38972550847538406,3.0335763345185693,2.7581958400585025,3.4665301151073984,,0.6233814453054027,1.7710422276393334,2.6592413800423214,inf,0.7354534560662287
47,1.5753714220951052,1.4899804656751705,1.533129310067019,1.4992725510379228,1.409033160651661,0.5689969783780103,2.8331363686516418,4.868491390402815,1.7085144602628246,1.6318042717581773,0.6284777104787076,1.5753585987812377,1.4965350357383171,1.539965539619333,0.7515864350732743
48,2.0399697344313577,2.0505626838420383,1.6065610682320086,0.6790243593457689,0.5663385151427875,0.555315772323059,2.68052725424406,2.831618327690685,2.27418476113316,1.3829442742346088,0.62595550513784,2.039964451137636,2.0570503396403437,1.6134566720290182,0.809067440994367
49,1.9264612862993802,1.7589324912248403,1.0001671750745604,1.2866364882091832,1.2519678801026066,0.6718661967914595,3.6298100392636115,4.7529388563621096,2.1619755508657748,1.6087598378266292,0.6425374456860184,1.9263580978130004,1.7620770105926695,0.9977041401160885,0.6794136570712138
50,1.3167454235829015,0.6759895462938332,0.31123835029863955,1.4188731101972474,1.3585999876108383,0.658496155083264,2.8773179962622843,1.3899479603933584,0.7727988207855832,0.38788695589891986,0.648888643467878,1.3167268399608787,0.6826309692459238,0.3178898107291474,0.7492806100176017
51,1.800788679563498,1.2938782621091398,1.349354083036184,1.0731303827846936,1.063249468208672,0.7703774283932637,3.747563138103617,13.76492663498638,1.6998881659865084,,0.6357360191111145,1.8007329440271633,1.2998661399166649,1.3466181362672665,0.5768157606736105
52,1.7103946348115597,1.4680218828003215,0.8277440921486208,0.9129944692880188,0.9030573306583016,0.8527271646501821,4.248212703505347,4.17472415897673,1.5934013848386008,1.2980773296773376,0.6403206450210053,1.710363831024061,1.47303760565048,0.8278282188370532,0.7157840782909214
53,1.45751137227333,0.684920124528573,0.4052831053584449,1.375974061686116,1.3493058241168252,0.8262435803991675,3.483409476717425,5.112146908061725,0.8551641379070071,0.7183487367708844,0.6547956803312163,1.4570983955822794,0.691336017584508,0.4103340852196682,0.6858962148737644
54,2.0068367670960767,2.594994517626501,1.0952622017828268,0.7900291321054538,0.7300729379707342,0.34964413525209787,3.691360689652634,8.825076774441037,2.964398148096693,,0.6528756675646988,2.0067695206455425,2.6017395666080634,1.1019623755533916,0.7783931491301816
55,2.2788671211520826,-2.2788671211520826,0.0,1.7550774440577963,1.735446112344374,0.9396846165060072,3.5818053629190585,6.639420323187801,,,0.6380535849069913,2.278760065318738,inf,,0.8231568982756031
56,2.269795270171055,3.4306483032196318,-5.700443573390687,1.7709451102252085,1.7480987818244438,0.9427384175799842,3.8248598914742473,8.071354288454067,,,0.5883313578629602,2.2697952701710546,3.4373261057506608,inf,0.8812098302318985
57,2.306201258506118,2.7010951343246234,-5.0072963928307415,1.776126509402689,1.7375773193425883,0.9183430196376087,2.813559050015049,3.644412138509376,3.3942965888302803,,0.6380535849069913,2.306146984560406,2.7078272108013643,inf,0.8910779978034836
58,2.3364866446697268,1.7545190162868587,1.6060878255488191,1.6923534982183528,1.6669381949997333,0.9163373132130508,2.766293289424993,2.956908862475825,1.7545190162868591,1.6060878255488185,0.6357360191111145,2.336486644669727,1.7611968188178884,1.6127879993193823,0.8778168316505758
59,2.040220828526554,1.2623274720657625,1.295932897244978,1.7789744536428618,1.7659473630588987,0.9021786229190113,2.730021190803234,2.236906112286513,1.3576376518700863,1.200622717440654,0.6097226960127671,2.0402208285265546,1.2690052745967906,1.3026330710155427,0.9021050167935313
60,2.148340510243565,3.552103063147122,-5.700443573390687,1.1149142442247868,1.0991926941257184,0.9317965059072922,3.151841136457532,4.5185891102898585,3.5521043937842776,,0.6425374456860184,2.148339179606409,3.558782196315307,inf,0.8945015957171015
61,2.5257286443082556,3.1747149290824312,-5.700443573390687,1.7282695585607009,1.6979378579891302,0.8811849402880642,2.84037707283734,3.224846501936501,3.1747149290824312,,0.5978297680564633,2.5257286443082556,3.1813927316134603,inf,0.8684002527776039
62,2.269795270171055,2.7375011226596864,0.6897970936746631,1.7219934734434852,1.6977697044128928,0.9228334246364657,3.183948997950915,3.8285880948495206,2.7375011226596864,,0.6207552362147116,2.2697952701710546,2.7441789251907154,0.6964972674452273,0.865138194274475
63,2.4079456086518722,2.5993507841788692,0.6897970936746631,1.7558333369657841,1.7173594355290784,0.9254644707759049,2.476058672828144,2.389041171293919,2.5993507841788692,,0.6309483474627791,2.4079456086518722,2.6060285867098982,0.6964972674452273,0.879445228837859
64,2.050870777951891,2.263278434318905,-4.314149212270796,1.1988912454612053,1.1404737694754128,0.8947293877932847,2.832855178943622,3.645222978088708,2.263359913164122,,0.6125606311107803,2.0507892991066736,2.2700377156951514,inf,0.906342771143395
65,2.4309672087214085,2.1708640760011693,1.0952622017828268,1.7658100172148772,1.72283600520845,0.9174954330900663,2.699557737326911,2.7659523371518215,2.1710339605816085,1.0952622017828277,0.6125606311107803,2.4307973241409684,2.1777117631126375,1.1019623755533916,0.8929842885131412
66,2.31874483262612,1.8789816572198705,0.8062198160994694,1.7240697927891682,1.690644720066504,0.9445418291590286,2.324860916241346,2.1825589868553488,1.9955476487679769,0.6897970936746634,0.62595550513784,2.318601563502819,1.8796231292066736,0.8190995895375597,0.8570516167605954
67,2.269795270171055,1.8212103907855304,1.6060878255488191,1.7353839876853203,1.7156837796142663,0.9084752000654577,2.216361280646015,1.7255119791371674,2.3320360145515218,,0.6447042257417027,2.2697952701710546,1.8278881933165605,1.6127879993193823,0.8613307667893986
68,2.216301266398635,1.538232157936739,1.9425600621700307,1.6776208302627915,1.6613743740437728,0.8956616646010566,2.144989569101547,2.365521448751288,1.6924805602286093,1.7884093823427731,0.6180765742263259,2.216203543934022,1.5450076829323802,1.9492602359405953,0.8470134892089906
69,2.445685936634719,1.308847487700655,1.2494128816100862,1.730081041227186,1.7134586187926288,0.9177329708874447,2.0038132000024853,2.8183631426259663,1.6453197243218671,,0.6125606311107803,2.445685936634719,1.3155252902316834,1.2561130553806499,0.8329766761615585
70,2.3715779644809976,1.9425712477897985,-4.314149212270796,1.6248160989575193,1.567825745060992,0.9303604416657753,2.0512771240257703,1.8902741410453716,1.9425712477897987,,0.648888643467878,2.371577964480997,1.949249050320828,inf,0.845335899253732
71,2.4849066497880004,2.1169246349345774,-4.601831284722578,1.577592334658397,1.574763555870227,0.9542647541022297,2.1268320914929686,2.4537878497304066,3.215536923602686,,0.6153451465759925,2.4849066497880004,2.1236024374656055,inf,0.8731317266034869
72,2.2380465718564744,1.159811908540167,0.9129406449888724,1.6830261323187305,1.6519897884550045,0.8005381129686115,1.7944874594130866,1.704037901467959,1.5164868524788988,1.9425600621700312,0.6233814453054027,2.2380465718564744,1.1664897110711956,0.919640818759437,0.9082120287251564
73,1.6655873451203718,1.1608998491642928,0.41194865197464203,1.1785768158886571,1.1231908104750559,0.49095285197928923,2.0514149985735592,1.676370349129853,1.4709857541468059,1.1709252214505264,0.6357360191111145,1.6655380629028995,1.167130984864976,0.41809885486887555,0.7194398219337834
74,2.17742195004004,1.577111474295334,1.2494128816100862,1.7507810881877681,1.7052444655579821,0.9191397147100857,2.353866823240153,3.797894520047314,1.9813828374843714,1.9936351704267554,0.6097226960127671,2.17742195004004,1.5837892768263626,1.2561130553806499,0.8942372328983237
75,2.2380465718564744,2.769249820974267,-5.0072963928307415,1.6486054397735228,1.636646185432989,0.8115602877944122,1.7106823204024624,1.8745998042259358,3.462397001534212,,0.6284777104787076,2.2380465718564744,2.7759276235052956,inf,0.8902808789018068
76,1.9659947425936297,2.0237889169321983,-3.9897836595258283,1.6917196946019168,1.6504825434869437,0.7566387818712088,1.8449754542383694,2.0274110077347745,2.1251308714816757,,0.6380535849069913,1.9658747894749102,2.0265150502241966,inf,0.8769529328157292
77,1.4720604406310636,1.5067345141601982,1.939432217560861,1.6950806581885747,1.63770077220087,0.6841777974720836,1.6445010520981813,2.091705002066477,1.5552874796211358,1.976612900378713,0.6699045166045591,1.4720459259456105,1.5130761684963652,1.9317193203679195,0.8924572673164102
78,1.9024535457824003,1.1960128969111643,0.4975876053554824,0.808164901289308,0.7700530787456642,0.691242709603743,2.583891637896519,1.78975212544989,1.3348378478817136,0.8510959697138594,0.6207552362147116,1.902393122731227,1.200676928617609,0.49292640861838677,0.9152675821502717
79,2.3364866446697268,3.36395692872096,-5.700443573390687,1.4826691289840213,1.4571164099535747,0.9217168941586822,2.7508263163467133,4.579013768677283,,,0.6153451465759925,2.336486644669727,3.3706347312519886,inf,0.8611695556790038
80,2.2072749131897207,1.8837307477668648,0.9129406449888746,1.516629627458449,1.5140031645017122,0.9548581890290098,2.4954046595988464,3.1159281689119465,2.106874299081075,1.3829442742346088,0.6547956803312163,2.2072749131897207,1.8904085502978945,0.919640818759437,0.86196470046669
81,2.75934349548976,2.2479528973409812,0.6897970936746631,1.6117936905015444,1.5800917024031766,0.8852901466005417,2.0606473951421136,2.5819096016849095,2.2479528973409804,,0.6619902821573977,2.7593434954897607,2.25463069987201,0.6964972674452273,0.8746431837455638
82,2.5682882587270512,3.1321553146636356,-5.700443573390687,1.6143900879196795,1.6026710935936601,0.890783954855344,2.1947050036836258,2.582240359531705,3.132155314663635,,0.62595550513784,2.5682882587270512,3.138833117194664,inf,0.819625489399704
83,2.6147861572891915,1.7032116445796226,-4.317997801868814,1.6584279406492315,1.6188851627373049,0.9141260510822393,2.004570963128376,2.2286308204345096,2.392584732159032,,0.6097226960127671,2.614711660671709,1.709465441015398,inf,0.8022698956513439
84,2.092864562011976,1.042629653917174,0.9521613581421549,1.6016580442253654,1.5725567385968038,0.847676382418613,2.1397501542829356,2.4709364386657677,1.2096837385803392,1.295932897244979,0.6447042257417027,2.0928645620119766,1.0493074564482023,0.9588615319127183,0.8386469728448311
85,2.9311937524164198,2.769249820974267,-5.700443573390687,1.7274593919662482,1.707354984264018,0.9121318023961204,2.4013124563883266,3.038817457550022,2.7692498209742666,,0.6447042257417027,2.9311937524164198,2.7759276235052956,inf,0.770193806176399
86,2.4837069959092157,2.524157621124854,-4.969629090279,0.9076629660136082,0.8836534150880359,0.5948247924586139,2.93834938146301,2.7340352687389604,2.564683545907585,,0.6233814453054027,2.4835742045542215,2.528729146642731,5.702114417555504,0.8991954369633892
87,2.321564035892378,1.3615144626238531,1.6418554279569886,1.7516765172071596,1.7548105106576817,0.9163421082832973,2.7117521126917494,3.4899869434551296,1.7696906983893164,1.6060878255488185,0.6309483474627791,2.32131496256727,1.3662320463128879,1.5931487563180595,0.8596548679920853
88,2.0589231787369022,1.002463065038525,0.8439477735019225,1.7707256459669536,1.7011110464416148,0.9526501814396395,1.923145004713604,1.8093106899559326,1.2436933925208682,0.7851072734789882,0.5883313578629602,2.0588549080714476,1.0092091382350095,0.8506479472724855,0.8284596808564664
89,2.033806983837201,1.2873431293146398,0.9828077934817245,1.7868883553829449,1.7476085472608809,0.84110206126003,1.9836990760230535,2.2666903535848726,1.7833847377305165,,0.6008849035917525,2.0337461083437445,1.2914165870424132,0.9619578815337564,0.8338016659625342
90,2.0549402708217355,1.2476080297705812,1.0082508247931972,1.5404852139772847,1.550749018736612,0.8005359978159032,1.8987966370986706,1.829813954126848,1.3646382291520058,1.5514444442759858,0.648888643467878,2.0548573360492974,1.2543687670740478,1.014950998563762,0.7994997439032828
91,2.5919103398263466,1.7499572474136786,-2.637105004754436,1.386733703724976,1.3572824385853237,0.9099713091972922,2.1511587899897817,2.337538973275052,1.9746196118837336,6.830632640915027,0.5567373465730988,2.588934720212048,1.7120240913730518,1.8648591226676599,0.8338975480545371
92,2.141643875698033,1.7563078090685926,1.085585303656611,1.64507488168273,1.6367375888281679,0.7531657237809891,2.671956484276512,3.7374472110005783,1.9450173690593693,0.9710269274070751,0.585052858160615,2.1413169453979233,1.7624072572155276,1.0887437875273558,0.806779667195098
93,2.1625560770400134,1.558781724953401,-3.7213378019934145,1.1183117802443374,1.0859774398407562,0.5691984312813932,2.1257714615460364,2.172691366842192,2.0932382771293168,,0.6180765742263259,2.1616644019376685,1.5347992955345757,inf,0.9113347296820757
94,1.5168370687590833,0.9944460850331798,0.526504575514184,1.3223678061187942,1.2763037917536222,0.5387229126980817,2.2279201826939645,1.8812157186099467,1.2030499262765513,0.7745855446113933,0.6038851895711802,1.516656178983134,1.0006359309490211,0.5323098735345662,0.7897062070817036
95,1.856502366975604,0.9691236184334282,0.83012371853816,1.0901094770814463,1.0427954469786849,0.7593951134016521,3.2512285976487085,3.742204273657085,1.3833218499878295,4.440817272370926,0.5978297680564633,1.8564757839477461,0.9750611882275259,0.8331920217063811,0.7865335820950557
96,2.2506402221879247,2.511207392824831,-4.761847615012756,1.6723485183255362,1.6538585268073231,0.9359576744350973,3.449056530208771,3.0835888711339297,2.7567765184362982,,0.6284777104787076,2.250519874394443,2.499034029047211,inf,0.8744386912717838
97,2.387094825993904,1.6929349552894668,0.9239165246620891,0.872232558729299,0.8353017886786188,0.9021326486215212,3.2094754526684866,4.802052206528616,1.7161855116858014,1.5939746222554114,0.6380535849069913,2.3869333525641916,1.6987818829598544,0.9316090467230062,0.9192916304318295
98,2.121202565432315,1.3192934480566239,0.4648380037884108,1.748461412816119,1.6605273378533985,0.9217260449670069,2.494430367244985,2.170776375873664,1.4998121406506288,0.284331985566499,0.5567373465730988,2.121189891060222,1.3246562422708155,0.4728658602479054,0.8864246667191331
99,2.256171029653273,1.020768571356811,0.810715973061221,0.855925511797045,0.801283759733495,0.865745220130391,2.109103078739992,2.5235811153929526,1.21512714335397,1.1274404807984257,0.6447042257417027,2.2559135736848988,1.0269083552419356,0.8182116214460629,0.8496663217788838
100,1.6987585604708986,1.0467533662298465,0.7462645280670186,0.1645929778851524,0.11395471360892166,0.5487686302860414,1.810585328497315,1.6298949381293717,1.228742646648674,0.8242259604648529,0.6207552362147116,1.6986942316643803,1.0531337167837254,0.7525101921335632,0.8678660386252574
101,2.0852362289065773,2.9193480227328052,-4.985466488261848,0.8621900711089167,0.6792378681371766,0.7771221862197458,2.4783112227672017,2.573943868900271,2.923823359457902,,0.585052858160615,2.085146673930869,2.9254886201653867,6.396929655216146,0.830401030147452
102,2.092686773698095,1.3048529435553884,1.6064065886919767,1.162481143028991,1.0749347815436279,0.8472803199650057,3.396024319035693,3.256504983373416,1.4105345979921715,1.5024065714107122,0.552929491858785,2.0926843980622953,1.3115174926201585,1.6131223915645982,0.909060126780268
103,1.9738350456038078,1.3757066193556342,1.2133325858414907,1.4335370915093932,1.430273380289945,0.9247878648064717,1.8259465931970613,2.1224112874800274,1.6160106551089313,1.4387041928313768,0.5287703885177266,1.9712849387200084,1.3625653694825368,1.1729839770646842,0.7914098152518159
104,2.695712448665496,1.5970099259231114,-1.7118243186213942,1.5233112362403787,1.530474451695593,0.9212613162970463,1.8187258306553644,2.4810181450100552,1.7666637391761852,2.8216799080976327,0.541134803179459,2.6949694615636797,1.6018993647698951,2.205421344540398,0.8467179059545913
105,2.30222155007139,2.095836184948521,-1.8745129691853029,1.534504215569217,1.5338733839792007,0.801761115847389,1.8388685419510569,2.172321391833667,2.245002141024751,2.5860287477980486,0.5947193981915972,2.3004762071466938,2.0762312660495876,2.1480555535297494,0.8459563005201254
106,2.1372197776606665,1.2421953930854532,1.4540407352974287,1.4682257063538895,1.4421943069090932,0.9343581968134332,1.6890454405902398,1.9176891811753307,1.321231035891819,1.6368830144447382,0.552929491858785,2.1316241202522708,1.2214182195228378,1.3550222693756158,0.842287108379613
107,2.823600957427906,1.7405963581012887,-4.163672217876159,1.43273598557609,1.3976638593888042,0.8344460045008859,1.4300601663365806,2.1438825678049103,1.8329048566762645,5.644618731349897,0.5783247308855777,2.8180510963165384,1.6938311552479957,2.6909900783569016,0.8487172342810824
108,2.6214012679592558,2.3371816990282954,-4.537992172681783,1.4003895483200615,1.3960888559081472,0.9345813397554398,1.484874460178706,2.3601427332082614,2.571163077848911,5.510752722694144,0.5883313578629602,2.6191239919078084,2.350689307668192,3.3467091963780855,0.8182010872154661
109,2.928240435682316,0.6230106182999542,-3.5512510539822704,1.0063576416048798,0.9831776616303736,0.8948407148008233,1.401006916700355,1.541482548299823,3.530883834839953,,0.585052858160615,2.921243421563252,3.223631338844265,inf,0.8048303779231178
110,2.847101328628543,2.037979944182816,-4.063017447577358,1.4018907856225256,1.396852817229763,0.9152601592041714,1.3967846900280712,1.879677282344212,2.529883522121863,4.922966057792025,0.6125606311107803,2.8427251044288115,2.312935961717702,2.490703767472326,0.8599721197751694
111,3.299360727480742,-2.8557093472867057,-0.44365138019403616,1.172911488476604,1.1650173323108062,0.8585140396405551,1.5002292334893583,1.8638097751886271,4.9766309785198555,,0.6125606311107803,3.2887619523323672,4.684815792494889,inf,0.8254832423912086
112,3.3787397226078437,-1.706933283897065,-1.6718064387107787,1.100633998090518,1.0897255664377732,0.8393895752240822,1.1386308521717332,1.2753381035540905,3.676437946866157,,0.6097226960127671,3.258541081260632,3.4576759858226263,inf,0.804926346697672
113,1.9005125434988979,1.2837331066005309,-0.35694957608587874,1.4866425810127546,1.4854651180756793,0.15491418989741873,1.3657984224966062,1.3666717603315344,1.2698887098651244,1.9314897357466494,0.5490601803369085,1.7744435914628236,1.0563393750216836,1.4418911312620106,0.7093720820461447
114,1.2643493368339649,0.7817336795574983,-0.4452136398918174,1.1652281111452416,1.1047647883411502,0.5181911905835459,1.3118944229089653,1.057316857465327,0.7954849451666037,0.6302061160352872,0.62595550513784,1.1078548700350423,0.37686117326261204,0.2797525656944971,0.8763392598032418
115,2.6666027282567812,2.3524062596782294,-4.789595827404591,1.5485632403689724,1.492052185372533,0.858137992289483,3.395201137074375,4.789060803345171,2.8179599768227908,,0.5713653840954815,2.664033315685436,2.7646458687258444,3.4939791151131216,0.8697667252597954
116,2.319515804085905,3.189826425118342,-5.509342229204247,1.7418393299298507,1.7021397405701708,0.9281925027279337,2.931908146952433,3.0999586784379067,3.4080126122330157,,0.5158180382284114,2.3161207322800754,3.115093307734393,inf,0.8754251364149008
117,2.5054847035859997,0.9266387360493513,-3.432123439635351,1.747009100828957,1.7146105135372633,0.8712004830110944,3.1268534750454746,5.8890768707427785,3.044391303418708,,0.5329562494928909,2.5042933635881903,2.8279255546355277,inf,0.8958375125881485
118,2.4056736179752862,2.021777357100169,0.1799299989104588,1.4898899303171016,1.4142736479044014,0.5449881965934921,3.0797432663253246,3.861232410461896,2.012356308758508,1.6837849667630782,0.524519217297268,2.40474087276473,1.9898082869080422,1.5282188561489751,0.6892857678911427
119,2.0449171726927498,1.217565257172795,1.046070283929558,1.7062763858036332,1.583369048174883,0.926427514742266,1.929827754040221,1.6808348290103743,1.4279776302822824,1.3578503258778434,0.5641709578113449,2.0445034903185553,1.223620937119238,1.0535390575089978,0.8753440404183861
120,1.922391758183353,1.7676110076239617,0.8374953346217651,1.6637435511303313,1.5988482359888203,0.9277122376989683,2.671849341265577,2.0780568512516595,2.392812427503646,0.6897970936746634,0.6207552362147116,1.9213367847671499,1.7662102241130078,0.8243352426843766,0.9039601248079245
121,1.3899591533073095,0.8895091303214182,0.731212458878931,0.829761629594069,0.8342608955647627,0.6385034586727801,2.400503646219224,1.8911234046388827,1.1627642216959864,0.937925604986519,0.6153451465759925,1.3899008567140023,0.8960456506830216,0.73727116383257,0.6781916967346521
122,2.3089968949258735,2.008038759543436,0.674770879849218,0.9393044209372063,0.8960261695713647,0.5871097490275742,2.0411623779564834,2.194307529780949,2.293563408593033,6.792355688288232,0.6008849035917525,2.308267876129544,2.015070651084942,0.7007197872139104,0.6464904367715991
123,2.70805020110221,-2.70805020110221,0.0,1.7477516838830665,1.7263307353891355,0.8819771873219818,2.455108649615517,2.1719055598507233,,,0.5978297680564633,2.70805020110221,inf,,0.830638678320531
124,2.1726873190174083,1.888439558384316,0.8761489913044729,1.7187647928879035,1.5841474689000616,0.8482121238619225,2.6708013651774816,3.1719375789394872,2.3995455446588494,1.1249184113657158,0.6008849035917525,2.1726295304808394,1.8928036882468413,0.872881413788949,0.8677844606030557
125,2.4849066497880004,1.8292425624827957,-4.314149212270796,1.5280718527522852,1.5067778083772985,0.9255722490342526,2.902432383638768,3.023354247205738,2.1169246349345765,,0.6333676938231112,2.4849066497880004,1.8359203650138247,inf,0.8612511120508705
126,2.445685936634719,3.254757636755968,-5.700443573390687,1.54007342446277,1.4983589919364373,0.9229151654297962,2.9334091730059475,3.782223302681145,3.2547576367559676,,0.6425374456860184,2.445685936634719,3.2614354392869966,inf,0.8479570178209707
127,2.2380465718564744,1.3829554598543767,1.382944274234609,1.4659908676223665,1.435022151667254,0.959044280785658,2.6024355130447416,2.656744413386175,1.5164868524788988,1.9425600621700312,0.6097226960127671,2.2380465718564744,1.3896332623854053,1.3896444480051726,0.8190511824971957
128,2.4849066497880004,1.8292425624827957,-4.314149212270796,1.5408791475155281,1.5177797024954143,0.9245117600705358,3.2256159485505362,4.7557239123940835,2.5223897430427407,,0.6309483474627791,2.4849066497880004,1.8359203650138247,inf,0.8643471579003402
129,2.0153428912004485,1.6065523270831417,2.049102513093675,0.700531928997945,0.6793894124491912,0.5393930050070939,2.421911636658666,2.620227910385796,2.075017214208343,6.610702804203913,0.6038851895711802,2.0153197740386073,1.6131965303482385,2.075266170269355,0.8974876028869567
130,1.8873851956356738,2.207912973966403,-4.042596873969875,0.2299005062057301,0.1725271765316483,0.49316382358739813,2.571178893393413,3.1325544992334,2.2151256991469532,7.291744927737583,0.6207552362147116,1.8873163461262725,2.2123758224224233,5.698434868329605,0.8659671317204296
131,1.5528434481978588,1.260716152453116,1.6185281221872954,1.2685605929845685,1.2653629535784823,0.7729874021376507,3.0846585406990368,2.860131078380883,1.620234740426335,2.524116177321514,0.6207552362147116,1.5527425687575551,1.2667980083780181,1.5904283891949023,0.8414535186060216
132,1.5334779738817013,0.8131664309883841,0.7871113223148609,1.2930198751790867,1.3054029215534126,0.8003295807471683,4.173635769235007,8.579178608639932,1.075490442838303,1.0066116673597456,0.6153451465759925,1.5334547154869507,0.8197221636231552,0.7938952136291113,0.7193703934743666
133,1.5315148993018295,0.7676216274674279,0.6899067586339371,1.4591733006647685,1.4399255445771977,0.7714103961828204,3.402544444218355,1.8370135146211486,0.8791948347853551,0.7428432924962951,0.6602640781246099,1.5314999823542463,0.7743125353988722,0.6966087439516689,0.8088630066940198
134,1.6583584767562487,1.1439481236143527,1.1030274169067482,0.9514247717163524,0.9444168900223336,0.7585497748936131,4.443358239006617,6.655544978948102,1.2096810601747827,1.2196380980911763,0.6602640781246099,1.658336415805345,1.1504553550983967,1.109920222675201,0.767446273522319
135,1.4266106004952939,0.7184849114059795,0.4609555212458156,1.5199813440810592,1.4989436576356567,0.7367868573821115,3.379635418382431,2.278519614815138,0.7773287859148309,0.4974252010272073,0.6333676938231112,1.4266072260093754,0.7251660884229267,0.46765569501637977,0.5056571123636933
136,1.6621502513334785,0.9023720865853946,0.5668757377140516,1.2089142613942527,1.1828419870018336,0.7602788873795652,4.2022855397303625,3.810663040662975,1.0936928829326904,0.638679809144119,0.6566669596287297,1.6621357014345495,0.9090553169504634,0.5735569932564601,0.7146025818033641
137,1.9902104079518939,2.1007952530046916,-4.0910056609565855,1.5672667967702834,1.5849542969522281,0.8441074003745035,5.784268411389195,45.46444275046384,2.303251264718775,,0.6509067234006624,1.9902104079518934,2.107473055535722,inf,0.7888269705194043
138,1.1290373078189277,0.3518985603956517,0.22717357172655017,1.2942381719415192,1.2907541454886577,0.7642699906148888,2.420645858272376,1.1433814921695271,0.38180237412985946,0.2732918182951217,0.6547956803312163,1.1290371324820876,0.3585765382635214,0.23387374549711423,0.9171479500001921
139,0.9058038629210061,0.43811692758672005,0.36546835031648817,1.5129943168418727,1.4905007005838797,0.55333407793816,2.311526844172995,2.3731105159620394,0.6074927955991462,0.5293473165829057,0.6380535849069913,0.9056805527621395,0.4447319964699844,0.37200744191731827,0.7095815435476679
140,1.6080845721647579,1.357803001319479,1.283193975670391,1.2736368792069865,1.2684010085866388,0.6993864588912648,2.5995334447421876,3.00054879440681,1.7315895162682629,3.8962190174081117,0.6425374456860184,1.6074953559747627,1.3623526034231985,1.2870155323219141,0.9054965765406384
141,1.1696289688695594,0.630778870976062,0.6141980174797319,1.393253677513035,1.3556455942324175,0.5832087543094248,2.261590457194863,2.1603643438261884,0.8715717803286324,0.7467056633684288,0.648888643467878,1.1696071628257343,0.6374013171650597,0.6206360576304114,0.8951874649850339
142,1.76381680844995,1.4727004427315586,1.9255968677776298,0.5735456101047673,0.5489328461063311,0.7297046672599369,3.2450102930244924,2.916347738654662,1.7395285467540045,2.1938744904509373,0.6425374456860184,1.7636904493004626,1.478795241206872,1.895982975098806,0.8000538616788069
143,1.42909236394404,1.2607773479632787,0.6873677094247332,1.3133418818719513,1.2980588857196451,0.6977686695874044,2.4432782333912506,1.4968639898205072,1.3273867826144716,0.6381516866074185,0.6357360191111145,1.4289699242894687,1.2673164098924994,0.6936414552219565,0.8836391163195505
144,1.4879792835649777,0.601638012546662,0.3116393243894362,0.9303229486846298,0.8926700910827999,0.8502335815418167,2.680542961458448,0.6668772966810699,0.6289666200381856,0.284331985566499,0.6153451465759925,1.487958014896391,0.608335843861388,0.31834073804488977,0.6906701441673312
145,2.0571048946886736,1.8036326769524358,-3.8607375716411094,1.6190620419018786,1.6035590951405054,0.857513981219445,4.28376627734638,41.20369070227892,1.8747753150172026,,0.6008849035917525,2.0570279468429358,1.8077934571009162,inf,0.8840777502685644
146,2.0176879794205367,1.9111185708096547,1.7682869362752132,1.6088620272969694,1.5939757543228565,0.7139985672730897,4.898722755029379,9.342905613872347,2.0733488522177006,1.6060878255488185,0.6528756675646988,2.0176568087388858,1.9162710320773102,1.7765436219908017,0.7076983160206068
147,1.0728311826713268,0.2827280888626731,0.1220265097952975,1.4229085372430301,1.3794121537174957,0.795981200125018,2.180636854768033,0.8208050733011305,0.31017334788728446,0.12483925604894203,0.6380535849069913,1.0727821119670915,0.2894485605809461,0.12873308508285322,0.7240700387406238
148,0.9501922835498362,0.3314106820442526,0.1813840163140561,1.4781243348268214,1.4660701273843542,0.7309804482863494,2.1829946627517587,0.7659732880423835,0.343613618625914,0.2287970673119386,0.5915533975974677,0.9501922835498364,0.33808848457528135,0.18808419008462057,0.8661529706566319
149,1.7772173104856244,1.3178686469283851,0.8537742750534631,1.429195855799771,1.4199440737404108,0.8249749258892963,3.5536412721744104,3.1372904599724962,1.4986155197306663,1.1083230456364968,0.6233814453054027,1.7769365403364166,1.3234157823476769,0.85307154848163,0.826173281984432
150,2.2045912088246395,2.124952361838226,1.367549915842539,1.298939381558529,1.2886603254580047,0.868363570134869,4.570696705429192,111.13761635691509,2.797740859523485,,0.6284777104787076,2.2045513527226803,2.1297438791300114,1.376176230954306,0.8453420928201306
151,1.589628143384071,1.4794415356313744,1.5715907750344442,1.5676066920475291,1.5547268263962162,0.7967058133652485,4.201481168906276,10.541649746996855,1.563300624790537,1.6690229851360492,0.6309483474627791,1.589580820390215,1.4859164216326384,1.5716530162061206,0.7343299250260613
152,1.029837924658533,0.6263462713661274,0.5716625272962201,1.2227496903877726,1.1846166602321422,0.5431988276472048,2.6257352507548677,2.8944545667118957,0.7688070580225926,0.7089997292028889,0.6584896970785714,1.0298327732732842,0.6330059158879315,0.5783377757041865,0.6629113786169339
153,1.4409699913618537,1.316671321652745,1.147692704262751,0.9677819881231542,0.9507424595855604,0.7398515487160917,3.75166856078223,3.6221997240319124,1.4258750758365137,1.0503116623924,0.6233814453054027,1.4409617624621989,1.3233061186382398,1.1544441124785039,0.7592257498180403
154,1.62698678056056,0.7792657617721097,0.4602854322740182,0.8370127897553455,0.7525163808044387,0.7267333999238468,3.0426827358126167,2.5301946079102278,1.0260787744150217,0.8305378224617007,0.6357360191111145,1.6269797638776085,0.7859163499341196,0.46693143020876543,0.845563038476573
155,1.2775570214921272,0.6838003819316338,0.4753599279336802,1.337723430879015,1.3194056464766801,0.6529690268034513,2.9467133846088265,2.6853278707387553,0.7593423148669912,0.6621330469737137,0.6403206450210053,1.2775396123940488,0.6904798222493655,0.4820350043773751,0.6438340323785485
156,1.1853454792370324,0.9887375695374929,1.2204253447368334,1.276615482938168,1.2246923026678906,0.36058815080319145,1.848695575163689,1.8113912824860312,1.1139133928558556,1.6924892604640338,0.6357360191111145,1.1853327988726754,0.995428052432879,1.2271255185073977,0.6784627267852256
157,1.3731374358815365,0.9951016273339466,0.8439477735019212,1.0849111057182699,1.0680650518486934,0.5222256787884109,3.510996112485627,6.635597671087971,1.358351164960126,1.5659775720402442,0.6284777104787076,1.3731368575156784,1.0017800082308335,0.8506479472724855,0.8316602098973209
158,1.6265907835992723,1.0774921408270322,0.9112392361914123,0.6254714637271953,0.574003160205147,0.6105692080109627,3.039649689356425,3.8957436610851888,1.1812605718126268,1.093582029006732,0.6309483474627791,1.626584071269071,1.084136358389018,0.9177958747287568,0.5868049835536079
159,1.3217558399823195,1.0828508674040378,0.8945915063206762,1.3021303659337597,1.2673012019323515,0.7045274326376533,3.8668130064229267,11.841723433714346,1.287645280050051,1.7013980053531434,0.6380535849069913,1.3217558399823195,1.0895286699350673,0.9012916800912405,0.628640547984376
160,1.3728217446244477,0.9260954935528918,0.4644418532386254,0.9158442154441073,0.8892484814657955,0.7128522438348835,2.87071679094936,1.9052330086655154,1.0691751969913312,0.6177542103234361,0.6153451465759925,1.3727860110950982,0.9325807248608241,0.47114076579119507,0.656139959249466
161,1.2849019462227804,0.8045345230618681,0.7169223920677434,1.1336513590578488,1.1000329418919024,0.6719141005748149,3.005678062255902,2.457352643163802,1.0567005427016962,1.5654110290719232,0.6233814453054027,1.2849017070234499,0.8112113689443582,0.7236138423590246,0.5498137061216131
162,1.5320825970934642,1.0298776235694278,0.5701839083809763,1.5492176392347587,1.5250179900579803,0.7621962626062523,3.0647426051336897,1.7741065614095697,1.1552397080433023,0.6118930723472886,0.6584896970785714,1.5320654333164427,1.036512722499173,0.5769439495298451,0.6254085610914042
163,1.5690632576323562,1.2410085578621652,0.6897970936746636,1.744064889838354,1.7121759765227387,0.6165720689143016,3.558599193875422,3.3810959170881567,1.2982409083810533,0.8844326094434365,0.6699045166045591,1.5689893209534171,1.247760297072134,0.6964972674452273,0.6710281686899955
164,1.4909427192433673,0.7830879681654899,0.37854036137312486,0.8663602109412297,0.831915648125584,0.8282418428055924,3.26802755813619,2.3757813835995467,0.8858908130221981,0.44196899514425836,0.6547956803312163,1.4908650653041393,0.7897411209711312,0.38534283880830433,0.5954036601459352
165,1.6924885464556136,0.6435094762313032,0.38171507941489,1.5565662361643056,1.545027486247752,0.8527359153143067,3.5330969798698595,4.657287666000086,0.7159328145034392,0.5061582661448482,0.6528756675646988,1.6923969053738646,0.6500846846194932,0.38832559823146834,0.6235092733185369
166,1.160453927752245,0.4968230746231683,0.27846389173420083,1.2128491264935835,1.1740986442571508,0.7125478511754695,2.580114686397276,1.3532251749927697,0.5891335989901697,0.23344463059232176,0.6403206450210053,1.1604522320220156,0.5035005327183832,0.28516251526386305,0.9167823068543289
167,1.9585335144334295,1.3335384999661553,0.7955835596717202,1.5004951864772609,1.4915759601793963,0.8500561959879043,3.878214355765216,35.816549770310175,1.523814568196522,2.2148349930662716,0.648888643467878,1.9584439252426107,1.3398960709798369,0.8026935541504497,0.7615653959171632
168,0.8643217906173573,0.41578481209862095,0.4261890455681916,1.4057576863936605,1.3822457416022376,0.6564339167292655,2.774474866956059,3.570188651570315,0.5890302411000004,0.8841292266170814,0.6547956803312163,0.864304621983144,0.4224058762563749,0.4324182799536288,0.6579233059960341
169,1.2447976510548753,0.8383465319533718,0.5362752223819252,1.309431395143719,1.2569184391156538,0.8065939827520073,3.339700133655905,4.754733243282158,1.1220505208770732,0.7912245711071345,0.6333676938231112,1.2447562193434762,0.8446009871237362,0.5426583083590001,0.826404724955592
170,1.4567384315193257,1.3504432183945,1.8773125425818842,1.4515116972935,1.4243049969769046,0.6677298231515347,2.873664861546325,2.7479095744237974,1.6600138935394775,3.70284064534797,0.648888643467878,1.4566214556199788,1.3516174727376637,1.7470834519028815,0.9005434847427171
171,1.1940011237552448,0.701609236280293,0.6705021559509441,1.430689420231816,1.4416029478249497,0.5212264216828033,3.164432260768183,4.231645906641949,0.7999535348328801,0.9593977498666576,0.6403206450210053,1.1938758028946228,0.7079217715423695,0.6758093306399282,0.7399119265148488
172,1.3168443874777498,1.0811486522657832,1.1256069436622362,1.0448284125751057,0.996710361957367,0.6527592734183539,2.92813661791593,1.6871952949998792,1.5267024070317423,2.1604341402131553,0.6584896970785714,1.3168097587005614,1.0874389880699844,1.1312422226749825,0.7950889437298925
173,1.0036065249825608,0.4346315738749025,0.34751032541837024,1.7169525987888086,1.6913144558764506,0.6475783750179445,2.983054232931723,2.6657870205311376,0.5655052567094703,0.5248040517347738,0.6509067234006624,1.003605185089775,0.4413074785185274,0.3542071600260449,0.7947082798096722
174,0.8303020432141519,0.24170890944294676,0.18906367581619787,1.400579959217113,1.3742255321359105,0.6578381202548285,2.365740784547735,1.730883199013884,0.25994448855654195,0.22060329417533095,0.6509067234006624,0.830291440944957,0.248289488418199,0.19573486379733307,0.6384883702134417
175,1.1855640606476763,0.8130666901441381,0.721186458617395,1.5068476184988033,1.4781444887968633,0.6041492242234879,3.0444359523111797,3.750713261325129,0.9236923827116433,0.8797999616620391,0.6153451465759925,1.185550941029512,0.8195667787779558,0.7270544234151521,0.8328852428808702
176,1.136901491768916,0.5939720416315284,0.3999732014456916,1.6811169507901444,1.6149015266727544,0.8054825869654291,3.2661745035839385,2.2772765887323763,0.6631918157550967,0.4634794200661357,0.62595550513784,1.1368681341226423,0.600529420419402,0.4065706564937436,0.7352888545392456
177,1.5983323727507672,0.9418498512362858,0.7989950919868951,1.636617137810529,1.615192364881404,0.8148898022071276,3.3130048730265758,4.3091470903603515,1.1932012792022233,1.0468024080221379,0.663668482632973,1.598278192175101,0.9483620274182605,0.8048150701739798,0.8104221940895393
178,1.5296975263249146,1.0457094078629858,0.7823206852378961,1.0626419453215643,0.995385991459073,0.8214323371393288,3.0618969895721633,2.2322852887301936,1.22113737410915,0.7446668879239896,0.6008849035917525,1.52960035400736,1.0516703640637237,0.7887510461226218,0.6351495488823036
179,0.9974578865767186,0.8597157109516423,0.8503841207853062,0.9619082441502472,0.923312624380517,0.5794005808880096,2.6004153244382553,2.411653515543898,0.9646965801867425,0.9636268321455203,0.6652988471865258,0.997440533631738,0.8663163161035671,0.8570409241894075,0.8237988085066151
180,0.8837998737684647,0.508698005236887,0.3844708564006032,1.560571078180835,1.5326849073770967,0.40249718286296965,2.182290814277481,1.5748475768162633,0.6993511322574363,0.7322020691722895,0.6333676938231112,0.8837697623932864,0.5153622048614932,0.3911619098116653,0.6695899966016372
181,1.7088043761269827,1.6578153162401477,0.8707966543982741,1.5327726798366321,1.501497791239301,0.7782127900692906,4.2544081630100195,45.26814358043477,2.1999168347303946,0.6897970936746635,0.663668482632973,1.7087672694322371,1.6635187687354982,0.872881413788949,0.8353118855104907
182,1.771956841931875,1.6259016384647664,1.6060878255488187,1.4664731301857123,1.445922915769371,0.9125318651680655,4.026167813305192,63.43535188003146,1.7312621541225917,,0.663668482632973,1.7719568419318752,1.6325794409957948,1.6127879993193823,0.8716994684152071
183,1.5971641248506518,1.1607883865428277,0.498323982791824,1.714143552902891,1.7024530645000755,0.8578545117785847,3.744449235715015,7.039323294044522,1.3307845875254665,0.5757495872033672,0.6547956803312163,1.5970702636254388,1.166316482516237,0.5053214524744006,0.785301707933982
184,1.2284468408381954,0.7264393214540807,0.4522504603833539,1.4113913799046727,1.3803917955873846,0.7939490892029141,3.652111085163285,4.092809386789937,0.9780935786282743,0.9009408165241082,0.6509067234006624,1.228379346727175,0.7325090855088515,0.45872997752385675,0.7419795950937849
185,1.2353382428788942,0.4371447594842628,0.22436937629581832,1.405246274579921,1.3552873523789322,0.740204302346533,2.857714688168125,2.972748818685889,0.545247982531794,0.45437081329450113,0.6403206450210053,1.2353105954376473,0.4437156038031683,0.23076633689883222,0.7896334293362417
186,1.0461839199311973,0.7751179941664756,0.9854198145115667,1.7016686000381425,1.6346443812699283,0.6523416834207906,2.303687707096811,1.8226641210827008,1.2581291913687251,1.195593369035652,0.6284777104787076,1.0461463487648077,0.7816548918105127,0.9922984643355124,0.7520131765997997
187,1.572614645572134,1.7967232177572108,-3.3693378633293447,1.4998355237708325,1.491122979021679,0.3858206621472297,1.7289813340227067,2.057862685212693,2.1362034139643318,,0.6008849035917525,1.5725703932215744,1.8023096801232075,inf,0.8238133511278691
188,0.9778347862244692,0.9652608541966978,0.9213948170127508,0.9648258574533927,0.9256862675341733,0.2013709414039289,1.513009461992987,1.5462690094446894,1.278447729648166,1.139592258887255,0.6380535849069913,0.9778115885224056,0.9718500329588604,0.9281888558612269,0.9605908396898069
189,0.9569753783689808,0.9689912728577798,0.8674584612021141,1.3767875142394428,1.2936631285082694,0.3685122322392473,2.060490395634939,2.30659158929236,1.2056323777877471,1.3745505297127238,0.6333676938231112,0.9569102006078455,0.9748779132239127,0.8727729876512957,0.8823777895349162
190,1.5441241819697307,1.2806673588280557,2.1791547651476737,1.5339794866513736,1.4029193745907718,0.7222940695445076,3.481849564653394,10.851499365987394,1.5996424144704853,1.8601854451615163,0.6425374456860184,1.5441184463134578,1.2870414519508608,2.186164383982734,0.6589648216460379
191,1.7494910448794625,1.618931891895112,1.5215040306446572,1.162271752604538,1.1302575771801335,0.8025355163621608,4.799483022978576,22.970357825005685,1.7537524390166634,2.1938744904509373,0.6727386042041725,1.7494665570378036,1.6234673593514926,1.4950450773054367,0.8838949034939736
192,0.8018478103645044,0.3431344924176849,0.22725640822751525,1.5977291791913109,1.540479457722573,0.5780417249755079,2.172270563957795,1.5987689201905413,0.45087884074708756,0.2609075954421128,0.6207552362147116,0.8017722784315631,0.3496080757752023,0.23362594792849395,0.8857902755084145
193,0.8137588076509955,0.3839721922191549,0.241453748376399,1.203620817398344,1.1839541575976305,0.4839748671281941,2.1572035823052453,1.4864553778917462,0.4610820562405353,0.34020005519246316,0.6380535849069913,0.813734143549063,0.39053500097758953,0.24816501909778305,0.7308959865403778
194,1.5705470533247547,1.1126080633420639,0.9723178183246319,1.1280991436225873,1.0762173923705918,0.6741003290351855,3.0821953629153858,2.211854868464247,1.3353134506934907,1.3601603773564626,0.6233814453054027,1.5702171992808192,1.1173769932540087,0.9771348013468255,0.7954730069944784
195,1.1911431197974505,0.745479056866178,0.5452271067732699,1.7775309774302372,1.7257252767218294,0.5677741842185122,3.732779240031622,3.5013609040416287,0.9686938969603314,1.0523632345550546,0.6207552362147116,1.1911297052020182,0.7520730011750554,0.5518889684692919,0.8604239071495378
196,1.238144108524309,0.6781098309481162,0.4135437170465053,1.454294490532081,1.4348733563786158,0.6418731431041126,3.340007293211861,3.1557603880338743,0.8795255381854374,0.7332681178826642,0.6584896970785714,1.2381425912071802,0.6847891507962744,0.4202438908170691,0.9150439572081623
197,1.3653807421061277,1.3453116775944487,1.2176351708765,1.3055531330231185,1.2605257603971889,0.39368422853305907,3.496139984389704,4.5781773581803975,1.57089172863936,,0.585052858160615,1.3653594774644513,1.3517314682899078,1.2208198306259146,0.8573187918012726
198,2.408071409745148,2.1937598749774296,-4.601831284722578,1.064886894695181,1.047538407482863,0.5911314374415877,3.0840992000761114,6.686412804372312,2.1937622116591644,,0.6153451465759925,2.4080690730634124,2.200440014190194,inf,0.8132048455909218
199,1.074744588478028,0.6576004400095603,0.774434916754204,1.462097731528163,1.3961667556071051,0.577937204209533,2.6592091534258406,2.4966262771200136,0.816005507677402,1.0918380216140682,0.6233814453054027,1.0747330148781664,0.6641177986944864,0.7795436803763368,0.730691962938472
200,0.8638716385515943,0.7183334507063179,0.8785523119746208,1.5228333594821355,1.498261244237566,0.24470457989524927,1.9553212823106234,1.9064980006906045,0.8695820115194532,1.0907731626104147,0.6008849035917525,0.863856422025734,0.7249622032056308,0.8849502801461797,0.8989659388879474
201,1.0634300299929336,0.8721608119263562,1.0229752740863582,1.1157275022179947,1.07889856131019,0.42982690744416224,2.0949664693597176,2.8313310185667953,0.9714842252222241,1.2453356308456378,0.6425374456860184,1.0633416745861903,0.878698195891024,1.0286746401014888,0.6852080422463889
202,0.617921561288922,0.48177601173611717,0.4195811858283951,1.1070475768748744,1.0895525983414935,0.2668278162423737,1.6864037227008013,1.6172211297662469,0.783128476118851,0.9884741654343493,0.5978297680564633,0.6179160298836309,0.48835887511982434,0.4258419488040646,0.7732674214051815
203,0.8905854760279076,0.49506417731025454,0.2041236471449912,1.0219380196419514,0.9684088106144803,0.5033457848874555,2.399568184315705,2.0570151162945023,0.5472419639570419,0.290765168557368,0.6509067234006624,0.8905688388765454,0.5017435945689082,0.21081211693205476,0.8050258937144323
204,0.8265065609564229,0.21049791832219633,0.095740815758949,1.3630812015987128,1.268424821613012,0.6843068917918875,2.0558430593017643,1.4179835157525398,0.23921377395376403,0.10181496993229584,0.6727386042041725,0.8265008112072866,0.21718147060236184,0.10244098952951289,0.5702753969780039
205,1.1191532354102416,0.6861208649140034,0.40264332728293284,1.5126138007374084,1.4423289549882399,0.7931764151924279,2.9051581052556843,2.9040523686006465,0.7585144830079835,0.5592983804142745,0.5978297680564633,1.1191211652996502,0.6925009330246565,0.40958784176242397,0.7747334709410163
206,1.5448993912965288,1.1598119085401668,0.6897970936746631,1.4988979846712491,1.478935577562015,0.8757484121058187,3.909342294661072,2.95949573042525,1.2651724241979927,0.9411115219555694,0.663668482632973,1.5448993912965292,1.1664897110711956,0.6964972674452273,0.7262657762564017
207,1.2035523189582176,1.4245882138060184,1.9703406650730586,1.5108094384419208,1.4480042445201924,0.49373340930112086,2.6102705998028566,7.316869446867283,1.6637387906150003,2.829863257170934,0.6153451465759925,1.2034914387194702,1.4309985592747114,1.9773691761447065,0.9030361249400162
208,1.6230535303794704,1.4378712226167798,1.0267308210750548,1.609293484839772,1.4868407374424917,0.5774953001169482,2.9303242590953014,3.4653137074491407,1.5119499466720583,1.1758193127598884,0.6357360191111145,1.6230298659535674,1.4445565113684073,1.0334471730509227,0.8573380382171527
209,1.7659031088969808,1.8330392238280593,1.40500397322042,1.338631968231313,1.289886597401502,0.6193588213980062,4.167904647856895,28.83326815681517,2.1424249109502282,1.0958194600864657,0.6333676938231112,1.7657019349087653,1.83883637077142,1.4127859765668669,0.6476153962702653
210,1.5822640181102172,1.192365930924184,1.1521176739066683,1.7472249101087458,1.7241951340173707,0.7820643200131226,3.691846060683585,5.417179289959307,1.3456537375930522,1.3879905423022327,0.6284777104787076,1.582201113557853,1.1984197803791925,1.1578601704541223,0.838820939896299
211,1.4380256243804432,0.9584409934011491,0.5280381464840311,1.5779216140293502,1.5585785431460357,0.7900180146713462,3.849108805777226,6.390528060555144,1.331820902409519,0.9813536382340029,0.6602640781246099,1.4380087968065693,0.9650106935092467,0.5348632502514004,0.887130798084314
212,1.2729656758128873,0.7139058308734916,0.6656995420956031,1.4430742895625412,1.40544520680169,0.7408656541242008,3.2254785305332296,1.6414370961358031,0.9011173729616377,1.1251151649325088,0.6727386042041725,1.2729656758128873,0.7205836334045204,0.6723997158661668,0.8449638277434941
213,1.4807710576190178,0.9615759777501864,0.8568511783378292,1.6401656631584558,1.5699648960880321,0.8411644098047258,3.712948338822622,6.192976915182136,1.0841977859887593,1.5227062166097676,0.648888643467878,1.4807515714727773,0.9682732664274563,0.8635513521083934,0.715811701462898
214,1.2502279853985772,0.9084229482129667,0.6748544082890455,1.6213273497157625,1.5785057355538517,0.7474367920691153,4.257357347522234,4.032758782315038,1.172520397952325,1.664924503299755,0.6403206450210053,1.2502106728192237,0.9148371728217745,0.6807330289272915,0.7205348765459249
215,1.41332303350781,1.1090667095349307,1.2287935944073505,1.6691978080051526,1.6417532259906997,0.6564370194253846,3.4055391469286365,4.712979842356031,1.2425981021594537,1.249412881610086,0.62595550513784,1.41332303350781,1.1157445120659601,1.2354937681779143,0.4828984610027327
216,1.1962010862080381,0.552998768601221,0.3643746932400347,1.5023008941971305,1.4538134544141135,0.6909224896482041,2.990099650051745,2.48021633237155,0.6261798844670375,0.5167296348228752,0.6284777104787076,1.1961883670160047,0.5596892903242835,0.3710748670105994,0.8354001180787908
217,0.769766168953796,0.4662772191389686,0.3200093764255074,1.3032455675394696,1.2767124194534012,0.5555566711586263,2.2146686539215614,2.1699940328171916,0.5996379553313818,0.5368883886999645,0.6284777104787076,0.769764280850508,0.47294935179185865,0.32670260544224783,0.8881822044551091
218,1.4595558913842985,1.0220118571381878,0.44293701574313715,1.3847820230426955,1.3764717562465196,0.7877104366414529,3.609453021335363,2.3537850960157862,1.1055604462530306,0.6470920564387712,0.62595550513784,1.4595343340256024,1.0287112170279125,0.44963718951370146,0.6692205384294719
219,1.7003026085440516,1.5152343150586336,0.8721186504686198,1.3713190023637192,1.3372589447067151,0.6537782944584775,4.179148074548961,16.09279950671643,1.914475929892424,,0.5748741956352443,1.7002747791058765,1.5219399470278387,0.878818824239182,0.8290011906790375
220,2.3715779644809976,-2.3715779644809976,0.0,1.743668948800129,1.7154545912575996,0.9509457500426532,4.07491878582411,2.0971647929231896,,,0.6038851895711802,2.371577964480997,inf,,0.8391433890852793
221,2.120263536200092,1.7884205679625391,-3.908684104162631,1.7873924449722083,1.7649061560861212,0.8284362903635748,3.778758876793765,23.710590475625285,1.970742124756495,,0.6068309995095971,2.120263536200091,1.7950983704935697,inf,0.7778399593665057
222,2.2381524008508564,1.852853260105729,0.9129406449888746,0.9003227700433287,0.8518099823458023,0.6853931372014289,4.347195290446056,16.910686483584232,2.3636805407737116,1.0952622017828277,0.6008849035917525,2.2381507439488653,1.85953271953875,0.919640818759437,0.8781215812536035
223,1.9132897628505854,1.7077122688602657,2.0760914547945535,1.3594716690541573,1.357194582358247,0.5946044357204399,3.511646909863211,2.9978191205918896,1.707903210623635,2.076091454794554,0.6097226960127671,1.9130988210872157,1.7145810131546642,2.082791628565118,0.8608977124481523
224,2.0661963149298157,1.6883371094055581,1.2494128816100862,1.7808163756746023,1.7334267391228835,0.9387038385589198,3.3751645544244844,2.755029205846166,2.1684248577179197,,0.6380535849069913,2.0661963149298153,1.6950149119365872,1.2561130553806499,0.9207587031232581
225,1.771956841931875,1.5305914586604417,1.0082508247931972,1.76463063215646,1.7302012307295207,0.9572514191410418,2.846246043595714,1.8134735148062324,1.5305914586604406,1.627050368728532,0.6380535849069913,1.7719568419318752,1.5372692611914698,1.014950998563762,0.8958999078062381
226,1.8957279874603592,1.319808936142326,1.0952622017828286,1.7704284220010245,1.7384833115062794,0.8669440825705339,2.0214129455201943,1.8820119912550402,1.7252884647628537,0.9774791661264444,0.6403206450210053,1.8957135669479968,1.3265011591857185,1.1019623755533916,0.8710498778804695
227,1.7130858418162287,0.9974581403254059,1.0406393553084565,1.7844677053575306,1.7679145946259909,0.870315454241987,1.790644250734756,1.9431114786439883,1.3039252776934915,1.293802322705958,0.6425374456860184,1.7130715249860642,1.0040194207682949,1.0474703679973252,0.9211294535968716
228,1.6636811363382178,1.2641737148126866,1.1598007229204006,1.3026118275208365,1.2362952541256866,0.6155286890723909,2.3476386673339444,2.414206341350134,1.547428061452405,1.3873936697841507,0.6357360191111145,1.6636594666007394,1.2708731870811951,1.166500896690963,0.7470707361037011
229,2.2113778010119542,2.3904534837106235,-4.601831284722578,1.694425855936573,1.6754288609573962,0.9283623865545951,2.5777553568303966,1.6019284430514071,2.7959728911150203,,0.6097226960127671,2.211323501715721,2.3971855855378847,inf,0.8939727744035144
230,1.4797505835686304,0.7351282736789004,0.39321167869678275,1.078540199533411,1.0461411153189528,0.779668078956939,3.5561463501846955,9.233460476100122,0.7814575484921877,0.603091154782166,0.6602640781246099,1.479726305912443,0.7414836341742875,0.3986767701861746,0.7355766254284076
231,1.9288759097544896,1.6494408639321647,1.9030675656567508,1.7474475627527974,1.6951504330729426,0.8101026641885706,3.650265289418755,2.835710721087733,1.9800352295384562,1.7884093823427731,0.6509067234006624,1.928648874624175,1.6528720611692618,1.8123288574761633,0.6916929233409657
232,2.142945179584774,-2.142945179584774,0.0,1.7704501580258887,1.7000510830320648,0.541207098551629,3.9809718832492456,3.5553703619777672,,,0.6125606311107803,2.1427363920521496,inf,,0.8600667459639957
233,1.8894981844218053,1.7455150513836941,1.1421955266780461,1.7540317788696191,1.650254865872008,0.6773926100293208,3.1859917392741677,2.6437943340058006,1.874762736250538,1.239811271599866,0.6284777104787076,1.8893722980950554,1.7445981838571527,1.1311076659929378,0.8580447611730703
234,2.039877786470426,2.2436731461887223,-4.283550932659148,1.2648807352178395,1.1932331688306395,0.8163548401200669,4.405621537296378,28.615022202936224,2.7370283495940884,,0.6425374456860184,2.039793569387391,2.2473270075325233,inf,0.7133092360553941
235,2.120263536200092,1.3829554598543758,0.8075801293310461,1.4062393817596712,1.3808820896977507,0.6715379566434537,3.3040837075361917,10.804175554389937,1.7884205679625402,1.0952622017828277,0.6284777104787076,2.120263536200091,1.3896332623854053,0.8142803031016107,0.7741577898962437
236,2.2380465718564744,2.769249820974267,-5.0072963928307415,1.7855151875325899,1.7872815735114322,0.6898948173572513,4.139248120536429,8.536349734143915,3.282307588524198,,0.6097226960127671,2.2380465718564744,2.7759276235052956,inf,0.9306567620700479
237,1.6624421659412596,1.0942857355909508,0.7431410076369747,0.9421090663979448,0.8659915674512692,0.833088710475424,2.8577495302414535,3.234102576782642,1.3989576908437784,1.249412881610086,0.663668482632973,1.6624285529316494,1.1009581932100267,0.7498601393291023,0.6646743784037821
238,2.232452341651347,2.2722020557212983,-4.504654397372645,1.6248812030032118,1.5794647168622051,0.7286095713898808,4.091713983584131,11.990351039671932,2.369601098187542,,0.6153451465759925,2.2322301865350345,2.269581486465903,inf,0.8524453876859999
239,2.0149030205422647,1.7396304037931092,-3.754533424335374,1.7541326712724423,1.7092020786974786,0.9644346198444336,3.7272497083619758,16.097126457721174,2.2228117353924657,,0.6619902821573977,2.0149030205422647,1.7463082063241377,inf,0.9230447242317182
240,2.2380465718564744,2.3637847128661034,-4.601831284722578,1.7800459917293097,1.7401446333057142,0.9052497355021791,4.782172981802383,73.80001399549934,3.462397001534212,,0.6333676938231112,2.2380465718564744,2.3704625153971315,inf,0.88435879018985
241,2.040220828526554,1.7143125958088197,0.8439477735019207,1.7865786904962004,1.7633865067799666,0.9557593046878016,3.897568651964103,8.226406806700982,2.0507848324300317,1.6060878255488185,0.6125606311107803,2.0402208285265546,1.7209903983398478,0.8506479472724855,0.9026110338542828
242,2.0662852090867556,1.6882482152486182,0.8439477735019207,1.7662663041608981,1.7364441808916333,0.9281152638783922,4.454666718341014,14.300115701657447,1.6882493862597496,0.8439477735019216,0.6425374456860184,2.0662840380756236,1.6949271887907789,0.8506479472724855,0.9049977189853039
243,2.0661963149298157,1.5548057167810354,2.0760914547945535,1.7692768574263544,1.7522210331113555,0.8446738926116367,4.296091615854929,3.841722980948586,2.0248093460267707,,0.6309483474627791,2.0661963149298153,1.5614835193120644,2.082791628565118,0.8253729229390118
244,2.0661963149298157,-2.0661963149298157,0.0,1.7194844105632314,1.705869357180611,0.8988274867718992,5.0500402968472216,78.33898957138913,,,0.6468212168108125,2.0661963149298153,inf,,0.6986040148411701
245,2.0213756923307815,2.4378904599783238,-4.44014838893157,1.4264047925627346,1.3912545541484898,0.8177558227026569,3.9043303831195617,11.242759856287627,3.1224783052820286,,0.6380535849069913,2.0188273774344214,2.427441525967814,6.961296045910167,0.6897258817480929
246,2.484939979364966,2.0915015189820307,-4.5764414983469965,1.4693982275865296,1.4442025466482418,0.9275229797605029,4.217518946653668,18.43255929945334,3.4829249379822933,,0.5748741956352443,2.48424020524484,2.9884305484479747,inf,0.9438429955654093
247,2.427017373527739,3.2734261998629477,-5.700443573390687,1.0198236240872434,0.9293416188407971,0.530574451059381,4.018898255247867,5.311747198414369,3.2751885231668623,,0.6125606311107803,2.425255050223824,3.2818663256978917,inf,0.9222346759261068
248,2.4769317714468335,3.2235118019438533,-5.700443573390687,1.711934926956033,1.6800576943315533,0.9564733800022055,4.163727689222183,20.287870314328938,3.223637359636554,,0.6447042257417027,2.4768062137541325,3.2303151621675834,inf,0.9031206072045647
249,2.09003825009038,2.9393665817680135,-1.5499718971470395,1.4022906712720447,1.2849756891651092,0.8903914036010964,4.183130752698153,11.089359345047672,2.8960738179888432,1.391116948586107,0.6097226960127671,2.089716369620934,2.8195664302150343,1.2942754623996384,0.6850319586505248
250,2.4079456086518722,2.1938856760707055,1.0952622017828268,1.6571950914380804,1.622114655698323,0.9147828499656231,3.5891387800567034,10.69981384882281,2.5993507841788692,0.6897970936746634,0.6097226960127671,2.4079456086518722,2.200563478601734,1.1019623755533916,0.8885984637698957
251,2.0772191903904424,1.4259998056640253,0.8075801293310461,0.9820540252020493,0.9429910091095904,0.6946376876962371,3.508622070810458,2.8629640537393337,1.5438689346324515,0.9774791661264444,0.6602640781246099,2.077133097078399,1.4327637015070973,0.8142803031016107,0.8700900991502025
252,2.17742195004004,1.9135837109165457,0.9129406449888746,1.0129570691972352,0.9692922973382783,0.7820130250306463,3.4477513076307273,2.049241938054477,1.9135837109165463,0.9129406449888731,0.5915533975974677,2.17742195004004,1.9202615134475756,0.919640818759437,0.8980320089613765
253,1.5462262547386123,1.1102339916547863,1.247510984690836,0.24119922981745534,0.16307929290366416,0.4546707000214756,2.8488595279161304,2.5525763857825075,1.3214214521106957,1.220031798883663,0.6097226960127671,1.5462023230769453,1.1168745123825339,1.2539587117922113,0.8195117975125243
254,1.8050972568578312,1.3254399040777585,0.6206461765145015,1.304869698635644,1.258174151517621,0.9051608531570813,2.9801778538347117,2.762674459541083,1.6289062848215428,1.1645275494607619,0.5748741956352443,1.8050473635549904,1.331992490702341,0.6275214594943529,0.8851230379272567
255,2.171914318034122,2.429916966688456,-4.601831284722578,1.7636836131350444,1.7339874216592392,0.9392415972320938,3.6064722639700437,11.54688220471466,2.4299820137175856,,0.5978297680564633,2.1718492710049913,2.436659816248615,inf,0.8903124651643092
256,2.3715779644809976,1.719427696475588,0.9129406449888746,1.7698457573505675,1.7596126625326418,0.7890495567807483,3.622595899292545,2.2861778432706195,1.9425712477897987,1.3829442742346088,0.5883313578629602,2.371577964480997,1.7261054990066182,0.919640818759437,0.7788205581076542
257,1.91959284073794,1.9890912634246911,1.095262201782829,0.6616086745812898,0.5791286015960811,0.510624955879736,3.6752304883779106,3.885588152602522,2.171412820218646,0.9129406449888731,0.6180765742263259,1.91959284073794,1.9957690659557208,1.1019623755533916,0.7613972518989321
258,2.5257286443082556,3.1747149290824312,-5.700443573390687,1.638482341592523,1.5483165625069082,0.8012272925690351,2.9180129148942187,2.247531629292684,3.1747149290824312,,0.6068309995095971,2.5257286443082556,3.1813927316134603,inf,0.8719143108729136
259,1.8293879630638734,1.568470517332768,0.6897970936746636,1.40003152891259,1.3498917602065512,0.6527474277485749,3.234615641755299,2.341231650697119,1.5849961916059183,0.673613328451314,0.6125606311107803,1.8290460540140716,1.5754902289135984,0.6964972674452273,0.7914338083238263
260,2.269795270171055,2.7375011226596864,0.6897970936746631,1.5882538180728885,1.412985983073321,0.876867090472685,3.60116091442575,6.4084782710913375,2.7375011226596864,0.6897970936746634,0.6447042257417027,2.2697952701710546,2.7441789251907154,0.6964972674452273,0.7854700293455937
261,2.17742195004004,-2.17742195004004,0.0,1.4394414378931129,1.4168903384939977,0.9580136945487688,4.00985661682453,4.537186649847206,,,0.6068309995095971,2.17742195004004,inf,,0.8892169690112184
262,2.3715779644809976,-2.3715779644809976,0.0,1.7421487512981775,1.7064403649850362,0.9510010665493482,3.8574567911244038,53.517643792590924,,,0.6284777104787076,2.371577964480997,inf,,0.8632989564617032
263,2.7201896141072637,2.980253959283423,-5.700443573390687,1.4036230513590189,1.3973524431558846,0.9118111951018437,4.1915203350561425,19.179369817339637,2.980489467785652,,0.6357360191111145,2.7199541056050345,2.9871672703166814,inf,0.8503063797801909
264,2.772071622269691,-2.772071622269691,0.0,0.9799387317932129,0.9347154684965796,0.9131970483304184,3.707982827386102,8.247826408293294,,,0.6309483474627791,2.7681541251719155,inf,,0.9087959517091103
265,2.6264580742261536,1.271116330570762,-3.8975744047969156,1.4070207901439147,1.4026628878055196,0.9259724644351559,3.200425225959064,18.651084649958946,3.410589146188024,,0.5490601803369085,2.6243219855714974,2.9310404839664304,inf,0.9022640179748402
266,2.4309021610911214,2.511348164328872,-0.9084022527601272,1.5315419562320869,1.5210937364503148,0.904406333349061,3.6009408968064323,5.806442737134576,2.6004414288511564,1.0698959843331708,0.4880666971167561,2.4305447351019898,2.5031295178581376,1.1220325628762082,0.8860260998177578
267,2.804819110981677,-1.6222680485096572,-1.1825510624720197,1.5606962733862078,1.5285962547758214,0.8650838108082859,3.1870998079352573,3.556362469077379,5.106587008711821,,0.541134803179459,2.7977925766030713,4.347092495668015,inf,0.8692317663450058
268,2.4321623232942358,-1.5742360329846008,-0.8579262903096351,1.1688065979641524,1.1603060738955744,0.9253596666717684,3.306650949650123,5.298357819970024,7.585310039621479,,0.5370774965580548,2.4292827460400033,5.171619713502079,inf,0.8722974426401864
269,2.4873472699808965,1.8594792675879215,-4.346826537568818,1.1290044035486961,1.0811338905549182,0.8721458564885295,3.0760211898252496,5.202703419568008,5.872524157451947,,0.5202020156036558,2.483840551606003,3.4943787687519587,inf,0.8777020351500519
270,2.606828821764735,2.845769378869836,-5.452598200634571,1.5201028091412765,1.5035515772396577,0.880397546264064,3.0152228226947817,8.804143176405443,3.242283516588935,,0.4928685327679205,2.6056440452708203,3.145929093221729,inf,0.8996152189563856
271,2.084181138422966,2.3104296893382013,-3.9492219834221824,1.2994068439024775,1.1482255025493429,0.7402640707519705,3.063677596290054,2.83890871301135,2.717523489899064,3.6001554448647815,0.552929491858785,2.0807757646929725,2.238380405944035,2.9295256953157227,0.9392767555180429
272,2.2660278962347737,1.7623640418442719,1.256513843521918,1.7226909857761035,1.6726851304621992,0.966400850911892,2.1927675436136096,1.8074615427980398,1.9794212010504089,2.5747654852066684,0.5915533975974677,2.265289308250349,1.7313237654784166,1.224743251683143,0.893046001961294
273,1.9662753968972562,1.8042402049452917,1.9265778846628567,1.5686195590068364,1.5401017556701728,0.5736425612502606,2.7132846197881575,3.137235103757302,2.0419680269292217,1.6888538604456549,0.5677978065141052,1.9662715991305277,1.8098616856049692,1.9343381780715008,0.8593652392304773
274,2.0457152583172435,2.045290402639342,0.9152666422390752,1.2486388121851015,1.1640978332552672,0.7630011938022795,2.484739337639705,4.154345104707836,2.1174889616536046,6.132465729484769,0.6233814453054027,2.0456199932043253,2.05206347028329,0.921320080279157,0.8225543093588717
275,1.3232437895282718,1.0815986174760148,1.182340736020925,1.187448267943677,1.1165978676114279,0.5062512058113801,3.131809978755379,2.5924245582078647,1.3386613284412023,2.6522173387540016,0.6038851895711802,1.321089395439159,1.0743422479212386,1.1118672691843032,0.7429173848287879
276,2.3191422248739073,2.1556856031141045,0.5291184779574483,1.4572170012021484,1.43184579436569,0.889134825938937,7.16027269822952,42.596725787264546,2.34199200827478,2.042471303606516,0.552929491858785,2.3183757789003696,2.1528464345779827,0.5461020687686998,0.8522033367478571
277,2.465384741547548,0.5087597315258541,-2.974144473073402,1.6864279851334638,1.633760986335386,0.9523121878315866,5.095452411555638,124.73142629436174,,,0.4629450596409901,2.4639282434028087,3.8937806986600565,inf,0.8971422713347732
278,2.54076637473623,-2.54076637473623,0.0,1.6986179240590307,1.6824287039407477,0.9218136360534945,4.952607961174585,280.3943500619818,,,0.5641709578113449,2.540560313978835,inf,,0.8777795836879906
279,2.70805020110221,-2.70805020110221,0.0,1.7618312156135292,1.751364035347683,0.9215410702173359,5.018198081762269,11.474864119314212,,,0.5883313578629602,2.70805020110221,inf,,0.8471057500591678
280,2.659260036932778,-2.659260036932778,0.0,1.7636429206724025,1.7296255727281262,0.9647782317901531,4.5443897297583025,41.17754904329855,,,0.6068309995095971,2.659260036932778,inf,,0.8304355706281857
281,3.0320685192037855,-3.0320685192037855,0.0,1.7332121948904913,1.7183621715671933,0.9454524514519792,4.176552519291979,64.33144787495922,,,0.5883313578629602,3.031474598874165,inf,,0.8347523251075202
282,2.75934349548976,-2.75934349548976,0.0,1.7053466634821577,1.6830181630548162,0.9713928632384611,4.751781653875181,53.40446358931163,,,0.6008849035917525,2.7593434954897607,inf,,0.8070045560710266
283,2.659104970213995,-2.659104970213995,0.0,0.10060391803536385,0.06754260802586601,0.8371122596935789,4.276082827860817,15.562031489448794,,,0.6509067234006624,2.6591013193703468,inf,,0.8063605214859627
284,2.1190788203278688,2.482752464394709,0.40211502122288234,0.665437873199434,0.6285650185243012,0.6261557797127019,4.291077904930491,12.426546600617709,2.4827707283557117,1.0952622017828277,0.585052858160615,2.119060556366865,2.489448530886741,0.4088151949934463,0.674881229352736
285,2.120263536200092,1.634269888135282,1.2494128816100862,1.7720781158085672,1.7886608068726477,0.9134312581181305,3.3654307377747763,9.716042919187307,2.5401042509750584,,0.6357360191111145,2.120263536200091,1.6409476906663114,1.2561130553806499,0.8671842961939973
286,1.9639951116059153,1.7905383127294585,1.2494128816100862,1.6657748239919952,1.641201784622585,0.9077323615931608,3.917573283455094,4.897057074113402,2.1270333690828642,0.9129406449888731,0.6284777104787076,1.9639722918737217,1.7972389349926805,1.2561130553806499,0.9042907102692037
287,2.1308745665242137,2.1832746457465824,-4.314149212270796,0.8372787542640467,0.804915271335935,0.6188076230781657,4.798321110082903,13.517920782777484,2.18504123204132,,0.6097226960127671,2.130781620787505,2.19004539401432,inf,0.8366188005631192
288,2.0496958757711212,2.1920622847355338,-4.241758160506655,1.213691327181236,1.2176056326696514,0.7344733763248679,3.544818780979815,11.14215600775322,2.264741009628795,,0.6180765742263259,2.0494082026420006,2.193436367898544,inf,0.7683036511995175
289,2.0156687062877903,0.9836215706198255,0.4128879539466319,0.24493905704025942,0.21899318774357865,0.9235516850439324,3.598758917602924,2.7829147281567823,1.286894998659347,1.008250824793198,0.6038851895711802,2.0156533019329688,0.9899048657723133,0.4175440493449232,0.9356507111136788
290,1.7376176700143962,0.98426713247287,0.6994940581046123,1.1709432202305716,1.137888778461235,0.7749467530233729,3.538168510442617,5.653022006594328,1.1294465241323661,0.8841498229780629,0.6357360191111145,1.7375869903396621,0.9906659180800677,0.705467664947986,0.7720510687185492
291,1.7171660982734662,1.498370825329219,1.788409382342775,1.1983089228569934,1.1803727424074357,0.8302810918385273,3.978213502414649,12.366972945296105,1.590583586539726,2.3893630374466692,0.6357360191111145,1.7171468625190092,1.5050678636147061,1.795109556113337,0.6728909432577839
292,1.5894414912374395,1.0562110122161017,0.8542164057156438,1.3694638403993968,1.3482718887982774,0.7935030979263316,4.002622566124591,2.971543622305145,1.277812785391181,1.4435688960510433,0.6509067234006624,1.5894174439432895,1.0627251252206247,0.8611043163068642,0.6654732117494999
293,1.3364684760567893,1.120963448986754,0.8782272299309168,1.4168961707994199,1.3971979023023815,0.6957787669291834,3.358035491790911,2.434874411562586,1.2413816570874028,1.1709610611024495,0.6447042257417027,1.336446555392323,1.1274816880104854,0.8840443770220491,0.7979660205993041
294,1.8820294487694331,3.8184141246212535,-5.700443573390687,1.3398577852708327,1.3062492334764206,0.5512846844212924,4.004748728579302,10.795881332918155,3.8184675962240533,,0.6357360191111145,1.8819759771666331,3.8251453987550823,inf,0.6832119281645902
295,2.326542189511527,3.1745346362933566,-5.501076825804883,0.924341947256913,0.8926834532886223,0.5282962100279734,4.221882237273768,283.4961883057498,3.374021057582785,,0.6380535849069913,2.3264225158079013,3.1278990992167164,inf,0.7457044545752152
296,0.08454688202022008,0.022136794310726016,0.016358952940609406,0.9299115935447222,0.9177971394175141,0.1303429627285845,0.1566921562880771,0.10300315636037435,0.07341830922450622,0.19814485172260843,0.648888643467878,0.0845296106360806,0.02872618843829972,0.02293308982140356,0.9216755897586206
297,0.09624864287297184,-0.03434378931621973,0.0037498167562649287,0.08467349851939517,0.04010374099277662,0.09684850714679583,0.13035920468073006,0.07655039819761236,0.003981189956367955,0.00402508484447107,0.6380535849069913,0.0674226763174342,0.01046679567727266,0.010516816826163485,0.9762002261894576
298,1.6277462612251081,1.6848779200480262,0.9289551941245606,0.21103373620254545,0.1815532220975748,0.7167391453474425,4.313036050391585,4.896042528452256,2.037738757047232,1.2289461380732705,0.62595550513784,1.6277150372344524,1.6903674377171964,0.9209025770967181,0.9279364171872589
299,1.4601314408823824,0.7139516078921428,0.22717357172655062,1.269607484439308,1.259290094116862,0.7595314494684875,3.304376631961672,2.1109416011062465,0.8813775909763255,0.22011332020577845,0.524519217297268,1.4601083593941508,0.7206524919114035,0.23387374549711423,0.8490168195372475
300,1.3177092058468338,0.7748068766482736,0.5932058382272132,1.3750409891110433,1.339452361437235,0.7371072585153752,3.0863141039096087,2.4089908947802923,0.9156049579238775,0.872867101376976,0.6207552362147116,1.3174318685022648,0.7809433447917855,0.5993946784006033,0.8246202945460638
301,1.600114556923733,0.9981364554403682,0.459785144526045,1.242769536902273,1.1980494182698216,0.8016512479004229,3.6918985473373396,2.25583770842899,1.2465805015643288,0.49326619285207657,0.6403206450210053,1.5998176690571098,1.0049241205134047,0.46667234362122445,0.7983915322855296
302,0.9464805886490838,0.2679085069600272,0.06664421746637794,0.9943831502805632,0.9429924169970044,0.7977094226437323,1.3497533018218077,0.07327189422161884,0.31121067182783263,0.06997135069902591,0.6528756675646988,0.9464636115115245,0.2745799993774754,0.07334028229746882,0.767778696430485
303,2.0562951734637807,0.6472658704497021,-0.6698889792635139,0.9943831502805632,0.9895173289601504,0.6410512636357623,0.03411269496796987,0.03914461697984895,1.8963769178746666,2.664618018062916,0.6528756675646988,2.0291709923399694,1.6333911534565932,2.16150649473414,0.9485964399281489
304,0.6116560740197213,0.2309141649659724,0.1577160931206938,0.5320861068429771,0.4538670913374578,0.4377758218826345,1.2191106883788567,0.2340290773278364,0.371042394798238,0.21310198596854849,0.6858323589451731,0.611649122166794,0.2375282812330373,0.16435871291315904,0.8953587379568202
305,1.0823584105213668,0.5184389274002641,0.2188678361717009,1.6890757557420015,1.674533508798333,0.6898329725855374,3.1320433231728995,1.6490501922476772,0.5899435230176658,0.3280702183787985,0.6309483474627791,1.0823453162042378,0.5250945935671897,0.22555830747322522,0.864048501792387
306,0.9186390165996934,0.48285920700930496,0.47377915641909496,1.3990480446439097,1.2758094447442403,0.6384433626313478,2.2144866927398845,2.405118210974269,0.8160786677002562,0.9162689101629384,0.6509067234006624,0.9186267916717028,0.48950426405736225,0.480286167540425,0.7710754117887592
307,1.377601539489082,0.8897448529885661,0.45338575287116356,1.3553854612284106,1.3273895235370423,0.6780845704121348,2.321960496094881,2.1788407003396695,1.2608647439584746,0.8921381081523649,0.6509067234006624,1.377532855451318,0.8958171122743929,0.45711627266083155,0.6770660882579679
308,1.7805553172278115,1.3133098159848784,1.0932015780878812,1.730805015365727,1.70097028080562,0.8843339860177133,4.492558171719486,2.0759118128390153,1.6156977592619988,1.6077586697136361,0.6652988471865258,1.7804898769698243,1.3191225270715587,1.091977542619553,0.786111365902709
309,1.000202978096096,0.3762266420047182,0.1789551048802689,1.5430863941562187,1.507927786469494,0.7085373692145085,2.63647873358673,2.066341138444166,0.42215274741015263,0.2831643424905235,0.6233814453054027,1.0001857576132132,0.38286941091561133,0.18545408840683866,0.7955804038912516
310,1.5330296556468916,1.0405424517447737,0.9270872919497095,1.3310643474181725,1.3031100939387916,0.925187685841041,4.033483316369053,6.772018104426105,1.1753407074040003,0.9094227587911745,0.6547956803312163,1.5328884786303938,1.0472083581613556,0.9338960390157506,0.8082260423141004
311,1.8740638070013422,1.485625344042393,1.5362466450863979,1.4731189715375848,1.4104421162807337,0.7453273190985628,4.578348254428636,4.573475173717551,1.7800511135083097,1.655730268804047,0.663668482632973,1.8693607152516065,1.485271197263228,1.5133470811798981,0.8325341063266869
312,2.0916326204383373,1.3440818729870427,-0.9283128325397221,1.6553521803739664,1.4866419473078405,0.5135372746695668,0.9240292316096164,0.6078943898698751,1.4089288897304617,1.224612848610798,0.62595550513784,1.7539500078325083,0.6993287842751804,0.3692474188934088,0.7887482561495305
313,1.7098115115196038,1.0460759715779226,0.8892454951045754,1.4215219604323885,1.380392949038399,0.7662078595230124,2.180007916793822,0.8354280185812031,0.7693856508981842,0.4052608070530457,0.6425374456860184,1.6026830005303963,0.6363015110540549,0.3243883114829824,0.7403725589079916
314,2.1799432996735177,1.9795488412014244,-0.9285901300715422,1.5216525344398928,1.541493524341094,0.8083500379561293,3.4192308146554415,2.4383018653950197,2.2231242239655784,2.652303420027074,0.6357360191111145,2.162050502328565,1.933628282906672,2.181987449154091,0.8389865876185454
315,1.921530258606839,1.678416779010271,-0.26202983201956354,1.4747510132125092,1.4591195615000674,0.8049604396952867,3.469504376303316,2.682158703963198,2.0215007620314918,3.9262781968335703,0.6284777104787076,1.9200474895295858,1.6594794276569866,2.3642062271002193,0.5811174499857126
316,1.507487631540362,1.2700611483138515,1.2856543308215658,1.684787881173217,1.6773613771608642,0.8288132752283508,3.861008280053452,2.0940877129895514,1.4558215788452646,2.0682052331195764,0.6068309995095971,1.507132057505503,1.2658122835146977,1.2873209075490377,0.7449654003131149
317,1.793923224873023,1.586631121303313,1.2732996316620846,1.2698513943676517,1.248039524739879,0.7721607648316796,4.332612655597962,4.56584059134065,1.7442756915281474,1.5415930901557529,0.6403206450210053,1.7929601898045737,1.5868019111375165,1.3332407898492162,0.6574184531727952
318,1.2173079100834885,0.7761283179501841,0.42823797377841877,1.6887021053356044,1.5792787123451175,0.7414983677113772,2.917038940814599,1.4911726792064481,0.9644972326755519,0.6980032222648661,0.648888643467878,1.2164953293248264,0.7722527337405871,0.4140257571840644,0.7424997642558181
319,1.6519055409674774,0.8184886079820182,0.3646923319774764,1.5824955473728906,1.5638234139762206,0.7948032218299642,3.3329759946741895,1.3778091473784624,0.8716815631960684,0.46553809327658796,0.663668482632973,1.6518236289305381,0.8245858906035157,0.3712859640816743,0.7659157981605084
320,0.9981547701884388,0.6218538570846406,0.49832099469568036,1.6350654812197358,1.572758478253125,0.5843602073525226,2.4604076038396046,1.9442539423150142,0.7442609609009175,0.6788753102584876,0.6403206450210053,0.9979528055689325,0.627840349891438,0.5048013395780858,0.898964991173616
321,1.5830370596732768,1.304093513914178,1.2966140227709682,1.694845129899524,1.6878312267985103,0.6545929666395025,2.2542262345516377,2.6546167258384803,1.744888821257205,5.502688162857413,0.6425374456860184,1.5816606314346537,1.3009413891971502,1.2843132344251322,0.9032201955297998
322,1.906335577993134,1.4268475975057668,1.266658643506542,1.5419059372423172,1.5103702715071587,0.7101315329820016,2.2685186364325776,2.6251848987309323,1.8307370320610863,3.785976074025016,0.6038851895711802,1.9062728560168158,1.4325759005808043,1.274129611838283,0.9295445086459788
323,1.5536725920729326,1.5147624956837014,0.2007024498018355,1.480605812573408,1.4693251462720047,0.5191598335908745,2.1908657459975642,2.5842275358699007,1.6121562938983975,,0.6038851895711802,1.553635355624618,1.515863068168982,3.196402969016142,0.8496823533695353
324,1.4545947915064312,1.2243091217408275,0.9989340034715828,1.404873656945989,1.3943397412199816,0.5888686777584199,3.051912862259524,4.036509479119021,1.4538598583911426,1.8057553983921264,0.6284777104787076,1.4537170374373247,1.2197707193157743,0.9860486681269267,0.8455525178439851
325,1.3294093903046753,0.7225521781059472,0.4908405926760748,1.4900624750883393,1.4922016645574312,0.6937890785775094,3.4864997622274077,2.683685392896867,0.8682453009296668,0.9689728753642254,0.6468212168108125,1.3293260888124878,0.7268330482451288,0.4961701890478179,0.6715408097161207
326,1.6108713831362658,1.109279369860562,0.5180227030228481,1.548957168158242,1.5348169479644662,0.8599641501190319,3.65467235624127,2.2779062226759668,1.145232458777009,0.6660612498649073,0.663668482632973,1.6107721354472369,1.1157815372195325,0.5242142299699812,0.7902634559066604
327,1.1136730748558066,0.6328466873291301,0.48681524631631357,1.6919983223895172,1.6415678611248685,0.685140919278737,2.9308042550845297,2.1790635219772803,0.9337220348704595,0.8947531716190039,0.6153451465759925,1.1135905718488228,0.6390763975731358,0.49353779013597937,0.8273021348841475
328,1.3868571559409677,1.1894268331878992,0.8581765462258955,1.1524821739237763,1.0644836479856126,0.6895918825535957,3.3959661316548453,2.773566083570738,1.3382433598512737,1.1803517530670349,0.6125606311107803,1.3867389043590408,1.1957070746083007,0.8640975044616909,0.8500810439592498
329,1.1897886576338894,0.8131041428402217,0.47532486116309247,1.4904256548078303,1.4467256673567448,0.5979220302622578,2.666842742119766,2.2889975280108703,1.0226422473351529,0.6586282405026596,0.5947193981915972,1.1897412220792116,0.8197597491740584,0.482094666685527,0.8077144137585784
330,1.9196694724653556,1.0727238998231203,0.6252585725370925,1.472316678199508,1.4681649843645532,0.9075289862467537,3.6636493184779346,1.401158637722777,1.0727247711050287,0.7587899651616147,0.6380535849069913,1.9196686011834474,1.079402573636058,0.6319587463076561,0.8659478227081122
331,1.728198167947897,1.1488550860137374,2.82004023254377,1.3175183037783251,1.3117346771259037,0.7391344168888475,3.449721631515844,5.26533684313827,1.2243048222484885,,0.6403206450210053,1.728096331126438,1.1551012230217266,2.8272739086588334,0.9198632123434722
332,2.1931800604990395,1.9089111405445633,0.5817608264524514,1.4806461954973502,1.4272315960951185,0.6831945323152299,3.3060872970508344,2.0516908970407663,2.1429141325391146,2.146588617861022,0.6180765742263259,2.1847032967825477,1.904985453903359,1.8166179880817683,0.7403378726706946
333,2.1359778342173663,2.0315443045520154,-4.167522138769382,1.7498610653397073,1.700544010128855,0.7247876343856015,3.523048033069547,22.193652176145676,2.1149035462911385,,0.6566669596287297,2.067073892871174,1.9050530366266774,inf,0.8296080364437017
334,3.235643934770553,1.0539875167776227,-4.289631451548176,1.388124425002244,1.3398277668628378,0.8123629700813801,4.433458980253505,4.8174088672965265,2.858293163272255,,0.62595550513784,3.214717814719537,2.7767467323884447,inf,0.8729449198681819
335,1.9023782127427922,1.5616460650660813,-0.4633835355356406,1.2593334532229081,1.164957466335643,0.771974312932903,1.5478400262837873,0.3329211890866284,1.1816004711848056,0.4068859123871707,0.6528756675646988,1.6762308246546023,0.6947520788150837,0.22731643367340473,0.6469535479858118
336,1.7983756538607054,2.0911912518645925,-1.4830547174060995,1.6908082454883246,1.6660913664144523,0.7773092838537011,3.5576885172465866,3.627593001243253,2.2435501661879007,4.142132573735607,0.6333676938231112,1.789628408219101,1.9840829814115328,2.789666473223177,0.8239062045722984
337,2.305414884609843,2.5775654672245034,-4.882980351834346,1.4320531811189126,1.4130907701728146,0.8772295157193267,4.1867747186841715,27.406290427137968,2.7289564722508,,0.6447042257417027,2.3020296917023457,2.5459200201168146,inf,0.7973065710120117
338,2.5810676372728056,2.418092331983859,-4.999159969256665,1.7212255668431342,1.7110934874072836,0.8873749071139158,3.740240014394383,35.52809117134199,2.427932532689854,,0.6309483474627791,2.5793638601408873,2.4246268912367,inf,0.9306672195301685
339,2.134192623925053,2.121745227133341,1.3481157454389638,1.6112964427176386,1.595782602746037,0.6148075679680861,3.5224169319831313,2.2854759013256833,2.1396007303425284,1.3974084236244537,0.6403206450210053,2.133592717091446,2.1240553960888473,1.3268709406490897,0.938528782889068
340,2.00805570312109,1.6495803940548885,-3.542929516910769,1.2945944528193312,1.2766093022325526,0.6805921556446871,3.85717965556805,24.05251019822446,1.7835932020213217,,0.6207552362147116,2.0079274068058393,1.6529046347529408,5.954973438525567,0.865904607571469
341,1.7982748450141124,1.8328664445415652,1.045321271787488,1.7669894070800412,1.7896852207544822,0.7093742963530035,2.9892247259074867,3.1328527391573933,2.0225847856366017,2.6106446139140695,0.6447042257417027,1.7981129432002303,1.8299850386538472,1.001820373823208,0.9172195925215024
342,2.1433405295814616,2.458490755141116,1.0952622017828268,1.7337610147034526,1.7271019483287742,0.8090250632820183,3.8465348069957797,4.832819694802543,2.4586212956925957,1.0952622017828277,0.6380535849069913,2.143209989029981,2.465299098223625,1.1019623755533916,0.921245644992144
343,1.6460760628420776,1.3337981314330905,1.604126362331332,1.5283771579859595,1.4986846644437843,0.5966847723078812,3.778246959059871,12.315446985312054,1.5606135737396578,1.7724321718776574,0.6309483474627791,1.6460442682218983,1.3401778153311006,1.6089977715819244,0.6179425342724052
344,1.705539155677028,1.3432161714029678,1.0132955245236914,1.3248665079805944,1.3147514315296227,0.8158524455843507,3.423878169719674,8.952069418351424,1.4927324615457245,1.0894500701577707,0.648888643467878,1.7053983035800115,1.3493765106077629,1.015202391586032,0.8816873326060178
345,1.5443842128815446,0.8968367282351355,0.5478223442865144,1.2268150660479615,1.1999703466640044,0.8278883078985748,4.262098640204651,5.260246277779205,0.9823403628676053,0.5409510863538746,0.663668482632973,1.5443786935497998,0.9034891088032141,0.5545534593517736,0.7998745142192112
346,0.8770534002326746,0.3483021689172652,0.20795865498149002,1.4391589813390888,1.406989623143071,0.7910935638834495,2.428955115079736,1.15132993559319,0.4928523671045307,0.2380091444551697,0.6233814453054027,0.8769898937258388,0.354696749167613,0.21421618983175017,0.7968403055598267
347,0.9200665993242543,0.7186699056924541,0.5912729383494082,1.63737095507054,1.6241825911558834,0.4591019091665228,1.7552515983555526,1.8092492007770034,0.9452600432221053,1.2583819359296005,0.6284777104787076,0.9200198988040327,0.72487249461447,0.5968066740195461,0.6870139145172239
348,0.8054240771722065,0.6337634300683805,0.6814494428541005,0.5054801528691883,0.3724914421525926,0.5241042983290078,2.2205359912332665,2.130386507986591,0.8216323794293844,1.1082678208063104,0.62595550513784,0.8054204230427312,0.640388065609567,0.6878780678799334,0.788742929544209
349,1.0120391320444544,0.5927974139107612,0.42819436779561015,0.811868570600296,0.7710608736060759,0.7460193679681508,2.7045796201527765,2.84516743902863,0.7878874956531011,0.9096920586196391,0.6528756675646988,1.012037117913699,0.5994584656298674,0.43489810409006907,0.7687869553552502
350,1.0517044188887263,0.6443985718049456,0.3604773075402268,1.1619206773959474,1.1527300425104288,0.7086384022426312,2.7765346895744485,1.5342792480805705,0.787981761240942,0.5069221944358071,0.6207552362147116,1.0516968966593028,0.6509533974969762,0.3668849220390509,0.7954618264571856
351,1.0764388136749452,0.4526133236412604,0.32693841173017835,0.9353032873450386,0.9179047431793367,0.7838304076919436,2.5973561171153725,2.1153618270287566,0.5435359051354874,0.5895093620052287,0.6380535849069913,1.0764268815328826,0.45924438683457,0.33340130396327256,0.8580459467532584
352,1.6460383403661194,0.8388060899907688,0.32187729825235145,1.2526894784941698,1.227726024311985,0.6984158866064796,3.3621485654984395,1.6071869764931104,1.004059128446873,0.3389975139973544,0.663668482632973,1.6459866429589671,0.8454747757997075,0.3286382861521584,0.8571450245679074
353,1.038889394387564,0.4261242569488224,0.3196640121392036,1.3547431289538374,1.2531424646412672,0.6973926886256216,2.2945578698830738,1.5970587676560624,0.5473178383268007,0.4931848974546531,0.6425374456860184,1.0388036859792487,0.43256453638732084,0.3262081321830505,0.679049040153281
354,2.055200025685768,1.8534840784768631,1.095262201782829,1.4079503729003324,1.394473910245484,0.703347261795331,2.7196163838464558,2.9665543147415607,1.8535665434512418,,0.6097226960127671,2.0551175607113894,1.8602443459822713,1.1019623755533916,0.9390496170786552
355,2.2716533601310243,2.3301779245915535,-4.601831284722578,0.9638653623083789,0.9077995605391698,0.679470427630859,2.8924078362403702,3.728252146840346,2.7356714929182715,,0.62595550513784,2.2716248999124695,2.3368841873411363,inf,0.8258730946117967
356,1.644324996196788,1.0193408414367842,0.8750854267931474,1.2788688616243509,1.260105509164446,0.8516126216999449,4.1308710672563675,39.752946555204396,1.4302954061937465,1.9293339465608508,0.6425374456860184,1.6443169531908617,1.0257954085709562,0.8772675300784188,0.7369478697373648
357,1.7658894872749222,1.6038857336593657,1.162315386417586,1.4547773863932847,1.4493192303992541,0.821990347336096,4.524121422843078,26.742542143561234,2.4399978916938987,,0.6528756675646988,1.7657019349087653,1.6027056239303992,1.168066095862692,0.8813702041722266
358,1.8029223364385336,1.413196603063748,0.6904387123844238,1.2945413494060438,1.275073828236404,0.8057314093249335,4.010913719418786,4.511503927743651,1.7836670963894061,1.420820140671278,0.6468212168108125,1.80282041658748,1.419951878559844,0.6970588927286339,0.7348688700508142
359,1.6186876451791599,0.9888110448747218,0.7912872456752309,0.7337189625618088,0.6978635318581523,0.8499898958677751,4.637101108321779,6.062282238524398,1.1364142807204742,1.0843794524955601,0.6333676938231112,1.6185347187540988,0.9949631654068883,0.7970766593137653,0.8535566835498116
360,1.5201293465053445,1.3108004065479328,1.400424362907288,1.5300199801884307,1.5165982538883525,0.8669291549489491,4.921822587246433,27.460079198745632,1.4478260038518993,1.6218445019730403,0.6447042257417027,1.5199019471232456,1.3152243365469407,1.3795044444264166,0.7690929077149493
361,1.8455988473704572,1.946175289003936,-1.937351088753507,1.7162402276080486,1.7119090972749853,0.7690588614154023,5.922439307702673,69.27505180143002,2.0465468273979552,3.865596727657964,0.6619902821573977,1.844457258228504,1.939954622606996,3.0484420899735194,0.691065065583198
362,1.5547533066062693,1.084053546909738,1.2665271637613422,1.4140757150263885,1.3431184644949663,0.8669907092106826,3.846432066577181,3.740457647311272,1.3675401904791031,1.7397493614616837,0.62595550513784,1.554686714602816,1.0902322050593043,1.2737930739168224,0.9117696385814501
363,1.7135751521807137,1.5831529894156409,1.2824455345998813,1.136431689490831,1.1150174886322755,0.7645666731559126,3.6947820715485613,3.7948645921873436,1.7242104661590851,1.1607061100352116,0.6447042257417027,1.7135646216429983,1.5895990197477918,1.2865707364674623,0.7783078311819367
364,1.4732096117217228,1.1240718497323416,0.7659294600652484,1.5505107023833355,1.54487333165239,0.8160995344846446,3.97724677767287,6.217960301171433,1.3847145231656475,0.8511673681063274,0.6447042257417027,1.4721427782459282,1.1300470321568044,0.7559480817989757,0.8425896836586136
365,1.5898974980061429,0.8080553979450451,0.7517551301231271,1.4754353956198278,1.4461915601311228,0.7526012698871962,3.7991407526753775,8.492766013785543,1.060197703030476,1.4458544156199893,0.6699045166045591,1.5896897528521965,0.8124701561495637,0.7423302045080447,0.868497776829804
366,1.6796386302845403,1.4558555856446098,1.4629869819081445,1.5847332566629149,1.5524806090752536,0.7273812978185076,4.108803777822013,5.884637944566167,1.6229263313011109,1.7583590442788029,0.6528756675646988,1.6796219692912049,1.462550049168974,1.469687155678709,0.8449329508440665
367,1.5821766667075148,0.8601703686616895,0.7698398013482,1.6471736648580282,1.631638414525183,0.8324920347580977,4.13724843843766,22.020338560640656,1.1026960444217737,1.2204909206573793,0.663668482632973,1.5821470521981966,0.8668777857020369,0.7765399751187637,0.7961590926176706
368,1.7127800228384251,1.2796133494500508,1.095262201782829,1.4713882989645501,1.449552813292787,0.8632961552919003,4.256758409524476,6.967412618672621,1.2798528995877652,1.0950392114819818,0.6447042257417027,1.7127634630015571,1.2863077118179485,1.1019623755533916,0.8919323001222256
369,1.7774355688171515,1.2149578034713244,1.6060878255488187,1.5706699104416675,1.5520461748752565,0.8389362359141043,4.01816559543755,4.056671561886543,1.5251518542000282,2.394545185913089,0.6380535849069913,1.7773964463922876,1.221674728427218,1.6127879993193823,0.7724894844133101
370,1.6242406268710425,1.378262978130722,0.771773749647227,1.5155900546441199,1.4971724042706995,0.8512850518444754,3.9942708336195443,7.555321310666615,1.5120531193539026,0.9786018202260316,0.6668815377411301,1.6242131980162546,1.3844917468417748,0.7766854096367507,0.6362197619339921
371,1.8414000239268837,1.4109443896273506,1.2556631981980733,1.5244562996971878,1.4759474508684813,0.7655579516714386,5.174940302730707,8.496447551125634,1.6464320460651138,1.11074923698399,0.6566669596287297,1.841299914788191,1.4160857648418852,1.2484420630257518,0.641167227160082
372,1.5606477482646683,1.048753371767702,0.8904677891368147,1.5140502339526134,1.4821906717876603,0.7132232627089626,3.758762804341997,6.259144778910478,1.3669980946296498,1.5071426179825151,0.6447042257417027,1.5606477482646683,1.0554311742987315,0.8971679629073784,0.5955827263888531
373,1.6605572893945326,1.0949326563910429,1.8400951238055598,1.2372390081741746,1.2090668958202553,0.8796795119133626,4.17110342269407,29.280809960944637,1.2672990675381945,2.076091454794554,0.6207552362147116,1.6605557836127105,1.1015986764827004,1.846354627158195,0.8006297080425182
374,1.195100530663374,0.6818472096840844,0.41795806783335143,1.4390993684041602,1.3521890526360862,0.7894863263947027,3.6167157125690697,4.593962553346342,0.816059667435654,0.4278508020450232,0.6309483474627791,1.1950864790032454,0.6884959242116615,0.42468547291463704,0.7229117833509047
375,1.049822124498678,0.9370493821877008,0.765783000652585,1.5193688893796646,1.5194136609149296,0.28628650442172704,1.9528629684704162,2.0106771550377864,1.1098075476717908,1.0525571645469356,0.6038851895711802,1.0498221244986778,0.9437271847187302,0.7724831744231493,0.6430731743949144
376,1.024011649779008,0.7497454303551672,0.648360692973236,1.2496045661718778,1.2312884967051434,0.4868205550670439,1.6484147957301625,1.4677477930613492,0.9081136207534689,0.8495702990777139,0.5978297680564633,1.0239996819590638,0.7563583645445486,0.6538554889688696,0.9253050890638781
377,1.3997173814520314,1.41035443404249,1.5007273098909923,1.6081379694888638,1.5955500589351372,0.5079982364086695,1.1528162139343838,1.1823528001059866,1.5208480486890088,1.3902336952444738,0.6357360191111145,1.3997173814520312,1.4170322365735197,1.507427483661556,0.8655413865290238
378,0.7147762121872587,0.3388967079259957,0.2676529275100481,1.153895685706709,1.1334686922671284,0.4011367356998109,1.4970869240434148,1.1368122241578327,0.47939502592170224,0.36772144123983225,0.6284777104787076,0.7147567727676714,0.34543640599649367,0.2740570587998432,0.8172704573109046
379,1.081142474417904,0.8750036010761773,0.677806578296205,1.7642267046982056,1.7496475426231313,0.5527309552648406,1.913065086787834,1.448307015513543,1.1836689962701663,1.1838687509940307,0.6284777104787076,1.0807396271334793,0.8799119785768696,0.684893390040464,0.9389431688374049
380,0.7727690913736847,0.36854528139841203,0.3331430622801519,1.5425281677415403,1.4965111987995767,0.5037146974577221,2.4148649295586653,1.808482896855895,0.4996981052048183,0.5151390572045189,0.6584896970785714,0.7727196284525768,0.37466282458496236,0.33802040347392664,0.8187718047949288
381,0.6748432491566558,0.2582051103866061,0.2093009548119622,0.9738650784329583,0.9283994302380468,0.5146585954979757,2.04737331204709,1.5243067429891397,0.3726658147850924,0.370442621318473,0.6380535849069913,0.6748053146454679,0.2646971823706247,0.21564487039389524,0.7435308648066499
382,0.9894518030539401,0.4668757092510698,0.2030602162280799,1.4591950294793261,1.4128998970838997,0.6873671150881538,2.8273620496241954,1.955709473940205,0.5211064048517678,0.25046460145730143,0.6668815377411301,0.9894290887866176,0.4735543504546948,0.2097493235651017,0.6578613408341297
383,1.7680456213115334,1.02611343340779,0.7057098544498617,1.4227245954301748,1.3795573744791325,0.8159670937721284,4.163312656695326,5.694763942539102,1.1598770105876486,0.6897970936746634,0.6357360191111145,1.7679778405632565,1.0325532133331188,0.7127158315744031,0.8881164739951684
384,1.5912283566594727,1.3366264944914317,1.3829442742346094,1.597128314717998,1.578367944455056,0.8462910784296616,3.8880213859748225,10.28403997563663,1.6346865592452478,2.4711908726671195,0.6447042257417027,1.5912160545930374,1.3433165990888971,1.3896444480051726,0.900726046502583
385,1.8182621323518238,1.3913853612548153,0.6956865236707106,1.6294709591186947,1.6181318618913678,0.7582938465861161,4.8756508338727205,14.282027003797765,1.6587798212176388,0.8339843035275576,0.6309483474627791,1.8180350006403176,1.3980668973451578,0.7026100955934671,0.9311508317015468
386,1.7544158377076269,1.3069704060678002,0.689797093674664,1.5368923907478445,1.5414822086954179,0.8524551100724559,3.7500564960267355,5.987892403134861,1.3810947554581723,0.7698398013481998,0.6309483474627791,1.7543994604709774,1.3136645858354796,0.6964972674452273,0.8575578623958322
387,0.9785872629734479,0.44860489261909653,0.2489031045944654,1.4954580762658392,1.4380511073885176,0.6815531841233371,2.3604628106465935,1.3986427549382805,0.6965119498771224,0.38441544412348133,0.6357360191111145,0.9785799327784148,0.4552720191083622,0.25559163186967687,0.7008868191339904
388,0.6287990916085596,0.2511300149190714,0.16349851903586854,1.6442258549756257,1.5784671922832776,0.4852916035207223,1.9510741374508662,1.6920822447778656,0.3093877093284651,0.256604909278429,0.6333676938231112,0.6287961770026967,0.25780091813904693,0.17020169071295557,0.8236273678869348
389,2.269795270171055,1.351206761539796,0.46665354236045387,1.551237868400225,1.557450977058049,0.609012403657009,2.7023153341907067,4.240680223023185,1.8212103907855313,,0.581717464821069,2.2697952701710546,1.357884564070825,0.47335371613101757,0.8515260484355376
390,1.935098603993732,1.7502128609543468,2.011782021557326,1.7153895956910306,1.7203947034987885,0.4962125800243391,1.9977066841548303,2.4309982811565245,1.81959618543099,1.9425600621700312,0.552929491858785,1.934937238904383,1.7548314993944374,2.0207027245081775,0.6592576932860603
391,1.1426473286387226,0.876029485857694,0.8037730682567013,1.2530405641693518,1.2264160458301325,0.5084644581390664,2.6246483857335656,2.0113559401285865,1.1238225281431007,1.2334125402636449,0.6468212168108125,1.1426338407624395,0.8826562726663121,0.8102147430265728,0.6635472041282839
392,1.5139272275982483,1.0942972041255514,1.1411665380400553,1.161906590404241,1.0979572296415072,0.7647241312466858,2.8642068527661353,3.0011316011079416,1.190785567005607,1.3829442742346088,0.62595550513784,1.5139257328310884,1.100937753545004,1.147782117977453,0.8372878460123951
393,1.6107264581716891,0.8316205771975151,0.8568511783378292,1.3015417318350806,1.267405421863903,0.8488093054815435,5.425788863920174,7.402821387041364,1.126455795436382,1.1351554181068113,0.6008849035917525,1.6107165072659861,0.8383083306342476,0.8635513521083934,0.7835890359294008
394,1.7770768570732196,1.5355035928638627,1.6913658560083777,0.9583077156557401,0.9323140968070737,0.8060160572284003,4.051980661466389,3.447195563056618,1.9770535270977427,1.9430377311545137,0.6425374456860184,1.7770022282531481,1.5416939318972636,1.6986281220966406,0.7231696925007384
395,1.6066351889507031,1.3147314083603152,0.9839674199663313,1.3922801874843707,1.3835544121015666,0.7792828010534567,3.694559292934408,16.894288907058915,1.3212462657269646,0.9774791661264444,0.6008849035917525,1.6066085854239407,1.3212573768998044,0.9908460312551974,0.7592393623145152
396,1.91959284073794,1.1417934030374872,0.8439477735019225,1.372771093297082,1.3546550979882952,0.8143571683186577,3.8375044467983077,3.517082522037915,1.2912172563243836,0.8768454770089806,0.6357360191111145,1.91959284073794,1.1484712055685171,0.8506479472724855,0.8033499726927931
397,1.7865661149745324,1.4347909676241148,1.0894420427868665,1.2732903870241943,1.26328068044206,0.8693508800334635,4.366319163798668,1.463888448099806,1.6140310285100825,2.296555835048715,0.6309483474627791,1.7865066229466067,1.4412978326658956,1.0963726460746048,0.8552293121331341
398,1.4995409915861708,1.2564636026380753,1.3316509798470588,1.3594525255170538,1.3485616401591551,0.7867568565810333,4.182279239391239,1.891533152942456,1.5985878493430816,1.21267355930819,0.6284777104787076,1.4995377167342423,1.2631446800210329,1.338351153617622,0.7614373115452826
399,1.8119621765455742,1.4905861240467424,1.7013980053531434,1.7480851574572434,1.739339342298328,0.875622151659305,4.1639649781223635,10.116621827865664,1.7388214250602165,2.1463098848996136,0.6207552362147116,1.8119621765455745,1.4972639265777707,1.7080981791237073,0.9057243887456253
400,1.2345245810915704,0.639850377532954,0.42538910849044664,1.3774534375041532,1.3047225922618022,0.7671771743940241,3.421383027147468,2.660228931047086,0.7523631269349585,0.4521254417975437,0.6309483474627791,1.23450837975142,0.6465195572348171,0.4320565264445172,0.8453249373337209
401,0.7487853752997233,0.16515368101028893,0.13343289726649932,1.5924862861988651,1.5061536706826977,0.5958664014828481,2.30088716208056,1.7610695099815827,0.2121288727364317,0.26274759914266604,0.6528756675646988,0.7487773509942447,0.1718282320311848,0.1401330532145987,0.7082911483282192
402,1.5486151120648677,0.8286076661055237,0.5640902076615792,1.7425687378396464,1.737724373494644,0.7396184320331988,3.9099739961127797,8.454400922429048,1.0889594584985072,1.1190114675184821,0.6713451011121618,1.5484996143290208,0.8348136063703973,0.569572442585989,0.7964768431300011
403,1.7841684620978526,1.5026654092053668,1.7171124346422406,1.431237354010813,1.408347948693116,0.8419919840267832,4.536495674183312,19.127908091502636,1.7190969539556233,1.5007273098909921,0.5883313578629602,1.7841220420988437,1.5088190207934598,1.724383219354749,0.8358483863599896
404,1.6433974365854886,1.1666743789090328,0.5844365780168372,1.3672825464086404,1.2798717286897257,0.8484749593154853,4.047756756441244,15.640602826604532,1.2713749739103108,0.5637018626926962,0.6509067234006624,1.6433969370256858,1.1733526809998651,0.5911367517874009,0.8308669811751562
405,1.1772370945213058,0.5161187670639089,0.29033128044803225,1.5703456540287388,1.5197067350672628,0.7574101045543569,3.267040913879954,2.3079780948730857,0.6314005860300387,0.25088405149895876,0.6668815377411301,1.177222689250021,0.522808766051504,0.2970316471124086,0.9073910516738616
406,1.771956841931875,1.220436530356601,0.5074755368807091,1.599034645963599,1.5910513932571382,0.9328708776997184,4.89575609305851,7.36606444894259,1.2894294018435526,0.5562657010501406,0.62595550513784,1.7719568419318752,1.2271143328876304,0.5141757106512727,0.7230424620921677
407,1.5456351545696363,0.8241851105663194,0.49670457558039294,1.3051642306499431,1.2841952750964665,0.7993933100409301,3.349528061120797,1.2083726020242134,0.8985207096695992,0.5487041340849981,0.6566669596287297,1.5456288239345093,0.8308420436787367,0.5033566764072475,0.7814360870862037
408,2.0535549115468945,1.5674471201639566,0.6897970936746627,1.7345335093989673,1.687816424211754,0.8527568366790393,4.249435441892948,20.69065145441673,1.70106281064385,1.249412881610086,0.6509067234006624,2.0534706136915233,1.5742092205503564,0.6964972674452273,0.8146375001559153
409,1.8030729853258656,0.9610090834904361,0.35072318566273397,1.4703722439729796,1.461813202290679,0.8581502661867779,4.033894206193897,13.253282521220127,1.3389240222861474,0.7633873334844363,0.6309483474627791,1.8030226615067657,0.9663711698364963,0.3526578088893988,0.8021714823878247
410,1.729386556395056,0.9238170057458788,0.47894056690293363,1.6549032840790596,1.6304960538351168,0.7711475401818623,3.908254520307775,4.526578288956056,1.0574005402019984,0.93700970151146,0.6713451011121618,1.7293482091066579,0.9300705705838153,0.48610332565498776,0.8486775416218411
411,1.705265608640755,1.5116917192108787,1.3709047330830781,1.2248445771436587,1.1890212502806927,0.7215429771969352,3.594693609757472,5.25685605151893,1.8025345471828875,2.1894052092686405,0.6528756675646988,1.7051537300538766,1.5181764451637045,1.376299830394895,0.7775118688037921
412,1.3483892653399892,0.634621225590394,0.36471021862640773,1.6758282217733402,1.6300562894132533,0.741918380088807,3.065752514871536,1.6051017212474674,0.7484695121996499,0.42225641116443197,0.6068309995095971,1.348313732793377,0.6411652354087293,0.3704998604355389,0.7203169740345927
413,0.4702667701489794,0.19843583168522344,0.17145084338293592,1.6360985915134616,1.5662360213495128,0.4421168211195641,1.663206509746675,1.7343679379074384,0.3119448737918639,0.4032993114004426,0.6528756675646988,0.4702525491126041,0.20505471331901018,0.17806083648268223,0.8141718899156636
414,1.262594712010557,1.0794929472633659,0.9822656306756157,1.5201072506064763,1.5136980991349303,0.49875421408415177,1.5965965739023318,1.3172839403633994,1.3865108282191012,1.3308341432082098,0.6207552362147116,1.262269120232909,1.0821801768598356,0.9794784490781102,0.9483879478575726
415,0.4167966212726444,0.2046154142440798,0.1742893770305628,1.7191103894508402,1.6620563459818198,0.2794390259994947,1.4118534684918138,1.1862799002697115,0.34012284304702994,0.4592345885479151,0.6547956803312163,0.4167451559766104,0.21111378455521781,0.1805494581409912,0.6234049325188699
416,0.7385518611384462,0.4853193974050839,0.3512642738690528,0.29775145941860326,0.1932094549200529,0.3646136349706653,1.4987612551265361,1.5374571557734789,0.6772337357368227,0.6007805578951322,0.6284777104787076,0.7385397896284769,0.49196713664066477,0.35782202295472343,0.8039489982009687
417,1.0860675197516154,0.4399887837434344,0.2792168848997283,0.9524181003372675,0.8955352264182609,0.7431239962187202,3.5264546254499214,2.3993540479875395,0.6440935697418066,0.636296537197335,0.6584896970785714,1.086058090096758,0.4466760159293205,0.2859170586702925,0.7864936289973365
418,0.9852836033611064,0.3207108153571411,0.21671179789152006,1.5178364552143755,1.4621254689609333,0.7356832358035891,2.4566675045900874,1.312874123482588,0.3460508566097066,0.2556005683846935,0.6180765742263259,0.9852836033611064,0.3273886178881704,0.22341197166208362,0.8577578035277181
419,0.9675840262617055,0.42879445392481097,0.3688893735945624,1.1879459105841907,1.1775312700107332,0.7790680334267331,2.823130738880845,1.9902127015423408,0.49875304253172137,0.4465667837937162,0.6038851895711802,0.9675840262617056,0.4354722564558403,0.3755895473651259,0.7854753301271179
420,0.9667428485199286,0.36519129155163077,0.28819753659624037,1.3405544992499752,1.294896305358848,0.6937099490437436,3.0260085071581035,1.4111034540255094,0.5017356268175086,0.399980030844245,0.62595550513784,0.966736432354556,0.3718688997232566,0.29489761213891935,0.6169840917801407
421,1.8285360574624272,1.2208514260544001,0.8565583510652002,0.9523698642429669,0.9374596781311062,0.8587875687450138,5.2788034596974205,19.103822553560434,1.5697003722131593,1.6329658849729087,0.6333676938231112,1.828492612284276,1.2272255981998819,0.8635532236688164,0.8790340011758022
422,1.7068471346690415,1.2980211406976272,1.1067490223356926,1.6256965930613492,1.6223592139407903,0.729684625058682,4.358782537546676,22.943598323251464,1.5884719811335857,1.9698590184687867,0.6233814453054027,1.7068057633478915,1.303701795788254,1.1122364776076532,0.7529761983149887
423,1.214886236274477,0.4960834908362106,0.24774348850500005,1.3871642086675997,1.3948550947968148,0.7634657544202846,2.6718101554952134,1.215169857002647,0.5343158878086942,0.2590141775822091,0.6333676938231112,1.214883967000565,0.5027580063095957,0.25444105004917605,0.8701858107243678
424,0.7983621060154484,0.21905716694867006,0.13510292282074476,1.5017331732826107,1.4558856973840166,0.6348558316641425,1.8819417448959788,0.8029467007011184,0.2984199787578034,0.19502804116248332,0.6284777104787076,0.7983595590424766,0.22573293751948464,0.1417998455894251,0.8648521534138922
425,1.4183269819715811,0.7653325946781033,0.6179820103636904,1.5083386187332664,1.4779719786052816,0.7282435548200477,3.7636960717724985,3.4402163709534976,0.9386888727759325,0.8557906641523398,0.6125606311107803,1.4182667403631632,0.7717836332250558,0.6248429231320402,0.8584614800084667
426,1.2269312122186358,0.549605427030424,0.3816480264769295,1.6935762129419423,1.6411611338604155,0.7208093248913925,3.256254811962899,2.320473042480716,0.6669944562287488,0.4274901933259318,0.6380535849069913,1.226786627391618,0.5562774234692135,0.3883953185893616,0.8117736595386921
427,1.7897982157884442,1.2367072286105159,0.976403327288248,1.7035392294977874,1.7113934887367857,0.7805341823245949,4.91649610458136,13.213578308114936,1.2981420357430185,1.4426131375957352,0.6425374456860184,1.789628408219101,1.2418461906550642,0.9705946872387649,0.8292345600302696
428,1.0548620353671838,0.4338123190206018,0.2640874828798101,1.7239565666093797,1.6888735520856297,0.7985994807563017,3.6395802866753826,3.1634840875193944,0.5411545787701262,0.31453719852943385,0.6619902821573977,1.0548506192292406,0.4404652718784606,0.27077583137177597,0.8798409265464375
429,1.292036457632986,0.43572210325353167,0.36301415629481526,1.5629304964864272,1.5075244258058216,0.8234922735127223,3.1761110760614875,2.244395909232202,0.5164919823218584,0.38188104288154395,0.6333676938231112,1.2919947928214894,0.4422507702059591,0.3698530363192874,0.6438647665266904
