,bvp+eda_XAp0,bvp+eda_XAp1,bvp+eda_XAp2,bvp+eda_XCond1,bvp+eda_XCond2,bvp+eda_XDist,bvp+eda_XFuzz1,bvp+eda_XFuzz2,bvp+eda_XK2_1,bvp+eda_XK2_2,bvp+eda_XPermEn,bvp+eda_XSamp0,bvp+eda_XSamp1,bvp+eda_XSamp2,bvp+eda_XSpec
0,1.013356538509355,0.6439194343196117,0.35077233733035107,1.204169733252056,1.1389468496867072,0.5711699311210232,1.2810463283497944,1.3828320984797215,0.953730829962774,0.6552682885409303,0.6727386042041725,1.0133524447172864,0.6506003200231123,0.35747147279213165,0.9055651553003835
1,2.082997310591577,2.4861209625478544,-4.5691182731394315,1.3920985819562812,1.3803585056090948,0.7400053551918807,2.249480422110643,3.0255582904431506,2.9243821616719328,,0.6447042257417027,2.0829142311588087,2.4883914408765264,inf,0.9228888042470267
2,1.860803608019797,1.572292503031635,1.1653850867858626,1.7219175133610587,1.6681399664668435,0.5134467940795735,2.3385080731273558,2.5529039379122045,1.760249690995844,1.3829442742346088,0.6684167106117298,1.8607523407150064,1.5778008274909179,1.1733060059329636,0.9142335899075072
3,0.7679243318794227,0.583912062239107,0.4068343256878404,1.148787526209933,1.088740538881641,0.3742737594873793,1.8308563990896098,2.225037326461178,0.8545907846650078,0.8755001454479153,0.5947193981915972,0.7679186206230812,0.590544427348221,0.41349379396057306,0.9467912706413537
4,1.6143680004735719,0.9636641499854008,0.5541119785848956,0.9152589859564231,0.8934550972358192,0.8326356459510175,2.7898566827143916,2.51054285701242,1.2528914383006589,0.8839531081156208,0.648888643467878,1.6143387910338114,0.9701672239769438,0.561016090334706,0.9011894869303986
5,0.916041767789714,0.31841724082047784,0.21399643750700847,1.3103549362090063,1.2882233914697816,0.618967998047875,2.441815696886513,2.492627826196162,0.38995365559930006,0.5198980568792658,0.648888643467878,0.9160407631189477,0.3250956124690505,0.22069603959452988,0.8549169487093746
6,1.4132776813342909,1.579115690954185,1.318405753097038,1.375099083801639,1.3250045819684793,0.3037859887413301,2.524378599471817,5.786321856451345,1.986589813007886,2.297226301047683,0.6333676938231112,1.4132773724498353,1.5857938023696703,1.3251059268676013,0.7401488064917485
7,1.308638014736893,2.104843231128764,1.3992190653219962,0.8072179296610285,0.6737302715086363,0.4188560239694773,2.0126225848304884,4.161729933276957,2.563383914034779,1.8250755963662824,0.62595550513784,1.308633976104343,2.1103879904703646,1.3331026323700472,0.9209214323391278
8,1.4991908504195965,2.2553425739157773,1.9425600621700307,0.24951709126596466,0.18574417027352672,0.2830650557359393,2.220156843344518,3.497995749747254,2.255344061631875,,0.6547956803312163,1.4991893627034982,2.262021864162904,1.9492602359405953,0.7922204550700659
9,1.108662624521611,0.9029014947551388,1.2876340944302838,1.2202032164625503,1.1949664122505348,0.4851074487791257,1.7085599835253014,1.713579712703163,1.1573622914595358,1.2338439931880383,0.6447042257417027,1.1086626245216111,0.9095792972861682,1.2943342682008476,0.8036468319985538
10,1.1498852692834596,1.234652336804589,1.168294144617899,1.3680817097236657,1.2926135724633132,0.4811472757197614,1.82313689074885,2.315551761526829,1.6280581263996792,,0.6125606311107803,1.1498354100792445,1.2412166642371314,1.1734488583039722,0.6969751095101601
11,2.1020888833219753,1.9889167776346102,1.6060878255488191,1.4356410531530037,1.4297523847896092,0.40405719406663576,1.8788457609672666,2.027360622001484,1.9890003502013007,1.6060878255488185,0.5641709578113449,2.1020053107552856,1.99567815273233,1.6127879993193823,0.9476319687497149
12,0.8321706767185055,0.7641438243380436,0.6896205796961392,1.2923294968561154,1.2392903999287659,0.1390529456801614,1.2792086471307664,1.6058369220301218,1.028801446608244,1.2933742627160085,0.6509067234006624,0.8321538526679554,0.7707498984152136,0.6962428159784343,0.7244751711195087
13,2.482302610786895,2.5249937820438464,-5.0072963928307415,1.6952116601763134,1.692725948486076,0.9347828548195815,0.5072718365098826,0.9858230997852822,2.5250528604622247,,0.6509067234006624,2.482243532368517,2.5317306629932537,inf,0.8925664480304403
14,2.228712502060892,1.8622931588956932,1.6060878255488191,1.7071232832646377,1.6657379837387432,0.967961395485093,0.26355309197831867,0.49634940861314175,1.9658978047312683,,0.6602640781246099,2.228612050577852,1.8690714129097634,1.6127879993193823,0.8697066282628924
15,2.269795270171055,2.3320360145515227,-4.601831284722578,1.6537155356845403,1.6324178799385334,0.899730742906522,0.3002187547219542,0.6099791702601267,2.7375011226596864,,0.62595550513784,2.2697952701710546,2.338713817082551,inf,0.8573262193325013
16,2.3364866446697268,2.6708097481610147,-5.0072963928307415,1.6753626165980997,1.6715715354886471,0.7415405850638045,0.4853630844462503,0.9033498369678175,2.6708097481610142,,0.6207552362147116,2.336486644669727,2.6774875506920432,inf,0.8170269938157879
17,2.123951504128058,1.543049636078866,2.030092346298481,1.778544870057323,1.7292847993263745,0.6370794329039401,0.4011050250438023,0.7012665476817468,1.8536233584741022,1.7197747839831983,0.62595550513784,2.123695344048104,1.5479992853117317,2.0387768334471623,0.8604598460375431
18,2.519457394195327,-2.519457394195327,0.0,1.6992109669728865,1.6753084139479715,0.937778360945501,0.9507111761551057,1.9170041659396508,,,0.6180765742263259,2.5188082014636817,inf,,0.8868060519929202
19,2.4300957522938886,-2.4300957522938886,0.0,1.7151733716367892,1.6692817800065651,0.9632413071162912,0.9636301435290904,1.7790792793065284,,,0.6468212168108125,2.4299135414939608,inf,,0.9020206415731877
20,2.400793305298267,-2.400793305298267,0.0,1.7327472230796093,1.6993027646211296,0.9601942403865902,1.0524919117851832,1.741714727231456,,,0.6068309995095971,2.400688057883602,inf,,0.8953318187996048
21,2.6880462337927424,-2.6880462337927424,0.0,1.689499586278047,1.645724809786388,0.9517908365393108,1.166936929830891,2.614295422404939,,,0.581717464821069,2.6877574978344474,inf,,0.8831200538649564
22,2.794966228668075,-0.2593174150862638,-2.5356488135818114,1.752615405943298,1.7066952795804067,0.9023772577118759,1.290009147563922,3.0152035502023047,,,0.6602640781246099,2.7943345696992226,3.7228812513914256,inf,0.8712383512325066
23,2.740535954214325,-2.740535954214325,0.0,1.7277338191993485,1.6865657140751957,0.951256011896663,1.530112426072163,2.2544766447176574,,,0.6468212168108125,2.740229099466445,inf,,0.8513105710381033
24,1.262342806607913,1.1727562215238703,1.3603008369872955,0.5949986175661477,0.5936344358883939,0.12321982177058094,1.3354178075321803,1.312338033439286,1.3646354422029774,1.6498685357128686,0.6380535849069913,1.2608567460328854,1.1647752122926427,1.405323224013836,0.8398256183802343
25,2.275999034991093,1.9392700693914002,-4.215269104382493,1.6431778827872692,1.6239952628257683,0.8705669712371427,1.213091924905118,1.0851025256327338,2.0722238697840774,,0.675384900321601,2.274213618864355,1.9336729847568745,inf,0.9480544988439381
26,0.9421013110209076,0.47406508906612155,0.3192029510805017,1.6170440581228098,1.5626069024739275,0.12163692565745197,1.6282071291931184,1.1907986049927173,0.7333830618554809,0.6405028402762053,0.6447042257417027,0.942007479823272,0.4808125626460685,0.32587993729826753,0.7103867704822708
27,2.6127400212978853,1.7014091909729108,1.3829442742346085,1.6136599518015182,1.6016252635207442,0.8611588245264029,2.1098430352521222,2.1075050242525206,1.7014091909729105,1.3829442742346088,0.6357360191111145,2.6127400212978853,1.7080869935039398,1.3896444480051726,0.9106381791072439
28,2.870569130599985,1.7312621541225925,1.0952622017828268,1.5430716253586811,1.5184329577036972,0.910915373718844,2.132234967892101,2.3660915382435004,2.829874442790701,,0.6566669596287297,2.870569130599985,1.737939956653621,1.1019623755533916,0.9114650506199851
29,2.75934349548976,2.9411000779009266,-5.700443573390687,1.4496581474720656,1.424090072854026,0.9372993805041213,2.102034601438291,2.988860556704941,2.9411000779009258,,0.6125606311107803,2.7593434954897607,2.947777880431955,inf,0.9213771065804658
30,2.4079456086518722,3.2924979647388146,-5.700443573390687,1.3549062627293558,1.34958852892198,0.908830021845808,2.1554452623687377,2.5699974709954674,3.2924979647388146,,0.6284777104787076,2.4079456086518722,3.2991757672698436,inf,0.9293333879942469
31,1.670052984094002,1.1145222487948048,0.609933160622552,1.180431528799793,1.1300059884569107,0.40793111802280857,1.3827658395115263,1.1896060669856954,1.2553357063130621,0.8253544352996401,0.6468212168108125,1.670013924320906,1.1208745550903088,0.6169978904017374,0.9295057525136999
32,1.9902104079518939,1.4076480724447475,0.9129406449888724,1.5707950756559637,1.582929607943445,0.7740901091377003,0.9070170486664486,1.0526946576075182,1.4076480724447475,1.4184671348931215,0.6602640781246099,1.9902104079518934,1.4143258749757768,0.919640818759437,0.9062712172824988
33,0.6695883234685436,0.5163546419667966,0.33148040888289976,0.5837147275536936,0.5572821426746069,0.3333936302407826,1.0213591039567185,0.9671773767624079,0.6629807765880077,0.6225553196342061,0.6425374456860184,0.6695825752043021,0.5229741596403494,0.33812134372880176,0.9632724362927897
34,1.3309383509933275,0.7249690997537126,0.42724172700670415,1.7423039566645953,1.7113727211631296,0.4818444593946855,2.4240325966111893,1.8036111282849756,0.8653403539941626,0.635948557021379,0.663668482632973,1.3309227278071367,0.7315961466767915,0.4339206911177965,0.9578144741927882
35,1.6026608986341038,1.900558097420364,2.193874490450937,1.5658686137810853,1.5640597964598741,0.3154556924016444,1.482262086324959,2.174756776177857,2.488377840451035,1.6060878255488185,0.6333676938231112,1.602627820505551,1.907268978079945,2.2005746642215014,0.9386052495139989
36,2.748058970724499,-2.748058970724499,0.0,1.4367989087480435,1.4058628665990063,0.9447868567363609,1.6490726203754682,2.328807812044513,,,0.62595550513784,2.747831071114055,inf,,0.8898727811055838
37,2.585920791213482,-2.585920791213482,0.0,1.5118089685517098,1.45521128986687,0.9513544571569501,1.923213106333172,2.6413799529998094,,,0.6068309995095971,2.58568508662856,inf,,0.9065568218057692
38,2.870569130599985,-2.870569130599985,0.0,1.5470213530958548,1.5024520455783932,0.9437212822119679,2.095814870928663,2.460654078979605,,,0.6668815377411301,2.870569130599985,inf,,0.8832265609529724
39,0.5219242276234669,0.18121713730771538,0.038031201216230937,1.4462791888902895,1.3993607700558646,0.27637326849121513,0.8082711519711233,0.3512659327630884,0.2291905507200309,0.06317699239658611,0.6309483474627791,0.5219240208024165,0.18789469404550085,0.04473116793230372,0.9519215642236363
40,2.4350596192435128,1.6138718362990834,-4.048931455542596,1.7785152421718438,1.7454759392881734,0.9442581927392052,0.21719893132821663,0.39767533659742804,1.8798089260534834,,0.62595550513784,2.4343402862173127,1.6182227419898332,inf,0.8922546450608929
41,2.4753721688721697,0.6988070081512565,0.4992691481174978,1.1890959596868622,1.132882682290396,0.8882310562948894,0.6859950665437431,0.6683751512133582,2.3049571259829342,1.429783931873182,0.675384900321601,2.5236474781044307,2.3005082490492064,1.441745665656105,0.9330185861261336
42,2.6022581568091105,-0.30749450764750264,-1.921773313352302,1.4187575634418297,1.3980801420774445,0.8883019680953127,0.8177790676772404,1.3164988263120476,3.575591916524649,,0.6447042257417027,2.643511679964639,3.3044677552036044,inf,0.9266959527243732
43,2.5866245930624663,1.8402771496778012,-4.4269017427402675,1.700682477219171,1.6554951273491527,0.9357099748237767,0.7446507983823863,1.2059323851777055,2.0366265024860466,,0.6333676938231112,2.5798035816576825,1.8365844805335099,inf,0.8961791157612362
44,2.4726532205578953,2.5538750272566113,-5.026528247814507,1.7429658226715117,1.7008258478321552,0.8298930072543451,0.4075184282983848,0.5495704502449984,4.0165708380073415,,0.6528756675646988,2.4716614230379794,2.954489315019942,inf,0.9430113804718415
45,2.7118708706813046,2.9885727027093822,-5.700443573390687,1.7330300286342757,1.6759106999363795,0.9339845401595459,0.4865243085580969,0.7939094787503422,2.9892216811228414,,0.6180765742263259,2.711221892267845,2.9958994836538704,inf,0.8738091905102605
46,0.4876264541555535,0.43132700430891957,0.4727105626881477,0.9368872206544719,0.8907198542330607,0.12770978389803067,0.39908123288589714,0.4672455126111226,0.6063139536103528,0.8506331800594366,0.6333676938231112,0.4874889435867551,0.43775844633029204,0.4760929294081148,0.9690185266431601
47,2.7144473656831343,1.4243214634477308,1.5583246573745395,1.740758110543366,1.7058389824626983,0.8698826270539936,0.370873790296271,0.42227474441753887,1.6034310257283046,,0.6425374456860184,2.714068273427773,1.4273678963281782,1.5690352930510465,0.8960341993308739
48,1.0071383131039704,0.9861936719222724,0.6558856915749525,1.2522432779860755,1.1364273143983852,0.11169204126412874,0.8107480789947045,0.8112985481881232,1.1950869811269407,0.7538224092621522,0.6602640781246099,1.0071275985459314,0.9928047110665118,0.662188959601367,0.9378414574111663
49,2.787638674621205,2.5836179434533872,-5.371256618074592,1.549498385883306,1.5264463489793296,0.9508492333934498,1.0119865979119431,0.9020185172094,3.5016255585322322,,0.663668482632973,2.7872737998925974,2.5312462739729584,inf,0.8625917533685593
50,2.514990436550579,-2.514990436550579,0.0,1.413200184435955,1.3848255489532426,0.9510480608288985,0.6255807175234369,0.9141560271137024,,,0.6153451465759925,2.514816180194144,inf,,0.9120299974728948
51,1.7141337166595494,1.6838256032272612,2.299134166618594,0.9276177317989461,0.8636485460926236,0.30847939775468874,0.850834690310969,1.039525987910423,1.9039602377708493,2.0790136025637262,0.6333676938231112,1.714119646170829,1.6904166367568412,2.3059351798793277,0.9481347604631983
52,2.941519915798431,2.758923657592256,-5.700443573390687,1.7494952222547377,1.7141049254842187,0.9352304497952091,1.4471565683958878,1.6482075271580758,3.1269242652460827,,0.6357360191111145,2.9412440882699213,2.7658772876517945,inf,0.8682094107579384
53,2.70805020110221,2.992393372288477,-5.700443573390687,1.4393369809177639,1.4116165740617004,0.9438098610169928,1.2714026739709603,1.9695274174385813,3.272301946406877,,0.6403206450210053,2.70805020110221,2.999071174819506,inf,0.8962183053347988
54,2.1386762281794516,1.7893818647639361,0.10578997971647874,0.7988782026494613,0.7295261354666052,0.3692468358009699,1.313131963957034,1.107003938151013,1.9761170501755048,1.9662855618900306,0.6668815377411301,2.138578381903486,1.794214385011046,2.1229140489218037,0.9630215327083383
55,2.317275765386841,-2.317275765386841,0.0,1.5332586036101634,1.5366062501931668,0.9275083755253519,1.8015461722633535,2.690080986172555,,,0.6380535849069913,2.317134874008777,inf,,0.9155905342529674
56,1.6624826241945452,2.1271896644445762,-2.8419700498193703,1.2604039897412713,1.2123461645860862,0.46119751608702914,1.3532865142960333,1.0258758373633283,1.6686006646945053,1.3416949147583408,0.6468212168108125,1.6421906989059083,1.4753326317020048,0.7310033632611054,0.9636846116543437
57,3.511207924137207,-1.794941644171403,-0.4990475329315721,1.5162280562299064,1.479657067501824,0.9005915038473659,0.1384559498000367,0.27595566592263016,4.214021561177357,,0.4880666971167561,3.575947672959792,4.070417160659048,inf,0.9293241955582047
58,2.234415563164752,1.789925237029618,-2.4158997496018086,1.7498393319960512,1.7422963090382277,0.5123275931399662,0.1134253623383964,0.211399280434239,1.9401450792076989,2.848776208274985,0.5783247308855777,2.2108165308556864,1.6711084434151802,2.6658275706798635,0.8263277024957495
59,0.8094590575766029,0.5033477603571351,0.4045495325676829,1.447705812438962,1.3325471506603646,0.21702794079543114,0.14917901679271062,0.20933002890508698,0.6344802700913159,0.5673122464265159,0.6125606311107803,0.8088573660553984,0.5098198843173236,0.4102952307565682,0.9281429129635653
60,2.2684794750943653,-2.2684794750943653,0.0,1.7502844834593554,1.7003713294267522,0.9492186313440389,0.2178507779735241,0.47748533121211145,,,0.5978297680564633,2.2677543435267467,inf,,0.8805946609378366
61,2.7733791942578567,-2.7733791942578567,0.0,1.7760027008189834,1.7396849254384246,0.9412736071298716,0.28399865059425466,0.6355308554498009,,,0.6068309995095971,2.7724109602626,inf,,0.868527423305231
62,2.80783301698505,-2.80783301698505,0.0,1.7213356362445627,1.6926758864306555,0.9487745913096147,0.37855061570912535,0.8512477637207325,,,0.6684167106117298,2.807686391277557,inf,,0.8183458235901435
63,1.3063591494082083,2.1992152723746656,1.0800791269124956,0.21391055692706326,0.211939187679529,0.16091069190443463,0.3972263511730986,0.6567158077392794,2.4529889974256047,0.8436428047642225,0.6528756675646988,1.306333708094796,2.205422864134423,1.083463282905704,0.9809455774382715
64,2.69324863135401,-0.0385030047598387,-1.1296681883994817,1.6218156637958796,1.6104433589619613,0.623600671949721,0.46432060387900664,0.626191909521552,2.5014611487502396,2.237777288416201,0.5713653840954815,2.527814150799277,2.2398749646865896,1.8777018990287797,0.9302516349258148
65,2.212875933806835,2.226653814875881,-2.9402837266593114,1.7454829259884908,1.6922235738220808,0.957366196025009,0.49509092147806283,0.8159197802735322,2.7319350489813474,2.24694549018326,0.5370774965580548,2.2106138144552356,2.449364608027851,1.8497467268784045,0.8894977060876677
66,0.911704033523935,0.5504044173725273,0.4971697231746153,1.728259131998111,1.716499673965182,0.09349718690795088,0.2561988679494402,0.33000481616668736,0.7072518069274695,0.7061190266934472,0.6233814453054027,0.908818717035454,0.5542607007067478,0.4948133480832832,0.9682700684223488
67,2.520510217707738,2.730199064617298,-5.250709282325036,1.7818166200083256,1.7583122525699346,0.9525658497404589,0.08287037839215418,0.1820162047223382,2.8320566045489373,,0.6038851895711802,2.516741373308019,2.690314401961693,inf,0.8782961952179261
68,2.268375570426363,2.241822845977312,-1.8366751784090565,1.7799165641173693,1.747166385075475,0.9000478405404286,0.14415326989813643,0.29283481052204785,2.5559150842599405,,0.6602640781246099,2.267110704800386,2.2227486346767114,1.2206121233299008,0.8844726906857482
69,2.4056781688540365,0.110905616054227,-2.5165837849082635,1.7616938325782256,1.7177191775787206,0.9214280551832646,0.2512380009395868,0.511014983214874,,,0.6357360191111145,2.405233241066159,4.119529785659872,inf,0.8932628794015497
70,2.2269557814760703,3.4734877919146165,-5.700443573390687,1.7757019113636674,1.739663046904597,0.8872359166625166,0.2738685570783705,0.5802988628714851,3.473790185363655,,0.5748741956352443,2.2266533880270316,3.4804679878946843,inf,0.8635036200732918
71,2.355800743917594,3.173057571411166,-5.52885831532876,1.7578694644736805,1.7429435109422586,0.5883936455555557,0.3177119270046381,0.6453238459810922,3.37548906747004,,0.688071247053758,2.355517156330813,3.3821668700010696,inf,0.9056000979935259
72,0.8717817555995566,0.6987573042087383,0.5608244992708729,0.8456742583116651,0.8168947736508839,0.30244509208489695,0.4201233019619803,0.49139240470519074,0.8219320854185139,0.8264108218310731,0.6180765742263259,0.8472052720810406,0.6506912656201524,0.5668972524545367,0.9746675928415289
73,1.650060980485784,1.4640119380587202,-0.8099457106701888,1.5789403554767556,1.5584602612455198,0.32525894239989894,0.3629808894158092,0.47815738615727166,1.3410034074619621,1.6697759932743268,0.585052858160615,1.6103271966189845,1.1271518151740378,1.3825252972096562,0.9610014353531316
74,2.2617503507377354,-2.2617503507377354,0.0,1.749067392488679,1.7379578379642973,0.9153324326274302,0.6658195206722102,1.2064804011244306,,,0.62595550513784,2.257293103802339,inf,,0.9046482522784209
75,1.101346229143882,1.096846629970163,0.6649671412174003,1.6126172138016521,1.5832105128439886,0.12461141258741971,0.46098742010435373,0.6214125188366137,1.2589855323994177,0.8714026732472245,0.6207552362147116,1.1012825172239886,1.1032688354986917,0.6713259590230318,0.9596702167553285
76,0.43508412642480493,0.3122955684243049,0.2967393151954869,0.6776009623034209,0.6546253013980364,0.08919210315510685,0.2897635836187738,0.3481225332953859,0.4940193795256698,0.5835365969971091,0.6284777104787076,0.4350312437099312,0.3188336185519415,0.30312575171541767,0.9547065366337679
77,2.196836398717068,1.9389472324029042,1.0030705153371544,1.7543846596335246,1.7129349639240767,0.9612825039853707,0.3487341478690517,0.60203358943508,2.1647019746973513,,0.6566669596287297,2.1965248222219462,1.9421199988967346,0.9810615680319371,0.8546502544915786
78,2.599490537722438,-2.599490537722438,0.0,1.727668792588814,1.7064844081332318,0.9113402180954946,0.46943772152017005,0.9278491327191196,,,0.5883313578629602,2.596508826369303,inf,,0.8401436379547232
79,0.363895424047778,0.2280017260359884,0.13071485935596927,0.9568799931994105,0.9137776165968543,0.05648256369664834,0.25107622058130274,0.29737289583086046,0.33904617453798724,0.27565704447408645,0.6125606311107803,0.36389139619823624,0.2346529253568431,0.1373479978786364,0.9744095393507153
80,0.5701356211922219,0.35101373249602674,0.31273488575690767,0.9329187078796555,0.8797723586976758,0.08092132829097554,0.11202943454155548,0.11568650082271938,0.5687278262282228,0.575929505592035,0.6309483474627791,0.5701235796966092,0.35764948928657986,0.31930055899077286,0.9641116898553903
81,2.4699016507826514,1.519474536550899,-3.9893761873335505,1.688954785985742,1.6424668371762046,0.9036939678031125,0.14248653075805778,0.2981337197581498,3.458926789126758,,0.6357360191111145,2.46968968398314,2.6189071515828277,inf,0.8671533095345303
82,3.2063358006660123,-3.2063358006660123,0.0,0.7143589616262984,0.6870291035111324,0.9399275411601938,0.18680714191745668,0.41639595012547603,,,0.6038851895711802,3.205904758503722,inf,,0.86145188712323
83,1.054091984495127,0.47561937699629375,0.2804504439706037,1.2562332624639128,1.232222718549525,0.6740759379028048,1.624362950738786,0.8860797718758815,0.5554836226893182,0.41819289051514197,0.6528756675646988,1.0540214053402346,0.482320952023315,0.28711419860776,0.9542994535002569
84,1.0245370273700074,0.5741154061581026,0.4486237685982497,1.521519735001933,1.4767831799689701,0.6729694468214326,1.6176760920068516,1.2080760610982493,0.8959938922767184,0.8584404037310761,0.6425374456860184,1.0245257453154115,0.5806988334658203,0.45519895706284225,0.9562866211665125
85,0.783974915783455,0.31018294252650525,0.2149272363064625,1.4124142497776155,1.3591416807338395,0.438760062038993,1.0213034221939723,0.5744557316476715,0.3862007667935533,0.31025430331731746,0.6425374456860184,0.7839475448864419,0.3167001471437383,0.22123315576529035,0.9588613125621434
86,1.2794572038963237,0.9033625306090465,0.5639531886394455,1.579928003042702,1.568362493264111,0.5304253793320871,1.1838152338569086,0.933656648795324,1.0583564950689208,0.6553067660536581,0.6547956803312163,1.2794149994927946,0.909841408194248,0.5706135421449641,0.9525304004089322
87,1.2925518011187564,0.9869494936341596,0.7373097401333042,1.3081767764848746,1.2861030156925055,0.6670074021810564,1.364794342697617,1.0779008444364548,1.17364781805062,1.098785902702612,0.6357360191111145,1.2925207147139846,0.9934257926830394,0.7432276533795996,0.9400017886157387
88,1.2588084621099802,1.0604480275264239,1.1368967828902212,0.8852689887130893,0.8481146287918622,0.543026152261823,1.1876391728174585,0.9975262131832408,1.3407871582952007,1.9594341877473755,0.6566669596287297,1.258781040820931,1.0661632781176595,1.134235345261912,0.942397236161718
89,1.1503770540777618,0.8372677496887049,0.8187586756651397,1.1050823203360836,1.0730141807308298,0.49782203441373496,1.1277318737056117,0.8770080123938271,1.0435907404698295,1.2133895039094031,0.6584896970785714,1.1503618274701937,0.843840276548038,0.8244072876510424,0.9465923415053402
90,1.0177613174427125,0.5578157174911074,0.44933516628003556,1.0405663060575168,1.0358870119267956,0.5497583610874535,1.5293003372783218,1.109913302748163,0.7504198428395635,0.707377695382828,0.6333676938231112,1.0177391566615543,0.5642997815844315,0.455280121580611,0.9528495382456245
91,1.2953335178797658,0.7675238957845345,0.5431936194827887,1.3531473901147903,1.3087443658341997,0.5744044315291691,1.911153182971018,1.3282993095496727,1.053680304374891,0.675841464810134,0.6468212168108125,1.2952762071779407,0.7742590090173891,0.5498937932533519,0.9153675005421148
92,1.3363755370397448,0.9039598292390842,0.9718514704385752,1.3384483705523973,1.3120834589890737,0.5847348909895673,2.0950834324223577,2.006980322891013,1.0769534040426452,1.3715050386422702,0.6425374456860184,1.3363619923716816,0.9105781772104706,0.9786246434368452,0.754108758627881
93,0.7479554170549402,0.3675206776651744,0.3919626497588642,1.4225365796003626,1.3513581554744651,0.5522798233508532,1.7285466909531875,1.688057869308959,0.452678486005481,0.6062842480082293,0.6403206450210053,0.7479554170549403,0.3741984801962034,0.39866282352942833,0.6309705030984648
94,0.5737265505210446,0.3064642783967638,0.2734322221373182,0.8971820242369823,0.8548749635586899,0.24369503390911854,1.542384539280697,2.0521086428534554,0.6046382328816833,0.957740390913737,0.6068309995095971,0.5737259812537847,0.3131408010524844,0.28013141922830526,0.7672706276741301
95,1.3683959930205898,0.7485286419139867,0.5844365780168364,1.3636310289497418,1.355266112395005,0.6619476243814233,2.5472219077414224,1.9367061565745205,0.8477026024124483,0.8482179479788081,0.6652988471865258,1.3683671296238276,0.7552353078417782,0.5911367517874009,0.8791234901635138
96,1.5023833426086175,1.0834671776916935,0.9537714510899042,1.4457489814718842,1.3894901112313773,0.7101196398259888,1.944335174422721,2.2956518291150614,1.3270764745228074,1.4815933553044482,0.6509067234006624,1.5021292955582581,1.0879897327122734,0.9511069979953268,0.9487431114314587
97,1.1053291082000443,0.6965347884681361,0.5611953307900703,1.2492778521742476,1.184792036277293,0.5974392269040246,1.310782036243742,1.0151315923810587,0.7649752359413514,0.6907393272276856,0.6509067234006624,1.1053012768189063,0.7031297266971207,0.5679202397176277,0.950645145609503
98,0.7068885667371819,0.2851236371466367,0.1954558677095266,1.0918675834181275,1.0782886057747236,0.3893695374373175,0.9141883434342851,0.49976426575992694,0.32882612911107456,0.37276278517820916,0.6468212168108125,0.7068855659297277,0.29179089412578246,0.20215314116489272,0.9531756070356971
99,1.0494156194931297,0.7038805579021139,0.615768996008704,0.9201483203501625,0.8845052066730617,0.6096865488196884,1.149550050056213,0.7297076927960024,0.942728057340941,0.8262417500304858,0.6619902821573977,1.0493777787904113,0.7101726814156278,0.6217171548224754,0.9442646979319376
100,1.3120418557708786,1.01655810036685,0.7062755809570969,1.6298797294291791,1.5678443061986718,0.675721154096702,1.5051296084051915,1.2817760925941675,1.2200641934012921,1.0211762500818584,0.6125606311107803,1.3118467641055387,1.0224583537790484,0.7103840003959349,0.9512173642173617
101,1.0739350983541613,0.7275047620826363,0.6063515881723345,1.6955489741796317,1.6448305193083101,0.4822562878237113,1.403719017267789,0.9718405960373411,0.8718786236608578,0.8176882410623806,0.6125606311107803,1.073919676077738,0.7339691750802004,0.6104812748298174,0.9545572352900297
102,0.9486201489151569,0.48200908104074114,0.3518984508300762,0.8594520581184838,0.8446050644297807,0.40199117453263156,0.926353993459331,0.6162392157454708,0.7117445229871109,0.6463078391990371,0.6509067234006624,0.9485270042307752,0.4879852063830751,0.3582517676345034,0.9581793838486558
103,0.6168808659273197,0.19225741167696153,0.09367014154051423,1.6809184464750826,1.5800045833079372,0.5588351376273389,0.9029326768548522,0.4029467136818151,0.26724225653197736,0.13063714471740848,0.6125606311107803,0.6168653824027867,0.19890151170506937,0.10035718498697835,0.955828280357886
104,1.190606625918086,0.73095864142446,0.402808290407322,1.0535530746866704,1.0329778305631512,0.6007535544448613,1.6396644457469818,0.9824302462169008,0.9771281514709194,0.6999281457681136,0.6566669596287297,1.1905813894315134,0.7375325010383603,0.4088326300414829,0.9156114936090511
105,1.7359534849599545,1.2493615703459795,0.9084516480746587,1.5003044412108901,1.4645219694300116,0.7248197665096866,1.9696466148475962,1.4164821920893822,1.3367445515524863,1.171117050994346,0.6309483474627791,1.727033465666412,1.1268135175473806,0.6950773104778185,0.9230747287298797
106,1.35488381742528,0.8545154109587436,0.7826845157360993,1.6072200130769436,1.6048642058314264,0.6802296749511897,1.8149721718420322,1.2399329726995219,0.9541870205622582,0.9017429841975306,0.6068309995095971,1.3545803856303629,0.8595869124361685,0.786912581814055,0.9413469163052088
107,0.5833844682529712,0.39681734851045314,0.3421867900978479,1.4532754969670685,1.4001024659506143,0.3474833136374513,0.7206419716611958,0.4991946800954983,0.623223044565312,0.5252369045823843,0.648888643467878,0.5830379578799152,0.4025433088261484,0.34588826546389484,0.9397727416773953
108,1.0716429545638262,0.7810564634854238,0.8411228279912677,1.235396437734635,1.1786375708441879,0.5271674067700457,0.4208466885628964,0.3006546795808704,0.998016530162902,1.33601676113783,0.6713451011121618,1.0709322728948003,0.7860415013168568,0.8426123484784236,0.9535799041427869
109,0.7343075384019346,0.2663053722096047,0.13493485542807826,1.005083779386727,0.9148927339443824,0.5966141807616022,0.8592582407386761,0.39088833674056755,0.3713683050794559,0.3434641018076716,0.6699045166045591,0.7342933016776252,0.272925558561274,0.14156454567557425,0.8775007991874297
110,1.1436379949317277,0.5773050520857732,0.39564193468906717,1.1372112521087334,1.1317448060710928,0.5513735301344463,1.4833343642134034,0.9782907462887858,0.7391583460554413,0.527226660714848,0.6584896970785714,1.1436096545988454,0.5836737954448449,0.4016284871104419,0.9153414459488346
111,0.9892907946286035,0.3856912624027137,0.17717718947678796,0.8510770954312864,0.8022595514299048,0.5115004516912752,1.3933808172833824,0.5539187655212285,0.4123851806298801,0.23686864298220967,0.663668482632973,0.9892497916309855,0.39230028586559684,0.18387094952074368,0.9496582896275977
112,1.2563840594957287,0.8019751461658624,0.6837576803154972,0.504193490724526,0.4518219369656956,0.7586901286244495,1.7745667293214291,1.4558188176899116,0.9905091602904066,0.7582075123561997,0.6528756675646988,1.2556560382777957,0.8050291749195967,0.6819564326744366,0.9607151657625285
113,0.3714448255861706,0.10410150259988121,0.0689275041344064,1.3524944412790778,1.3249786016723575,0.2164317330503136,0.8222516105839945,0.44404195984135186,0.1411167337470536,0.10046925214374738,0.6468212168108125,0.3714180114691095,0.11076616705245985,0.07561659089029292,0.761214317427283
114,1.870854018167848,1.1250860717649027,0.924219986677786,1.402849821881637,1.3841814378499153,0.7763145008765913,0.9574117951256453,1.0143501962421078,1.2952541897708085,2.015524010919974,0.648888643467878,1.870802676568508,1.1316185851362797,0.9275394444100258,0.9397185826133013
115,1.1520955072363244,0.7486102884405583,0.6840582085324438,1.1453448932535586,1.1271579527276356,0.5893578706362445,1.3073761956644563,0.8859428273668559,0.8572257472181908,0.8052733828989015,0.6403206450210053,1.1520833913560824,0.7550869293833004,0.6900841622150616,0.9464686586127846
116,0.6015870882498916,0.24651489635641588,0.10365411102201638,1.0089496433683527,0.9849642290905807,0.38461864567981063,0.8358898930970634,0.31642982826386146,0.2638817688058877,0.11382082596006475,0.5915533975974677,0.6015813759243082,0.25319624007229685,0.11035328129702371,0.9506058771270677
117,1.1149848001793683,0.5261884511180381,0.4125423246629001,1.624355808440732,1.6321447619327032,0.6515578312629733,1.8718566329291915,0.64172477158926,0.638304703551237,0.6033673204804345,0.6790044388599258,1.1137936106637738,0.5328847547115226,0.41619015946184434,0.7505413322807938
118,0.7702413160847088,0.3132019055298534,0.1339205045512566,1.4316150483532852,1.4195492655544373,0.5301800047877542,1.3462246708702235,0.45731136913933,0.3500005702867511,0.19873658176519104,0.6125606311107803,0.7701962255683008,0.31988588209643376,0.14053892392374054,0.8960071421607831
119,1.278115437962975,0.5076880714583785,0.2702392901344628,0.3982370697396293,0.365039920994737,0.6947859176585715,2.4861726721949617,1.6991219322359492,0.6845964571203899,0.3004119542570121,0.6153451465759925,1.2780978706428563,0.5141950741913425,0.276802304791493,0.6400777657699285
120,0.5699384568447106,0.1477283181261686,0.0701680975030774,1.1148367558687315,1.0678151619134024,0.4698720055738152,1.1365164121133522,0.6289091306192927,0.1752784057930303,0.12766312782980185,0.648888643467878,0.5699271006013529,0.15438973448185755,0.07686108969043996,0.9236444631997774
121,0.7632001041944172,0.30546177819291587,0.17952093731607843,1.3605881606254329,1.3343611476321215,0.4588477269645944,1.229571982874172,0.5447992065426812,0.3867638722757465,0.3183989243042651,0.6333676938231112,0.7631882202309076,0.3120656788599672,0.18603419412435493,0.7124267802916291
122,1.8074989669344623,1.2366357258279346,1.948926643837876,1.6300451580508428,1.5782769031230193,0.777847685364171,0.7111878762239483,0.6225968928960685,1.4878630356428486,2.2847786967042656,0.6180765742263259,1.8074147088386283,1.2421872746280935,1.9543887679108656,0.9485671759504518
123,0.6170964118309892,0.3771128315607002,0.3861325069160686,0.20726765807716444,0.11349315612839164,0.29194078684211877,0.4439124007767085,0.44375461238484065,0.5182628401595013,0.5749099907020185,0.6528756675646988,0.6169271546485363,0.38353051861207643,0.39198890734447606,0.9574228116504954
124,1.1609868058783124,0.7352745594916124,0.5086679716127034,1.6199753913998158,1.5545717447926055,0.3953154602419326,0.8059855002467814,0.9095280470856278,0.901873144103355,0.7438643149449391,0.6602640781246099,1.1609842695609458,0.7419302490332716,0.515330864675233,0.9354626410643919
125,0.5706005038203205,0.29303626928824555,0.28660096999864415,0.612338652284567,0.5665218419779393,0.415579567261549,0.9735585270742194,0.8947899285975849,0.43571211308010155,0.46910939677388047,0.6528756675646988,0.570595287089542,0.29968692357705806,0.29322421791950015,0.9453077402181222
126,1.1924306934322126,0.910358808404397,0.8488483907124889,1.496944756349086,1.4639132229749905,0.4882986079410907,1.1235366909309121,0.9835327704015333,1.0587361178600874,1.0787186151658865,0.6333676938231112,1.1924102790740323,0.9167118500406415,0.8542505216659811,0.9540570735798589
127,1.0767450051098442,0.9907503645687454,1.089897130242166,1.5589107520048686,1.5573988736482391,0.23699955359582922,1.1154184002389498,1.2442308785706684,1.113526477544181,1.6010396910098612,0.6380535849069913,1.076720342252011,0.997402037950225,1.0959632804965327,0.9629160833692291
128,0.5465769239110629,0.26748068218766596,0.1984144428157738,1.080044389902028,1.0149669530452738,0.4428345169490671,1.1879153609015285,0.6317590986663397,0.3372960152342269,0.3025175300510827,0.6097226960127671,0.5465679490861647,0.2741348637789917,0.2050618213255347,0.846020640264272
129,0.7370338665441247,0.5349845443769572,0.5581989564535477,1.5602518291752219,1.577254766706015,0.26288856100502667,0.3217774098114143,0.28153515519358735,0.7571486745293862,0.7062277055943698,0.6153451465759925,0.7370061895509695,0.5416502511670543,0.56481746419671,0.9511371617939375
130,1.0293608107839352,0.9003580346392375,0.8660397399659461,1.405236865285841,1.3543570640203775,0.16434288213010917,0.13701763721058033,0.16021371230531362,1.2832270661622787,1.4455418864611114,0.6097226960127671,1.0291484170080452,0.906404443308624,0.8721335309608875,0.9429805828774009
131,2.9363568341074258,-2.9363568341074258,0.0,1.7635208868115833,1.7328842145714443,0.9017734918185418,0.061197675299921137,0.10156714692516264,,,0.6566669596287297,2.9362062942399643,inf,,0.8744002947008446
132,2.5730700529904955,1.944092260575705,1.1799311729392041,1.7315947128258333,1.7163093915930479,0.9128506273743501,0.05797321720122272,0.10696574151384487,2.0161875669555833,1.1708553172376652,0.5783247308855777,2.5723544856483107,1.9425688224920024,1.1955481546666844,0.8968328588881636
133,2.342495149792125,1.4588289938857946,1.5305877745459036,1.7611807907928096,1.728964561241004,0.7866874997101249,0.06784564093073059,0.1210050161539835,1.5386971513433652,1.819147257796402,0.585052858160615,2.339249077365637,1.4624258708936435,1.485592582102171,0.8641016002633393
134,1.2075172512089034,0.6551079141513025,0.5255360065099981,1.0602183080108,1.036954195657323,0.4419288251772655,0.9942770001563239,1.0157422005842396,0.8545173137435685,0.8652573240208357,0.6207552362147116,1.207460360266914,0.6613961593461081,0.529872433933926,0.9168351357414349
135,1.1928933812913263,0.8727607384329223,0.9923820371658976,1.4909185420370987,1.4650082079598232,0.3613765054143208,0.8251015541055619,0.9725097678921886,1.151511160849866,1.286343084659996,0.5978297680564633,1.1928863387735844,0.8793809991582512,0.9991467952599036,0.9049934566361114
136,1.0564273493057215,0.5897851877858624,0.4095672943254325,1.0658686304550693,0.9940037639154004,0.40721217549116456,0.5940345958877116,0.5216609338082381,0.8162012735927419,0.656136227926058,0.62595550513784,1.056255472589285,0.5952204511917141,0.41551017663149103,0.9477235346139182
137,2.978126719356485,2.2725825629685517,-1.5418631870832642,1.4927820618096903,1.488056642503693,0.7234046655460187,0.06977287937295078,0.09901455921806224,2.2807718663979157,1.025497671998539,0.6233814453054027,2.9759296462578115,2.231126129011901,0.9326510149793619,0.7871414002321656
138,3.5065578973199822,-3.5065578973199822,0.0,1.4921151815421085,1.4983202063402452,0.8852963251150608,0.09393588747307521,0.14196227318676968,,,0.6403206450210053,3.506557897319982,inf,,0.8848982456002307
139,3.030688661774046,-3.030688661774046,0.0,1.6693622293944606,1.6711270920025139,0.8865981213885556,0.11592201306293239,0.15840459958921171,,,0.6447042257417027,3.0300937010713023,inf,,0.8805447429986221
140,1.0086646241707788,0.8978550955513587,0.7394192178341996,1.2084403737935145,1.1453211903189962,0.10515421029804463,0.5662348702634366,0.6242039565888354,1.0835327321087098,0.9842074840197417,0.6309483474627791,1.0084364793354863,0.9046623417517293,0.7455264966874715,0.9495886898149652
141,0.8884288908612984,0.8934872972048041,0.6078174148369135,0.9166441735912388,0.7958358944364429,0.3232299055863433,1.122216245758512,1.1378517730834024,0.9804742969450727,0.8418065842493598,0.6309483474627791,0.8883513631849136,0.8999474344141607,0.6144750226504038,0.9562287904187796
142,0.37612174484160876,0.11133086006119258,0.07464162468357888,0.5873912639898398,0.5460716142817686,0.355836305866158,0.5571150226886569,0.30624860774368146,0.15796853092248136,0.1280691026128009,0.62595550513784,0.37576068540183344,0.11684308052309429,0.07984118717799282,0.9463051456632897
143,2.2087527104877993,2.081433781502413,0.6804319861688652,1.5128640612709678,1.4564560185076416,0.930632790725421,0.6828749284511382,0.8369936220571565,2.3599074535795097,1.3551378913718,0.6180765742263259,2.206870954388025,2.0531347237349236,1.5868776401739264,0.9372654939471117
144,2.52979942060223,2.2971395830031405,-4.8269390036053705,1.5071944352044035,1.5093377629973714,0.594607855679252,0.1807258955771894,0.1981660884124175,3.164430590812323,,0.6333676938231112,2.529346291220174,2.283805198342449,inf,0.9246386554033976
145,2.6328949712565253,3.0675486021341616,-5.700443573390687,1.764515626722545,1.7339222228842734,0.9054757979477958,0.15400178529038283,0.17140040099256484,,,0.6566669596287297,2.6324790142551358,3.0746423616665797,inf,0.8978798029550547
146,2.620412380228124,2.3855279420069384,-5.0059403222350625,1.7526258502171042,1.7353212323721527,0.9172903575684594,0.12502999806152768,0.16906823526982395,2.4047311894340644,,0.6380535849069913,2.6194290094486816,2.392874341748271,inf,0.8827010356252084
147,2.495136784741588,1.6466041120195638,-4.141740896761152,1.7373462881746242,1.732965151718454,0.911025515756518,0.11023185703541916,0.1638386512504525,1.9594734776953364,,0.6425374456860184,2.4934766004710673,1.6224321396668737,inf,0.9364433459195991
148,2.8782482493634007,1.905296495180226,-4.783544744543627,1.6772126774246194,1.648657490825435,0.9515012222375869,0.10651739284468432,0.1940868180388593,2.1649968720659407,,0.6684167106117298,2.8780480082073328,1.8922589098206124,inf,0.9013149424515597
149,2.6495601940490707,3.050883379341616,-5.700443573390687,1.6704084481587775,1.6599059237299822,0.9116714058548387,0.11823332550109147,0.20768684929124356,3.0522333726444932,,0.5883313578629602,2.648210200746193,3.0589111751755227,inf,0.9038186122554375
150,1.6656822990514082,0.7053648700175084,1.804207443992179,0.7186113389349377,0.6274010621116705,0.6971260070877173,0.3168046106988633,0.346762080627444,1.3101002639023125,2.881476193562165,0.6380535849069913,1.7732648865918907,1.1566796464240972,2.355127606782028,0.9614578936894909
151,,0.0,0.0,1.7292543926301784,1.6777243040935832,0.9294360809882325,0.4329920582179931,0.5812450513766141,,,0.6468212168108125,inf,,,0.9117113901625007
152,3.39054756059809,0.3602244521239828,-3.061360675400461,1.4856679499313852,1.44690219572254,0.46928229021671714,0.1957073023139921,0.19502732984056562,2.989991531844302,,0.6153451465759925,3.335721799703244,2.8091529607042727,inf,0.9705116217284678
153,2.734074359022616,1.703868808205311,-3.386466181463507,1.7134303252232108,1.6512030552043915,0.9500656067034217,0.11943208965302306,0.21880456686461397,2.68639021444828,,0.5947193981915972,2.7255355154432297,2.332890442489375,2.341805806147327,0.8858542140046971
154,1.2183865570319412,0.9679891427117653,1.105236332600843,1.7225234126757711,1.713283189131118,0.2785632640871293,0.1767903454939087,0.2667297079912798,1.219889108995181,1.4807366357829905,0.6180765742263259,1.2182219916659007,0.9737165812410814,1.0920685413437698,0.935442814995205
155,2.1304995980343606,2.1503392231084155,1.2208708963457306,1.733347603083049,1.6914629094942812,0.961569625219421,0.24516372017752824,0.4049520904346743,2.759201986606022,0.8079516693687595,0.6097226960127671,2.129939830530623,2.1371720756806205,1.1950324344945833,0.9118959934381377
156,2.5228003875352836,-2.5228003875352836,0.0,1.7370423328890952,1.6922156868657174,0.9647244826678962,0.37611610622253194,0.6953674206668566,,,0.675384900321601,2.521708956312105,inf,,0.8931397833908933
157,2.4605257209013356,-2.4605257209013356,0.0,1.7108135092767855,1.6810426265194884,0.9494233254502308,0.3590172051492423,0.6926905813421782,,,0.6357360191111145,2.4601489986622735,inf,,0.8789066326827926
158,2.2738504656077505,2.0402987466630456,-4.314149212270796,1.6407467534185023,1.6293084999886416,0.8110493015910256,0.29077188055464226,0.41068805802278474,2.040367512212421,,0.6547956803312163,2.2737817000583744,2.0470453147434506,inf,0.9272035522950727
159,1.6171337148762284,1.4288539932602964,1.5987546094178091,1.5624135364477456,1.5649412122729383,0.48715105786714163,0.16144595007650206,0.224561914116088,1.5393757780757293,2.439591639889657,0.6008849035917525,1.616126900584897,1.4344136094640891,1.6000920500158626,0.9222142203762399
160,2.510505339553214,2.543922308412606,-1.7852901104073506,1.7024903801692102,1.678282029515659,0.9525906440135103,0.37350078240114826,0.7037113977732827,2.9153368951263943,,0.6097226960127671,2.509199342357045,2.433777303265396,1.3229247471873014,0.8581450650729937
161,1.4794434108095804,1.441922200618781,0.7038709575757593,1.089572650644465,1.0610475684302754,0.300244227885993,0.3564572100081406,0.5326109055432096,1.6559009763132162,0.959828529098966,0.648888643467878,1.479336004887827,1.4483223377943544,0.7101056106263245,0.9495583320101536
162,0.3613980757596101,0.31048354443360376,0.39088904468101937,0.7635653421594767,0.7357568408204624,0.05870450697345916,0.14240726867433337,0.18721413356917524,0.39899465036834014,0.5054582674251772,0.6097226960127671,0.3613844288729895,0.31713689949163626,0.39748181744262556,0.9687052166179947
163,2.1337793538502625,1.4872226778605886,2.0760914547945535,1.6810036311530112,1.6697885886283694,0.9216708356914693,0.09668160359724975,0.19024005474473876,1.7167270172203626,,0.6380535849069913,2.1334988864556745,1.4941809477862051,2.082791628565118,0.8973975515959084
164,1.0603134236107825,0.7954986367608285,0.7819912461025238,1.1094616919406413,1.0075848024359915,0.37034769117946365,0.24823365830387972,0.2579188199344007,1.0211339334378855,1.0883320520028152,0.6425374456860184,1.0602894143489505,0.8020355909263772,0.7885575227705411,0.9458694720899636
165,2.094599830377224,2.5072314543453538,-4.601831284722578,1.4962963445601933,1.4528649721202567,0.9153448795998955,0.25702349915181455,0.41058288588526054,2.5072535443465,,0.6380535849069913,2.0945777403760766,2.5139313468775293,inf,0.8754761645459153
166,2.3437513254869056,3.3506997413177335,-5.694451066804639,0.12925332146056012,0.09650608735429146,0.8541072332967022,0.5605782279512713,0.9974749737010218,7.4478106385555165,,0.6309483474627791,2.343638595791756,3.3534993361457768,inf,0.8915002544063546
167,3.3242186367226942,0.9506149653175182,-4.1150388177440895,1.459160886551691,1.3616425053277528,0.6297700925161608,0.6998639664332941,0.36018274079344825,1.6046314068416956,0.9696300233739575,0.6357360191111145,2.928281330969385,1.372677480615715,0.7840408978000183,0.9386706456487567
168,5.3474215188936896,-1.9428964851980406,0.0,1.68709241960598,1.6742324637398514,0.41558658778224195,0.07338684436739813,0.08318230162691682,,,0.5947193981915972,6.242778975388888,inf,,0.953190198691622
169,4.467472325957076,-2.6629346032858097,-1.3726820644954163,1.7699457838383024,1.7112555746366382,0.8370265431938229,0.04501321383217044,0.07271922996343302,2.733153648439287,,0.6180765742263259,4.5088504149824145,2.6220484153139325,inf,0.8195387575204988
170,4.383232710695022,-4.097257280591811,-0.2859754301032117,1.7747760866296962,1.7583404376930412,0.8569202575296817,0.04238330485898785,0.06256633918944202,5.239688158384908,,0.6380535849069913,4.0817574467166295,4.617757301493563,inf,0.7904483369470036
171,2.5501519291669648,1.6193138939175058,-1.1475502124824102,1.770078828622349,1.7141033600278186,0.7997163363297564,0.056558324079387934,0.0880150818846149,1.8589627528599841,2.23600788114454,0.6180765742263259,2.537042404208529,1.5666793198261688,2.0674012624477554,0.8067563192964803
172,2.503817346056056,0.2972211412375154,-2.8010384872935714,1.7842822883435487,1.7796810089093709,0.6390815917358021,0.06314262038986707,0.09424663202560209,,,0.648888643467878,2.5026633713772592,3.5916955988933554,inf,0.8267254375175025
173,2.0389124998787787,0.504849446296183,0.5589116716871834,0.7809148153513653,0.7315593910497605,0.8234724784584756,0.33621583916360964,0.4504920691006954,1.12964877414857,1.099912157564622,0.6008849035917525,1.912572089444803,1.0165404967677922,0.9178512003312502,0.9296643081927651
174,3.632440600140725,-1.1462470892317376,-1.4691101428695845,1.5371892891800056,1.4818711161909337,0.8264965332143747,0.17816282448878168,0.3181395803636664,2.7530270734360727,,0.5022576003740722,3.535872284988757,2.3148646026241075,inf,0.8648449619641269
175,2.7093343688943747,1.9232098317189,-1.7104112402399698,1.771281774899037,1.7279199180099654,0.956452829217533,0.15829852765416602,0.2985685635189119,2.1849259962444556,1.8718009489121072,0.541134803179459,2.7027310396246103,1.9215087090838319,1.3672247983995398,0.8644260772777242
176,2.4011902675686763,1.4857172503027134,-0.5230777783237182,1.7703549983907823,1.7431952786002294,0.9510216576162965,0.1138615203840545,0.21647613945309518,1.5680731783350337,2.126095345511769,0.5915533975974677,2.3868124701222193,1.4020101015197695,1.4366574709537816,0.8473935150521432
177,1.1209863572384484,0.7269273816439581,0.5392048170749111,1.5410103697423188,1.5225297820367174,0.37696939533085655,0.2611873026683427,0.26712128188079365,0.8581961290047739,0.6997235202709714,0.6068309995095971,1.1205511961868635,0.7335802539340275,0.5453317178496417,0.8428892667318382
178,1.5258693080192889,1.178364661143826,1.176386173503582,1.7764125036139211,1.7773470689173116,0.3271035600805655,0.12474085061497187,0.15355320557642313,1.3638618192055525,1.515944184618226,0.5978297680564633,1.5250457032124705,1.1826712200996192,1.174747279874512,0.780105079602462
179,1.4416896700277448,1.1741273941371844,1.0385451031109785,1.7182791864318314,1.7337868494289126,0.4097211236251309,0.24934262733573864,0.34515528631997244,1.4386691297290017,1.46223093019991,0.6403206450210053,1.4414312901260036,1.1787606704545222,1.0419373784574957,0.9445844455179573
180,1.5412574627836098,1.102498187697962,1.658641939570551,1.755082228102141,1.6902499488965121,0.5229834698509024,0.18359414410925207,0.22651533688119882,1.4181153908377333,1.848951055766222,0.6509067234006624,1.5409488715521789,1.1085180054511339,1.6588963287559972,0.8787851512206187
181,2.202156288716034,2.3996749960065435,-4.601831284722578,1.784310498785775,1.7490508525966753,0.8872325197815557,0.34368203042222645,0.6590158149344985,2.400297435798259,,0.6403206450210053,2.201533848924318,2.406975238329288,inf,0.9116456612187683
182,2.100252018760281,2.511299880876971,-4.439492029239438,1.7830985999710167,1.7527638687024822,0.9642416749865922,0.18397907732323585,0.3837176691847599,2.742081072223277,,0.6619902821573977,2.099190837064854,2.4678275829588614,4.643321951952467,0.8529352836704832
183,1.6840490966120654,1.4731790616602787,1.525611551990139,1.4189168083592865,1.3902466089456849,0.3217770026245661,0.22813284568222952,0.4290813664992239,1.6966946502667986,2.3131267256579875,0.6207552362147116,1.683922023695336,1.4782584574963193,1.521552027299538,0.6728749598552923
184,0.6962845738297783,0.5036664937571047,0.4526370355417828,0.886618439991423,0.7524170288597956,0.24104612665969677,0.3363525025048785,0.3499343096263276,0.6486093458720892,0.6422789681719788,0.6125606311107803,0.6962408499128712,0.5102907809747328,0.45918273148979205,0.8688800305241559
185,2.0943330213516456,2.219069891416428,-4.2942851493905385,1.7005752953317441,1.6573288585006163,0.6820310072173401,0.34409837959923945,0.5238218000675849,2.2206786390862288,,0.6380535849069913,2.094307043329533,2.225684200424896,7.087573705557973,0.9177949045663896
186,2.2706200685296505,-1.8893194950587016,-0.3813005734709489,1.6521162663429771,1.584164086993083,0.845930236266401,0.4505631622592953,0.6656671003464207,,,0.6333676938231112,2.269687749069935,6.142144926688476,inf,0.9167728261339725
187,1.0178101940805773,-0.2161089283433284,-0.025497981693093585,0.6603373144150493,0.5813857360885841,0.5673328284975704,0.5935426778316907,0.26068181739425944,0.2708276980250341,0.22274186645028027,0.6509067234006624,0.729165914413689,0.19241657190623457,0.10278850574922953,0.9705683111666061
188,4.537743014711606,-2.6668656836348443,-0.3431705161238541,1.698787855201821,1.5906243859641729,0.7309601173834996,0.331371085462097,0.48616171910043515,4.376910112709805,,0.5451288209179292,4.251388311831787,4.265804879584451,inf,0.8796433259166967
189,1.7893379230672348,1.1686942205058792,0.1610770668380388,1.7014504361198157,1.6633549687711802,0.32538832380504307,0.21393145255906898,0.255280684913896,1.3007248292503697,1.8955734399649515,0.5947193981915972,1.7537574470950474,1.0585427753809618,1.4516471241322713,0.9619438016292309
190,3.35746693082249,-0.6468389453410852,-2.7106279854814046,1.7638395098640693,1.7729868962372688,0.638077359312651,0.12561968042216676,0.1449479041747154,2.7060603649651727,,0.6233814453054027,3.2698767643347972,2.6487504588209183,inf,0.9185699115010273
191,2.9140600146000035,1.966865531393347,-4.8809255459933505,1.768252250377887,1.7335787145314743,0.7970386699267775,0.08613022558048333,0.12630090539674793,3.874988062266286,,0.6180765742263259,2.910778567673827,2.786359364263705,inf,0.8763372955777189
192,2.3461206007534514,1.9070662364628523,-4.15759802032863,1.7733405916198746,1.7303353262193413,0.8204385784068058,0.109026192937903,0.14422192600900108,2.015963317487995,,0.6468212168108125,2.337406607936082,1.9155429844626575,5.545177444479562,0.8808193162971435
193,0.13735637825270008,0.0783540132920344,0.058714286993278464,1.402159551428075,1.3842040139318514,0.13692171627077024,0.1576068335087242,0.12521746014929025,0.1616842812889194,0.18901505051233938,0.6380535849069913,0.13734819115122343,0.08500400669908464,0.06535950467006865,0.9643767560162504
194,0.4606580449881139,0.3007307352989017,0.32047638813421564,0.9462432559589423,0.888150784668442,0.2060669953524541,0.20227943458075115,0.1570009467844675,0.5132416880875827,0.7142294913530245,0.6602640781246099,0.4606431312756834,0.30734733444938905,0.32699507422068835,0.9498560933104238
195,1.530960343313764,1.1539204322200294,0.5674709421057429,1.7559472997078376,1.7291216741249529,0.5398933181268601,0.35384593147925947,0.23449202017704146,1.1035302575504198,1.2274488232524234,0.6125606311107803,1.3955818006229752,0.8932099702387348,0.744988570329811,0.9532579772244564
196,2.102693366355432,2.2063309862663396,-4.309024352621772,1.7021793993308658,1.6932174032342988,0.4702633872090342,0.13782713027507526,0.20574404553104506,2.382764334556283,,0.6447042257417027,2.084699786494375,2.043546327403407,inf,0.9567655650847486
197,0.675433713077681,0.4923306493990346,0.6121934016633155,1.1838379074110352,1.1530781637430403,0.16608073174668692,0.18900107571471622,0.1694997106303716,0.6586599151411702,0.8985705812701241,0.6153451465759925,0.6751762952387089,0.4985187995537568,0.617731096645469,0.9602998720726279
198,2.6112783913931246,2.396018001437617,-5.0072963928307415,1.6631949021993169,1.6292308982079524,0.7930690128302849,0.10628264557618894,0.12446689567897473,2.4599402247920064,,0.6357360191111145,2.61122601646667,2.4027481788951004,inf,0.9306303985232416
199,2.6507244608734353,2.2796698311997505,-4.930394292073186,1.4930264799806314,1.464537291376146,0.931944573425899,0.05042626909560351,0.0820538564610169,2.3586151235353645,,0.6333676938231112,2.648681269295377,2.274248444381773,inf,0.9131840737989965
200,2.4360309326879572,2.8633609275359384,-5.299391860223896,1.5007223921740955,1.4946250070679317,0.9127921311107474,0.1272597458675762,0.17815673468436155,2.8369894868055643,,0.6207552362147116,2.4348474499152633,2.8157385138115836,inf,0.8942984025757176
201,1.9426589336643951,1.8567641261781802,1.2476664718266415,1.4755428066918908,1.4043406249969195,0.5746012958270978,0.20655162358409426,0.2130681915578896,1.9036532321708823,2.8197826245568254,0.6038851895711802,1.9345526678886062,1.8119558990619664,2.085107279215513,0.8499047863724669
202,2.067488181903559,2.379178785927122,0.7342469074812819,1.7493757116501767,1.7459147210802797,0.7654329109314874,0.4531143288136792,0.5246674804121368,2.6037257597901005,1.35714788169706,0.585052858160615,2.067337316501797,2.3545858151713968,1.3835229967595075,0.8883206414007763
203,2.0350574558647256,2.661507083247657,-4.696564539112383,1.7608166981919016,1.7359620689932198,0.658337294575284,0.4587659352515714,0.5350801218888797,3.623458271940762,,0.5677978065141052,2.0344256870311286,2.56189488367998,inf,0.8812537403974502
204,2.1424981254721485,1.6867906452677484,1.1746575352055633,1.723286238558493,1.7125937032884049,0.8349521777771535,0.4527055655563723,0.5299560784162249,1.9446426392525316,0.9169459907975483,0.6468212168108125,2.1423576758953793,1.6906487892145423,1.1843178171371307,0.8507620550628981
205,2.1380098589650003,2.1291224846342396,-4.26713234359924,1.7761270037758088,1.7213222794214924,0.903532452062108,0.45738906256378564,0.6254000833154201,2.468758990729828,,0.6284777104787076,2.1375415751750455,2.131950340093009,inf,0.8565743269291748
206,1.366893562807064,1.024816461188051,1.4786154396663922,0.8574469057940859,0.8329269742891544,0.4128643780661965,0.48795657359943584,0.6018302889279481,1.1002756922166157,1.6174487587183117,0.5947193981915972,1.3645763579987167,1.0276903405408377,1.4736151508907367,0.9440128652096097
207,0.9182323125224093,0.7016933097440358,0.7724461653067929,1.7487392874467131,1.7300437319071509,0.0628802650430173,0.18886201865892294,0.2665781092925713,0.9885782945254682,1.0672231421054565,0.585052858160615,0.9091496237227886,0.6867141686841938,0.7428091485136117,0.9675652875987646
208,3.2163589369173393,-0.9666855534387411,-2.2496733834785982,1.679796424015298,1.6692594984082585,0.7561570083399526,0.03167651153365258,0.05034648139306859,3.5117916285730186,,0.6566669596287297,3.1355053271019897,3.501374997744748,inf,0.8428260904400723
209,0.857275436227828,0.4924414365479509,0.5870799000985105,0.17941758705641944,0.13911575904704432,0.2718884841238909,0.14450234461884326,0.109581077591491,0.5931169909457358,0.8723371675059848,0.6038851895711802,0.8555876817607505,0.4976588253129397,0.5918195538797949,0.9424289414402217
210,2.2937522431219084,2.5047092779741926,0.8986319654093036,1.4110286751042165,1.365058890432756,0.8169655673506052,0.07689474442608688,0.12192356029653416,2.698843118067369,0.70473513078353,0.6038851895711802,2.2935152376545056,2.4913133877080567,0.9256428374444354,0.8080641612454506
211,2.476451466397168,2.5447542344046754,0.5611812054383511,1.6688803302379749,1.6502431574233765,0.697911085937691,0.09226695666398761,0.11210998770181357,3.423880224233411,,0.6233814453054027,2.475748712003235,2.548309602425162,0.7067528326157239,0.8688626745713628
212,2.0577006080914177,1.6658836271941375,0.37402140776452253,1.6519135813931458,1.6594227275507907,0.40813161116588187,0.07463966070853247,0.104834686291607,1.9384499759015101,,0.6566669596287297,2.0575495952637373,1.6679938432217905,2.029532330558224,0.9019429361349218
213,0.7331888010041765,0.3545672318092743,0.25182388201836114,1.4223318853186175,1.3969263206525553,0.4032544907302285,0.5915291459417027,0.4076144008097854,0.48898291573489894,0.38556367144929243,0.6309483474627791,0.7331361887763086,0.36125170190536493,0.2585576640906847,0.9294734383687298
214,1.3886377435882515,0.903726219079596,0.9441846108561451,1.5467045040691327,1.5223708326242904,0.60716779414887,0.7816910809489935,0.7141252052514215,1.0704443817413791,1.2026458169314924,0.5915533975974677,1.3878511278081418,0.9067657955367271,0.9492918497991011,0.9223088498963287
215,0.7206305074726527,0.3159190058841457,0.14889375997007548,0.9702825422117167,0.9707828873727637,0.5914256940838417,1.4120797625439512,0.6896969099351493,0.38664145323269067,0.21569054699223203,0.6425374456860184,0.720609737016283,0.322599381054115,0.1555918978531441,0.9526911124000884
216,0.916290731874155,0.3182447228619475,0.21406278971994297,1.3780345776185137,1.3494085387299022,0.6968961888912844,1.5917603162301914,0.7676338307491655,0.32980554526302375,0.24700602795381246,0.6380535849069913,0.916290731874155,0.3249225253929769,0.22076296349050673,0.9559675445494655
217,1.3883096404869482,0.9110608526927189,0.21996645985240493,0.8399575960487413,0.8248859050598977,0.5324658011558756,1.9283216963195373,1.1342415753658743,1.016186481577923,0.24808820341349486,0.6403206450210053,1.3882963637905636,0.9177391194038353,0.22666183042994972,0.9354275459754716
218,1.02772829999824,0.602229621129539,0.44299844384606635,0.6902546001641365,0.690270063503354,0.37512730952488765,1.5108663656910675,0.8187603902970366,0.6340415906195134,0.4672686886712448,0.6403206450210053,1.021064999655767,0.5746891856924111,0.4017183001312022,0.9599204425928841
219,1.1875644550995883,1.0206270260851746,1.1425164730485307,1.6431020808100472,1.688326157838944,0.5225257757877599,1.7888453927907306,1.4828451280467034,1.2530822048795716,1.5526899534190344,0.6584896970785714,1.1817040845345628,0.9874190626907818,1.0478101211835187,0.8598754016017889
220,2.1112518404591536,2.102641129265512,-1.8624080742878708,1.3922028811283929,1.404217768042998,0.8959430527669595,1.4414286283197786,1.79329913756279,2.3056670249759645,5.601855450942616,0.6207552362147116,2.1003701359723372,2.0334084954951703,2.4616019624724768,0.9271966361564318
221,2.694618022021207,0.39863978946944556,-2.6856034299342397,1.4364249727022023,1.4251021107923179,0.7296562949921432,1.151842830610286,1.4178127196234422,2.6895471479675663,,0.6207552362147116,2.6452319087100586,2.5027515765374204,2.430940067575828,0.8932542642816635
222,3.4766989411966778,-0.9041997188388016,-2.572499222357876,1.7222227901196354,1.7343737334598222,0.8757983908592206,0.9352456751572071,1.1510446961837413,3.172037184865794,,0.6180765742263259,3.392568054964101,2.978044291934672,inf,0.8892036267973373
223,3.826175542527468,-1.039652300391406,-1.9065028673547444,1.549385604132854,1.5331475266399035,0.8545383814064601,1.0213673844870599,1.1964669463763717,3.087810949470874,,0.62595550513784,3.9436283448434772,2.8587664184808337,inf,0.8971152430199812
224,5.653141584752278,-4.126793356869163,0.0,1.630755519754578,1.6377699985764418,0.7293385077694325,0.916246954920787,1.055125422252286,,,0.6309483474627791,5.947979435168243,inf,,0.9495862528106624
225,,0.0,0.0,1.6794208579782413,1.6791338005207064,0.8306592678613509,1.1371967124080502,1.0716063117724992,,,0.663668482632973,inf,,,0.9482428740939026
226,5.7037824746562,-2.813866020830392,0.0,1.6359906146435106,1.6114157292154463,0.7636690317708659,0.9766119528276567,0.8161490691004386,,,0.6566669596287297,6.410352675548287,inf,,0.9166635220711172
227,5.703782474656202,-0.5323530309679122,0.0,1.3610492501704878,1.360778984431837,0.6743821948901784,0.7047006091135108,0.7773580332900695,,,0.6125606311107803,8.075360439137198,inf,,0.9390848710673992
228,4.604785287323009,-3.001514539047285,-0.1143901720412847,1.4175615549759177,1.3514188214782792,0.6242839242386597,1.1147026968963627,0.9155757297613687,4.730981566503141,,0.6547956803312163,4.878146111050177,4.73765936903417,inf,0.9625677638135856
229,3.5132250234115685,-2.483713475040006,-1.0295115483715627,1.7109552594498303,1.669404746120406,0.5780457718416739,1.7230589037524224,1.2187359036030576,4.065548954437452,,0.62595550513784,3.4641371814360293,3.9544437213120984,inf,0.9737386105401887
230,3.0953823025969376,0.20498192319340802,-3.3003642257903456,1.686970549646683,1.6179476839306066,0.7470674346196706,1.4871446349988107,1.176545997097055,2.8262944324221504,,0.6602640781246099,3.0774244890660207,2.6533866579780994,inf,0.9520168578946117
231,1.9409169396129347,2.1754402101558323,-2.1281097585051363,1.547982210195466,1.5520549484905453,0.38813225513622207,2.0720241778220347,2.024422189118824,2.606739019046836,2.7382935425233303,0.6447042257417027,1.9220200263955511,2.3348434653243246,2.506310558451154,0.8941530029584136
232,2.448286063175687,2.7810223867306028,-5.22930844990629,1.6932474725503055,1.6927199572316782,0.8152349807235693,2.4357957251241205,2.223092254887475,3.369042892196374,,0.6357360191111145,2.43713287498316,2.6696462796659985,inf,0.9254984859175537
233,2.2563377052447824,3.061767216227422,-5.318104921472204,1.422595037859033,1.3588332188487162,0.8119261607435175,2.019011656945105,0.9769243004699182,3.10287082158924,,0.6528756675646988,2.2553834915097517,2.9557373300081298,inf,0.9529871765144453
234,2.2370576914725664,2.6749128527441206,-3.6972278916793315,1.657950610994178,1.6433940929775657,0.8189218787876242,2.328112107125828,2.2750417581073856,3.189090447327022,,0.6468212168108125,2.235445790156417,2.6153408029979426,2.2129729343043585,0.9529718903022032
235,1.6941414387493219,1.6799358791926844,-1.3667121633008406,1.7540969801971278,1.7120036150470228,0.6379151687508551,1.79212832896183,1.607526138047561,1.9590470475426114,6.356327929769901,0.6602640781246099,1.6925176345784059,1.6466443561642967,3.414442608412176,0.9465546533535513
236,1.604528944806756,1.5925956388447828,1.2696560272690989,1.6271781206107576,1.6031009250715222,0.7161673959892757,1.7783478568511077,1.3794400032396006,1.8842900119931085,1.994926303662614,0.6309483474627791,1.6041740133145594,1.5929946808930684,1.2424870533028902,0.9446691381290652
237,1.9765873940997638,2.1532828338311303,-2.3035815265763446,1.5993593155379737,1.5714202664810508,0.7804973826788889,2.096330739557157,1.9652924220864483,1.9034271811540608,1.7364936569784832,0.6566669596287297,1.9431251419015645,1.719004197136457,1.6361880275100154,0.9668623467914473
238,2.1331125241403583,1.430267303543388,-3.5633798276837463,1.7428645177135942,1.7192862699512586,0.30651734108276346,1.6297698881480256,1.4470817722137082,2.56835269196321,,0.6602640781246099,1.9771256562082349,2.3420305144287727,inf,0.7631719637411978
239,1.7425066693829006,1.7692811514514066,1.5855773686298944,1.7391388030534771,1.6549014392262356,0.8433212286747227,1.958778659012885,1.627233024993139,1.9744504331481725,2.3702757368040643,0.6619902821573977,1.7411931056573673,1.753216657726967,1.5046263948685699,0.9120704246331249
240,0.8639721024155248,0.7250748876117453,0.8628254206901373,1.75098702039119,1.7321941071151172,0.2730683155817611,1.2469432593655572,1.191504700053729,0.9160472183058066,1.3112686911796745,0.648888643467878,0.8631186479619148,0.7241773275652926,0.8374567514410456,0.8067860730284467
241,2.1450184879476897,2.2808168216389912,-4.425835309586681,1.7101654405564468,1.6802181190182972,0.8919284008224287,0.8037911390458934,0.9790693443109575,2.451735371661536,,0.6380535849069913,2.144537255057213,2.242836985943264,inf,0.9243519267956276
242,1.0090062102923052,0.6292564404233301,0.5556862735438743,0.9645231410766814,0.9470815574733589,0.511046194744903,1.2169806072608507,0.896823185328288,0.8475262118224963,0.7042512036153097,0.6380535849069913,1.0067626350382306,0.6244097695418758,0.5123218503351452,0.7628854040215407
243,0.6586755429459235,0.15802785991126378,0.08018777510580255,1.2763555640660034,1.2378950540531681,0.5737222790980571,1.0389311843121118,0.37988357085562474,0.1910345645859707,0.10802655293567448,0.6403206450210053,0.6586598745459115,0.16469723667854472,0.08684110665054147,0.7179943973080918
244,1.3505330311959418,1.0100406638155115,0.8859834085541971,1.531773519759291,1.4490522303422186,0.4874824474583168,0.9242289675022111,0.7066550711514493,1.2867767540898511,1.6897206980854238,0.6380535849069913,1.3503696721820584,1.0144454973481214,0.8859527331065711,0.9141642770168256
245,1.086740909631819,0.4317335956489565,0.26581438080458275,0.06236667603779548,0.0593841334739396,0.5832623762981874,2.012625078780774,0.6007437470471935,0.49088656055541213,0.3239820215056527,0.6380535849069913,1.0865849084553914,0.43820552991842454,0.2723836635557383,0.9431491545686418
246,1.2190273022899891,0.5566771973084488,0.40564730153196704,1.5992662246647902,1.5816620159085553,0.7559075064203282,2.54635528734075,2.529033492975934,0.7754754490428604,0.6115643412463664,0.6233814453054027,1.2190112428578617,0.5633260877912885,0.4122906208398033,0.959779528517794
247,0.6623209682470955,0.21836117528730037,0.12569180500092592,1.2444186155354335,1.030129627615423,0.6292835828021129,1.4287328863909825,0.8587323222925072,0.2560851709865122,0.16460203383895167,0.648888643467878,0.6623162643896929,0.22500915308034933,0.1323832736026015,0.9342821921379434
248,1.7198408554961244,1.650307751517153,2.045796503615522,1.2761586747165847,1.261120862635332,0.5342848189744301,0.7543521107930895,0.6282502057213695,2.1078993347629154,1.9505737339350644,0.6566669596287297,1.7189428066462582,1.6472092332730965,1.932165326628682,0.9548892061870314
249,1.1080902696283397,0.820749798451968,0.5719892437078231,1.5592170966887984,1.5519064375938705,0.6138847408396793,1.486631219384847,1.1545188649066822,0.9730753137074865,0.7820261122373869,0.6740851607140061,1.1079894504807066,0.8273325073912191,0.5782585525006821,0.953493160260225
250,1.3567517495237351,0.7290579898560878,0.4666029856317322,1.1987053378304977,1.19568353044833,0.595078025458473,1.8835408754489076,1.3212568559083298,1.0201407941183374,0.7578524246817168,0.6309483474627791,1.3567355588783463,0.7356786541055281,0.4729796877168125,0.942007910383912
251,1.8328621758709482,2.7689691088516293,-4.601831284722578,1.2566932865645215,1.1830556710336504,0.5272513287471924,0.4173366576730426,0.43994092837398163,2.768972004609096,,0.6602640781246099,1.8328592801134809,2.775649807140125,inf,0.9275093673618342
252,0.6366448398100837,0.15337115463678608,0.08242199655891291,1.4824285524838545,1.4323853183953308,0.5500469446052105,1.3180170143177232,0.852403952802625,0.2196419906600453,0.17203569876981947,0.6509067234006624,0.6366408311196383,0.16004137183148903,0.08910626680962747,0.9566861086471086
253,1.3563128927683146,1.4533857576545446,0.4454144221299634,1.6966032285357733,1.6908300959991713,0.5980982259389288,2.4582111140426584,1.9972790812387768,1.6112265420647074,1.624333081106621,0.6713451011121618,1.348484899724344,1.3248418653194804,1.188848434656754,0.7419747156434818
254,1.6084077406859922,1.2517367129788037,1.2845978741894064,0.8152200444021122,0.8145040825844776,0.807766136114464,2.1630646702611043,2.1791891697014987,1.4222895485473679,2.1592896747354984,0.6357360191111145,1.6080499871592524,1.2554851167833527,1.2870271382777243,0.9529271488462189
255,2.1007180369961653,2.2134311752746307,1.3829442742346085,1.4428484265769617,1.4591949436934766,0.671000473609185,1.91142135684954,2.141144562049909,2.213597522194837,1.3829442742346088,0.6528756675646988,2.1005516900759584,2.2202753247258666,1.3896444480051726,0.9255231983570704
256,1.1465012866468127,0.6400376604187139,0.537967982487682,1.2837213790493207,1.237920745272801,0.5526715570058954,1.7844346430481988,1.2626374072091233,0.7758674137806303,0.7521790828727027,0.6584896970785714,1.1463330248795214,0.6321812175985129,0.47327212285086767,0.9681915491564456
257,1.231814689611989,0.8671307169270686,1.0762543448934796,1.7393967892491458,1.7112499256384504,0.6031366628995993,1.8109913333176428,1.7026147632486888,1.004257095783536,1.3907463281806318,0.6207552362147116,1.2314962718597333,0.8678759053089815,0.9995008553047896,0.9420833875056703
258,1.4572979182322354,1.2290134951664167,0.8272870812071305,1.6511313906852554,1.6477676725698196,0.5839934359293615,1.2006301749887893,1.142590479338787,1.3295921848827683,1.379050167025818,0.62595550513784,1.456430743308921,1.2280657048395538,0.8216911473713119,0.95841924624777
259,0.8954162410124111,0.6527684320050338,0.3989071177507775,1.588537129301319,1.595361206210455,0.4058946592270625,0.9578592838998898,0.7171203595171526,0.8306777168445959,0.7061842808513069,0.6509067234006624,0.8953177657265929,0.6589482726329681,0.405596550424893,0.9545892058606065
260,1.1652616318315325,0.9728014170716546,0.8509802365000074,1.7284888482982863,1.7163579275308054,0.4509555368348666,1.4030534571717739,1.5095788771656016,1.0911509545064257,1.038266574791961,0.6425374456860184,1.165215161336058,0.979227230561192,0.8579788698075377,0.9569798810330101
261,1.1086964657598246,0.5314204298116127,0.22833519444487171,1.0368406891310986,0.9771040137903197,0.7562109721820612,1.5576361271871388,1.041287378247491,0.638126659457806,0.5387242012810298,0.6207552362147116,1.1086962951221295,0.5380974038557397,0.23503636734003344,0.9335021851200757
262,1.0160742080046334,0.7134620256994,0.6483025675606306,1.5550653595235593,1.4949202510196773,0.6386917321218769,1.0535337537650378,0.7731860992755062,0.7883507293971384,0.8212122777856964,0.6233814453054027,1.0160496816862874,0.7199597724372756,0.653829469492043,0.9263692889316523
263,1.009231141419912,0.6638940907448223,0.46372055344623675,0.841944147512319,0.8205615010295995,0.4749699277339523,0.7658283640937144,0.5607227153934736,0.7964801965291564,0.7385428464348313,0.6357360191111145,1.0090763233572548,0.6700690015016657,0.462077062362014,0.965714478310192
264,0.4716027419875085,0.23736245868837125,0.19440733286310652,1.6026702117054885,1.5591420601875778,0.3866206184747379,0.6063819999347145,0.419184984653593,0.4331488477601888,0.4427293001251513,0.6333676938231112,0.4715871045034329,0.2439647524146638,0.20107226385729612,0.9529714552844071
265,0.6467112697096674,0.40931064264233596,0.4070176042328575,1.0682998539244462,1.0298656304169553,0.3788821594707634,0.6558829927106362,0.5285763049472189,0.4743797171132711,0.7230765299050333,0.6333676938231112,0.6467089864541605,0.4159893323662805,0.41371527397335933,0.8860034855269738
266,1.27008595778545,0.8468386771491265,0.6357298724043874,1.3240515287597776,1.297946340766341,0.629441299997839,1.635965516928921,1.5190384449425687,0.922375543965468,0.9404702403383745,0.6125606311107803,1.2700730381293184,0.8535293993362872,0.6424300461749516,0.9070597074451322
267,1.1953141165357075,0.7536743041983276,0.6619389860540483,1.3612660324742596,1.3074852680803297,0.6461906981574175,0.8938816399940933,0.5154458811182527,0.9822985104551601,1.2277728819738862,0.6425374456860184,1.1952333272725353,0.7601437139557026,0.6686384309308984,0.9236982570129667
268,1.7812667439612218,1.4348521955410598,1.7924793609435805,1.3368563842636447,1.3516166836576975,0.7361292891529263,0.6008680184102327,0.5331985856968997,1.6166432250442568,2.2992350061087636,0.62595550513784,1.781215255352384,1.44155703979494,1.7979133348024334,0.9424716197624037
269,1.1002979710148841,0.7521007146969092,0.7177008401068019,1.0365919761075566,1.0245677033331082,0.38008431898719564,0.707528851780665,0.5214243183613483,0.9792057699550331,0.9723707453306274,0.6233814453054027,1.1002469573445701,0.7575810918531896,0.7222687875939894,0.9330209656645494
270,1.5763016908743384,1.1972431055680242,1.824936401394932,1.4066287625045555,1.3792459271610575,0.587512711890807,0.9734029610282091,0.8307718866635848,1.4777360767100525,2.5594355641836666,0.6357360191111145,1.5762718163247607,1.203632488545433,1.8319548692686942,0.9360458874711407
271,0.805635742086573,0.44080471559665435,0.39541267246441003,1.3066866093361893,1.2571189255476833,0.4541173301796441,0.506674132359727,0.3230645626520996,0.5450872324499333,0.5592493061063379,0.6333676938231112,0.805445285985759,0.44690110262439275,0.4011014648203911,0.9523347008009139
272,0.8142136069751024,0.3429001710032916,0.17053293152019422,0.8040813308328186,0.7871524849609831,0.4524879134264503,1.227505464085725,0.5377319170662775,0.3571279181578773,0.20148899095544273,0.6284777104787076,0.8142105907664714,0.3495804239266327,0.17723259564687208,0.9581478968552253
273,0.8334638471030618,0.35217259563205694,0.20257227548041423,1.535250971004849,1.472099842442919,0.49863139031915577,1.1030321469122364,0.6439916258057268,0.46480484059994126,0.4269580534143481,0.6566669596287297,0.83345705079794,0.35884340052250857,0.20926548450274854,0.9504547157697057
274,0.8596480893943237,0.545467758232949,0.41330386616522263,1.586195505996721,1.5477086400062143,0.5302197014946056,0.8874324289646134,0.6018197686577302,0.6018538202345017,0.5035307046333852,0.6284777104787076,0.8596478830137587,0.5521238429784893,0.4199767514521704,0.943860078696204
275,0.5367059394343677,0.22523999834910524,0.15816475434631738,1.0901254843501782,1.0802095372179785,0.3602882512419579,0.705023169982589,0.46413480769617843,0.2884497431100762,0.2470094390001339,0.6528756675646988,0.5366943907177758,0.23189498500902803,0.1648192572149661,0.9547762774440002
276,0.8525888163324266,0.3151237844841245,0.23525353809732796,1.4253610598605848,1.3973871968472764,0.6906602858276797,1.0737521630641385,0.5293400269232549,0.4312761415911087,0.436061890278623,0.6547956803312163,0.8525858914851614,0.3217921529573285,0.24187164196826397,0.9514956050012592
277,0.8920221489133117,0.480101076725746,0.39106204537507794,1.563925660045131,1.5019630601569638,0.5502573048630964,0.971591428710946,0.6167307465745914,0.5680991035075484,0.5473554742273152,0.6619902821573977,0.8920047059939995,0.486762499816828,0.3977752976123672,0.9539547418988163
278,0.7142827697704195,0.25117050177081623,0.17727138310140578,1.0685793767997422,1.0496961434137573,0.48952714660900065,1.0553519905110924,0.49120702988766474,0.33083448995636056,0.20150211765362577,0.6403206450210053,0.7142800255368291,0.257846465858506,0.18397367714540247,0.9496892113163033
279,1.6903830592378284,1.014499790078424,0.7953813049390273,0.6686041468737753,0.6535118488171654,0.9040568065606699,3.0687901773913633,3.0654152108385864,1.0158707144160544,1.0444866156992276,0.6309483474627791,1.690346735818326,1.0212096046131718,0.8020634706449451,0.9475179307787954
280,1.4686277980447562,0.9622776106358018,0.5226200328751145,1.1020583572099085,1.0742392631443094,0.7063611402234935,2.1965087492561732,1.7676539876797897,1.2866870080960313,0.8627707553153303,0.6509067234006624,1.468613732500705,0.968773401319319,0.5290021105000566,0.9547212931911815
281,1.0582837691531988,0.57012555019799,0.4399096972518455,1.7405878037618296,1.6827496871720005,0.4820195479450632,1.9615611506878547,1.1835812648494919,0.7105442848484219,0.4999364138919163,0.663668482632973,1.0582704093847317,0.5767132572393411,0.446415345206556,0.6953608757131332
282,1.4579129042591692,0.9086458287582357,0.8282019208066278,1.3794832099573693,1.3898247813247293,0.646821982042784,1.4534383625158103,0.9737602015906588,1.10268521360178,0.8554242956282838,0.6447042257417027,1.457766493913024,0.9147643053232453,0.8344713530675694,0.9390087845275089
283,0.6803422918032634,0.27640557222317697,0.20821934119917507,1.2772918302521388,1.212521268085285,0.5124612023196984,1.150047939970353,0.5284832951992404,0.3680236249229788,0.2609723850733326,0.6180765742263259,0.6803406465127269,0.28307081048667365,0.21492969970616763,0.8985918707078663
284,0.8285091054611974,0.27661293881456117,0.16079722688021492,1.426412242199489,1.4143291131817035,0.5258939319070584,1.4240265225638808,0.7613246689498006,0.329707930440439,0.2622106185582882,0.6233814453054027,0.8285088184906219,0.28329003198166347,0.16749633832127056,0.8527126439931613
285,1.2715509541494554,0.6356069768414712,0.32034598172022544,1.638423846913902,1.5893612285355367,0.6986096123267026,2.32951597753543,1.4157016141057484,0.8203687496884474,0.34720894570199623,0.6547956803312163,1.271419253093479,0.6414537918874156,0.3267372488517628,0.8756880188676073
286,0.3759225264987906,0.18874234135376527,0.13521634488873335,1.539343386428445,1.5378212420540636,0.0799113355740145,1.025152457541529,0.6598924705715961,0.24411433115461442,0.15155531986327853,0.6584896970785714,0.3759224872273109,0.19542012525887517,0.1419165765566964,0.9597065409379901
287,0.8594869282683627,0.3863787065136056,0.25622212317176807,1.2724267113343288,1.2177469698906815,0.5740534860140623,0.9948457005125396,0.5399912500070011,0.5314155876553878,0.5439216613301914,0.6602640781246099,0.8594641632121843,0.39299885027418574,0.26252367379794006,0.937024989137611
288,1.033703991066458,0.4899524087826148,0.21925304267674317,1.351102668418266,1.3286091767153656,0.6768458178128753,1.3170207097337427,0.6046044547141092,0.5759492973385567,0.32721338794257604,0.663668482632973,1.0336676000277274,0.4966511079537736,0.22594492556171344,0.9520920714487731
289,0.5003821516190758,0.24388445218123855,0.17272545505027825,1.4550967820781824,1.412784874481918,0.2043944959829306,1.3837947187943622,0.8374013999089345,0.3207893416578582,0.25167500715828317,0.6380535849069913,0.5003803659044521,0.2505607244979057,0.17942039405971208,0.610677769314967
290,1.2834786989040154,1.0022992113952947,0.5728250010948739,1.3176330928581337,1.2832498623007602,0.6739090269224245,1.5790266762855298,1.105585754069714,1.1471251677831154,0.9605761128364588,0.6207552362147116,1.2834570260065026,1.0087377889209437,0.5795514788455536,0.950278026071033
291,0.6301313207839826,0.2771189235569138,0.17998504898092704,1.0025683773253695,1.008332706793843,0.29317403212184895,0.9295780859668438,0.5353226676568418,0.3817105538953034,0.3354924821486226,0.6309483474627791,0.6300889211360258,0.28362180847474205,0.18653622773380235,0.7474018745468284
292,0.8304134761326555,0.46704878217556745,0.3847757733555721,1.5932903322158922,1.5647902502259765,0.3102006143408105,1.0830062224282238,0.8295716526093981,0.5940810631010951,0.5914030862343836,0.6180765742263259,0.8303934011295933,0.47372719130780694,0.3913594698690212,0.9598168304568723
293,1.2354373814148498,0.8363238726482034,0.5800497758614851,1.2621646872067815,1.2362453644160876,0.663943291737509,1.2425031031187768,0.842403805155101,1.0041399265208149,0.8856718064772436,0.6528756675646988,1.2353870305060939,0.8418347544354291,0.5845811649953673,0.9168564505524799
294,0.9521578024606346,0.3912792559415187,0.3103748130617048,1.0633847453013985,1.0319978467839668,0.6046322000581119,0.9977729460527697,0.5610561366553406,0.5587926466800457,0.6251637402372929,0.6447042257417027,0.9521482181318663,0.39796423034989703,0.3170722861646611,0.9116094740068232
295,0.910330093961817,0.5029140467299095,0.2888245503333766,1.2154720224690354,1.1181048978011072,0.5976390415274666,1.3231494728143607,0.8291519900341804,0.6797273775052401,0.5776695938951345,0.6619902821573977,0.9102810484726679,0.5094092450434416,0.295416824190863,0.952575219870145
296,0.8940247850729083,0.41196963364533923,0.20144432576073124,1.442255195533857,1.439937519990633,0.6034328803067737,1.5247276315508507,0.612234659293619,0.46127962084290997,0.2813578983385703,0.6357360191111145,0.8940129567775048,0.4186592644717721,0.2081444995312952,0.9202039885867747
297,0.8299971985061803,0.2335200289893249,0.15366102252743974,1.6396319438474563,1.604802022492395,0.6319324695068709,1.2274285075987026,0.5838322283951816,0.26435174800190275,0.2083069610795749,0.6380535849069913,0.8299856227514881,0.24020119173291787,0.1603581454445294,0.8365505988137173
298,0.6499647925854259,0.18885421865958774,0.09743529294144115,1.4653313376379968,1.4174414459745346,0.546487819950254,1.195379261636925,0.6829949714942645,0.2632427128602736,0.2604985954951637,0.6509067234006624,0.6499599853334094,0.1955099171576638,0.10409039689478511,0.9465118119021397
299,0.9590813745894877,0.47866512566642894,0.3625885171249006,0.06236667603779547,0.045676743605990174,0.6071675398318153,1.017595213578126,0.7185614793259467,0.5803570478603575,0.4973844340617825,0.6566669596287297,0.9568234163967319,0.47847446498471646,0.35606166782527965,0.9636291220683099
300,0.707609752896511,0.23924362938781052,0.13511958737982344,1.5881879537901606,1.5831918578133302,0.4026959599653173,1.4213572030216965,0.759468226483472,0.28330659809392456,0.22230583842914436,0.6468212168108125,0.7076067739844278,0.24592441083092317,0.14181976115038716,0.8412434067754423
301,1.0489067304327284,0.8824976050765228,0.5468133261279524,1.1176335762837304,1.1095208258225016,0.441207621741143,2.1004494010999775,1.4972789549560637,1.0423426606288775,0.8330504809812569,0.648888643467878,1.0489019131024504,0.8891172297745372,0.5535764950618093,0.9466548674934488
302,1.79156272475989,1.4237064974793385,0.8717745345273991,0.25251842945491937,0.24141473916871994,0.8042423561671398,2.592428163894923,1.810864536831228,1.605630318461616,1.6619429138257449,0.6447042257417027,1.7915594892253888,1.4303765689394061,0.8784265763828689,0.9493630445615335
303,1.0142779234480421,0.6499832409720976,0.21597187881116486,1.164946924759158,1.1611434584006373,0.5447537067419487,1.8933625379411974,1.100944500761066,0.7149344159037491,0.2552985037682607,0.6425374456860184,1.0142711402343587,0.6566285498889461,0.2225234328812503,0.9546777039821371
304,0.9054233415662793,0.4867128952241411,0.35051752526599045,1.2943819705382098,1.2867867833609243,0.5847508647176398,1.5564768071826576,1.059195170883064,0.6264817802647039,0.5801036392302801,0.6068309995095971,0.9054057444392141,0.4933661381917892,0.35723441689123386,0.8282160243167815
305,1.128733509999085,0.4123174282238842,0.3052051702780012,1.6095708606925163,1.6047775849083505,0.6927169139559726,1.2886043468062545,0.6520406032463342,0.4885256101479909,0.38493841050765104,0.6602640781246099,1.1287279125727332,0.4189879412333704,0.31189428233012584,0.9192619096832368
306,1.0395996580305333,0.49858918582807443,0.28042095933018607,1.0168016115854968,1.0008519322572973,0.656378252013508,1.8753378803614145,1.2906584624569726,0.6040510282496024,0.5164900979490591,0.6284777104787076,1.0395889482186487,0.5052062818361844,0.2869532473895853,0.6750758226639881
307,1.791759469228055,1.962773955107319,1.9425600621700307,1.1203140577998476,1.0936302129055397,0.6645986649232483,2.6475282675175724,2.773489300424859,2.1169246349345765,1.7884093823427731,0.6309483474627791,1.791759469228055,1.9694517576383472,1.9492602359405953,0.7359230298143649
308,1.5277831560746444,1.1293602753924297,0.6463891990213986,0.6015943987204407,0.5876074748586879,0.7492799506575573,2.238222193483062,1.8960483891297586,1.3986371857673996,0.8252701288796562,0.6425374456860184,1.5277555241308511,1.1359588631513071,0.6528355203197124,0.9089931355184112
309,1.4099205384458167,0.5381122011278308,0.1754493666929251,1.3858705723209086,1.281387314564514,0.8041109422453422,1.9280599191652161,0.7227181116630865,0.5981242229155824,0.21698501037150292,0.6547956803312163,1.4097677173055327,0.5443538309768732,0.18191386074139104,0.9563003996457666
310,1.2886999725229153,0.5303007734592924,0.28224576917082067,0.9569449543467102,0.9136303157677884,0.7079295179752364,1.9810584612199806,1.0587161034284993,0.5696139301061592,0.37463407969683266,0.6207552362147116,1.2886837989221256,0.5369082588423812,0.2888550931141443,0.9526414233698218
311,0.88335321837807,0.47889025796961293,0.34981726926775836,1.093452437679863,1.0281563220767107,0.5375857943653394,1.0754996215694754,0.9204830648813245,0.6102173547933253,0.6407378356775839,0.5783247308855777,0.8833396317344692,0.4854641409842358,0.3562320644664419,0.95410966196796
312,1.4268417403313431,0.7192431890278825,0.5573883277769669,0.9095044671515538,0.8474996993724393,0.7272570729537033,2.0988693473660365,1.7467791315412144,0.8249454678409077,0.6735599582592386,0.663668482632973,1.4268386164354718,0.7258907210141963,0.5640253042826882,0.9526192180520356
313,2.039798865060149,1.7104266366821115,1.241300327780003,1.4369181000219533,1.4166047331666285,0.8788192089902563,2.8139300150556803,2.7997183897943114,2.051212091569195,0.9129406449888731,0.6380535849069913,2.039793569387391,1.7166512042223114,1.2442401896333852,0.9415849762756506
314,1.6851814694129652,1.4525520323762222,0.9633236393776499,0.5533558376345803,0.5198809140197609,0.7797837309131541,2.4147181644372697,2.103848243279558,1.6177925400363031,2.397602443602807,0.6509067234006624,1.685059850568999,1.4591724313034358,0.9655643849085874,0.9409834916390637
315,1.9014647370172797,1.9719219766461216,-2.611614330746097,0.7468429638253452,0.7053265908780174,0.7611151390667096,2.3621537547825304,2.70744958955856,2.2761659304365676,,0.6528756675646988,1.901425536782491,1.9761960419283227,3.340288628575163,0.9440259495498028
316,0.8971788679291844,0.40879932885102555,0.27639228086365186,1.460326118042813,1.3929642912540214,0.5832269011428728,1.3176551374258216,1.155178554035429,0.6111164245447266,0.6107372911348891,0.6447042257417027,0.8971419130353941,0.415365162265776,0.28308272198121115,0.9542355837378255
317,1.2352838516149296,0.4864993389683998,0.32742905533660105,1.6503381609406005,1.586857793433456,0.7020214000918041,2.0280910068939573,1.4803560639903153,0.5744435675612044,0.5200817088635438,0.663668482632973,1.2352723800941823,0.49307420128381174,0.3339975137644072,0.7627414781125873
318,0.9453517174407822,0.5860353079287157,0.5347125043335506,0.21731486237733608,0.21663088309054496,0.4271084290014723,2.022897164904616,2.069378824107737,0.861315798030292,0.9446648492470987,0.6566669596287297,0.9452619290116204,0.5924239589384832,0.5413113080214658,0.8743323479852302
319,1.3100791920577035,0.6780310744576235,0.3073457064779488,0.5930199432878658,0.5717560368170098,0.3503947523081755,1.824862111524962,1.117644637852864,0.7551622486312619,0.4128468586173379,0.6584896970785714,1.3100743352084816,0.6846993140386175,0.31405310467042274,0.6620395747113914
320,1.624179058583295,1.080717281828842,0.6196361178460665,1.3480559133693337,1.3599339417217822,0.6922753620402436,1.3734828552881249,1.3527784835896879,1.191730219721555,0.702646268541191,0.6468212168108125,1.6239313252517535,1.0859538917961862,0.6270861923149444,0.9528891492582344
321,1.664948670117848,1.2042411767616434,0.6689054837766473,0.7071967748240688,0.7059964708446431,0.6942470652590687,1.6727472963852943,1.8364274231274418,1.527252557394926,1.9640114669649993,0.648888643467878,1.664598323611376,1.1958263579168367,1.2965047558855092,0.9651505408469263
322,1.3211113343032077,0.8728879821052724,0.6806204163990772,1.6551356958176995,1.557355942432376,0.7427625312698933,2.403227224185727,2.0793739177311936,1.06114390166139,0.8872522935652122,0.6380535849069913,1.321047757398639,0.8790810330849701,0.6870480765160363,0.8899234606919149
323,1.6317414978000666,1.3746088263065455,0.9600830263436104,1.4547590903643175,1.4330098171049361,0.7589947295902599,1.900964449461321,1.8330223099193306,1.7166456102425571,1.5077748212773328,0.6547956803312163,1.631626717723249,1.3802349377606253,0.9357885275874226,0.9038565800427519
324,1.1841735155912052,0.7615799819014277,0.4699396374917868,1.478502414100819,1.456330857173479,0.7041297538763397,1.2330951005619035,0.8242094006214029,0.8987977188876802,0.7674928812598776,0.6284777104787076,1.1840612505005925,0.7666157977424011,0.4698160882205867,0.9494556986002999
325,1.1919951151994905,0.9022181143251939,0.6865727986994323,1.3177639291277699,1.2087248218929942,0.6040798388968218,1.8034068784991153,1.6655165903923552,1.050748083326236,1.0644789731173891,0.5883313578629602,1.1919344458994827,0.9088896371504216,0.6929655770000165,0.9534752347588717
326,0.8914631657799066,0.4399181616379626,0.28962081944774987,1.099390888574165,1.0834720447736947,0.4162760448294875,2.07690403115897,1.8457905836201283,0.5350592065035586,0.4000699916190767,0.6509067234006624,0.8914626271082494,0.4465919858435727,0.2963023265913714,0.8035382955129234
327,1.0312266704916133,0.5551342800031822,0.4416870019864281,0.6075419042900645,0.5977115710288643,0.6214836971186856,1.7797043381210045,1.3253597423335752,0.7422796384148183,0.7755033068175514,0.6509067234006624,1.0312028924388554,0.5617057180440342,0.4478251700938965,0.9431904720839833
328,1.0151138755590117,0.5771512594125126,0.37131771165056415,1.6213914113560932,1.5688597528337926,0.49699564715995237,1.3642980889928618,0.7143031396028159,0.6626843419686483,0.47883758437209434,0.6652988471865258,1.015098688440292,0.5837290448817929,0.3778967836453423,0.953245084072139
329,1.5181459539557045,1.4249527630258758,1.6858188055771275,1.6201774077145945,1.626174197150312,0.6649294041986891,0.8767560214178242,0.6683237974632074,1.6650042781885726,2.5147239172136224,0.6790044388599258,1.5173652911032094,1.420727203004367,1.5587216672428903,0.9488915132089922
330,1.2473074670818534,1.0673294090212129,1.0560782243059812,1.34619732186141,1.2767795472486354,0.7019056859330719,1.126972839246079,0.8148732148911582,1.3323690286483667,2.2750036757478793,0.6284777104787076,1.247228312996893,1.071599086098575,1.05022552924012,0.9511962074578109
331,1.3136014071631807,0.8811070033951731,0.842557030278273,0.5879608009451112,0.5795708046045105,0.7213563302376799,1.0701070685928809,0.7730683657193091,1.1548960649768512,1.5169040171752224,0.6180765742263259,1.3132504469386075,0.8841741504002791,0.8345107248790651,0.951510115237174
332,1.1154566291832448,0.985115778514172,1.1136583204257842,1.375978980532481,1.363126785048494,0.5358929729485601,0.720381424676707,0.7715683026042829,1.2566492444440895,1.3791146860215107,0.648888643467878,1.115419406984491,0.9915989024655795,1.1205059163721713,0.953750647885065
333,1.3608963061856343,1.1430904328172307,0.7956108515025915,1.0378736504660022,0.9965202693742483,0.5052568809762022,0.9925884517102366,0.9285616988825928,1.3810040024465327,1.0165528804783255,0.676637947632344,1.3608432286903664,1.14944960748805,0.802283353830211,0.9487638679425928
334,1.518465998775663,0.9766819881293953,1.4101860303722913,1.1243758084072657,1.015803566399737,0.5372568531718263,1.2764463299150361,1.0930845081874772,1.1438820516699117,1.4253436194007176,0.6403206450210053,1.5184299030006745,0.9831482810752978,1.4171338095029704,0.9421568551676331
335,1.0686384055558757,0.5955539423154848,0.5762804454631554,1.1171915063259281,1.0497925534590458,0.5544936351187868,1.545883965532303,1.3302010593660891,0.7294313112725158,0.7615269251207887,0.6207552362147116,1.0686005146001383,0.6020038330714494,0.5823443784369933,0.949908326181673
336,1.1950180453066477,0.6567891950018026,0.36071157735533554,0.3797155376262363,0.37213026176884123,0.6266829988541991,1.6517602693778692,0.8861622729901286,0.8548046928481308,0.4459548171405587,0.6284777104787076,1.19424251968336,0.6549342204146458,0.3725454688386139,0.9510279509129519
337,1.1239039587952568,0.7417016134285299,0.5511185956070139,1.1432176635704192,1.1423359137811893,0.43959548884482846,1.526758106263281,1.0158892157395638,0.9273393651571434,0.6715961035606304,0.6284777104787076,1.1237933538653684,0.7477310838315491,0.5562460207202735,0.9236935359525243
338,1.4944172175729236,1.3165164449671245,0.8118058339290579,1.4972435896161351,1.4757083585125106,0.8213950978382589,2.079640210833886,1.602492282431407,1.7217693872826987,1.3823867052210002,0.6528756675646988,1.4943251053335957,1.3222387254178491,0.8190908621251937,0.9293315615303037
339,1.7146696271741977,1.2214446849927971,0.9492896296022049,0.5107147288230622,0.49657945821465715,0.753468739579247,2.5402395372925617,2.1010131792082074,1.6177428277748593,1.670098905551616,0.6468212168108125,1.7144281262917314,1.2268159619781898,0.9493436364381598,0.9529819965232358
340,1.3417669312494918,1.2584088939712694,1.0622477361277118,1.479682256697798,1.4604023184829587,0.4078602588735813,1.4996953993187367,1.1117135977498844,1.0900396880251777,0.8207547147780623,0.6357360191111145,1.311228118095665,0.9075265777909176,0.5584669640769262,0.9433648517168371
341,2.273130150991737,2.436697715200402,-4.709827866192139,1.5324157124211348,1.4954274252110973,0.7780091926849125,1.3356648574113223,0.9832852528897726,2.777613015655155,,0.648888643467878,2.2263444759100715,2.567836255022771,inf,0.946640233388442
342,0.7752039575648271,0.4909255794091425,0.49974231628383414,1.4755391066873669,1.4480620867510354,0.4500095374447605,1.1489354137903245,0.8595363856887082,0.658385593028041,0.7200688284592853,0.6584896970785714,0.774959972427098,0.4956671700463273,0.5002192051744228,0.9451131475363225
343,1.1256726894807132,0.6045632544461352,0.5322425144792124,0.8598568398068105,0.836737035592237,0.508067625228059,1.5905479396900133,1.068383658301952,0.7638274289092762,0.681375517473299,0.6699045166045591,1.121369275790726,0.5810371159253196,0.45521293102781446,0.9154783404463531
344,2.32069565553435,-0.7465697845640651,-1.574125870970285,1.4337460169421812,1.430842148154458,0.6686622264522233,1.9012835148010103,1.305165998744797,4.446774639076635,,0.648888643467878,2.3097216085633656,3.86673472389445,inf,0.9433202019593779
345,2.752318956541917,1.1183343707605715,-3.8706533273024886,1.7583809148449545,1.716838684225191,0.7389671265876223,1.7734814196681201,1.5056022889521452,3.534281521506285,,0.6566669596287297,2.7191111484616353,3.163000861718983,inf,0.9598289036181944
346,1.991641728855446,1.6927102907544216,-0.9852795637259786,1.5064378315654527,1.4734281565253988,0.6067222652959104,1.9563555410926259,1.3284814169790917,2.6695585303259834,2.142733739729307,0.6619902821573977,1.9767245169674272,2.0984712264159127,1.5797965671034293,0.9616414954327512
347,1.2691854664600504,1.5252411378383157,1.5526114126246484,1.2940222855304484,1.308137614765862,0.20785192895361687,1.686195883346239,1.6240070155555555,1.6798681126090134,2.9259043477488738,0.6619902821573977,1.2471509674944956,1.4860461160296705,2.6954821008871144,0.6740069004080134
348,1.9906045364810976,2.387962604453486,-3.388362724797817,1.3411467455892434,1.3120684747973097,0.7918937124253164,1.8272668870273705,1.7808164853929604,2.6392707943738762,2.986756785946292,0.648888643467878,1.98396975877238,2.36054702715185,2.3717002811590286,0.9156579702357464
349,1.494636455839303,1.6235994020532432,1.1674283969377783,1.307085412087435,1.276301119137587,0.4004334122635845,2.4138368530889522,1.3330429425470172,1.852585867951395,2.716301793066758,0.648888643467878,1.487761232291338,1.515555284620961,1.4297695213750579,0.6815733014101696
350,2.3188603609857434,0.7424177929269775,-3.0039248637801164,1.5875231931946736,1.5753289906210037,0.548652227770238,1.9575484245884152,1.3838589365567275,3.9509925309670955,,0.6380535849069913,2.296603021316498,3.3058269590794156,4.706522680248379,0.9512846162861452
351,3.0105273322207706,0.6939650194025084,-2.9588995798994175,1.452893317026762,1.450220204529615,0.6758638858736533,1.5296265699966545,0.973402905936682,3.5149018364847904,2.9110705583137153,0.6357360191111145,2.8887730365324678,3.04652123910846,1.8087090275418283,0.9466561311385049
352,4.827086523612618,-4.522046064835859,-0.30504045877675917,1.5924231433015832,1.5360673206849924,0.7331791080466173,1.133935910131498,1.0566744859377337,5.291639564017007,,0.663668482632973,4.499809670330265,4.135166556742356,inf,0.9527222974592333
353,2.485442279220368,0.01296851926521514,-2.364586454842839,1.572458103221551,1.5312689053543527,0.43261889577607776,1.2185288127037506,0.9257941831817043,3.353294583431972,4.574860146578394,0.62595550513784,2.3674199543323335,2.8959593608544227,4.198275485070333,0.8191497657236925
354,2.7395950519390406,-2.3392294497945443,-0.4003656021444964,1.7677064795470678,1.7704248789502106,0.5384776091099368,0.960515649051345,0.6567832255653933,8.047050336479055,,0.6652988471865258,2.6606896297423726,5.702352881846607,inf,0.9696063860756093
355,1.268173551877464,0.7582950872107206,0.9561962901542427,1.4779214453611256,1.4202381796999117,0.6187596993685901,1.840476145019179,1.4814922139652331,0.8717849608615481,1.5726251211876863,0.6380535849069913,1.2668337210832827,0.7582038139395799,0.9124258304071527,0.9553116392870526
356,1.6757814935114617,1.758679442068066,-0.87411993445245,1.5952978341826742,1.5990096818915702,0.5999256416728839,1.9954836741896498,1.5006490716233525,1.4404093443785018,1.2640373161497116,0.6566669596287297,1.5382548485778607,1.1788360971764984,0.7846636908991111,0.9584849395975339
357,1.5908621038326274,2.091489356086101,-0.5494921154873462,1.4956143796691654,1.4645256379800138,0.5019706857826736,2.1653151019508967,1.5628891372222182,2.4961339953304744,1.8454398064463986,0.6602640781246099,1.567816237743281,2.3587565486995965,1.678873787492462,0.7227505121247817
358,1.8641619469718638,1.8945017271836067,1.5751923081767707,1.622382403343667,1.5573531710385284,0.782461593145652,1.8462003492699528,1.6486300510226815,2.0752018902311287,2.0217927624433853,0.6584896970785714,1.8634703167820552,1.8877574661001637,2.0251253846088173,0.9615300968203238
359,0.8088784881206846,0.4804214753560715,0.31322848915024415,1.6673523026025763,1.6146313703345863,0.4039472140773961,1.53414853712827,1.0806457572533132,0.5969626966025623,0.4386408819522784,0.6447042257417027,0.8086328571676452,0.48692743515658216,0.32000748048540983,0.7143450845312915
360,1.358172206131115,0.9364782890425638,0.9078667526972581,1.147812693470978,1.0818209067968272,0.5756575922708849,2.7994214502307053,2.5537019497089726,1.084443814407923,1.6417011509019799,0.6425374456860184,1.3581605218761195,0.9430921258841478,0.914295387015259,0.8145977617917654
361,1.6089768494879173,0.8465080015970636,0.36598968696342027,1.531126991305237,1.5275673915137615,0.6359062718446541,1.726167431867907,1.2600364684884153,1.165957039310653,1.1243611886072222,0.6380535849069913,1.6088825111424003,0.8525680626092588,0.3712184740162164,0.9457241991552979
362,2.1728264076829715,1.9330953393551624,-3.4486828844580124,1.5312201316416105,1.5247213382746962,0.5435674253823408,1.5095578180101927,1.11276612171211,1.4625125494716291,1.0193414220627104,0.6380535849069913,1.9092675426900074,1.3247219199882412,0.7547946038833592,0.9373836437329252
363,1.435704262294881,1.500537374811506,0.601658449627458,1.6564508408002392,1.6078666700246889,0.6202297621109167,1.7701792762643942,1.3456640677675014,1.7514765375738603,2.368877488373908,0.6403206450210053,1.4273941720053165,1.4241415621056501,1.5439139208950556,0.9527999238587777
364,1.474918515737658,1.2611331941485817,1.3847890694851848,1.2346192912786484,1.231262258567668,0.6515012126780381,2.277951455729064,2.124713255406893,1.5422840145331855,1.9048438758303525,0.6602640781246099,1.4747127881463702,1.2656884431734994,1.3857780544222498,0.949462692104767
365,1.8067739118318422,1.0827313227484643,1.2750350692146992,1.5152142420134995,1.4579330831474357,0.7672139256191999,2.4489908273212264,1.3400043809864552,1.2759627360187187,2.1630858591106343,0.6509067234006624,1.806670081963809,1.0881113844210557,1.2714171996052195,0.9591925947753607
366,1.4171695806460771,0.7148416116059659,0.5316735031724646,1.0212367416738877,0.9849818133548116,0.7024933096176761,1.827516751535966,1.29863639400091,1.0196745799387208,0.9870889653909071,0.6357360191111145,1.4170285204897517,0.7202304756790335,0.5288498371452534,0.9493197179851586
367,0.7861672839097793,0.44699851567869775,0.3165315051239297,0.7189483143225487,0.7173625343594704,0.2865018935969993,2.0312419884410304,1.3782061299994077,0.5452727873332147,0.43988851057688205,0.6403206450210053,0.7853843092485902,0.4514560987029628,0.32169317462078006,0.7652858712415149
368,1.12939714004828,0.8097746920010875,0.6989108389344723,1.2147739961397233,1.211465571890272,0.23014857286306425,1.6943837755925544,1.4941808392712186,1.1397703043557896,1.0883516644620692,0.6447042257417027,1.1285218190742534,0.8086488529276589,0.6799729704126217,0.9155330308536771
369,1.7876450694947956,1.6322641809903455,1.4674556319486105,0.10234807851457901,0.08491182195980526,0.6762002095359951,2.014411179970053,1.661528668323717,1.7294723712760613,1.5357549181046093,0.6380535849069913,1.786838264908987,1.6281200320032054,1.5110295231237785,0.9525781033817808
370,1.2155972727936515,1.0158539410473217,0.7471579715706529,0.14257358439717902,0.1373815328258097,0.45229051654799796,1.9398834908757732,1.705545048323947,1.2656993862115897,1.4429300625211374,0.6068309995095971,1.2153333883781154,1.0202163032797718,0.7451845063186687,0.8600066112420547
371,2.469481368765014,-0.030112261637505355,-1.6788202862044153,1.6528619623096226,1.6572075739254004,0.6345713121013684,1.3322999663805786,0.9227237599893376,1.9942636657042077,1.3724484642084083,0.6547956803312163,2.271732629511281,1.7303366566016487,0.9377969370951186,0.9272985566286454
372,2.0646362256424906,1.7345697226653107,-0.19066459057117724,1.4417754069993503,1.459323405752521,0.5619957376113771,1.5573439526524708,1.061030433956872,2.72338032907495,1.4940449973299006,0.6509067234006624,2.0587678341892035,2.3780670369796733,1.357601971755455,0.9545683712451875
373,1.9217842641203644,1.9631458602323262,0.44651774409878175,1.6426282264782328,1.6321732232983686,0.8737199507558567,2.069387656085153,1.7765245608615166,2.00773351083186,2.44419148778103,0.663668482632973,1.9183814535516428,1.8304839374924602,2.1412466618035912,0.9656261796680128
374,1.7774256293231254,1.4000980545741137,1.4415097214318928,1.6529474812818095,1.632612305278143,0.7021627638171182,2.1219858178356183,1.80852880828949,1.6258199083165774,1.6111766073094012,0.6447042257417027,1.7770679204850652,1.3980568703570004,1.440095730999527,0.9146409350948475
375,1.7665827263042597,1.491441357968948,2.439069402232197,1.6588740176224999,1.6574187718969162,0.47798781396717155,1.5570996335120195,1.587366918768544,1.620926330693664,2.534703295390646,0.6380535849069913,1.766286673255024,1.4974702992858935,2.4467144902660802,0.957794456957372
376,1.8241683655516392,1.800626482874376,-1.5138716787294735,1.371856640170281,1.3108311827498396,0.6049550784701688,1.9090295580214245,1.7766451087126118,1.66679126876207,2.2557688901402417,0.648888643467878,1.7846514577686772,1.478815028205201,1.1932836948959396,0.9651536507178338
377,1.9255443090060969,2.3662457867156608,-4.291790095721757,1.6556383353976853,1.6660994361522896,0.727900818597606,2.260661837845902,1.9276384644081905,2.6538328122772654,,0.6668815377411301,1.9237682121484205,2.288609416985273,inf,0.92428997022659
378,1.7984875727823222,1.7907347696136893,-2.0931618748184584,1.7064806606263834,1.6787328098331615,0.7174120943668097,2.136571352863501,1.675042571672308,1.8864958209240632,,0.648888643467878,1.7970400536719804,1.7808945064902288,3.025609344416936,0.9258739838541634
379,1.1853599975222235,0.7937669326069676,0.716416451900207,1.3962312937999404,1.3202218331800109,0.5349023882681706,1.9240653816255262,1.0699027992202956,1.1183070506249826,1.0060210606780187,0.6584896970785714,1.1852964464725042,0.7994007320126948,0.7223535222839277,0.9181486352296372
380,0.6025171912354995,0.24096435608881261,0.1807291730575339,1.5117168300623993,1.384820988075332,0.4250020724701979,1.2782090907050956,1.0236810648057568,0.3640914843670003,0.35840765800942537,0.6380535849069913,0.602473997653996,0.2475349417966596,0.18722606954255053,0.9074451047382757
381,1.7238742490452208,1.1439642540867387,1.2198170709393454,1.6735314848454421,1.6368283522586156,0.6507454180310135,2.057362313138266,1.7872174924296926,1.4117048731403619,0.9521613581421544,0.6125606311107803,1.7237893427887878,1.1507090659510868,1.2265351416330228,0.9045649617915473
382,1.1642323927604956,1.0395195414030243,0.9452044848497505,1.5781383944085423,1.5553736610911197,0.5448053613662793,2.6530524217333604,2.4943337312135316,1.2822624908247762,1.1699953288424867,0.62595550513784,1.1599559189091617,1.0094589577877906,0.8438027111980583,0.6001634472442986
383,1.6395562274652518,1.5003193506524783,-2.693627176583095,1.655982736587748,1.5902378107231085,0.6546238248164694,2.2937993679105597,1.8618294395646666,1.5999037811973174,5.590581534249079,0.6309483474627791,1.6387523001028756,1.492163523787666,3.9459157851355293,0.8394352918473537
384,1.0029133412545195,0.7318891398057255,0.6741265021711078,1.6149743923698217,1.6267747488260271,0.20503424629623448,2.0788529825831636,1.6384254229645618,0.9478770174930816,0.9414433119179156,0.6357360191111145,1.0027870899936222,0.7368860660361013,0.6769519863418711,0.6982113516969354
385,1.3381696173501476,1.1954297970644245,1.293765107838297,1.6388763759031941,1.6252933089000516,0.4946539343579162,1.3335122006936213,1.045020850987146,1.308914299441764,1.6842545963355255,0.6447042257417027,1.3379699138453471,1.1997750829586544,1.297316967488016,0.9477832154135432
386,1.50483200555413,1.5265438847963115,0.34366878771737275,1.0156873579531112,1.0072029742225375,0.5318709315222377,2.30820939820377,2.2238806370571838,1.587856557302616,1.3446971316787741,0.6233814453054027,1.498443298159181,1.4409086419587023,1.2640637171585793,0.8922969740841797
387,2.5005110945429316,2.4777326078548954,-4.978243702397827,1.6350927115943603,1.6339576338829462,0.6932354522990185,1.6367991083225315,1.1300537413950897,2.759062037770207,,0.6619902821573977,2.4954958513422687,2.4506009216164157,inf,0.9443900259404829
388,1.762195896726001,1.9307657849183897,-1.5626694546061342,1.627962785270169,1.6162799418882703,0.6767056860467856,2.4755677104410894,2.6215979954966095,2.2242478654197613,,0.6425374456860184,1.760260802168684,1.902301343627879,2.597508326702386,0.9674777699413206
389,1.9558119529267242,1.8190083556230061,1.6226077706102013,1.274307468846669,1.2660076549602992,0.8630621601420356,2.3162449813743513,1.985798338217832,2.296142741549141,1.6217557444992983,0.6528756675646988,1.9548275691001231,1.7860471801321938,1.5618969676651002,0.9497193432368815
390,1.331724702605297,0.9609873462917102,0.6798608925307237,0.6766396145839512,0.6578438727312825,0.6748789179640614,2.0085588468638162,1.2904653225057272,1.1092267161294835,0.750942777355157,0.663668482632973,1.3301661073422895,0.9161436776844212,0.6228877376380474,0.9611228165469113
391,1.9325105081646574,2.6571223353030673,-4.360219682937306,1.7308190069825071,1.7162190409598779,0.5370188086085557,1.8998259097297996,1.5111062470087333,2.8916317164755925,,0.6584896970785714,1.9230837754511056,2.7558525607765945,4.243721963296701,0.9504519304497183
392,1.7345727213687867,1.8714167299472428,0.2293522139543156,1.6578392105778823,1.6126676161506535,0.8046818065423245,1.6373257482959451,1.7495445916170476,2.036387109727221,2.711591521383843,0.6547956803312163,1.733553456163693,1.8408075445076513,2.0524604328487284,0.9597187276733047
393,1.5503045775039486,1.0832376662614844,1.7553227549440686,1.6122956810751072,1.577609931004395,0.697793189888214,1.7409562877537144,1.9383851411374244,1.271882272490305,2.1377939021843004,0.6233814453054027,1.5499642795487503,1.0885598589048495,1.7443917804051658,0.952371185821231
394,0.9920142699470119,0.38424618418578926,0.14117709391978783,1.1805745423661977,1.160224141360391,0.5863146929163316,1.0644809114772562,0.4096111971503622,0.5806536307941168,0.8242221347088085,0.6125606311107803,0.9917928377740393,0.3901554257691712,0.1477546808720362,0.9550079090223166
395,0.9540306913659503,0.21381338887148005,0.13480025159553533,1.0135384830464005,0.9923935530624907,0.6499644279294626,1.8577348801955496,1.2880696412606165,0.2601183410854369,0.18703890893221767,0.6008849035917525,0.9540214445186141,0.22050043824984553,0.14150042536609908,0.9258598178665841
396,0.950077833633951,0.22846869197755248,0.14901468706978638,1.2812458852360584,1.2704559542115785,0.7483987466378933,1.6522827326820637,1.0744548884676952,0.26172985603205945,0.1812211896426882,0.6097226960127671,0.9500773476264871,0.2351463980099254,0.15571491376268096,0.6983910630320731
397,1.3436341110067034,0.832146263431851,0.6309413541706852,1.2407052827971772,1.242147874981713,0.7516734244811819,2.7277403635296533,1.8299620364193232,1.0253379079397749,0.8429512389725622,0.6547956803312163,1.3436180868394543,0.8388164050241297,0.637665213047249,0.9156261253626262
398,0.9525011002813335,0.45698657079500427,0.28210912894142326,1.5377743381453517,1.5160719775528861,0.48850769968651864,1.8842028092830743,1.0126230852906044,0.4852699158112553,0.331856290908518,0.6425374456860184,0.9524937805381156,0.4636185275095144,0.2885524543294912,0.8432494736397403
399,0.9304260125791818,0.34642093763107595,0.16808013062293736,1.1634869683441142,1.1317586732441778,0.7452945087458079,1.582031741354231,0.6675502596996399,0.3613913733397085,0.1857765791506733,0.6380535849069913,0.9304178288389158,0.35307929902631324,0.17474685256787273,0.8697961027083524
400,0.3101701143589592,0.1070867505930948,0.054108037936239584,1.5725450958732454,1.4334563145560024,0.3508299912326068,0.6335512930599796,0.31559156799150767,0.12758330455202435,0.07644488571574197,0.6125606311107803,0.31017007993377643,0.11376454445804926,0.06080820628782664,0.810474258340339
401,1.4442902310616368,1.4199575028039788,1.2331422904308051,1.748006515650786,1.6991101491851226,0.28777980498564065,0.2160725941277008,0.21811699617694744,1.581150737396262,1.2857719939037346,0.6207552362147116,1.443876394085517,1.4255169574254558,1.2404033152700493,0.9352940072529893
402,0.36566885428326384,0.15191686669967813,0.08430619161804742,1.6799791162980706,1.6599418468967693,0.2235391910688403,0.8191935320184401,0.7269194718082658,0.20254474240197123,0.10383118779122559,0.6309483474627791,0.3656676382340983,0.15858100586403312,0.09090921760011962,0.9652754671127416
403,0.6955798210950116,0.39800545786507857,0.5428489493872712,1.2249790217848302,1.1847444232757396,0.17191873599869154,0.1646430711644489,0.15616040630097894,0.5703822630385714,0.8557779405711048,0.6180765742263259,0.6949933280865265,0.402419680006101,0.543916982110023,0.9527410284912191
404,2.7765144080744735,1.6176947373474206,1.3028843410835105,0.8465064494578144,0.7688795466428041,0.298104200903664,0.07192115314617262,0.04756020682949953,1.7498311141422678,1.1822961763658146,0.6699045166045591,2.771700228178666,1.601476791218233,1.3372944434100986,0.9442604069864132
405,5.7037824746562,-5.7037824746562,0.0,1.7159768018066817,1.6880639690753054,0.6601784954184982,0.045679452723731785,0.04726957861526323,,,0.6425374456860184,5.703782474656201,inf,,0.885739231325897
406,,0.0,0.0,1.7438378967805008,1.7453206885705264,0.8340215619035066,0.014326065636587662,0.01904425347736955,,,0.6566669596287297,inf,,,0.8484213388906318
407,,0.0,0.0,1.614811513926355,1.5950260136647454,0.8369344504309228,0.015412400906948332,0.019708535225303962,,,0.6566669596287297,inf,,,0.8564548138781972
408,,0.0,0.0,1.6878518320996259,1.6644019362780929,0.8427996093268014,0.017045647437453543,0.023462621135672112,,,0.6403206450210053,inf,,,0.8499746251393608
409,5.010635294096255,-5.010635294096255,0.0,1.617370013484278,1.594464878968731,0.9361149942551803,0.020730904340416672,0.034967746680903564,,,0.6468212168108125,5.0106352940962555,inf,,0.8496948904206917
410,,0.0,0.0,1.6875621897276778,1.6456871518860898,0.9281597011348005,0.018061717738128705,0.032349707633881314,,,0.6097226960127671,inf,,,0.8528937412091406
411,5.7037824746562,-5.7037824746562,0.0,1.7074425736914802,1.6924328027946198,0.9309491715742672,0.025126292992501388,0.04332911192017731,,,0.6068309995095971,5.703782474656201,inf,,0.873921381042519
412,0.4511231693018783,0.20147352400573443,0.15034934581911497,1.336692117388833,1.3278548426420396,0.39877969673356384,0.4713203989163887,0.26582565106778444,0.35484612933815635,0.40703806884504706,0.6425374456860184,0.45110773098690066,0.20813197198899566,0.15700460806420133,0.9545360222689566
413,5.1999530262315705,-3.9346311231818882,0.0,1.758200549021605,1.6825003716218363,0.845881757029012,0.01388884610930733,0.02182948664756878,,,0.5915533975974677,5.43630310952194,inf,,0.831238712817941
414,1.8988753706464467,1.372535079317473,1.7311752348133922,1.0256513896605532,0.9712409651071818,0.2035526274388144,0.11417294891996843,0.06497688215197558,1.4958083862569092,1.6229064895471572,0.6207552362147116,1.8970459135551558,1.3801654883260084,1.7384364340386358,0.9536119347587974
415,4.0335707099574485,-4.0335707099574485,0.0,1.4868618454832898,1.4843880426487144,0.9396399470215435,0.043406789472594506,0.08286917369770895,,,0.6333676938231112,4.029806041084529,inf,,0.8451826185114568
416,0.22327528915111594,0.16890748896614072,0.18756001438153347,1.147235594112387,1.0974630824789071,0.07424583990622804,0.14850490684661938,0.17252557256788892,0.330669877947467,0.4067472730244874,0.5883313578629602,0.22321299817003126,0.1753923585904234,0.19369146361955042,0.9422997590336434
417,1.2232563964725789,0.8228158203285303,1.0034618338347592,0.9532937047362962,0.8717881441120988,0.3610031422019159,0.19262029340544823,0.22820155829502137,1.0223158441969844,1.5651498380874322,0.6425374456860184,1.2219482131141934,0.8252197680153468,0.9815467263883692,0.9000155597284035
418,2.1690117763330248,2.1165918050292865,-4.285603581362311,1.6834261075469226,1.6439532385645672,0.9343770590822851,0.31576767459905636,0.594742641385856,2.2418963393509004,,0.6333676938231112,2.168734306936592,2.1087321322502324,inf,0.9116749993522827
419,2.151922992365195,1.845084666279896,-3.997007658645091,1.1317300376744808,1.111424274646169,0.6449049651628814,0.22855906451147273,0.4076047668286814,2.309273516668687,,0.6509067234006624,2.151391160993047,1.845826690498331,inf,0.9076100927595617
420,2.0113711736261974,2.007835501684311,-3.4069284618534654,1.066629637041206,1.0491452637168541,0.6525317730038571,0.7908578938192756,0.8273671524815518,2.1220515395564257,,0.6207552362147116,2.0099154790312257,2.004386375517339,3.67969102805953,0.8929165782823137
421,1.8153824362760955,1.0050074216838756,0.8229685039801282,1.7661399291104107,1.7218916988934647,0.8938448849798895,0.9154840800882021,0.9542730310841362,1.0987141731224592,0.9180783432490007,0.6699045166045591,1.8152328254136971,1.011038007075944,0.8263838448013311,0.8671441608671402
422,2.1387415683344244,1.1881453263746051,0.14319486724416608,1.02675344811407,0.9454427010648563,0.4551903812295712,0.1597506668815001,0.09438747942980513,1.3740813243865155,1.5826418746603983,0.6125606311107803,2.086578057249156,1.1124951403228653,0.7969354639292179,0.9283829328461979
423,3.7113098121563053,1.9891337612343816,-5.700443573390687,1.451642797750276,1.4294539210174904,0.8519682513493148,0.03562926082217467,0.06429913427720702,1.9918148238917321,,0.6309483474627791,3.7086287494989545,1.9984926264227614,inf,0.8712306362388244
424,2.646234432555008,2.3610619602757335,-5.0072963928307415,1.6944888621517737,1.6553576825148382,0.9667564120437174,0.04821997579227862,0.10152985332561362,2.7534574586374654,,0.6380535849069913,2.6460148101827574,2.367959385179013,inf,0.8534375480269378
425,3.1028375686878773,-1.1429938880649373,-1.95984368062294,1.6981072936519632,1.6313973506840072,0.9461219201837884,0.1647352921903523,0.29147596826590405,2.363818496079227,,0.5947193981915972,2.9412440882699213,2.1564025828159643,inf,0.873576033193422
426,3.500811971692317,-1.1176833874988863,-2.3831285841934307,1.5971220591129285,1.5390362707798846,0.9027430797751456,0.055205098975436094,0.11101879285848879,3.54669787173118,,0.5641709578113449,3.388281156395609,3.1909700556144918,inf,0.8883637959570704
427,3.1982875608300265,2.5021560125606603,-5.700443573390687,1.7339188962861254,1.6943116077579978,0.9222569624965845,0.05289895503684521,0.09526316042252836,2.6074686367047404,,0.6403206450210053,3.194996551078258,2.512124824843458,inf,0.8754215076883654
428,2.26199018345374,1.897811560163138,-4.159801743616878,1.457910003701311,1.3897067308907842,0.7568825532935041,0.2155627400991053,0.2548591928602955,2.4687019412853926,,0.6357360191111145,2.2588872377283264,1.9023096314816148,inf,0.8358179345990164
429,1.9100982760475653,1.384891102968413,2.062508508960056,1.7591315139516028,1.7253470599263785,0.8277210046721467,0.3189812435091093,0.3706077133421294,1.7295503481007106,,0.6207552362147116,1.910017617732675,1.3883223784897725,2.0134003906577296,0.8527723816599801
430,2.567932285030456,1.7677197231925454,-0.1488618285428558,0.8396648387898565,0.7363693974887543,0.3878449385969937,0.16179820145704,0.13847047957540748,1.9890132346138747,,0.6233814453054027,2.502120630522688,1.7547428611971874,1.7616297277760258,0.9499058772965119
431,4.605170185988091,-4.605170185988091,0.0,1.6089743934107141,1.5645771856959514,0.9600477040686838,0.024510347598588944,0.05383734813973205,,,0.6509067234006624,4.605170185988091,inf,,0.8830642907085824
432,3.851288954840722,-3.851288954840722,0.0,1.6077235242794,1.5664609219179881,0.9471839569525418,0.03200463246597925,0.06220128489230831,,,0.6357360191111145,3.8480054533047023,inf,,0.8614698336254466
433,2.5775526180748587,2.017119292250076,-4.5946719103249345,0.7678787162813875,0.6288400176042008,0.8988656064036048,0.2360509311761764,0.27540366493731205,3.385360957585443,,0.6652988471865258,2.5602050738382283,3.362562941983519,inf,0.9206320714429913
434,2.2775834642499975,1.9393284109380557,-2.3242533008120967,1.5756915363682258,1.5413381484628816,0.9692577463373506,0.4144269567061458,0.7585292506641859,2.2312876301311126,,0.5978297680564633,2.2759431620476245,1.9156467846133116,2.620855152516876,0.8939752837095879
435,2.0590931241774326,1.64775452104374,-3.7068476452211727,1.5915046062432878,1.5550947057332807,0.5056226218465253,0.15662647598775314,0.20636257708652528,1.7777937635394343,,0.5915533975974677,2.0588549080714476,1.6511346944386114,inf,0.9379937454026445
436,5.7037824746562,-5.7037824746562,0.0,1.5585551507518347,1.546741090001846,0.36679672253275036,0.02970021389345276,0.02855571324066422,,,0.6652988471865258,5.703782474656201,inf,,0.9042104746369644
437,5.7037824746562,-5.51365639216766,0.0,1.0857196275940324,1.0314315550505575,0.819990458750733,0.024727894309571907,0.041960402736772304,,,0.5978297680564633,5.737684026331882,inf,,0.8484093909458179
