,bvp+eda_XAp0,bvp+eda_XAp1,bvp+eda_XAp2,bvp+eda_XCond1,bvp+eda_XCond2,bvp+eda_XDist,bvp+eda_XFuzz1,bvp+eda_XFuzz2,bvp+eda_XK2_1,bvp+eda_XK2_2,bvp+eda_XPermEn,bvp+eda_XSamp0,bvp+eda_XSamp1,bvp+eda_XSamp2,bvp+eda_XSpec
0,1.8982558452459317,1.5055537306840017,1.2142904492573945,1.2058800466305966,1.1661240516349072,0.857745180235008,3.8622833831435566,2.1123942596609413,2.0104523904240597,1.7884093823427731,0.6547956803312163,1.8982317137385718,1.51167010855373,1.2166055010839207,0.7140570859209571
1,2.0601353681023875,1.5336859630723745,1.410124974770698,1.5322857158290377,1.5027651007356873,0.8270076497835743,3.686551552899072,2.8950126527173596,1.5837612655603732,1.3601103011961002,0.6233814453054027,2.0600747391889858,1.5391671597323604,1.4180823833257061,0.8964927517923404
2,1.9477590683928812,1.9609250357697499,1.7884093823427736,1.3610497003223683,1.3346563598212007,0.8260148802875424,3.8151164795275507,20.211252650212213,2.1129885404593156,1.6363931750441474,0.6233814453054027,1.9477117710019414,1.9676501356917193,1.795109556113337,0.7798012788987099
3,1.8370728577105144,0.9305253303145242,0.552069326042655,1.2707997839621654,1.23001591126896,0.835679840399208,3.3982879082155644,2.176293225867962,1.3069844837093707,0.7613137194702884,0.680118107274185,1.8370358140976903,0.936976142682279,0.5582814462349749,0.8188031034113908
4,2.1922691150174978,2.40282713790855,-4.595096252926048,1.767928778397422,1.7380542979637166,0.6843518028198937,4.727192817807765,20.515099965355695,2.815158854543079,,0.6652988471865258,2.1921375382876622,2.4085980506325635,inf,0.6308030212187742
5,1.6627628167479003,1.2291058421329168,1.2804017517626542,1.68644652128309,1.6911811386538762,0.7715158291171583,3.6900582546952703,2.726329054556777,1.3163970088449686,1.4296610130027165,0.6309483474627791,1.6624871335239157,1.23551365153674,1.2819016655230915,0.9093606419202972
6,1.6612031955443018,1.0948013986799443,1.3316509798470588,1.4904225968346516,1.4553577302200222,0.7383640823505963,3.414448826921667,2.0902732521665603,1.6413491480438294,1.295932897244979,0.648888643467878,1.6611991525484866,1.1014832442067888,1.338351153617622,0.7890673714508707
7,1.6573813291458142,1.4785741016223102,2.558812058487078,1.5142401962744625,1.48003382832606,0.8451500307907717,3.939746433737106,10.037293702014006,1.9637151786840694,2.076091454794554,0.6403206450210053,1.657286853026781,1.4846279307052914,2.5652065921896434,0.8509602843038472
8,1.661777460633372,1.154618795292815,0.7324830439188088,1.5138127930966632,1.4853122226053455,0.7492226728026289,3.422244807185616,1.812079761185406,1.3783883086903355,1.7249436810188958,0.6380535849069913,1.6614917298641287,1.1604739953679755,0.7386182419415098,0.8705312115050501
9,2.001912035978792,2.599919248743786,-4.601831284722578,1.5033277082477916,1.455149941410642,0.813198096836392,3.707139564176242,2.6284287095516,3.1074957262193186,,0.6447042257417027,2.0018222810037343,2.6066868062498716,inf,0.8774107344482823
10,1.7596699060791305,1.49554714225942,1.5471964531223503,1.2720533670461407,1.2586401217499656,0.7691088112236059,3.2993959723760975,8.39075112359513,1.6064462136014543,1.6914291195851543,0.6333676938231112,1.7594859086777592,1.4999226007130182,1.5108984086371675,0.6960933827990302
11,1.944129876675568,1.6637930982086924,1.1454221143713297,1.3074389920087113,1.2831732736844896,0.8024451907488955,4.356058747230473,6.1063103125242675,1.9727541571146376,2.290844303678343,0.6403206450210053,1.9432027063770736,1.623655791185929,2.3112773642379763,0.7823801805551899
12,2.1060420889008196,1.8850362884083491,-1.059364303635833,1.4742565046578546,1.446046791807425,0.8437788557470447,4.097186903088165,4.429183725904394,2.151231643347277,4.00536488148974,0.6602640781246099,2.102096232244642,1.8583003574677197,1.7946791793313897,0.7682523845800436
13,1.6498536291623038,1.4843224043928922,1.8978815771020532,1.738594365093465,1.7650407364808773,0.6646971391450308,3.4647920965519416,5.64741459137787,1.6466557835483024,1.8082452029263016,0.6333676938231112,1.647716846977885,1.4865115038300312,1.7994459021522113,0.7582403139050269
14,1.910248801739831,1.9994545935877948,-1.1316118152593542,1.6225522486321478,1.606934292093055,0.7171792180087342,4.065208481685621,13.31654920132895,2.2242441237818427,2.7499657475407577,0.6403206450210053,1.9091175951713582,1.972268440794898,1.6400748818959903,0.7390629387340764
15,2.039499252321991,2.434967100274582,-3.365636076699548,1.503320177178709,1.469768494218243,0.8403154334854926,3.1999152080840085,3.647391829109001,2.6610615208522392,,0.6566669596287297,2.0366375126882708,2.4105797075228237,2.8999047185548883,0.844788648766243
16,2.297743382680441,2.2407287972628365,-3.56700657741668,1.55679642131869,1.5184454920650867,0.8672804929671645,3.3979758760426404,1.2034770077773103,2.246545960230153,2.408221048617733,0.6309483474627791,2.239610293832657,2.0662786838603013,1.9896881832629003,0.7143605982268154
17,1.882023807654002,1.6571903202695888,1.2839476687659883,1.3539998776435858,1.2948796247320256,0.8031104471094727,3.8732325117978523,2.2236403891544247,1.8803335136541077,1.7659929409553121,0.6403206450210053,1.8813924614680924,1.6575355936601426,1.2633389732359654,0.8324281463644875
18,1.5917728875303006,1.353986611052317,0.8886353148921358,1.5702292846982393,1.5844042129391793,0.8209207950675473,3.549885079805079,2.6780781054050964,1.601288038105468,1.056323074729099,0.6566669596287297,1.5913797251790707,1.357893140637255,0.840040985619381,0.875040566249591
19,1.8608289496779202,1.4456216311953505,-2.03435463820331,1.3573986758325374,1.3361177421668184,0.8166968932930555,4.723546900835515,3.319804951457076,1.8126591390024591,5.641833826655159,0.6566669596287297,1.8602524656733552,1.4492777274629762,3.7160081215021887,0.8016815904675121
20,1.5984498944936574,1.2161647363332553,1.8637169578385895,1.6115949934244418,1.5679681511860981,0.8064859176249083,4.172292549398837,7.669518164402708,1.4481625867810222,2.298946266251112,0.6207552362147116,1.597344664746717,1.2197766314098548,1.810521745683578,0.6836196528780765
21,1.6958190933443396,1.8595502910477588,-2.7802835400435044,1.420754229689882,1.3796084037852092,0.647072828126059,3.550540773243999,3.028163410756268,2.001178183825133,3.3994399274577987,0.6097226960127671,1.6895037685237075,1.7958001224354474,2.9049812215383226,0.6847647572727424
22,2.1047905757223915,2.4495341502502046,-4.496971435839991,1.7367614210619817,1.7297572620390638,0.724922877068762,2.9227362158992967,1.9567216228418327,2.979679678741044,,0.6207552362147116,2.079086049319178,2.615522699316154,5.61434391200896,0.8290136738104535
23,1.8689336609557627,1.8025049971555176,-1.5406729481614727,1.3484105064366514,1.3325992427537685,0.7921566577715059,3.5770111195158387,4.450884751106035,2.119300858244243,2.989634328046133,0.6584896970785714,1.866411178923835,1.762523623062758,2.6253385528280306,0.8747580343717253
24,1.9285760336404285,2.312070184812578,-2.1327314565943913,1.374830029513348,1.3734922558765121,0.799596170156193,3.4321402893345327,5.116081642073065,2.8349363851886333,4.237891354798322,0.6547956803312163,1.9234639602254833,2.1316598888433362,1.4335472459704361,0.9137569203330368
25,1.6267320706168653,1.396166473601363,0.8729252005075794,1.6845398603178494,1.6616001406191154,0.5803915554877876,3.499293553904726,6.964000620697208,1.6062131715549801,4.067158194243388,0.6684167106117298,1.6264710449903408,1.3949209753442278,2.7585518152871966,0.8340854576085748
26,1.304391205599032,0.887936740952304,0.6364043766763494,1.578593902220976,1.5494767214928495,0.6459397472128865,2.562250213342409,1.7618276538383997,1.0578077991234103,0.9107782066992471,0.6333676938231112,1.3041205924374002,0.8872213217406639,0.6194795649600917,0.9300959113987055
27,1.369986630472574,0.8177015210499343,0.5132118175428313,1.1824421553960913,1.1799363352992902,0.8304740843255263,3.6179116901472916,4.539075460498891,1.1057569538662473,0.7888567973791499,0.6425374456860184,1.36980877597124,0.8229258960921272,0.5183200380591415,0.735463569952341
28,1.5676836520769128,0.8168248656123149,0.7074668859015749,1.1938884269677488,1.1984753433809807,0.6286815039942436,3.7542099224750087,7.651619688231802,0.9206760854543201,1.1863338006407556,0.6584896970785714,1.5676030976561524,0.8230848768928662,0.7126295096849099,0.8238573685754272
29,1.8276140329169615,1.0226588424539564,1.026787588741949,0.9104837095591856,0.8909979031992513,0.5454095274352144,3.802308432567851,4.13529087031991,1.147038585805303,1.6262265207391675,0.6447042257417027,1.827455733886329,1.0258129360583335,1.009435210709282,0.8571619149084485
30,1.7062040590943506,1.2352492095537684,1.148448717013597,1.4198582667265232,1.4174875332054693,0.64870364018325,3.5256668661602224,12.491705108750327,1.4168345053486109,1.4755143092280658,0.6528756675646988,1.7061323832606181,1.2416566455054974,1.1552599740861316,0.8154788348567756
31,1.14008119755168,0.6344843455586797,0.4015852913127098,0.35187796011424777,0.30632634720108287,0.5885587478976873,2.435580683541181,1.27868176309636,0.8927493556839914,0.4459806276454984,0.6357360191111145,1.1400247352486568,0.6408607374275199,0.40807336024301005,0.6506005805337297
32,1.399231694013309,1.1648757640553775,1.1848354197736106,0.10234807851457901,0.051900349942327714,0.53301832099515,2.7740690046769463,3.0028982018941495,1.3049877447174476,1.20168370446004,0.6468212168108125,1.3992220086738933,1.1715330582401446,1.1914121829697306,0.814265501530712
33,1.2655796086480011,0.7054918712964888,0.5553142254924441,0.9629632994384937,0.9591324670011846,0.6587718525362788,3.4120861935141478,2.935332418023299,0.8810362284142293,0.8510508551952732,0.6566669596287297,1.2654936609741865,0.7119530225241248,0.5617049811420849,0.6728224028999734
34,1.5623139585015284,0.8290786209866168,0.49273353776556883,1.4108233280048286,1.380408583910966,0.6214011582870412,2.9538367528825162,2.5269785219043523,1.0986341443120446,0.9044819901608687,0.6509067234006624,1.5622363109498063,0.8355145278352142,0.4990414869140669,0.7798696760835426
35,1.6298166705478456,1.363580800364867,1.318800174992019,1.0381218700151211,1.0079388651704337,0.8232171706493626,4.042873778224115,6.1881528798691425,1.591429342380548,4.676552758462856,0.6528756675646988,1.629697310700925,1.3702661238253342,1.3250529454308428,0.8862159966594627
36,1.639692651659798,0.6750982227536462,0.3476173689771791,0.8147432352651692,0.8119315985138004,0.7661600885512038,3.1980237136082903,2.818674022690545,0.8703955196943673,0.6021463433660609,0.6713451011121618,1.6396680510826223,0.6814205134759831,0.35320453974547134,0.7268760978680502
37,1.8186236514041585,1.2432582978706248,1.9420643566706768,1.0315666703678559,1.0012966759110429,0.6622773737867308,3.4318882210023904,3.6807374793070773,1.3984856949858582,1.78701487646904,0.6447042257417027,1.818445734490561,1.2500962090770826,1.948782338679409,0.8389755897461363
38,1.1789511919222575,0.7188678906330837,0.6314651153584159,1.1966326068158695,1.1655829948263567,0.5034747960980889,2.4215049969403553,1.7830302345894293,0.9369070701873191,0.8593300878854185,0.6380535849069913,1.178810563997222,0.7255951567820642,0.637988808881342,0.9215008069699003
39,1.5138771013403665,1.0078299996535407,0.8728012925174515,1.563081222011441,1.5034388669806906,0.6352907494461849,2.6677124989538026,1.691062449405032,1.1908360605803103,0.7951576093324896,0.6068309995095971,1.513875239256385,1.0144957819456994,0.8795153486108674,0.8133882096078057
40,1.1002538435241815,0.5113922920481577,0.26783764022712564,1.649575795513144,1.6022576604956116,0.6602184314591981,3.532467708431475,4.526357578194721,0.6576736012900829,0.35556077973940964,0.6584896970785714,1.1002469573445701,0.5180074844941029,0.27435720238578354,0.7733142830342793
41,1.5844025216410507,1.0219665971620828,1.0100970907641496,1.7625373718413129,1.7541614088285387,0.7809376027371957,3.4514424541476805,2.4233229121076567,1.1820784273097849,1.3212111787564085,0.6468212168108125,1.584365968005111,1.0282225496185204,1.0171838053499407,0.7846536778538717
42,2.1466766532786385,2.066200437476616,-3.0084579979705546,0.4042629156373012,0.39097600064091054,0.7958630277868689,3.4722047286046718,2.9677444317282817,2.38998693388224,,0.6284777104787076,2.1429258039288404,2.058261853911309,3.06324256508072,0.9365524214403054
43,2.122676934381758,-0.7148695845614008,-0.4439216184411563,1.693503402854732,1.6929202695989962,0.7052444476565922,3.3940084752306903,2.9555364127259214,3.157084218401065,2.234877571115458,0.6333676938231112,2.1104048853836592,2.9963742692654987,2.1263985247676067,0.6613555491649258
44,1.6775437058764233,0.9722782921263102,0.7476194263732117,1.234855045628498,1.2174307264033484,0.7719145140701587,3.235415077188861,1.639055156414647,1.0122028119204438,0.8546396001293203,0.6380535849069913,1.6772410157854631,0.9777424643800549,0.75357425590293,0.8398959327034996
45,1.986629948268904,1.9004986511497384,1.0664747233053342,0.6293014508357246,0.6068957655596015,0.784241991259239,4.115915649219585,2.8982210157217727,1.9055414286139738,1.794976732114837,0.6602640781246099,1.9865585475331222,1.9051173165641544,1.0654186630709495,0.7878395632566538
46,2.350548818079353,1.7070107307244862,-4.057559548803839,1.7040544023775248,1.615232192194001,0.8252003071936171,4.38455112037681,16.997426988703957,2.3888897224751298,,0.6425374456860184,2.3501426837609323,1.7081914409381354,inf,0.8950104304274563
47,2.468695421684644,2.0523154814795745,-4.5210109031642185,1.6128117356626896,1.586330552545506,0.784852417093053,4.114843683452626,77.25675602577653,2.1524567353307567,,0.6668815377411301,2.468508503978364,2.050483985768675,inf,0.8598374623757544
48,1.8783646511525263,2.0019639767877004,-3.8803286279402265,1.6887978710604388,1.6868398486755838,0.7378748430772326,3.9967605220328157,29.347587470019434,2.2274961525584973,,0.6309483474627791,1.8783345777602451,2.006830140165032,inf,0.6324724240553717
49,2.1183481810161853,1.5861667952457887,1.9925785102434306,1.4843344056430825,1.450754916631888,0.828479764032753,4.7246316896866185,16.525369669276877,1.8112030788535223,,0.6233814453054027,2.1183209797407536,1.5907611816907024,2.001389301375542,0.832032903283203
50,2.066640785714518,1.4365782103399498,1.5007273098909923,1.0315495724843762,1.024662742274488,0.6769171159828523,4.4018971922554675,28.71048714377734,1.4369556665528707,1.503716979462676,0.6468212168108125,2.0666350076326174,1.4432617909528789,1.507427483661556,0.8088865825256101
51,1.8998765493260354,1.5574448438835888,1.640409819649702,1.612609559798889,1.5832087502672045,0.8194497493647939,3.9827557669465103,8.108651739499326,1.752394498204765,2.058659633191908,0.6357360191111145,1.8961574852743162,1.5441272850958863,1.6411307057871007,0.7090402851854906
52,1.9564263174449965,1.2165678407050589,1.300173262283805,1.273890962765205,1.2484234384702906,0.625605986164267,3.5647214127949276,4.505093521587849,1.423818660874713,2.2693375524958195,0.680118107274185,1.9548275691001231,1.2179070997702226,1.2811460695715198,0.952697909181098
53,2.0442059287031173,2.269196984064956,1.383690573737331,0.9082017307879972,0.8866147696663876,0.44635992532037166,3.8430398022915777,3.061747813463521,2.3118218280426195,,0.6547956803312163,2.0441602016093827,2.2758310421450463,1.3904802190525687,0.7821955329402953
54,1.645849128095129,1.4977846393033885,1.5210386832148224,1.3506027364485664,1.3148126332515357,0.6346294696511834,3.5680678628775895,4.271786246344304,1.6518816074040656,2.399398092009818,0.6380535849069913,1.6458137870915204,1.5033286997620052,1.5131861129745143,0.8140511434091442
55,1.8706517678730725,1.6325672281813952,2.193874490450937,1.6417903716195255,1.6266066144838474,0.7623147260933986,3.4893786320856592,3.7853312014857696,1.7505600404483268,,0.6684167106117298,1.8704419912625236,1.6394548073229724,2.2005746642215014,0.8136372776885031
56,1.9585944382849478,1.1467140473974153,0.5948292405049367,1.5930589573760148,1.5785516941393969,0.6932478877244866,2.844997388573402,2.3580350275741746,1.4035297018874675,1.4654621542139434,0.6528756675646988,1.9585226871061572,1.15100060083468,0.595485548102983,0.9017098079414222
57,2.028321458773938,1.7262119655614359,1.2494128816100862,1.6144045501694024,1.6039613005625393,0.7113545472743109,2.9396822843120316,3.6959360263802563,1.726291839353928,1.249412881610086,0.6547956803312163,2.0282415849814455,1.7329696418849572,1.2561130553806499,0.9388679470286615
58,2.0661097299751376,2.531872965149423,-4.597982695124561,0.8073445215700241,0.8003506785184781,0.6718490987252217,3.9401983829819995,27.71306105442312,2.941187793352059,,0.6357360191111145,2.0661085994786825,2.537951092225382,inf,0.9131704410678352
59,2.0307084286941364,1.593866349307672,0.9739064198354863,1.0190617929780457,1.0071499843648706,0.7890400960417551,4.427468212750846,13.239386038516859,2.057809247233554,1.6087598378266292,0.6447042257417027,2.0305244014452217,1.6005055196819402,0.9808292530117262,0.8532612629866003
60,1.8595132357065394,1.3560236878961458,1.3829442742346094,1.2370800693423658,1.172823918493859,0.6857869650485714,3.435950837026891,4.215082860245552,1.641524371389511,2.1961016628637617,0.6068309995095971,1.859467452252132,1.3627472738815833,1.3896444480051726,0.7748017624261244
61,2.305414188194138,2.7018822046366036,0.6897970936746631,1.2558343997259507,1.2427882710650964,0.7084036734846154,3.452372633927132,7.3250051905563724,3.3884101460765748,,0.6547956803312163,2.3053667359559227,2.708607459405848,0.6964972674452273,0.9440931614037622
62,1.6138086892509098,1.4475775545245173,0.8439477735019225,1.6225956519303857,1.6182691201788961,0.47681754317439373,3.5655557078583975,2.4380402610378824,1.6470825324502152,1.336500060417501,0.6068309995095971,1.6137806618682373,1.4542833844382197,0.8506479472724855,0.5776016530330954
63,1.8607760849508121,1.6992058043219607,0.7258377526923856,0.975524483865356,0.9537506269473399,0.7492929159141394,4.142485105776217,5.578521303746323,1.898788344866454,,0.6619902821573977,1.8552674104844367,1.6794613638022413,1.75694404954269,0.9411640447712006
64,1.7697650468162336,1.1637430293962536,0.18094871140737556,1.4119850228575985,1.3451819400632237,0.7363851118240488,3.6461439334609507,1.264067393143312,1.3142478173953012,1.2525519512576428,0.6528756675646988,1.7686290518392005,1.1384820300612621,0.8133737116288047,0.8690267212440664
65,1.5690231495642961,1.1804005883971032,0.864571811886286,1.6509119220341715,1.6397019098002676,0.5165752008617662,3.5632883829589246,4.052842283017406,1.3545922052345902,1.3873243000085338,0.6668815377411301,1.5688826201423898,1.1853860547614345,0.8613603174705193,0.8235083318705231
66,1.627042770973916,1.2468327917718576,0.763857912196872,1.2704708335446253,1.2470712556508488,0.6737252650642734,3.4529199227304916,3.859815209620116,1.4348278368598923,1.2489349843489,0.6068309995095971,1.6270363041767217,1.2531871226676277,0.7673008415876729,0.8260704024595429
67,1.6098870599726798,1.2587624748892656,1.4421495905235684,0.5134769972945114,0.4790835040590762,0.8111845528629475,5.573181318919301,11.027483893969151,1.3181814474278255,1.6704172947362188,0.6207552362147116,1.6098824556732505,1.2654036648048734,1.4488909812089832,0.7689123222383488
68,1.9329308462201693,1.5158679124494188,1.4578054345871476,0.8815422934060144,0.8557658604095632,0.7558603513844625,4.061467082869376,2.4152482956019243,1.6565331138213555,2.107774829069211,0.6509067234006624,1.932785543614838,1.5176020822380891,1.4380300355190794,0.8781866232737686
69,1.750826884466654,1.054383283572489,0.695449231302232,1.124497151101774,1.127649452644604,0.8739340317095536,2.9899501017412886,3.0981976632267663,1.3017766089483285,0.6985972456026618,0.6309483474627791,1.750809482899101,1.0609359545418744,0.7022474383665246,0.9335630655193883
70,2.1775214599172052,3.5229221134734816,-5.700443573390687,1.0193683370087743,1.003729699895145,0.7317517604036032,4.030644028139657,5.259528700368997,,,0.6425374456860184,2.177519994061884,3.5296013818598317,inf,0.9041830367375817
71,2.568739083513266,-2.5496740548397185,-0.019065028673547448,0.809829723614605,0.8001189774819207,0.7232635105342131,3.0998832406081864,9.484377161550498,8.832164010900263,,0.6403206450210053,2.568723135881111,8.83884181343129,inf,0.9273847340110984
72,2.208551714312244,2.393279570410334,-4.601831284722578,1.3781702999442773,1.3436364632345836,0.6430252655777317,3.1766107056940354,2.4114701473224853,2.3933435151076465,,0.6333676938231112,2.2084877696149303,2.400021317638676,inf,0.7869962428803912
73,1.752475262091538,1.5500730385007786,0.7851072734789883,0.8293450082779126,0.7854823017190817,0.7401083097246898,3.4747079928185225,6.852607315505784,1.5512905602975091,0.7865785318704425,0.6684167106117298,1.7524746555651527,1.5567514475581925,0.7918074472495522,0.8936118767914597
74,1.2975954271777919,1.1806929975024467,0.5797477322099076,1.0776459095458368,1.0230812948639323,0.6239067361924701,3.911521495531789,4.492255320508639,1.3128740175252978,0.6017209968338991,0.6180765742263259,1.2975918223582072,1.187314827429793,0.5865074834037387,0.8905452805496605
75,2.0661963149298157,2.2479528973409804,-4.314149212270796,0.7779894978899569,0.738667321048783,0.7275784438845457,2.827831960880064,4.847213245068296,2.5356349697927616,,0.6380535849069913,2.0661963149298153,2.25463069987201,inf,0.8147283575144765
76,1.9665948074044142,1.9495430782834604,1.78095560081753,0.984677574522878,0.9597657098852376,0.5862064640269987,3.5477542188001077,5.550895174330636,2.3492336925651114,,0.6068309995095971,1.9665891602637142,1.9554841810179333,1.7883981215253502,0.7383287179086366
77,1.6798722643612656,1.6383973935540619,1.361712390211748,1.306517703523008,1.2649049508543546,0.5150704740852247,3.72093866646267,11.299834870523044,1.9411416549802043,2.076091454794554,0.6180765742263259,1.6798603767306461,1.6437588702861343,1.339886515984274,0.5631272795256257
78,2.2198912932430894,2.3819399914794883,-4.601831284722578,1.7819175915906063,1.765064337560891,0.9326320719668013,3.976612395166031,28.463823326461384,2.382054302915846,,0.6153451465759925,2.219776981806731,2.388732105446875,inf,0.901291192432696
79,2.2072749131897207,3.493168660200966,-5.700443573390687,1.7787230222539367,1.713809890821523,0.9088838663067141,3.8404213263242775,81.09340308229365,3.4931686602009657,,0.6125606311107803,2.2072749131897207,3.4998464627319947,inf,0.8751131836529493
80,2.5702727627196147,2.5973885772358987,-5.167661339955513,1.02615830521071,0.9977615159897503,0.7677604626246473,4.3461842589220065,41.658485000573,3.1742754209759187,,0.6425374456860184,2.567129510045833,3.174008751154137,inf,0.9493931957918347
81,2.3185928158238798,2.2213695218319285,-0.0008319250481507723,1.6911148282843593,1.6677451371687495,0.7811192830770295,3.7319665285640107,12.295428955626168,2.4695785658278093,2.249975217919404,0.6125606311107803,2.3179243625740042,2.19092605240841,1.2016210478245837,0.7583071307135701
82,1.9412823314830294,1.6797197002278217,0.46665354236045387,1.66780793936777,1.6410082481639332,0.7220289052937167,3.876252227771025,1.885550683064631,1.7260155932854881,0.6394096914473638,0.5713653840954815,1.941187982719984,1.6864918515218956,0.47335371613101757,0.938198470058409
83,1.9075324080973353,2.5692197146896847,-4.47675212278702,1.2112657395017326,1.1627986385572067,0.5269531907277457,3.0732161996245417,5.499363322722456,2.6943616299990687,,0.6309483474627791,1.907469654723508,2.565698084660336,inf,0.7563713978646213
84,2.23836405883962,-2.23836405883962,0.0,1.4975152024059208,1.4758219982525171,0.9301189036256835,3.1237232722473935,9.693241534755893,,,0.648888643467878,2.2383591206947746,inf,,0.8821563130047426
85,2.5682882587270512,-2.5682882587270512,0.0,1.6653503248515007,1.636767580925473,0.9371273903421978,3.4831989027536827,43.068387176560165,,,0.6619902821573977,2.5682882587270512,inf,,0.8660896972754649
86,2.6127400212978853,-2.6127400212978853,0.0,1.6657505986619743,1.6481154008649346,0.9435896378888332,3.3953638533496338,35.886997935902485,,,0.6584896970785714,2.6127400212978853,inf,,0.8692020904188572
87,2.4079456086518722,-2.4079456086518722,0.0,1.7792396499014989,1.7244267502563209,0.9415961640067088,3.528690004026104,54.14435011680683,,,0.5641709578113449,2.4079456086518722,inf,,0.850438293095288
88,2.75934349548976,-2.75934349548976,0.0,1.4544921517612595,1.447244844445151,0.9251241518048509,3.7406723808907647,60.67981293792403,,,0.6233814453054027,2.7593434954897607,inf,,0.8543336548814577
89,2.5682882587270512,-2.5682882587270512,0.0,1.7409942129917462,1.7244328658506216,0.9214808690234509,3.792068080676221,93.26497989927785,,,0.6097226960127671,2.5682882587270512,inf,,0.8485699737677633
90,2.659260036932778,-2.659260036932778,0.0,1.7374782759336362,1.7097707288019877,0.8871570188368686,3.8686340249117483,154.01516723415338,,,0.6447042257417027,2.659260036932778,inf,,0.8497022363924103
91,2.5682882587270512,-2.5682882587270512,0.0,1.6664473905094717,1.6201637544466279,0.945207719420526,4.118592653353866,161.00553158008992,,,0.6153451465759925,2.5682882587270512,inf,,0.8291443897269555
92,2.9311937524164198,-2.9311937524164198,0.0,1.68843616926027,1.6643051137953266,0.9454370420595369,4.019820440493809,149.3642066601293,,,0.6357360191111145,2.9311937524164198,inf,,0.8290753705701672
93,2.70805020110221,-2.70805020110221,0.0,1.7151672820458967,1.6645633468854426,0.9408614253278423,3.9127435064355454,175.75669336449815,,,0.6207552362147116,2.70805020110221,inf,,0.8243866095542831
94,2.813410716760036,-2.813410716760036,0.0,1.2807006406757613,1.2679660291938153,0.888629323950261,3.1763893501395817,37.38159960239618,,,0.6566669596287297,2.8134107167600364,inf,,0.9179580003750737
95,2.0461995749220976,2.55563170980048,-4.601831284722578,0.7961993427552428,0.8006493257030031,0.7146332900447337,4.228706451772845,10.27195627910054,2.5556955617492134,,0.6468212168108125,2.0461357229733634,2.562373364280243,inf,0.9268522868316055
96,2.3025850929940455,3.3978584803966414,-5.700443573390687,1.6521140682765694,1.6229065775402969,0.8957768297684477,4.114087673193057,27.35651370681748,3.397858480396641,,0.6619902821573977,2.3025850929940455,3.40453628292767,inf,0.8756636933316722
97,2.302257194765816,2.299574089956762,1.0952622017828268,0.9860577333371784,0.9137229172634127,0.6579344854030439,4.1977057233093875,8.92920140760529,2.7050445776268157,,0.6790044388599258,2.3022518152039253,2.3062572720496806,1.1019623755533916,0.7810773460537985
98,2.5260186822315545,3.155359862485585,-5.681378544717139,0.2619748448837403,0.24564426606115178,0.7703433113182145,4.219603374485504,123.9648310255474,8.874880686107947,,0.6097226960127671,2.5260064606734263,3.1844650021335714,inf,0.8358236594056433
99,2.4079456086518722,3.2924979647388146,-5.700443573390687,1.6969574662774571,1.643198047095996,0.9048126291791834,3.86841816621356,59.53560021775966,3.2924979647388146,,0.6153451465759925,2.4079456086518722,3.2991757672698436,inf,0.8463132020908092
100,2.5257286443082556,-2.5257286443082556,0.0,1.0137641345834365,0.9690191486438395,0.8610944950039793,4.5508907259899685,108.71598260334905,,,0.62595550513784,2.5257286443082556,inf,,0.8852866897129381
101,2.3531305713633173,2.654165821467424,0.6897970936746631,1.387591713882336,1.353462279655396,0.6854793035898457,3.504201821453887,3.079301363858999,2.654353240495101,0.6897970936746634,0.6652988471865258,2.35294315233564,2.66103104302613,0.6964972674452273,0.7965222238855585
102,1.9830849867652145,-1.2502365367000987,-0.6372596331774413,0.7292606147131229,0.6256550092473725,0.5543069165796702,3.841029907897026,8.86973236510752,3.7906688473003864,5.620920939920073,0.6233814453054027,1.9825971857903493,3.5223344301206865,4.293195420967266,0.8384501652325184
103,2.901389009174453,1.5054129828674778,-4.406801992041931,1.7089675877687758,1.7064350843073124,0.7564768973623263,4.27683873123433,50.29636874456246,3.0457827598293963,,0.6357360191111145,2.878640835020466,2.7147935824668696,inf,0.9490597186716534
104,2.487541526861379,-0.4861956744326461,-2.001345852428733,1.7076502826285465,1.6637477408601025,0.8959616252340891,4.22725476767959,34.26069764757651,5.360499093280946,,0.5783247308855777,2.4850399920110124,3.7351391514606345,inf,0.9279809617068766
105,1.6578978531870034,2.2507862509756276,1.095262201782829,1.03447297229895,0.9839221562333493,0.5223049008013197,3.5005471232661973,5.788744177486553,2.5583881866078033,0.7876883118814009,0.5915533975974677,1.657869807456255,2.2574920992374055,1.1019623755533916,0.7493401433344352
106,2.6386361633346422,-2.6386361633346422,0.0,1.7486441843768392,1.7290209329762027,0.886144020330685,4.34422356242538,27.064736004272884,,,0.6425374456860184,2.638368677901402,inf,,0.8894922897569655
107,2.659260036932778,-2.659260036932778,0.0,1.7601884110344101,1.6928294172305192,0.9330138535524825,3.3743884520143603,86.58240297336118,,,0.5883313578629602,2.659260036932778,inf,,0.8174775530620875
108,2.635748652964311,-2.635748652964311,0.0,1.3604797688546095,1.3484107360410817,0.6075995353076655,3.6162817244367034,40.02657028172274,,,0.6207552362147116,2.6349546460316593,inf,,0.8084630823736925
109,2.3708994131855974,-2.3708994131855974,0.0,0.8339480091315652,0.7838105038282609,0.596885188857966,3.7924639969421143,12.300417239940957,,,0.6841113288387766,2.3708639337473403,inf,,0.9201051266404964
110,2.3718204154421367,-2.3718204154421367,0.0,0.754434421589391,0.7366446540981816,0.6513040412484683,3.73750086214233,56.4330244242735,,,0.6447042257417027,2.3718160880682637,inf,,0.7602135768606083
111,2.659260036932778,-2.659260036932778,0.0,1.538888256546246,1.5236558649969572,0.9452234753768974,4.426846328391024,393.6792619179752,,,0.6684167106117298,2.659260036932778,inf,,0.8437801553385166
112,2.17742195004004,3.523021623350647,-5.700443573390687,1.7270853031663382,1.6661055609713447,0.8057688908183297,4.276618575138284,207.39747008789405,3.5230216233506466,,0.5713653840954815,2.17742195004004,3.529699425881676,inf,0.8478463608543305
113,2.75934349548976,-2.75934349548976,0.0,1.5323870891578284,1.4617249911444952,0.9236874889793234,4.728840009947152,152.88814786820603,,,0.6233814453054027,2.7593434954897607,inf,,0.8624099893278937
114,2.2380465718564744,2.0761026404143217,1.3829442742346085,1.6582365065421854,1.4148634201436356,0.9075355154104706,4.980760440662782,5.633596670737337,2.3637847128661025,1.0952622017828277,0.648888643467878,2.2380465718564744,2.0827804429453507,1.3896444480051726,0.8452228902032549
115,2.153281815362627,2.3186365938622755,-3.1527927361749932,1.0665097690090777,0.955496178159637,0.6468216724769856,3.8719118773526215,28.08784075016525,2.501434414388928,6.055921567653746,0.6309483474627791,2.1436838104081897,2.079251986186898,2.9505226481200553,0.9456202890836138
116,2.179042704386329,1.93187086315096,-3.335710737723608,1.3021554212893096,1.2026921384525897,0.8060502853626903,4.5975487181741075,18.570206848166123,2.23650650355855,3.195676651717602,0.6619902821573977,2.177814183816396,1.907240331498612,2.727390583862804,0.7542651232820582
117,2.3162729109433995,2.3357329858193188,-4.652005896762718,1.6969230863655875,1.6466421944305936,0.7906512696819035,3.82979708305176,28.509121954028828,2.386745690875948,,0.6602640781246099,2.310953342664562,2.3396792174002865,inf,0.9433074155069112
118,1.573487048270622,1.7453871067550473,1.4829692154392737,1.6447193675889915,1.6187571567249948,0.48310653623380223,3.465290979276069,8.78095540237932,2.2205751406506757,2.7023445574981544,0.6425374456860184,1.5734274749110673,1.7483427731197663,1.3728385006044987,0.688579995348416
119,2.209037076306581,2.4620270648587796,-4.671064141165361,1.6456483566012006,1.6388168321262389,0.7102430769331074,3.0959702435531176,3.0440097853016286,2.886022952418088,,0.6740851607140061,2.2085889074152694,2.4145189792594897,inf,0.8402924166243345
120,2.813410716760036,2.887032856630651,-5.700443573390687,1.5751420703120562,1.5388537026058833,0.8748621912268426,3.9405273997421233,16.626973025590473,2.88703285663065,,0.6668815377411301,2.8134107167600364,2.8937106591616795,inf,0.8789806792224844
121,2.1538587451681566,1.4671432865426945,0.9774791661264435,0.9856060362758056,0.9425053563253343,0.5787160303762124,4.225786883774552,2.910518095660837,2.160750114474606,1.3829442742346088,0.6207552362147116,2.1533990977961897,1.47428073644569,0.9841793398970082,0.9482098836299462
122,0.9079919290594599,0.5157855253151714,0.44467463564167775,1.7045474154559135,1.6337814138932474,0.5493369279284217,3.233723647095567,4.623852325287707,0.8772230798605781,1.0216931651078456,0.6727386042041725,0.90799192905946,0.5224633278462003,0.45137480941224234,0.8150176645852508
123,1.9833024431658963,3.7171411302247908,-5.700443573390687,1.5999126136689614,1.5227203544459513,0.6486025248312054,3.6737399798820527,58.24455948460046,,,0.6528756675646988,1.9832428678143958,3.72387850810732,inf,0.6976957879919514
124,2.1413916939251134,-2.1413916939251134,0.0,0.941197866581573,0.900152553356439,0.33462016715419485,4.733016412960475,87.18977331022232,,,0.5978297680564633,2.1413169453979233,inf,,0.665045874587773
125,2.5682882587270512,-2.5682882587270512,0.0,1.4338389941792746,1.4110184018976968,0.8930276622097768,3.7636933098033647,322.2409028269923,,,0.6602640781246099,2.5682882587270512,inf,,0.8984340866645886
126,2.70805020110221,-2.70805020110221,0.0,1.3345489554653318,1.2953687704066787,0.8520053096186674,4.175915220066414,394.5940036177429,,,0.6038851895711802,2.70805020110221,inf,,0.8601826293823797
127,2.870569130599985,-2.870569130599985,0.0,0.21104640081684503,0.1660739096586412,0.6029261792324341,4.141756983637098,79.11277538315221,,,0.6333676938231112,2.870569130599985,inf,,0.7505097567148887
128,1.7727055771675169,-1.7727055771675169,0.0,0.7155519457136229,0.7045341144743893,0.48814141446281334,3.9100586148343446,76.75407945026232,,,0.6125606311107803,1.7726760547517886,inf,,0.9016200027610484
129,2.477193242867855,2.5301031499628865,0.6897970936746631,1.592727195639375,1.5720389011978673,0.7098923066977108,3.93734305783924,1.9252806155613458,2.530225628810516,0.6897970936746634,0.6528756675646988,2.477070764020225,2.536903431341545,0.6964972674452273,0.9141211032255693
130,2.1381989945355544,3.5622445788551325,-5.700443573390687,0.33092348896553764,0.3026294559626349,0.5608247160007479,3.736560034300228,22.817799293938368,,,0.6153451465759925,2.1381069728531306,3.5690144030685853,inf,0.9052754717939006
131,1.4077623705648925,1.4594678587695777,1.7312509685028243,1.2252210348448016,1.1313763353423276,0.5188282024895934,2.5852310167209445,2.7262747522038215,1.7280292083104765,2.561341969661417,0.6309483474627791,1.407722308533511,1.4661857233319886,1.7379511422733884,0.8353686748006073
132,1.2200057746203838,1.0017787057815277,0.8471937931820723,1.6391755187670163,1.5807498627222005,0.43985125192819174,3.096271811308931,2.904515773062925,1.3449600826268273,1.534181199086642,0.6309483474627791,1.2199892748347094,1.0082101068009404,0.8538172605153536,0.8308098837706364
133,1.4269133037024684,1.1460329186093863,0.8327284174153924,0.5867917672219183,0.5642702549579826,0.5687549918594067,3.441269921500135,8.857905889949935,1.4512246761248662,1.381983674746708,0.6380535849069913,1.4268849009463687,1.152332428312873,0.838787170719295,0.8456732868917157
134,2.285339714838299,1.6416947310357761,-0.32516980962919506,0.7895664929587317,0.7132093422529641,0.5598966613215343,3.74542216605255,2.712792325110176,1.815321551886744,1.8563683231622727,0.6584896970785714,2.2844177890385966,1.6472411909064082,0.9319941238026049,0.8196042041070163
135,2.170405470113093,2.0373020435699054,-1.5765136014348875,1.4308010508306488,1.4301888051234741,0.7640332508455805,3.4107812314695485,3.0767888445503155,2.0314085534668926,1.647803503741986,0.6357360191111145,2.120263536200091,1.9064223775481948,1.419873695940843,0.753435862447231
136,1.6262084781839852,1.5931882017712555,-0.18176342375261356,1.2526628826766366,1.2446933644473521,0.6708847444958206,3.1352865164228625,3.7878550148003334,1.6396856341442032,1.9106855085749004,0.663668482632973,1.6133343827132236,1.405325395484472,1.1803048331545076,0.8474713291162133
137,1.3120405637733106,0.6258319948335536,-0.3011816056368646,1.3305651883673544,1.254635277983152,0.8508244383570783,1.8676785270770373,0.33743131278067096,0.5727400158283624,0.43709961354211996,0.6447042257417027,1.275707526490483,0.5056396723902623,0.2476547460410212,0.775845013710952
138,3.7069097906658515,-2.9864591560691065,-0.5896964954366828,1.3305651883673544,1.3194356520012729,0.33768939736034986,0.35109367120542884,0.27462497833594024,1.622084382729474,1.3689196561024068,0.6333676938231112,2.8463548724793903,1.2036538759226587,0.5485168948673739,0.9483170881092072
139,4.218190821821146,-0.2611951510515019,-0.07626011469418979,1.3305651883673544,1.330380319389371,0.7395148145904413,0.2834934839174953,0.3391465835923976,5.120257947261387,,0.6357360191111145,5.58748201896004,4.433788569232471,inf,0.947742490099684
140,0.7747275665753041,-0.032915052091545216,-0.17292485412472924,1.4667722169837543,1.3530792637185753,0.506195338175577,0.7367718179630712,0.3701358773404936,0.15460852204650108,0.0796292345485041,0.6509067234006624,0.5701628801485695,0.09122726879818407,0.02920473593704732,0.7457275874356851
141,2.1183765472673572,1.5153318585826208,1.0763437277754697,1.6083188589852164,1.6181410356412103,0.8285717136804838,4.937900314470799,4.507307302864198,1.550727853723165,1.0985127989288979,0.6309483474627791,2.1182285711097215,1.5203803336643484,1.0694557043766542,0.8973729836403623
142,1.5743635766152984,0.9978256695834398,0.6950269785520766,1.4873108376275281,1.4626750978405363,0.875499004138933,3.7020348776907905,4.575115600130491,1.1600444970987709,1.1853673889762921,0.6309483474627791,1.5723027057718404,0.9776047942335738,0.5833004425506961,0.6084734853596848
143,1.8046571209223847,1.6299573211193379,1.9188015824298676,1.522937431179089,1.5244686365041116,0.8916070004980509,3.946615022434447,21.176590279489012,1.9008246594962617,1.9919643302787928,0.6684167106117298,1.8043044967303499,1.6157359727332852,1.884965885235198,0.7640949050128231
144,1.8420561896271805,1.6663997961532044,0.3180019377402674,1.631607745177658,1.6436722471517127,0.8592536136988465,3.9213894811488097,22.82332222643809,1.7771268414125239,2.119698350997043,0.6778444222523095,1.8413699697813894,1.629892286329053,1.3612268526023392,0.8351237695629696
145,1.889293073509431,2.0796761022233623,-3.5735087604731106,1.4308873757576184,1.4021006628604264,0.859204000501079,5.047623751798924,23.554168987681123,2.6792913154959255,,0.6309483474627791,1.8885640984992467,2.0800292584172935,4.260917762047916,0.7110735723252234
146,1.9183162500381463,1.4720806610965076,0.9807152427909935,1.45307352107054,1.4392839867925744,0.8527586851261868,4.110085921871632,7.484543023575007,1.5902993571706683,1.1670248093301003,0.6652988471865258,1.9166426513747452,1.445975248319935,0.931804940910634,0.8223402053464773
147,1.697349669201795,1.3985178045092816,1.0384868383296224,1.5485700002394416,1.5372149980078877,0.7564149244135145,4.388294499491207,6.381948280010933,1.6940203551967037,1.2520528292741346,0.6547956803312163,1.6958434123982284,1.3971342455945979,1.0222501151456986,0.8599408486427109
148,1.8447224456271845,1.4857887765874471,1.042931163104559,1.653652724996355,1.6461856604000475,0.8369103083312789,4.789344092030425,5.583662568994109,1.8192498107182387,1.7643331649403742,0.6333676938231112,1.844457258228504,1.489393049974041,1.0358086776626747,0.6908852785067315
149,0.823234795077254,0.46641836944551873,0.41040534565133324,1.2475961099140167,1.187503650840905,0.6008321733925244,2.591877910930366,2.8383465191288266,0.6100934217467798,0.9041654208615044,0.6403206450210053,0.8232052470919414,0.4728016278676439,0.416448620930425,0.7014246736848957
150,1.1107028174933775,0.6615976838272655,0.6356978321116624,1.3043861036692495,1.241155526006632,0.6219393613298627,3.2156668697811592,4.24189853802994,0.860565745317495,1.1588305940619792,0.6468212168108125,1.110684869902379,0.6682241873468563,0.6422093527918981,0.7150249228062298
151,1.6984726575147748,1.5126324345918194,1.0937036023711562,1.0067450605688595,0.9173525798338665,0.6724080653462875,2.8749689613717244,3.2821555118754144,1.7477732458608577,3.870485716821625,0.6468212168108125,1.6983905664226069,1.5190973331707458,1.1000002139429577,0.8204110996623469
152,1.733260322635039,1.7677628663114542,2.1867663085581057,0.8589413653942065,0.8554606829151383,0.36006332518446643,2.9358925196998573,2.8351284903342706,2.1866559634958014,,0.6180765742263259,1.7332390204160468,1.7736893158783507,2.190209595643135,0.7423708640732236
153,1.4621938265838499,1.0806928545067391,0.956982228078596,1.631785964893733,1.5522389528199856,0.7571640461283767,3.085722512433331,7.028233249548322,1.1472331263333062,1.4795976375854012,0.6468212168108125,1.4621679936990644,1.0871705162483247,0.963908375523389,0.8488525462950199
154,1.333085039604921,1.271528202624898,1.2991689225660479,1.2266531676578827,1.2312803848404377,0.5740876474514474,2.9313154291463035,16.038502408487144,1.6240556335684255,1.3536738919344955,0.6584896970785714,1.333069599882593,1.278005142096231,1.3059608052728664,0.7044553607326294
155,1.3875471763508904,1.177699517315133,0.7848049381245255,1.1480770461231575,1.1118420072449129,0.4575717915958632,3.108029891575478,2.329990318435062,1.402846197703161,1.1149482390458658,0.6619902821573977,1.3875395805283226,1.1843784462493074,0.7903792059269688,0.5840850219611058
156,1.800446633374588,1.7827387715034437,1.6370786453361355,1.5678433419112419,1.5689212817642706,0.7513111665212071,4.874847428080031,12.637936959322758,2.1889341963464912,,0.6584896970785714,1.8003966626237184,1.7879338328296135,1.5986442837593309,0.8024053934223481
157,1.7943898769790918,1.524801333384234,2.3779022761420787,1.43354281282636,1.4257806258171744,0.8779827008075055,4.125930681480273,12.11879212790361,2.0448825460944233,1.8578480853128114,0.6684167106117298,1.7943628550981698,1.5307998402879879,2.38530876742084,0.8417841509763976
158,1.6339860432237476,1.0130738222019844,1.0350151853774214,1.6720764660915588,1.6727327563584895,0.7333753505377942,4.737487920258527,22.749463576245784,1.3149214972735108,1.4542441337807492,0.6207552362147116,1.6338444548353395,1.0192441881928964,1.0397988324832395,0.8144966252347244
159,1.6716863436306968,1.0395438364291654,1.039953157390229,1.660318754487343,1.6449955508411576,0.7715562790022573,3.826404763108978,3.895830987143543,1.0870395982933179,0.99253487105918,0.6333676938231112,1.6716088680975933,1.0461550251922558,1.0467974204618353,0.8705469498737969
160,1.851394159258012,1.4870801843978159,2.130671412329863,1.7034030508180922,1.6765289170158877,0.859166799257692,3.8927503004459907,5.52184501714725,1.6451537201344915,2.201279189222697,0.5604843169999094,1.8506605771482159,1.4913249448820933,2.0841652160276123,0.8946949610183726
161,1.7945609732430077,1.371652009159277,0.33443845868021516,1.3168656109589318,1.3054507601985477,0.8273008177456507,4.051518271770687,3.624661936895114,1.566021551138161,1.15722115103407,0.6509067234006624,1.7905601886525728,1.3102857174571385,0.9491628422923374,0.8125833754758285
162,1.826619239051613,1.4656858431503703,1.0267377325454583,1.6517827290656524,1.6236844911939166,0.8193654340008547,3.976197514688359,27.919834023325,1.6853626809145144,2.281389218459696,0.6068309995095971,1.8253162527568976,1.4658316237612998,1.7707807119656087,0.7755254132467038
163,2.111390900068311,2.0740001431049895,-0.8334323665168824,1.5978285149840215,1.5477896532721902,0.8431918486148692,4.834659669796756,12.612706361248538,2.4063769318747137,1.9629102087557768,0.663668482632973,2.1049189065521934,1.962459207440093,1.910841206365675,0.6635673372729771
164,1.9722409600722008,2.0740969025567892,-2.3480976811878773,1.551445328683872,1.4833532735875068,0.7301855020388465,3.330487111251524,2.710474523556512,2.933248603817964,3.1112497325076762,0.6425374456860184,1.9484912550230133,2.5613687511607535,1.68276918551965,0.5564380990698444
165,1.5853305628061722,1.2438736087805813,1.2243018799601773,1.7042587880364943,1.6934166179878951,0.7255763883592483,3.2947617320986016,3.043710147834982,1.542253135706713,1.513016562403743,0.5883313578629602,1.5819848856527996,1.1902483442263236,0.9350365160131617,0.7865210871442773
166,1.598369220677601,1.3041105470983974,1.470395053635825,1.3902094147768178,1.3788674710579618,0.8739463112113035,3.9048029187277025,3.1656952976137465,1.5177405883899375,1.900085782569746,0.6584896970785714,1.5928539671671198,1.2496804613148849,1.1540786452467608,0.6370224418885143
167,1.461853552375793,0.9570569436571021,1.037441542533518,1.5410546939324092,1.4762876730055814,0.6685932029183035,3.6795549053455927,8.914078410093385,1.0605662090162487,1.67688857775828,0.6403206450210053,1.4615448660575716,0.9584483328877844,1.0109763410504695,0.6218301396391198
168,1.3118281942875183,0.8272612795947318,0.5905188804561554,1.2339892611920529,1.2300157952277384,0.8115889649296513,3.2276789109962207,4.913322984038693,0.9228389051474432,0.701503885084968,0.6357360191111145,1.311764255854667,0.8337221260771381,0.5971552639400242,0.8846187013712157
169,1.866289595229313,1.4894106410599317,1.226547625689184,1.6979479198524503,1.6430195872880844,0.8268445690973141,4.842707835006519,10.615753081384877,1.692780028584607,1.581398422628541,0.6125606311107803,1.864258480044294,1.4761574293580024,1.1211350488108784,0.758945010243746
170,1.442638062275367,0.83465206022344,0.6462992577279993,1.5871475369176455,1.5482557647590085,0.8434215432689631,3.7766150693024745,7.740859163745643,0.9424615082988049,0.790661313239696,0.663668482632973,1.4422769958708272,0.832368728433977,0.6357246800980504,0.6460895098841286
171,1.3038252467819769,0.7592775487227468,0.5761065466668325,1.407921839040518,1.404391676322849,0.8249351259197979,3.534235904036965,3.3736745816085527,1.01991836603455,0.8481264325524306,0.6380535849069913,1.3035885360268704,0.7648031694663805,0.5818613968827424,0.8767495086602082
172,1.5789245625331587,0.8356759814343862,0.3002935598373013,1.4725165676452292,1.4433863919232346,0.8811646898491309,3.8701958271025627,1.756880184007874,0.9854591701796156,0.2995122648702952,0.6097226960127671,1.5789087073992776,0.8420846166450701,0.3067495104035987,0.5991192321561717
173,1.7287510837397986,1.4379257612624374,1.1343878301581611,1.4567592936328808,1.4503673572515525,0.8161078904644099,4.309061631694405,9.208232866219241,1.612504018521955,2.1212788792223827,0.6284777104787076,1.7281588878184604,1.4440454177405937,1.1411257978285927,0.8385306142566752
174,1.7269126594531266,1.1464830657345229,1.3847314021422004,1.5379101756519737,1.5325742988726898,0.7616296172448553,4.563344209694295,10.66424076298735,1.2886990889535834,1.416773190591081,0.6153451465759925,1.726471229199938,1.1446863097724225,1.3248506770262405,0.7795378176193751
175,1.6584733112958456,1.4131325935658567,0.9657329965523682,1.5950777632170794,1.5681283978139806,0.8531853179158588,4.692312423634608,11.77356749741677,1.6652111897167274,1.2160871765014782,0.6425374456860184,1.653273703138401,1.3963282803283208,0.9604014303216281,0.8328634286764364
176,1.4412909692234954,0.8304837493855242,0.7026722658042641,1.3110579112490621,1.3075867907223642,0.7553566409499226,3.193547543419329,3.3778235204397733,1.0304130193608894,1.0929718580090444,0.6528756675646988,1.4407740131070357,0.8349527923841411,0.7017290593121012,0.7098664445455376
177,1.0575318900325419,0.4341395980012881,0.4070088409241448,1.7407575809116462,1.570778446279969,0.7346257138955054,3.2903599938282384,5.039205822195843,0.5555930099155861,0.6571712347142104,0.6333676938231112,1.0560957307317864,0.4320098965347891,0.37543631505717884,0.6686334847484712
178,1.5541625633687859,0.8980508713410706,0.5184455808243897,1.4511217362302142,1.425439632873169,0.8642719185398287,4.28499280524842,9.666662027960884,1.3248496720508227,1.1596404314032172,0.6699045166045591,1.5540557665825157,0.9034951531956296,0.5216520518246353,0.8151762300119586
179,1.5500989533826457,1.3835837909813506,1.4022161591548947,1.5161187464362529,1.4938775792209187,0.8109942177500357,3.6745492859097317,3.70754050548382,1.5514406433287018,1.4971286213885193,0.6584896970785714,1.5499119331200735,1.3902805197600472,1.4060381295218438,0.9020078288259956
180,1.3444839135371005,0.7842849658559379,0.7092173507461066,1.4379622594890717,1.407156885032775,0.7512928270036935,3.553903045060538,1.9344613728753686,1.058280183813629,0.9917580074302932,0.6468212168108125,1.3444702022674364,0.7908129735285997,0.7156755797432937,0.7860347624305782
181,1.0124345924270572,0.3705208674273186,0.18700364160593708,1.7087096059167508,1.7099581655221079,0.750045386204179,2.875449484492068,1.952687660067416,0.4635949760819949,0.39081890573974,0.6357360191111145,1.0124345924270572,0.37719866995834783,0.1937038153765009,0.8328365545047096
182,1.8119621765455742,1.4905861240467424,1.0082508247931972,1.624082952130817,1.6021685308752527,0.7680171298192869,4.644516946100054,1.4075955606822674,1.4905861240467413,1.008250824793198,0.6509067234006624,1.8119621765455745,1.4972639265777707,1.014950998563762,0.8678890648390803
183,1.582827087542386,1.2490375680115144,1.0734693617234492,1.7610092879603851,1.7174322240139142,0.772909856467127,3.570906634883374,4.566639626468195,1.4785902622877487,1.026269330295876,0.663668482632973,1.5827959814876793,1.2553629049615511,1.0805531071297123,0.7731285255457828
184,1.117089092836746,0.6068012703650116,0.5235626909974689,1.778767442168533,1.7719583198271405,0.559334480612245,3.0977539857864413,2.403419835386951,0.7765506460880603,0.8855089303872353,0.676637947632344,1.117081804951771,0.6133944358593856,0.5297946382426982,0.7042482889342426
185,1.7764127686964666,1.294887585066081,0.8335163793543083,1.5421681244449281,1.528449596866624,0.797667615447649,4.221907638560125,1.9714019742918056,1.6990226238187458,1.1231130308428479,0.648888643467878,1.7763455431757011,1.3013201131409762,0.8404872094870058,0.8734595685182363
186,0.8658188829000721,0.24826508061594632,0.1992737496579846,1.445890278825795,1.3930156314702589,0.6024205687380464,2.513179971378128,2.0823473012940417,0.3324124789287191,0.4639783819820147,0.6425374456860184,0.8658088777263182,0.25494677562748136,0.20597085328194029,0.8647970536993193
187,1.3600642000129661,1.0086613868703544,0.7644929409212664,1.6013530466615875,1.5928776196779526,0.8415086416265007,3.5405186243943354,7.857763656964973,1.2982492724733645,0.8630378888743511,0.6309483474627791,1.3600636366373693,1.0153311263703286,0.7711604002808766,0.8787865291436193
188,1.5150744523925845,0.9704863085862128,0.8252140834853243,1.6709123637933176,1.6147924854487972,0.7804896052725578,3.6992229053906738,6.445508649251655,1.0946161989795842,1.1257664956493758,0.6425374456860184,1.5146329107157908,0.9706738190935493,0.7761287094776566,0.6258328058164173
189,1.4828327104294008,0.7375449745743152,0.48109825011875973,1.6275456726420727,1.6037059885039693,0.7831999347273096,3.9810377132625683,3.4579162095946643,0.9099554202337695,0.826184481639062,0.6447042257417027,1.4822180624233805,0.7402217640539026,0.47929701256833485,0.7004886547014708
190,1.7563933064901456,1.1108369228443247,0.344956607382934,1.5932017571353323,1.5894422554499612,0.882714844651101,4.212659451953702,3.0837889518337667,1.171655557321401,0.3713433625561287,0.6447042257417027,1.7561992938295041,1.1177087380359956,0.3516567811534978,0.6732680771036771
191,1.592691803537933,1.063392509935917,1.2498615211081776,1.119697618927878,1.103440605301302,0.7921532780258488,3.621976467750176,4.489411263433773,1.217195973087538,1.2811308935535934,0.62595550513784,1.5926900551328778,1.0700681567776256,1.2565132222424709,0.783927852680889
192,1.9106802544137345,1.2438920129269475,1.0686168060187837,1.5821856912632573,1.5761733640519564,0.8884409005102258,4.459669859489698,7.563496160010031,1.4872403972852692,1.178497921160018,0.6684167106117298,1.9106180831113715,1.2481561325046178,1.0717719677865127,0.7908239797366821
193,1.5192724446721884,1.1952515678656028,0.6221980739473709,1.4665993120191456,1.4329136363300452,0.7163344493587966,3.870495998886418,3.339399371359888,1.3499577119186363,0.7186981745290929,0.6207552362147116,1.5192417972960466,1.2017247957393904,0.6266900216986886,0.8803154825990201
194,1.3489293208065758,0.5729849700768208,0.2871515045105073,0.3129159535729708,0.29521961087743737,0.7529344212955941,3.307667220858197,5.4942511468988044,0.7527991158297738,0.8915908428902551,0.6447042257417027,1.3489129452749256,0.5795066153792021,0.2936101356010629,0.9291722334167605
195,1.7062989471379553,1.472027486944257,1.217425786523962,1.658172676507657,1.6490564282629288,0.8410362814714516,4.353855584147393,21.729765679499327,2.0709904179882224,1.226701105675658,0.6357360191111145,1.7062547822815786,1.4779512675515651,1.2166636726422178,0.8396477502353552
196,1.4691483830190315,0.8627521461094865,0.5903664135264317,0.403341903419572,0.37719721575869714,0.7339076845285797,3.33046712029166,2.233882640364808,0.9732023251329532,0.8489508030007358,0.6528756675646988,1.4691447102362512,0.8694130432166121,0.5970205972813806,0.8540818215944606
197,1.2112236685486906,0.3793853626677659,0.21496440546343565,0.6189345367549575,0.5952831243201626,0.8264003638816103,3.351183341925167,4.222236644789293,0.44953689927323637,0.4279438122916304,0.6566669596287297,1.2111466228888255,0.38608827237369814,0.22134778800940721,0.8756018879269104
198,1.9574114589636273,2.051335787670932,-1.2342310193519657,1.3628143638018475,1.3294065799259136,0.8908770848571171,4.559595347343451,31.93291556629089,2.038385474374656,2.4157965857581147,0.648888643467878,1.9563982911697018,1.9352775729275749,2.4789364828014966,0.771191017429297
199,1.3529431112612225,0.8889207629463611,0.5651723662811521,1.4443686897967705,1.452243454050576,0.7701129763792959,3.733950859950986,5.107728011564253,0.997818112726805,0.7700679555590324,0.6528756675646988,1.3506698501469616,0.8649223845474425,0.5141924585538118,0.596695667559838
200,1.6686064551797835,1.1890291719739967,1.0270874445516394,1.1731308500606388,1.1539711560800678,0.7228208282344942,4.133069701036043,8.554109861586632,1.478977598095892,1.0155008502477256,0.6566669596287297,1.668421520339576,1.1943350705236153,1.0213270458757133,0.8796789220954944
201,1.6262450307504817,1.1838267847440398,0.6897970936746636,1.7429249482039206,1.7127397017988144,0.812077975415448,3.662638931718735,2.6728543282479387,1.2290558501134359,0.8958824565861736,0.6233814453054027,1.6262450307504817,1.1905045872750695,0.6964972674452273,0.717638131055054
202,1.7141473493158765,0.9417737863513869,1.2494128816100862,1.689088182973014,1.6789278098349123,0.8866559293942008,3.9450235812665713,3.3212373231789623,1.2261446606827007,2.2595172750526067,0.6528756675646988,1.714119646170829,0.9484792920274637,1.2561130553806499,0.8848874758637958
203,1.5167232028920095,0.971539793165124,0.6438811329867349,1.565714309602196,1.5274766829608986,0.8131939859500865,4.233140987128801,5.901855168868904,1.1586730051205114,0.7914827944040879,0.663668482632973,1.5167068131764156,0.978115501398961,0.6506997907700842,0.9158601522120037
204,1.875141078167106,1.1172522941213698,0.7587899651616152,1.7816338656773956,1.7757118655590758,0.7731440650825752,4.944130746889323,6.289889977362093,1.2606104386768813,1.8681947891014716,0.6284777104787076,1.875141078167106,1.1239300966523995,0.7654901389321788,0.7943523101707821
205,1.6975502377438223,1.2948431345446536,1.095262201782829,1.3778749535464048,1.3687030607558737,0.8518798215955061,3.8575667300353187,5.053958618095952,1.4379534219400765,1.4629869819081451,0.6602640781246099,1.6975407939890732,1.3015303808304324,1.1019623755533916,0.9191927747752462
206,1.771956841931875,1.3635373739972751,1.4629869819081445,1.233721533735237,1.1965856794029408,0.8826328850321996,4.789447722930869,48.82442314581349,1.4435800816708109,1.7884093823427731,0.6008849035917525,1.7719568419318752,1.3702151765283037,1.469687155678709,0.6564591221247891
207,1.6122390988201638,1.0436820368470996,0.8439477735019216,1.5716223634333544,1.5421413982223444,0.7706338286598544,3.2033774949604408,3.8662793776882927,1.1610069469431872,0.8444254424864042,0.6468212168108125,1.612219555395977,1.0503793828023154,0.8506479472724855,0.6703226209571942
208,1.6844970141069533,0.8378927289357874,0.6897970936746636,1.575203403767785,1.5654493384511168,0.9086828799488513,3.76922611642489,22.028429445493295,0.880488524521567,0.7342488562454971,0.6357360191111145,1.6844608329399697,0.8446067126338004,0.6964972674452273,0.8351988445784111
209,1.9460409302462252,1.3324684248653893,1.4295210798169862,0.7824751084811228,0.7593116721331986,0.7554221748265766,4.0819404431163075,2.6029376709984646,1.4568915817186812,1.755937449269686,0.6357360191111145,1.9449883518187372,1.3387223343877512,1.3904523712685544,0.7906005358690099
210,1.7087319131791432,1.4748256351058457,0.3646152147359141,1.370441850182751,1.3352697995043321,0.7970502308553764,3.810041156257903,4.939202380538671,1.7358387538128057,1.885326028395061,0.6528756675646988,1.7022844628004523,1.4222917937693471,1.0908066340293574,0.7658813500531326
211,1.4789383964860248,0.7934813183652234,0.6194477942711503,1.4308744405549467,1.4102173212797284,0.7941117354544004,3.2813789232710153,6.992286410903757,0.8708891618595326,0.7120955274625234,0.663668482632973,1.4786533444361156,0.7999982315958328,0.6260219665750758,0.8069939988874353
212,1.6809533746914265,1.129118440803095,0.5844365780168372,1.6343128017862423,1.618802397343147,0.8498217905226982,3.652494592546004,4.6348507704165876,1.1291379013553513,0.584436578016837,0.6380535849069913,1.6809339141391704,1.1358157038863805,0.5911367517874009,0.8025288423569019
213,1.4383972758469945,0.969522134984824,0.8106910845895183,1.7147431113046565,1.7491818258212422,0.787859230865608,3.808012137366113,2.705764775001403,1.3939510175379488,1.0049957272216896,0.6357360191111145,1.438289656238271,0.9759721539803973,0.8174741303791372,0.8650864440179196
214,1.5095738963214063,0.7320504208902305,0.452490218827196,1.648140258401742,1.6328446089605462,0.7798599004996571,4.698118264484676,3.4481920135020268,0.8950644051790161,0.8945915063206764,0.6713451011121618,1.5095423022073415,0.738344189931106,0.4575005915442789,0.8433618126892751
215,2.1484344131667874,2.858861979663954,-5.0072963928307415,1.4542932186704451,1.427995449361876,0.7047573453561425,3.5834824712476525,15.77654809927586,2.8588619796639536,,0.6602640781246099,2.1484344131667874,2.865539782194983,inf,0.7866993077695146
216,1.6138925446912347,1.3917931332299784,1.0003234544044828,0.529066638648052,0.5231832511615527,0.8659259291354205,4.320376983501038,5.248465000243235,1.610036940222073,1.086589227977596,0.6602640781246099,1.6133343827132236,1.3955957113070763,1.0047565651843464,0.9273062669018801
217,1.5767564930835882,0.9881928643779481,0.4930867994286099,1.7157505804185054,1.6773034738694754,0.8191442574955614,3.5126258602773137,3.3781423709193894,1.0095039691964165,0.4717765654194696,0.6233814453054027,1.5767556222742596,0.9948715377183065,0.499786973199173,0.8180505608771025
218,1.4291805324526017,0.842061070137075,0.7095935899089656,0.9237604900658087,0.9025995599222302,0.6791509583029212,4.268242491593481,4.077649714691517,1.0110071761914998,1.0597062627186702,0.6584896970785714,1.4291554702590148,0.8486286149356215,0.7159501856966817,0.8679876259199711
219,1.8911550228429974,1.6551940093103787,0.7721786632315286,1.510891216624639,1.514850239011541,0.797579026494261,4.198571886240909,2.6735274401846647,1.7502429627240912,1.1984051335076713,0.6309483474627791,1.8859236392858043,1.5907159375432094,1.088242090244966,0.7932273428940722
220,1.7740825574519434,1.106172016620681,0.264472628647888,1.5418849736405358,1.4933133620144075,0.7175756480982748,4.157499171402622,1.7074053241163814,1.2322712688139208,1.148010251905938,0.6333676938231112,1.7711075294971945,1.0642080226508919,0.9018208749736232,0.8313408067229273
221,1.502445746436909,0.8791704732038554,0.9893939160816392,1.61147891250626,1.6020679658059145,0.7492365577564563,3.771083505258326,2.839496632809761,0.9882900410996355,1.2543200328420758,0.6447042257417027,1.5009323476322012,0.8708837404360623,0.9667195324691809,0.7780031226330913
222,1.7002339213344169,1.7378085442251512,1.2090328564005857,1.3774644793899415,1.3354866269093821,0.8423803527843916,4.3747661414823495,2.0552920974877322,2.4252343555455957,1.5720709402705642,0.6584896970785714,1.6997881906892447,1.7328998580642816,1.1915516999549158,0.831346794831803
223,1.6572674677760102,1.660479916380669,1.0545980662092282,1.2045751903055777,1.1887239082511998,0.7849163599850079,4.1540808299827,14.7114547998783,1.922766076223578,1.071661273961091,0.6403206450210053,1.6568789870342369,1.6612034879174118,1.0428351965119975,0.8205939378959815
224,1.728321634481648,0.996054745187551,0.5524722264367212,1.6892132206198747,1.6457545596111454,0.8361861550748726,3.7388663409353127,3.004741784588235,1.2488688970208397,1.057221573963788,0.6403206450210053,1.7267210730488327,0.9883537429903417,0.543755324336059,0.8334320238123729
225,2.1238240389866676,2.20831939407177,-3.1277243402737374,1.58998572556479,1.5541465328373665,0.7639485043270224,3.8028437912582933,7.392892431118453,2.3437232704346047,3.143507402239733,0.6447042257417027,2.1227666664182094,2.184771116264933,2.956892440237727,0.9110738662870762
226,2.032965036760323,2.087991655901671,0.8457425060020345,1.5754934020193396,1.5331638850650817,0.6153343662224456,4.544376226731051,22.438223027405527,2.2688955716815533,1.629495187833086,0.6602640781246099,2.03196440847056,2.0778322583104627,1.5388665086540991,0.8303308195212432
227,1.6665170834129446,0.8336457692553754,0.5125522393405872,1.231693361550582,1.2155868218116923,0.78829160595033,3.807132708910107,5.75656901102862,0.9825547785873414,1.0070770173305115,0.6207552362147116,1.6660670545983103,0.8363249095307095,0.5139966343506318,0.7988815360844945
228,1.7133666747091274,2.034467850330701,1.949258961465576,0.7377123571426508,0.709225040886757,0.4641372009806527,3.758057976779385,13.066918388047306,2.199583726625425,1.8575758352015255,0.6403206450210053,1.7130099049965202,2.041060134654629,1.9564014231558486,0.8961715921694755
229,1.8463827885972244,1.3413732488924166,0.7020594549728836,1.4593601387894346,1.4500564177080941,0.7646868561752033,3.1599171741609506,2.9039326022757583,1.471889957294369,0.7384232169284204,0.6284777104787076,1.8462860552494236,1.3468137333037933,0.7089728860217611,0.9469595123077644
230,1.0576371761618675,0.6304111569387392,0.33996116660743714,1.4692783130808857,1.4631914916025066,0.6610773411606564,2.534385042962406,1.3127552440751762,0.7088258956273716,0.5121407350065759,0.6403206450210053,1.0576303069464894,0.6370629494485593,0.3466393009841964,0.8182036795664673
231,1.0660863894327077,0.8080444675687701,0.613400102248379,1.0874297608749115,1.061414327648087,0.4208300681318129,2.1912934121493044,2.209013858934931,0.962719821447718,0.9934826750091451,0.6207552362147116,1.066048297794847,0.8143966762658955,0.6189663619301394,0.8214888513464325
232,0.8737739891231269,0.4357717660683995,0.2670925981406056,0.8258821947337233,0.7685045596681013,0.4744051176926734,1.4096766316874936,1.091895618619845,0.48655644451810365,0.3039264722883218,0.6207552362147116,0.8737369045091412,0.44232683293666136,0.27389839848764114,0.9434878778943444
233,1.087648445573223,0.7437386848130523,0.5209595304179431,1.3342337669553483,1.3224094730247908,0.34837749236297094,1.0057779399088012,1.0440458649659325,0.9123678656352304,0.7307786357113865,0.6153451465759925,1.086980204438402,0.7481043895280267,0.525365044472757,0.9498604616680758
234,0.912698222828317,0.5522020663830417,0.4384862499025297,1.1673441846698116,1.1306177546211202,0.33561849722973514,1.1381124194938885,0.9869141763761897,0.6716355712536786,0.7229338261469115,0.6509067234006624,0.9125754199785296,0.558454122751544,0.4449335299572875,0.8774037250910507
235,0.440627834063223,0.28678475288261,0.2172534272589719,1.0178476761627642,0.9952935577540107,0.2842004361878665,1.355767710700346,1.3189286139631848,0.38931303965043523,0.30588483833094,0.6068309995095971,0.44048797788123945,0.292879526387299,0.2227908166046378,0.9214038384348898
236,0.4405653299637864,0.2618897514063768,0.2548103151879145,0.7108603858497712,0.6404913711109471,0.2402417112453521,1.096784978955696,1.2397715552158297,0.3678038185721358,0.44525267530792284,0.6207552362147116,0.44055702315770684,0.26856146691204297,0.26151110490425405,0.6158056109686671
237,1.975806692240781,2.365282647216135,-4.341089339456916,1.7670779556158687,1.7344499866750878,0.8301943779042812,0.7876028778429113,1.0487515373824685,2.7788143245446597,,0.62595550513784,1.9756823073889835,2.368834478535246,inf,0.8345581619520434
238,1.8027006720309278,1.6182986842531417,2.276094130221335,1.7702388983429818,1.7545710387587514,0.8943886178163016,0.7518428999442989,0.9780187178009477,1.739763058569551,4.2143543221238415,0.6309483474627791,1.8024834325910306,1.6233482300294857,2.2846398001864814,0.7939493809312166
239,2.9255354543802192,1.745455430722012,-4.670990885102231,1.775633847666354,1.7140185633311404,0.927784962917128,0.88357845049134,1.247774334728689,1.8448263940440213,,0.6180765742263259,2.92537736709498,1.7416682226111988,inf,0.7985353111064446
240,2.0692187162657936,2.021786944690792,1.6060878255488191,1.777835715890283,1.7519002314276713,0.908373555918548,1.4980141280998265,2.1532969262733808,2.244965984815461,1.3829442742346088,0.5068466436745385,2.0691832274553352,2.02850023603228,1.6127879993193823,0.860055925051199
241,2.202896478594434,2.1112527336763622,-4.314149212270796,1.7765065697324602,1.7446330437894892,0.949216415936915,1.6336196623944252,2.7585098975563396,2.111308896148941,,0.6207552362147116,2.202840316121855,2.11798669867997,inf,0.8351541056011647
242,2.3180353232028845,-2.3180353232028845,0.0,1.7824181700275061,1.7354544447448546,0.9449713942157364,2.1784365354493596,3.0830201548688305,,,0.6125606311107803,2.317811540325337,inf,,0.843180124802957
243,2.6597860147743573,-2.6597860147743573,0.0,1.7821163664657511,1.750876701271943,0.9469150343953981,2.095151232537955,3.697557331327431,,,0.6357360191111145,2.6591013193703468,inf,,0.8563177124608276
244,2.4473855008713605,-2.4473855008713605,0.0,1.7493994824800227,1.7187807492248752,0.9164042185497442,2.458745742803157,5.050611760968596,,,0.6447042257417027,2.447353993735416,inf,,0.8598503518331069
245,2.200408731665294,3.500034841725393,-5.700443573390687,1.7874308546837407,1.7718561509547122,0.833518682461985,1.995456002663834,3.1390961179967407,3.5001141811009884,,0.6180765742263259,2.200329392289698,3.5067919836320174,inf,0.882721139526845
246,0.7666839736570293,0.740335763342341,0.7797098982238324,0.4752796899933039,0.4166162788793385,0.39792833042869713,2.769163877062434,3.597232009014057,0.9893905903878288,1.2638999930018928,0.6468212168108125,0.7666502075247827,0.7469726020950227,0.7860775593056502,0.6412324558847601
247,1.8119621765455742,1.3235320393835759,1.1753049094563637,1.660519519955256,1.6474815508942362,0.5358557535813099,2.7185858655848514,6.986724990790927,1.4905861240467413,2.394545185913089,0.6403206450210053,1.8119621765455745,1.3302098419146045,1.182005083226928,0.8872554876942003
248,1.562467054553739,1.2196612317614195,1.3910024187553978,0.9086767570348727,0.8661533046408391,0.46634198173554603,2.720831661107621,3.763269705759575,1.4364320550716492,1.9983769526204096,0.6425374456860184,1.5624483101026037,1.2250059137868747,1.3866553068014849,0.6155358843551704
249,2.013503772495477,1.4872485894131544,2.1777331465951635,0.9734352273733748,0.9528619328409821,0.967900996343068,3.126874338362456,2.4312874092168606,1.8940825415181255,,0.6125606311107803,2.0134873564011024,1.4938115561435985,2.1766809348153204,0.8921070714521682
250,1.4948790435151726,1.1937383979087175,1.2111209832322074,1.2766722014218694,1.2457768544950263,0.47420565581433166,2.3394637147527377,2.0950512659013705,1.319347517202928,1.4966312326689886,0.6333676938231112,1.4948203755135974,1.1999845988385922,1.2177737410096796,0.9147071855582767
251,0.8623209045033681,0.5853524982437811,0.4686343661516603,0.7667519970138669,0.7390808610710732,0.5140223297925222,2.461558209298752,2.9038719728110904,0.7994086449851842,1.025184624184495,0.6333676938231112,0.8622761435679168,0.5920115887058416,0.4752024104203759,0.7955878431107186
252,2.3200129698396617,2.131723320560248,-4.45173629039991,1.2064867326669477,1.1641595305437005,0.9143438432730321,2.5407060548092466,2.939781858233534,3.3839849081307687,,0.6097226960127671,2.3164586652599177,2.131707771918509,inf,0.9018814175817391
253,1.963642381304867,2.6343403138196937,1.099110791380844,0.38321195798906676,0.32592814374532386,0.5412607229720773,2.912151902858633,3.592439288181016,2.7076449984381408,1.026030410213507,0.6380535849069913,1.9634180778537564,2.640641613850308,1.1064117711029335,0.7193623445186752
254,2.4079456086518722,-2.4079456086518722,0.0,1.2869551608186716,1.2666331280823009,0.9631432516313638,2.8953804734223096,3.043627104675425,,,0.5604843169999094,2.4079456086518722,inf,,0.9090887233838444
255,1.2997779766698727,1.1180740094639479,1.0520107623476553,1.1964093827737152,1.1841234206071647,0.6599672630768914,3.6498464584911914,5.0288534762000445,1.7746613157534454,2.0737098909874025,0.6380535849069913,1.2997090007883982,1.123412916058652,1.056757986849574,0.8261301027286383
256,1.914407591527773,1.620483949421282,0.562125033633269,1.658909726996645,1.6068748072157863,0.8052393647329716,3.8317865943704703,3.9519924880642314,1.7161179969797036,1.369020685018863,0.6097226960127671,1.8825598335545515,1.525997902513896,1.141493150698564,0.620463076408382
257,1.675301437372847,1.830727238261061,1.0024010210209284,0.7285774108495922,0.6915623145994659,0.6470522818881284,3.6987207206409387,5.494994159660111,1.9061543954313744,2.252929969753085,0.6403206450210053,1.6591535046800332,1.7697577155496378,1.8259210343786267,0.8283089120907217
258,1.5985017150243557,2.2433807004645283,-3.4977626746932557,1.6778605889151397,1.6384322418760395,0.7714891584491933,3.6628471707439862,6.406866813818114,2.618265235938433,,0.5915533975974677,1.5972348952625235,2.2445367716213642,4.67542152453235,0.8466887967972491
259,1.500785655710109,1.0999416676777831,0.7915433679858075,0.9639367084918764,0.9156806468577031,0.7658140238269453,4.345297694833481,2.4227936472549443,1.3983773251033098,1.8724399895839403,0.6180765742263259,1.500633334373719,1.1062149862195239,0.7980224664352215,0.6444224341474257
260,2.047243928491578,1.395366342836648,1.5613360346172338,1.3042685936366734,1.2892589259004494,0.7187254689744328,4.41625922321567,25.72017496000948,1.632185553286486,1.3782658719005307,0.6528756675646988,2.0469098166773514,1.401029827536936,1.5693846380327654,0.7005873496437435
261,1.431630939436532,0.9768077916903348,0.4610692122763873,0.9400318561629195,0.9124339031513787,0.6326091208197637,3.8313124501003943,3.2390371482766196,1.2365281158187293,1.0692780597221752,0.6284777104787076,1.431570705989526,0.9834368164188071,0.467594498223471,0.7530007773816813
262,1.6945142726129263,1.013314647892007,0.954353106212479,1.4667989704485158,1.4436480761845407,0.8143918498396682,4.431301746225498,4.214072323262395,1.1253898261217015,1.0380424049848151,0.6425374456860184,1.6943908034997812,1.01833698715354,0.9589668387065143,0.8664695562734942
263,1.6766608262111113,1.4429708137386459,1.7972349112342174,1.5894693501760586,1.5835217097395065,0.8146571832890291,3.8368210232052555,17.575701441023124,1.6283369516927209,,0.6068309995095971,1.6766466621275504,1.449194296773461,1.7894841553909195,0.840427250278985
264,1.7268430707138842,1.239817873635264,1.1560793604305424,1.612259086118979,1.5714997571084701,0.7821425482689044,3.931704748572315,16.057079680716,1.4010684853068127,1.5137088404161645,0.6357360191111145,1.725971728690052,1.2443094124344147,1.1531490019927306,0.8590209376614593
265,1.676132462819046,1.3292134407655458,0.9887016228710244,1.3613960318710419,1.3421847301848622,0.7808754747507664,4.0090976671538385,4.160913274472271,1.7403717530030915,1.8752039638780642,0.6380535849069913,1.6760526615160845,1.3342293930526379,0.9930037767064117,0.7513455809204874
266,1.62784051119735,0.9411228850247639,0.9411818851855478,1.5813736076663645,1.5474881384636758,0.802960338873114,3.8020092617880636,41.27398445415214,1.0697181895252028,1.32515128405888,0.6684167106117298,1.627828204212449,0.9477328138436821,0.9474274206599465,0.8080481834364764
267,1.7243714066294953,1.155788420282177,1.6128048206304628,1.5477797010240888,1.519650117124742,0.7773858829336019,3.945784044167294,16.549374310526684,1.3213441235364933,2.5109492743171296,0.6380535849069913,1.724163127991246,1.1596303145447961,1.5344362408018,0.8280489750232516
268,1.6881795127718775,0.9760636910313087,0.8356257053659988,1.5114557992219173,1.4856058083038102,0.843613298476528,3.8875686941547873,12.605358793082361,1.0157550943207303,1.040618820509995,0.6309483474627791,1.688120434468569,0.9826339818899441,0.8424924691122652,0.7327983008500549
269,1.3613074119574697,1.0513427949089584,0.939972194703802,1.5933408426242566,1.580207376644153,0.7340410878805907,3.829153819226855,6.153311256258119,1.2062345168337154,1.0548522905136033,0.6333676938231112,1.3611899092277264,1.0573049750410224,0.9425207077605747,0.889845414257422
270,1.5148768986633774,1.0842187062869668,0.9835034942990446,1.6943150689889739,1.6713955011079367,0.8023207809156284,3.520394594165686,3.8018814136195425,1.279119274400543,0.9573300860847452,0.648888643467878,1.514733976964803,1.090759635812315,0.9872679070459246,0.7709315344535534
271,1.7990527778607066,1.1472781308641449,0.8526475265741609,1.6738682840677965,1.6414174532733923,0.8700298192010845,4.7686075600298174,28.17096457877052,1.5047797015428674,1.1196916790046214,0.585052858160615,1.7989855143197946,1.153048903968477,0.8546280714820481,0.6813021984843215
272,1.9443670158906692,1.5857389837068874,1.7049746013573133,1.423354492124962,1.3825698534096864,0.8027687717035091,4.4528716187986355,10.894017385695424,1.959446134112827,3.3019609549699918,0.6380535849069913,1.9431251419015645,1.5847698928065483,1.9238325451394584,0.8497504729342525
273,1.8613612148160485,2.0426170509037465,-1.457992536288082,1.6082860080259902,1.5868689693299698,0.8682054327096239,3.652783178381956,6.924903110447934,2.176978620928591,1.3840259768125143,0.6584896970785714,1.8568314659717697,1.7949663132376346,1.1198206144163514,0.7937501494168505
274,2.143501171494325,1.527122219043727,-1.1326128558263107,1.6547096710263423,1.597969237616295,0.8377555776206327,4.846595034872559,5.847137920521551,2.371736931417249,2.5056054502055507,0.6447042257417027,2.1223954367155704,2.2085156971528805,2.1713790370055217,0.7038046009929916
275,1.923243809930078,1.8965123868366245,-0.5667670964536038,1.6304532759394772,1.5930850797944993,0.8105534045249421,3.710652075647109,2.6653433624424565,2.0418476488375163,1.9450958074620108,0.6153451465759925,1.9183057905545955,1.8395665350462924,1.621414103480816,0.899108497219895
276,1.9707585573347335,1.4902154068875166,1.022817210707371,1.451672003974944,1.4539583134259382,0.827382866829789,4.37255545322423,7.058001943745118,1.7004210288818238,1.3826704367539688,0.6447042257417027,1.968974088653865,1.4951630927821646,0.950412644943412,0.9026540329531623
277,1.7532282474029595,1.4617062882774543,1.4287969325254966,1.4016551125376218,1.3687217978094057,0.8391728727768022,4.204313142857681,10.791837061734963,1.5176742790796365,1.4490919818462482,0.6284777104787076,1.7528593202704985,1.466294320962873,1.4245263995165955,0.794426322677035
278,1.854089674452825,1.3145966646000071,0.8691898008057644,1.7304573780379953,1.7408007425276604,0.7446260641586261,5.956230807885521,33.60834036328619,1.4853474344064723,2.5831467353127,0.6566669596287297,1.8534221296201618,1.3092834237809843,1.7617520444540573,0.5290071385859899
279,1.5659861170278855,1.6645557529895478,1.9965375879379423,1.4001237221386909,1.380318581316271,0.8262587342341647,3.8670728651782653,7.464810799039176,2.163679800416823,4.027074589693694,0.6447042257417027,1.565846423173906,1.6622383407796046,2.076921590745323,0.6236335823502831
280,1.5329738791433343,1.4486972024612221,-1.2610723776264146,1.4206773558525825,1.4049275342643095,0.686383375128664,3.876534044886197,2.8039867658737108,1.7080350054572448,7.056347989617609,0.6528756675646988,1.5311916892678459,1.445391765447384,3.931171824266907,0.6281700760300398
281,1.4580388120055963,1.2137456124769082,1.1053914737557378,1.1112078359929056,1.068253544710022,0.6059235031304859,3.268189698127739,2.845407197894926,1.363853291669373,1.5663969325651528,0.6425374456860184,1.4572415219392425,1.218018856339977,1.0118428764334613,0.8429035205637274
282,2.1736958097387262,2.512013180887905,-4.685708990626631,1.215046160253836,1.183163231933184,0.8537504396659613,3.02836524183153,3.447287142772247,3.0923999708863796,,0.6233814453054027,2.1729222848132546,2.4765481600714168,inf,0.9172505813335783
283,1.3321962292140135,1.1071719822432955,0.8665125856943812,1.0764793268549369,1.0230459370303326,0.5205354712596971,3.1461328027227795,3.721402099581135,1.2995058398975141,1.6791082500151413,0.6528756675646988,1.3321850354728586,1.1137573442970008,0.8721400951817893,0.7776452690162775
284,0.9889196101464229,0.48137050769440737,0.2934209025167036,1.1311128592613415,1.0397500325870896,0.7774036586546216,3.2650805713714917,2.797602105186149,0.7289822594721369,0.6469243793535009,0.6333676938231112,0.9885030659880797,0.48480267212144085,0.29148728288872033,0.686364559444883
285,1.8495184109216138,0.872340531729066,0.6905358212730417,1.5651805261079923,1.5547744916357187,0.9323458546035867,3.580114458538441,6.51638297489699,1.3129616345449127,1.176523913061453,0.6309483474627791,1.8493885820646914,0.8783542523832547,0.6970644128533431,0.8034267120950882
286,1.7180752880152605,1.119244416107309,1.2046303093901591,1.07912840154743,1.069579677445859,0.8409207230275234,4.230857118155489,3.6257719418525953,1.3442754722652857,1.1876766173504956,0.6684167106117298,1.7178277030738889,1.1247067254081156,1.1878968079964434,0.7204783143901395
287,1.525005597427517,1.3618447951203279,1.1167525893950465,1.6114818253957677,1.5793729015041065,0.7851501487120318,4.443104612595414,5.895627753309746,1.6002129867735424,1.517678575509554,0.62595550513784,1.52402503458597,1.3635506360081933,1.0792555713289778,0.5747947961495883
288,1.5494848936716983,1.0673843225161062,0.8179695953324169,1.2967946136336121,1.2724252228170156,0.6811672238457347,3.9966627910714214,6.431135034140465,1.2079728509270014,0.8767325026756235,0.4576907132971797,1.5494409385278043,1.073961788514121,0.8217465421494128,0.7137595168433039
289,1.687289704473183,1.078155973757552,0.988462836854926,1.6250530485961188,1.583306486800581,0.7599289853085961,3.9724697291088598,3.054843505133913,1.418678763829624,1.7077098293795983,0.648888643467878,1.6871592425166375,1.0822345888266245,0.9691428293794573,0.8748800926568239
290,1.4850139829355513,0.9912636169225644,0.5235111145851179,1.3196271333041483,1.2844293763481298,0.777637775887384,3.6983592374371277,9.525659191942527,1.2125473851660664,0.9195989819304303,0.6403206450210053,1.4846670032564508,0.9809600317995932,0.4951671871366665,0.8031761372006366
291,1.4161043150989434,0.8601564865404907,0.6256399537334247,1.604085655591201,1.5690643355829865,0.73553666776486,3.908569946811471,6.247051224954901,1.1014106139034365,1.0009222510563347,0.6357360191111145,1.4159749485547284,0.8636534550363066,0.6242339444876289,0.7472745019616749
292,1.4461343412804322,0.9465205468371458,0.7080779608697303,0.883560507180049,0.8572407201053244,0.7872646495825092,3.42405122407673,2.4781171528131023,1.2394075018372699,1.3961344254933203,0.6584896970785714,1.4460915475776208,0.9530044457972686,0.7141693470802777,0.8632434401935192
293,1.0505384297861167,0.5033467590469833,0.33186067386813045,1.6986451108896423,1.6383928916140094,0.6547610077734022,3.1515666633058266,2.75844651348425,0.6948592509920445,0.6559083560226496,0.6333676938231112,1.0504890134863814,0.5098413248406911,0.33834641324706,0.7365908196536057
294,1.570461290957152,1.199466968945393,0.72994064926664,1.6395676367154133,1.6103190010157011,0.7455763272711065,3.0963519908067405,5.088833093716509,1.3371459985021723,1.2253849852104204,0.6180765742263259,1.5704308973262953,1.2058981445292092,0.7369178436152738,0.7657393295496764
295,1.4647996289085718,1.4280558739679454,1.0760621318573662,1.7655076286005695,1.722221920214447,0.5116144784489505,3.2711068341413485,2.533959879498411,1.9977772011971455,2.23465189088882,0.6652988471865258,1.464664394419439,1.4335379425919141,1.0774706954932487,0.8255455416272061
296,1.179273249206382,1.0718455900653683,0.7900942347224102,1.5759388767493132,1.4860291082457802,0.628395934379459,3.7242994589616005,3.988424812021588,1.4560285381729567,1.2700614204106924,0.648888643467878,1.1792440586937003,1.077624371570034,0.796492956126893,0.6098491250594875
297,1.5939554662731332,1.2771271637787693,0.8801007073981886,1.6945914750134006,1.6699479111228133,0.703560220315222,4.288761287331335,9.292912773558903,1.621589522397369,1.0952622017828277,0.6509067234006624,1.593947401205317,1.2837055842830731,0.8869083282632944,0.7275892533461797
298,1.4004067956410022,0.931153584139599,0.5298262748165086,1.6809873739216927,1.615680497359953,0.8480840438695272,3.43864229342747,2.4949362266929636,1.0835853937381856,0.6481654498062898,0.676637947632344,1.4003932854993923,0.9378189851378045,0.5364830078739602,0.7334707218751897
299,1.8101043625216198,1.5874353547318636,1.2009414805838112,0.6503274894335145,0.6340615123834611,0.8083359378703594,3.9318908853270287,3.31185003916626,1.810107034263966,1.3837800452820048,0.6333676938231112,1.8100592263994884,1.5941426642829657,1.2076572834564339,0.8862633091791998
300,1.6477702529990446,1.110397026446816,2.37957233600547,1.313447597480442,1.3208923516919595,0.7203510628767734,3.3465025634281145,5.217756548675679,1.28324778389166,2.239471713959973,0.648888643467878,1.6469090458838165,1.1163015663956692,2.0176365877838918,0.7329273564242265
301,1.582916482140411,1.2609543732420037,1.1060503120273792,1.4667191584126984,1.4667282939664406,0.7602502927008564,3.9066613750092105,8.525507432939413,1.4808507849260122,1.7376038565841747,0.6547956803312163,1.5826877973581854,1.2653910483477278,1.1070836523828504,0.713315045970463
302,1.7795542580860622,1.123801661239227,1.1199949666853506,1.5319829368454132,1.499616837220611,0.8615419010686839,4.042328596793408,22.387933439010077,1.3577951423315007,2.6474184636617952,0.6468212168108125,1.779501571832553,1.1300530054803857,1.1227545939897094,0.9039382585803111
303,2.192009319937922,2.3989237396809475,-4.495344242731195,0.9887342301066073,0.9669915739389137,0.6468063872106979,3.0980619197023413,2.9300300306639926,2.4180254850128686,,0.6233814453054027,2.1916401990423187,2.4035796560926044,5.202907181743378,0.949250161627043
304,1.9204448060592703,2.688166831641705,-4.608611637700975,1.2302704136694578,1.1960209422782053,0.7382991010417476,2.49410935284263,3.19753462849841,3.086869871344224,,0.6207552362147116,1.9204265214865173,2.6936722952458756,inf,0.9288168843210303
305,2.5030150759010934,3.1974284974895935,-5.700443573390687,1.0247844997847557,1.0020108516570936,0.7455690899694654,2.2876705084914066,2.3905451748025373,3.197644470761098,,0.6403206450210053,2.5027991026295884,3.204322273292127,inf,0.9396620782200702
306,1.911080954008827,2.7329628201869687,-4.644043774195795,1.2523544804231406,1.2370227827558276,0.6007043357741504,2.476243707980243,3.9055121949478138,3.7894500162389333,,0.6403206450210053,1.9109935571517531,2.7303796775002986,inf,0.9490433274009697
307,2.4497641206789185,2.537804758601827,-4.891980062393071,0.9148373483837569,0.9080025058065051,0.8398252224678762,2.4167289895567894,2.4847074490554717,2.5494304441034785,5.296604734288512,0.6403206450210053,2.449539505950709,2.5380305152145506,4.810557015713042,0.9403335101268362
308,2.162029985366518,2.2387124928596633,-4.4007424782261815,1.557216356470916,1.5522707657859482,0.7426981688654763,2.6006981256841364,3.027506618423511,2.2377840912129687,,0.6509067234006624,2.1618574334989282,2.2372023337311937,inf,0.9464801360242991
309,2.0633496172324923,2.040215820362607,1.5935280489103052,1.458636396157664,1.4256951273786715,0.759057277332092,2.7715122964260717,3.83421752352282,2.2840831220992106,1.4085308840893669,0.6309483474627791,2.063218297488486,2.044549285065756,1.6027038802527562,0.9287374633352815
310,2.2788671211520826,3.1665724727683906,-5.445439593920473,1.7196390242547723,1.7074699243399807,0.8167526340050273,3.341869622122312,8.540370048291543,3.5652990197630974,,0.6566669596287297,2.278760065318738,3.1150897279508625,inf,0.9472417415210034
311,1.5812494273143336,1.4738761869065315,1.6249928537053218,1.6378395576493423,1.6633214857103902,0.46688733135849997,3.1329931578602603,2.8074194600914035,1.982947916356065,2.1329711229880983,0.6468212168108125,1.581174447161241,1.4788000951211036,1.6213570046713108,0.9144959705334993
312,2.2621875714038713,2.051961640866925,1.3829442742346085,1.2302952314342708,1.2111918362897016,0.8593375902675823,3.0106871610134416,4.916595825618632,2.0523861137970054,1.3829442742346088,0.6509067234006624,2.2617630984737906,2.0590639163280344,1.3896444480051726,0.9398516032133889
313,1.8337737099397244,1.5346180931154716,1.5951229722569304,0.43002231762366766,0.4169212060364189,0.6351582094455676,3.1691208157463002,3.4554130492173774,1.871002754399928,1.914130290887726,0.6284777104787076,1.8314016045004984,1.5373285870241555,1.588364335643572,0.9123923528714477
314,1.8662932284800968,2.2302745289293586,-2.490675633696523,1.6719345134607988,1.6655186468016399,0.6464684385838465,3.9748003035690873,6.731763539050023,2.6196985849109033,6.910014846583045,0.6008849035917525,1.8644735415168603,2.2159681155362487,2.8963064934159792,0.596339418349622
315,1.7987350703852791,1.736017401422803,1.9270130401852907,1.5848438585535831,1.5810258821509537,0.692865927285527,3.090556775070829,3.2078167663411223,1.873582865549978,2.2127673134540022,0.6403206450210053,1.7984484573788515,1.7339972108932578,1.825385825808335,0.8869445127357518
316,1.637139035665087,1.7621289499577462,0.6906340000388829,1.5189730276634412,1.487567736323835,0.6100480797504851,3.277974249264935,2.9007636885073733,2.2058546642180623,1.8542012982548375,0.6097226960127671,1.6370375240325046,1.7688374471807617,0.6971740316389806,0.8795563998361439
317,2.1308043698151646,1.5257418819698607,1.3474000541604347,1.5542888153625372,1.5455742754214952,0.7301471698065707,2.5730344852199094,2.449523470947679,1.8134315150594955,2.118190322679673,0.5947193981915972,2.1298463420062714,1.5314179450746916,1.3560599951660894,0.8903258928612166
318,1.855871650051062,1.6481351923957557,1.4972182211623455,0.6049420352399995,0.5880886153964622,0.7405174696704381,3.7538246450505004,4.2249219678659635,1.9063714479700717,1.931536076714862,0.6207552362147116,1.8558358749351889,1.6548044181083486,1.5033339023182328,0.8644111640720856
319,2.4677802717110673,-2.4677802717110673,0.0,1.2277039241355794,1.2006770192864886,0.6282114624192541,3.244090946181857,3.6010558415748397,,,0.6233814453054027,2.4675907720227688,inf,,0.8514937754267461
320,2.3055862254409236,1.7854194355156618,1.6060878255488191,1.6711103742164835,1.6195605348519546,0.9131732784365518,4.279012493145539,18.358328510165833,1.7855274981801126,1.616205955714403,0.6380535849069913,2.3054781627764735,1.7922053007111418,1.6127879993193823,0.9153652627514323
321,1.9378311918628675,1.7872270755721105,1.2788880385104822,1.2038255239385178,1.169999456056311,0.752369402151276,3.8872906701946395,2.0098528442856587,2.1538871107638693,1.605418705416794,0.648888643467878,1.9377876703247408,1.792376848472854,1.2871597634494576,0.8030423588831975
322,1.441647623866256,1.1419991611308047,0.926781442932969,0.7856376681617843,0.7788954564849706,0.6538676020301176,2.967310037548985,2.927083157788187,1.2247818153987107,1.2414075170342929,0.6602640781246099,1.4413843274378506,1.147994343946861,0.9324808866846709,0.8253068515978109
323,1.463163361213403,0.857176069243597,0.8120732982770482,1.2082611330709216,1.1762580401944882,0.83126560805449,2.98747391538931,2.8766789506193486,1.0925586009944692,1.2659979765486353,0.6509067234006624,1.46312741044732,0.8637503751157702,0.8189024842345597,0.9440603816304641
324,2.3567226390942264,1.9574265731765697,-4.314149212270796,1.4310022145460124,1.4438818443534804,0.7393395435654185,3.557236186105735,7.002104903617527,2.0877696330594513,,0.6309483474627791,2.3565720705703526,1.9642549442314725,inf,0.9186023679959338
325,2.235738868952025,2.1961667221971504,-2.7877779406811727,1.706170178061384,1.6844251245767514,0.6250617017582795,4.38914388393178,12.834893639680338,2.5604550754237314,,0.6447042257417027,2.2351341504094395,2.1171179555632107,2.600965547086244,0.8640276783202465
326,2.2523236636606616,1.999905274580589,0.8881234130654398,1.4355152022062234,1.3525921439941715,0.6645899553195519,4.093918093432247,3.9958937185633623,2.9709454295472617,,0.6740851607140061,2.251997603183511,1.9893013719952533,1.5678440151352633,0.8832210840550658
327,2.3491195198017842,0.9919991211126837,1.862863428548292,1.1720323766521312,1.1359670419921777,0.6438327482375064,3.447313582329343,8.687174642091321,1.3814804920269241,3.792527337512238,0.6727386042041725,2.348978132563756,0.9977310638143294,1.8264450272159451,0.8144006792484375
328,2.3484966005502765,3.3125372669222863,-5.661033867472563,1.2261870829452568,1.2059030845302194,0.6967871479128844,4.5410874462645365,23.72380885301031,,,0.6566669596287297,2.348047467070803,3.303775268654687,inf,0.9192545909134711
329,1.8419853198566754,1.4605629807356413,1.7013980053531434,1.602270603357514,1.5781159453735103,0.825739608893738,3.9505337326772705,1.7499668676612852,1.5565970140542462,1.605418705416794,0.6068309995095971,1.8419305864744187,1.4672955166489265,1.7080981791237073,0.9341990883145734
330,1.8372132137718336,1.7837888179390176,1.382944274234609,1.3078346019110625,1.209024018630348,0.6095992532406919,3.4793080316971228,9.539526468579869,2.189709954672675,1.670208199074192,0.6309483474627791,1.8371753327585376,1.790504501483342,1.3896444480051726,0.7817115660933214
331,1.9332763434156477,2.66855494130693,-4.601831284722578,1.3481196259686574,1.3204719497029123,0.542603686596009,3.9913387181843683,7.982270800575527,2.681000760660697,,0.6068309995095971,1.9331694355155946,2.6753396517380112,inf,0.9247611410268292
332,2.1516230422228446,2.1625261700479514,0.689797093674664,1.1061434334296785,1.0739514867842856,0.8170282605928768,3.562125101399607,5.774041869044968,2.8131545589544267,,0.6447042257417027,2.1515822194575183,2.169244795344307,0.6964972674452273,0.9333597729213673
333,1.8118948341878491,1.403642089414836,0.6897970936746645,1.2766844506301442,1.1595578631953343,0.613252940778814,2.558858456417039,2.7090109855689017,1.49065414894388,1.008250824793198,0.6357360191111145,1.811894151648436,1.4103205744852796,0.6964972674452273,0.9382882207705486
334,1.6446728310510257,1.1653989844434958,0.807580129331047,1.6306696956962892,1.5880026375206109,0.7169504064670724,3.1928446235462373,3.662515918616563,1.4813581485059713,1.2197802381928071,0.6509067234006624,1.6446621775901478,1.1720874404354031,0.8142803031016107,0.9105165710393068
335,1.8334219024815215,0.7460798494933059,0.5923080083733594,1.1223153719631904,1.0956640469503454,0.8332733286108337,3.2193864236943304,1.942736541236695,0.8654331317207086,0.8287554067223832,0.6180765742263259,1.8332761494309886,0.7515245031776551,0.5980647347365239,0.8153620430664481
336,1.7500130698813265,1.8706165204941652,0.4886032054328684,0.4375229727841596,0.3626354127164697,0.8403976860982497,3.4462162967555185,11.394372816886673,2.897471292970493,,0.6447042257417027,1.7499779352131,1.8768661279813836,0.4904280036713216,0.9271772647300973
337,1.9141634637437523,1.811111598697137,-3.7252750624408892,1.4432082501830918,1.4250493616102653,0.7011360982868036,3.3311513239624384,7.842529841196775,2.045714980591219,,0.6233814453054027,1.913851776472537,1.813537532403275,inf,0.8264042029332112
338,1.5881903052942639,1.2155506114803754,1.3072868900705683,1.226732252707514,1.2107693466887282,0.8065801547178932,3.845862891958484,28.073377654958644,1.402257376225069,1.7453940390650597,0.6468212168108125,1.5872416380370429,1.21383801238036,1.2859583366222596,0.8267489239524378
339,1.7987346859497382,2.266387537753152,-3.792311756541074,1.6928690242685849,1.7167832412103816,0.7848809369582433,3.969621368806945,8.194710627204767,2.616593723243836,,0.6284777104787076,1.7903604483143476,2.161906015314764,4.410776047959867,0.8350633481259571
340,1.4289595498440677,1.622451137969885,1.3367570591784799,1.7098989250410905,1.6395558752333277,0.6473586969794455,3.4621631141625806,2.5202457867616967,1.768672076316839,2.5653666514598368,0.6602640781246099,1.4253586420648834,1.5060434653892734,1.545668075906619,0.8760429118556556
341,2.242175812071247,1.518634934448782,1.4912652411355145,1.662529208716104,1.6805705961443822,0.77056547314836,3.3515875835526527,2.9076304212280024,1.6835957042919865,1.9927422436653226,0.6468212168108125,2.2413854731219893,1.5203036510055994,1.4114650994664422,0.9526142371906664
342,2.092775667855036,2.2019789708469477,1.3697748863006032,1.22650175760941,1.1808555475802132,0.5524796209268374,3.5433223088062977,6.142731389842268,2.221374736291041,1.3829442742346088,0.6125606311107803,2.092774475979755,2.2049110102603757,1.3668762752627892,0.7882187249240666
343,2.0917089379717497,1.5292930937391014,1.382944274234609,1.4571860198118936,1.4423199380894571,0.792551642041429,2.922976785937081,2.5793943514692845,1.816990028035876,,0.6380535849069913,2.0916940761267555,1.5359857581151242,1.3896444480051726,0.9098265013888112
344,1.9126280386895076,1.9087727520433038,1.8374571690175223,1.0937840112606012,1.0801599353531013,0.6371190655058221,3.9066919287828337,12.663197307986003,2.9532994435505415,,0.6602640781246099,1.9123464322171728,1.9063886387874163,1.8984704239837529,0.8694717953960218
345,1.494205930379965,1.1595742976896855,0.6390038691818587,1.1560958369761525,1.1507997112624806,0.6274915452379144,3.1564698310881854,3.0601837592613683,1.1822770733979524,0.834009122522763,0.6668815377411301,1.4940775621979405,1.166294203587528,0.6452124516737405,0.9259996746362129
346,2.274071760521881,2.3318277359877344,-4.605899496509616,0.5960254180286265,0.5509616435813222,0.7654357376363747,4.264865493253862,28.112011269757648,2.3414098395017384,,0.6333676938231112,2.273889662271705,2.337969511867183,inf,0.8426318954293843
347,2.040220828526554,3.6602227448641327,-5.700443573390687,1.3247011359764145,1.2986051071700215,0.5831130641875851,4.947087741492662,113.06133322605594,,,0.6207552362147116,2.0402208285265546,3.666900547395161,inf,0.6939300615200076
348,2.4849066497880004,-2.4849066497880004,0.0,1.2422103164948426,1.196083655351138,0.5294821795185556,3.3576620997606805,2.5369948864261485,,,0.6207552362147116,2.4849066497880004,inf,,0.9148738601479057
349,2.012712356355191,3.6877312170354957,-5.700443573390687,0.39808175141331453,0.2551670772458351,0.5170595798109999,3.8175729603293207,12.355709350815907,3.687788025388901,,0.6153451465759925,2.0126555480017854,3.69446582791993,inf,0.9497074596111365
350,2.0466303074340884,3.6538132659565985,-5.700443573390687,1.3126686306540611,1.2206162014951625,0.48854063388932534,3.415527438339862,25.55124771660901,3.65387787233958,,0.6038851895711802,2.0465657010511062,3.6605556748706096,inf,0.874060024273549
351,2.3942471293475096,-2.3942471293475096,0.0,1.784237518213077,1.7552746511360664,0.8896346025477785,3.3284884949676177,21.571602757594874,,,0.6468212168108125,2.3940914055722096,inf,,0.8720599747953233
352,2.0818281696495524,-1.7587338127832992,-0.32309435686625315,0.3695196464651273,0.32419701870028755,0.5307717140702234,3.2045068503775758,18.193824640475615,5.885322788485969,,0.581717464821069,2.0815771538102577,5.394162162777819,inf,0.95298951763186
353,2.3363044467222194,2.081013533563424,-4.4173179802856435,1.7098447101719711,1.7312801792121548,0.8235008458807027,4.074903690546331,8.251449494223444,2.2405132954891553,,0.6509067234006624,2.3294996166460384,2.068656399957727,inf,0.8005116333854391
354,1.8738871858861175,1.7071145420755127,0.6983568436664793,1.6204559434431753,1.5142115690507194,0.8142929972432851,3.0076113449782995,2.2097325297429884,1.9911650952659272,1.268705271474564,0.585052858160615,1.8728249219492756,1.6807469401388822,0.6446528306213347,0.9512543941449502
355,2.0922469213179187,1.9987587396386668,1.6060878255488191,0.9814970427113112,0.9830127653959244,0.722467674876224,4.476757216351561,12.434868634857771,2.4897289513605694,,0.5883313578629602,2.092234130145282,2.0054493333423333,1.6127879993193823,0.9352863165262043
356,2.104372131170985,1.8799235885182362,0.6141854781480736,1.5347443883913792,1.5497332544867908,0.6930248252103642,3.210408612593427,3.0244045645915345,3.5928238404316906,,0.6038851895711802,2.1042808316934813,1.8827052122081198,0.6248731302372865,0.7466329444534832
357,2.4079456086518722,3.2924979647388146,-5.700443573390687,1.405140639891985,1.382316656378967,0.8975573338167624,4.710327585997141,29.557126830826164,3.2924979647388146,,0.6547956803312163,2.4079456086518722,3.2991757672698436,inf,0.8418938958767154
358,2.3025850929940455,2.2992461917285323,1.0952622017828268,1.337723353952337,1.303546981122237,0.8023656629163733,4.362254300118288,9.2980042337059,2.299246191728531,1.0952622017828277,0.6652988471865258,2.3025850929940455,2.3059239942595604,1.1019623755533916,0.8647216914554288
359,2.659260036932778,-2.659260036932778,0.0,1.7075091098249287,1.6698154068714544,0.8735359115407688,5.249513103564401,326.4698323370583,,,0.6740851607140061,2.659260036932778,inf,,0.8809025372923436
360,2.4849066497880004,-2.4849066497880004,0.0,1.636026902602242,1.6036512037347483,0.8995840443045333,5.048642175150327,702.021392585183,,,0.6207552362147116,2.4849066497880004,inf,,0.8485476948453426
361,2.3364866446697268,-2.3364866446697268,0.0,1.4053170897925211,1.4069428351611841,0.826100374766293,4.7269205098122,399.6108025451124,,,0.6233814453054027,2.336486644669727,inf,,0.8878824495194523
362,2.40758650782287,1.5010975963397608,0.4021150212228828,1.2902662974745203,1.263316770282881,0.6908563634751091,4.790335557305235,5.691950347547805,1.6840994742369335,0.9122715248568488,0.6153451465759925,2.407575306851677,1.507786599841984,0.4088151949934463,0.8950906414248342
363,2.4886180637289703,1.4200660404336607,-3.908684104162631,1.4075097667143655,1.3865592442993853,0.7734286000781958,3.15031860033035,11.367545377168526,1.602760109903071,,0.6309483474627791,2.488245551053515,1.4271163556401458,inf,0.9023312794204855
364,2.424511939318868,1.277996778042787,0.45072593726874866,0.7401143521825988,0.6056569818467306,0.7366962697516103,3.464063730289825,5.2733152240919665,1.4901486561132768,0.5995290571833857,0.6684167106117298,2.4241251775281416,1.2772768015846854,0.4597948900971144,0.8019004805234345
365,2.5257286443082556,2.076102640414322,0.40211502122288234,1.1841655743061155,1.1724203333520535,0.9246253037359433,4.570805799946358,4.06142487657169,2.0761026404143212,0.4021150212228825,0.6468212168108125,2.5257286443082556,2.0827804429453507,0.4088151949934463,0.9057768263877243
366,2.336260634325222,2.905175776019079,-5.241436410344301,1.1548291458671824,1.0560783592384755,0.7153541333390441,4.737401432896452,54.58506648216054,3.3345305777760217,,0.6357360191111145,2.3362567860317767,2.8627181371839967,inf,0.7983079068323506
367,2.4079456086518722,-2.4079456086518722,0.0,1.0001323531882016,0.9825688246235507,0.9026345127707524,5.029524638451416,259.472331111176,,,0.6233814453054027,2.4079456086518722,inf,,0.8912569732004397
368,2.445685936634719,-2.445685936634719,0.0,1.6086265228998053,1.5839286935196406,0.8853679607070459,4.276192515306108,387.9547162431477,,,0.6153451465759925,2.445685936634719,inf,,0.8484617769556555
369,2.3364866446697268,-2.3364866446697268,0.0,1.5862722652574868,1.5608163536025836,0.9056828788835674,4.448256538641628,219.80696878110442,,,0.6153451465759925,2.336486644669727,inf,,0.8660587210996576
370,2.5257286443082556,-2.5257286443082556,0.0,1.6590381085631307,1.6337670673923985,0.9120626439737582,4.066726401731874,143.8858798416521,,,0.6207552362147116,2.5257286443082556,inf,,0.879661461308598
371,2.3586685051039002,2.1100644628975167,-4.468732968001417,1.658108032275841,1.6368370054794492,0.8509497980787017,4.734262675366695,38.52337297135893,2.6308586142435226,,0.6425374456860184,2.354931573366255,2.4206315985505173,inf,0.8377698889920444
372,2.4987552657835637,-2.4987552657835637,0.0,1.5590790122359988,1.5506659206834004,0.8806837702613504,5.916988009744978,394.446170639093,,,0.6180765742263259,2.462232332749128,inf,,0.8920502360851221
373,2.7014620708423718,-2.7014620708423718,0.0,1.7241745949311544,1.6868878351483994,0.922724734381545,4.583557008592511,221.5518900976104,,,0.541134803179459,2.6895556184660454,inf,,0.8625894606294467
374,2.280876111455023,-2.280876111455023,0.0,1.7440441313618869,1.727026128290061,0.6904729814052738,3.637038740533057,33.94645560539231,,,0.552929491858785,2.27919414020347,inf,,0.8935720508007315
375,2.6177021562989404,3.0827414170917464,-5.700443573390687,1.6749249347280692,1.6733688276595668,0.8921926377502856,3.601627233414643,11.46976669774445,3.0828432752105486,,0.6008849035917525,2.617600298180138,3.0895210777415776,inf,0.8863752623253094
376,2.3364866446697268,-2.3364866446697268,0.0,1.7446054832889986,1.7103178982338438,0.9534199599029131,4.434579846172547,20.81893694794362,,,0.5883313578629602,2.336486644669727,inf,,0.8561317877935347
377,2.4849066497880004,-2.4849066497880004,0.0,1.7714815268973358,1.73548188007419,0.9323871052578978,3.7773178197010426,9.916692834107558,,,0.6233814453054027,2.4849066497880004,inf,,0.8858968886745577
378,2.445685936634719,2.156145348087859,1.0952622017828268,1.4048177458593314,1.3745999561535265,0.6956388108985614,2.898381969681472,2.1061723093614058,2.1572607971717233,,0.62595550513784,2.445685936634719,2.162823150618887,1.1019623755533916,0.893795313593984
379,2.5257286443082556,3.1747149290824312,-5.700443573390687,1.683198729739567,1.6618316677181668,0.9228346972498065,2.7960372438060284,5.6084459056547455,3.1747149290824312,,0.6380535849069913,2.5257286443082556,3.1813927316134603,inf,0.8322033893422318
380,2.4849066497880004,3.2155369236026865,-5.700443573390687,1.4054872280758985,1.3885731685021505,0.9208892209948041,2.657202268143342,3.3994726264013098,3.215536923602686,,0.6068309995095971,2.4849066497880004,3.2222147261337155,inf,0.830838693132467
381,2.659260036932778,3.041183536457909,-5.700443573390687,1.349328518892001,1.325965825906196,0.9204576084582722,2.622123856100197,2.340693608648593,3.0411835364579085,,0.5451288209179292,2.659260036932778,3.0478613389889375,inf,0.8466480372859381
382,1.6948931961662568,1.44144382108082,1.880204651031442,0.9957627989738801,0.9600824627496135,0.642619346382552,2.632116064289919,2.502442312446204,1.5223357921094431,2.3809186580847213,0.585052858160615,1.6948747720512725,1.448069347849914,1.8828048120051173,0.8384355879125079
383,1.803140327683591,1.4994079729087257,0.602785716685033,1.2921511258313987,1.2265916667003656,0.8713816400148358,2.239841020917805,1.6491250323774183,1.6654349068711825,0.6191305816296823,0.6284777104787076,1.8030900855704395,1.5061360175529055,0.6094858904555975,0.9204634521430305
384,2.1979162291649503,2.8116983816609746,-0.3831158734624758,0.7684563155260696,0.7508832114399393,0.905159097476966,2.6823902043351406,2.5042291553995986,2.9097431655569896,,0.6038851895711802,2.1977247023779016,2.8179231335418984,0.9029793872359156,0.9038705565661104
385,1.853636382266219,2.2357707108010865,-4.089407093067305,1.141411328568685,1.1248467087797627,0.3669538322604139,3.163616815823827,5.064742283105145,2.3817587987743845,,0.6207552362147116,1.8536348729461425,2.2420439122890947,inf,0.7575577031875477
386,1.774632293287209,1.0461837160333494,1.2724921514714183,0.902143218170322,0.905030356804781,0.6521924938491497,2.01352537792376,1.7810170625830213,1.2895739180335932,1.526664205906054,0.6333676938231112,1.7744435914628236,1.0512646531076189,1.2800343626040274,0.9185704694233332
387,2.145710336255529,2.8615860565752125,-5.0072963928307415,0.5173556386811499,0.5078959795358301,0.8977469420919001,2.222221015695728,2.566648813566603,2.967298174033151,,0.6153451465759925,2.1438734018392247,2.8701007935225453,inf,0.8759621210612314
388,1.6906061075584342,1.106193363769125,1.0371493318015972,1.2821491683741357,1.2271421590241984,0.8049917727370796,1.8592599478065839,1.81628787160168,1.242298079595092,1.1714299708296474,0.6207552362147116,1.6901660401394727,1.1123780073911718,1.0418203094236869,0.8668664085308497
389,1.3509774969347943,0.9341718946911708,0.8333922624106012,1.2574138022943224,1.1108740709985605,0.494733271845565,1.4174964810478157,1.810713336384341,1.0718896498941328,1.2382102557094645,0.62595550513784,1.350841420877416,0.9406938359300447,0.8386176935559371,0.6910161486209169
390,1.4759328044749092,0.8992342728359928,0.798763893465396,1.101588742306376,1.0813118593612852,0.534095940752912,1.74484341835177,1.8467683459829232,1.0306425021082806,1.0818293515195587,0.5978297680564633,1.460874239475626,0.8855466442227203,0.7326929987946958,0.8220746679368347
391,2.0801703943310272,2.0773907033876196,0.43883572033508855,1.5508430374714082,1.4676043193541968,0.672314702632287,2.27586400621072,2.5070863317509495,2.2468082305100605,1.9169226309813168,0.5490601803369085,2.065670137595918,1.9357914304794692,0.924526251960584,0.9027766098212736
392,2.1921354225674,1.991391628998822,1.4944486715616456,1.5400052879524837,1.509096164187685,0.9132478858012186,1.4531338756408176,1.7369225871521377,2.2190381568679665,1.4132422214675595,0.5329562494928909,2.1897525624975183,1.9858020551501254,1.5382781928620586,0.8512894304257681
393,2.4067040736596326,2.3772794317127675,-4.547933403507675,1.6511021343055439,1.6120305426309145,0.9287279975185246,1.6402342556492773,1.6296742296865974,2.623825154987571,4.171100068721313,0.5329562494928909,2.4020371719657057,2.501239603810051,3.1030907918744903,0.8573298461496496
394,1.5841470753989946,1.0317106555608608,0.9859941857971171,1.5704157141201178,1.5494815136371136,0.5785783964009559,1.8581504408946066,1.518863103386855,1.3127280505507681,1.241117535617949,0.6068309995095971,1.5826337096820493,1.0366427793667334,0.9856703968209477,0.8285645608110165
395,0.9744950494164132,0.630236049400631,0.557207044867029,1.414369631460997,1.3702687396580002,0.47971392084539083,1.5711181713884728,1.7173824681324472,0.737830714144629,0.8805411649225223,0.6008849035917525,0.9723908823429541,0.6286931323754703,0.5494478346258126,0.7725209173870247
396,2.216342466280965,1.6379642433766919,-3.854306709657657,1.7218651465709707,1.6536786660252216,0.8976765135540523,1.4909701737666723,2.2324231037533417,2.9689734749659125,,0.5287703885177266,2.211323501715721,2.7363369932191466,inf,0.8385848714370435
397,1.7751687459920082,1.511786106849937,1.3038033363389259,0.8768946560332236,0.8419134102453713,0.540474600210568,2.044430367434815,2.194523480146613,1.6294708866496794,1.2950549995050862,0.5783247308855777,1.775099028334948,1.5178420345573558,1.310009366357475,0.9081992827540117
398,1.6725169684686085,1.231646568709375,1.6933522845772586,1.2220645577069948,1.181073391642313,0.491978573442233,2.113560289956936,2.9453160130913876,1.5333925773321215,1.7997961115788836,0.6153451465759925,1.6724368785541741,1.2377295066701701,1.7005748458132024,0.8428002769002306
399,1.753482287534664,1.9934774571326948,-3.651370927779684,0.878957018301505,0.8306369423625728,0.5176785447929232,1.7210486267069494,2.074116473066435,1.9969343124906742,,0.6038851895711802,1.7533082828538022,1.9983926488425432,6.046426105181957,0.894291242410117
400,1.1589447002563102,0.8620215579346286,1.0145588415186628,0.6107526184290105,0.5029764027458408,0.3751632134476165,1.828145400463263,2.2845318209393515,1.0779423436392592,1.2493673690556861,0.6699045166045591,1.158857815683393,0.8679491093616961,1.0157840458285867,0.6737681681048957
401,1.7357787182469526,1.200278352981637,1.1515985028427154,0.44450675511495874,0.4031592727613859,0.7741222453061423,2.0025862189153405,2.2344376966046395,1.4051542079003263,1.8630348189323627,0.6180765742263259,1.7357572791127702,1.206750233203923,1.158526038056204,0.9066890161117382
402,0.9589376830926384,0.552208580729534,0.4976624821796649,0.12463234025682715,0.08072776282644091,0.3409331176505878,1.5149035128911166,1.6332025127413496,0.6818131625454997,0.7855499317422081,0.6357360191111145,0.9589373065956277,0.5588841079729056,0.5043580149445077,0.8426633893110937
403,2.0149030205422647,1.6060990111685864,1.382944274234609,1.5598643929039988,1.5510814606343564,0.809543893428116,1.3807696308705424,1.4891048359677765,1.6060990111685858,2.076091454794554,0.5883313578629602,2.0149030205422647,1.612776813699615,1.3896444480051726,0.8594073033609281
404,1.0033161590311552,0.7114840102929874,0.6365362280708378,1.1345139489504774,1.0293495330843865,0.41078551900923405,1.5431515543129366,1.8886214982309955,0.8384204585473866,1.1468733907647024,0.6528756675646988,1.0033021088637848,0.7179988967157087,0.641742056451666,0.8325389788640828
405,0.9416371523374161,0.7158143491287516,0.5132814604230753,0.4702506035296701,0.40431658914652446,0.32556497617790714,2.613333124720269,3.2426310131036407,0.9633549330767999,0.9015433545764266,0.6038851895711802,0.9416370302927836,0.7224917546317173,0.5199821532663355,0.8679734159902708
406,1.771956841931875,1.6259016384647664,0.9129406449888724,1.593024460213757,1.57479449333535,0.7125332969364768,1.8151579094655705,1.7285604016713763,1.7312621541225917,1.0952622017828277,0.6403206450210053,1.7719568419318752,1.6325794409957948,0.919640818759437,0.8208012628584813
407,1.7280164407021827,1.7713264159802573,-3.49934285668244,1.7288854077644018,1.7396347947580828,0.39918758027280227,1.5785021859217274,1.9548372322864085,2.010040611792856,,0.6284777104787076,1.7279086845269818,1.7779087462652763,inf,0.8777254499410982
408,1.5967103499316682,1.2265518687566879,1.264393355382949,1.6092025609340928,1.6046947435334196,0.4202741970655825,1.358154058100752,1.7597924918965084,1.7058620720833786,2.394545185913089,0.5915533975974677,1.5966862285089372,1.2329667943525215,1.2713805275114385,0.8474260188110407
409,1.5141277326297755,1.2418768615944706,1.3316509798470588,1.4138404542111205,1.3704676605682597,0.43225720636975307,1.5091442385628895,2.4717526202277176,1.7014091909729105,1.7884093823427731,0.6008849035917525,1.5141277326297755,1.2485546641254999,1.338351153617622,0.8680338766849304
410,2.270560366036925,2.331270918685653,-4.601831284722578,1.6066776015991382,1.5874914975294754,0.7309203167363104,1.702619530290998,2.3705859516019654,2.7367481510756786,,0.6180765742263259,2.270548241755063,2.3379608454985434,inf,0.8005978516733236
411,1.59290861048289,1.468477633292537,1.942560062170033,1.1375717990028655,1.0991133998475056,0.26517109408716116,1.796972282735173,2.1339111118212535,1.709639690109426,1.7013980053531434,0.5947193981915972,1.5929086104828898,1.4751554358235672,1.9492602359405953,0.9211967723767989
412,1.5054173076521553,0.8889220640226383,0.6926153545996518,1.569309065697582,1.503454418590438,0.719082852355063,2.555791339305063,1.9154484496194928,1.1306181225124108,0.9293231271346184,0.6153451465759925,1.5026284470111697,0.8876955602908829,0.6885483584647825,0.9407195947912108
413,1.2866575602734427,1.0875360297516359,1.052051786124725,1.5789769147493555,1.5676019336425264,0.5277660716745763,2.173254855366624,2.711337971727925,1.293082280844923,1.2295765211077583,0.5748741956352443,1.2746337329135844,1.0757420239168096,1.0238551766019468,0.8786696648371753
414,0.5742907361989076,0.34689946957070616,0.28848347261565443,1.1518807154013009,1.029296298546002,0.3679067702335378,1.5200759756479745,1.3391228265960473,0.43830796111215536,0.4802942760607925,0.6125606311107803,0.5741993913936033,0.35357367758958597,0.29492960491597103,0.9271905319682568
415,1.9484894271462432,1.5554672590894905,2.135783510137065,1.04433698518327,1.0253914442128207,0.5521231638399436,1.2285426486548574,1.5002565158192498,2.13533942881794,,0.6425374456860184,1.9483353096035938,1.5545257258350618,2.2177285575339267,0.8744711235764717
416,1.1417083248763642,0.867876923819755,0.718816442081486,1.49264158612189,1.4692585187746052,0.26044979175264604,1.4270685632415736,1.3965249094854406,1.0936759793848483,0.86305390477934,0.6357360191111145,1.141658978210476,0.8744948242334415,0.7244195903638527,0.7241388077854127
417,0.8916525413547115,0.5603947470946488,0.5073878219708183,0.8664969292561571,0.750364108660376,0.3540052096466357,1.726932633190522,1.853096233510641,0.7938857150660729,0.8393914138527582,0.6602640781246099,0.8916523212946914,0.5670693737607854,0.5140801494681524,0.628441839648628
418,0.9476110669848226,0.5897086252850527,0.43093989872989713,1.3516101754364287,1.3127743540674086,0.5144993835902304,2.028229224532313,1.9376400608262476,0.7261671050842721,0.6271107576768804,0.6403206450210053,0.947552093759293,0.596254145245978,0.43758141553251173,0.6876085638612731
419,0.832914016832566,0.5109157181944336,0.3189765998484708,1.0905293821854996,1.0299465835307822,0.3165368684210058,1.4444939565400943,1.238582279047272,0.696252609007327,0.5899505566342194,0.6357360191111145,0.8327924630734636,0.5174057192903825,0.32478616639112856,0.6805617060650041
420,1.8325814637483104,1.7884205679625407,-3.621002031710851,1.4822771043231433,1.4749838286687864,0.8519506611553862,2.5012903845047663,2.2159579144516233,1.921951960587063,,0.6333676938231112,1.8325814637483102,1.7950983704935697,inf,0.8445823906895842
421,1.8971199848858813,1.4054283157064353,-3.3025483005923166,1.5678269151999136,1.5344192632920384,0.9035780193739348,2.071074056890145,2.580360226387996,1.7238820468249691,,0.6380535849069913,1.8971199848858813,1.412106118237464,inf,0.7503315681316151
422,2.0661963149298157,2.0248093460267698,-4.0910056609565855,1.525160414461694,1.497995972262196,0.9156594965897834,2.527895720274743,2.04840418306658,2.2479528973409804,,0.6619902821573977,2.0661963149298153,2.0314871485578,inf,0.7690016475893126
423,2.026553596737831,1.965942203979357,-3.992495800717188,1.2167361404538037,1.2093346751669227,0.8369572128096046,2.6476559279967833,4.090466813317603,2.264538026795371,,0.6468212168108125,2.02646965691373,1.968331274972109,inf,0.7759360687945209
424,2.1484344131667874,1.942571247789798,1.6060878255488191,1.137054735133031,1.1070453571418521,0.9415002147980011,2.838941189195941,2.746635194637669,1.9425712477897987,1.6060878255488185,0.6333676938231112,2.1484344131667874,1.949249050320828,1.6127879993193823,0.8197839751089926
425,0.9613540012173273,0.5350043190105062,0.4876602662697136,0.6919053772704978,0.5975009258289966,0.3166681271795279,1.7751541001821727,1.9747691251890398,0.666219016822743,0.6439111221735582,0.6008849035917525,0.9613462119992993,0.5416817356414035,0.4943626478169309,0.757264025056859
426,2.1474695154508012,1.4639083306273788,0.2627299290223184,1.5316404094839593,1.4884048056337775,0.6941169183287654,2.0479063724653317,2.130297858501723,1.6491118432129679,1.833459861881662,0.5713653840954815,2.124717886549471,1.427690056881586,1.3568748564049111,0.8192687674014012
427,1.4294043161528016,1.0405476261574753,0.9564102038065352,1.6264386743728385,1.5297599163715738,0.6173077283061175,1.9653482621031928,1.8197513897448216,1.151222220766862,1.0986030489503213,0.5370774965580548,1.4106781325177244,0.9919728753275464,0.8643068986086816,0.8782659016788147
428,1.2683814095701262,0.8611494483301609,0.5179570267642899,1.675076806564411,1.5971049521982121,0.5218487212118248,1.917510664125428,1.3591076808079972,1.101537353470422,0.8011546328289249,0.5883313578629602,1.2681360872322036,0.8668651469238838,0.5207728223807515,0.8560540282842108
429,1.2170977512834766,0.7108855091108275,0.5444912794343559,1.3396205726588026,1.3112894391446814,0.571261208769382,1.9606699563436967,2.076585744874362,0.8473848541348726,0.7976622710913567,0.6309483474627791,1.2170580438745915,0.7174177275550587,0.55043087835835,0.8982580031772135
430,1.334419549027696,0.932256149796393,0.7918578270066865,1.1389898757526118,1.142258005263148,0.3307215032895208,1.908582326618149,2.140458632611441,1.2654502993049423,1.2065004397767227,0.6447042257417027,1.3344190139357168,0.9389309537899938,0.7985436667938444,0.8139643269840657
431,1.622101190332727,0.8609921332652462,0.578278777082085,0.8338594439662033,0.7932157775813686,0.5924902708553057,2.0296628915781914,1.936754473618414,1.058190480346964,1.4040420518250767,0.6528756675646988,1.6220729550139816,0.8676452517712407,0.5848168027842681,0.9343812802338293
432,1.560542759218214,1.6549941643844712,1.788409382342775,0.6457065082297816,0.5977495282910471,0.5691218758333823,1.7380287556595724,2.2162432870277473,1.914464896286412,1.5289394759016466,0.6180765742263259,1.5605419337574007,1.6616727923763148,1.795109556113337,0.8720762183674778
433,0.8426060424657654,0.47139089424466685,0.5008079055240104,1.2457223959220702,1.207964234592251,0.5234546823712747,1.8095517579146645,1.7660669444143082,0.5889635401509041,0.6153061076838503,0.6125606311107803,0.8426014981727938,0.4780299741478162,0.5073080043622018,0.7576310117001773
434,0.4590103201428017,0.2677558231835861,0.23800334271025336,0.9911767327783808,0.9607839128305881,0.10629422331962031,1.2448014184724134,1.6090676427204034,0.3974079647184112,0.34333319273378293,0.675384900321601,0.45900654170308314,0.27443036764824885,0.24469967585010466,0.8563613876100664
435,1.771956841931875,1.5305914586604417,2.394545185913088,1.7724538450042713,1.761889919892292,0.6593108263022442,1.3881133954637563,1.6619108502635422,1.711758316003722,2.2133783285698074,0.5978297680564633,1.7719568419318752,1.5372692611914698,2.4012453596836525,0.8371540101408291
436,0.9555602824505675,0.7375501057076478,0.7458865603257072,1.0545850285980998,0.9843340957675654,0.36979813462878797,1.854773491261632,2.1484446783622384,0.8002950956012331,0.9711767135895856,0.6068309995095971,0.9555514458274577,0.7442367448617871,0.7525867340962709,0.7524756637202287
437,0.8413434950781986,0.29246049181514855,0.23260035785851008,0.22381412167200132,0.20973888785722797,0.6717853127648155,2.4358369298994926,1.2829035700502374,0.41935666232010566,0.5535471765131584,0.6068309995095971,0.8413121071024137,0.2990948712227416,0.2391986909402789,0.8703538868991436
438,0.9315237716928975,0.22364493890874249,0.0626541449223681,0.9756369012926622,0.9603493904188015,0.7265379052662946,1.397268053321299,0.13378362851823344,0.257956636110975,0.057691364196315556,0.6233814453054027,0.9315171792054464,0.23031893962969877,0.06935563473210506,0.9230631859922578
439,1.6730394667836277,1.4937831661263232,1.267361097182948,1.5243238508341048,1.5188535672859984,0.854313665509699,4.931592404308251,21.557406848524394,1.5682177758595108,1.7802125290201114,0.6468212168108125,1.6724368785541741,1.4769647092206093,1.2415536776433995,0.7584398228901852
