,bvp+eda_XAp0,bvp+eda_XAp1,bvp+eda_XAp2,bvp+eda_XCond1,bvp+eda_XCond2,bvp+eda_XDist,bvp+eda_XFuzz1,bvp+eda_XFuzz2,bvp+eda_XK2_1,bvp+eda_XK2_2,bvp+eda_XPermEn,bvp+eda_XSamp0,bvp+eda_XSamp1,bvp+eda_XSamp2,bvp+eda_XSpec
0,2.2373717468886785,1.5669986145675736,0.923618236990869,1.3263793338280783,1.2564841982915071,0.7575885636578386,3.962351276286902,12.553140279395986,1.9694448483329745,,0.688071247053758,2.237005447348064,1.5606973010507839,0.924001253845195,0.9285850331793367
1,2.251083479956023,1.8959314977127475,1.5500785088366342,1.5668325618107741,1.538194651011829,0.8428549750013158,4.5799189061126535,6.642382665447891,2.0113947927725144,1.43843468737226,0.663668482632973,2.2506253540633345,1.8929094523495378,1.5669366563941252,0.9059457705481131
2,2.049228160986858,1.5795033608624691,1.4605176511365179,1.549950279207971,1.505849428147147,0.7493946016910816,3.867233061311542,2.955812304391534,1.9317667435655144,1.4716779796981287,0.648888643467878,2.047942874620465,1.552925702170758,1.356225950377003,0.8439133544207545
3,1.7341987123510854,1.4379519365079076,1.3919665344375018,1.6684079024466343,1.6544764184919167,0.5089428221204563,4.054779797164012,2.282392151270911,1.6946836448900788,2.3181699640129168,0.6566669596287297,1.7323591259466073,1.3912065191172684,1.110807561761928,0.6973805167942022
4,2.136809331056639,1.3772561273342827,1.4898808475545384,1.716296449224099,1.658050352228174,0.8046881810842327,3.9005685008675473,6.747744959795396,1.5137665717094502,1.5997289248741993,0.6684167106117298,2.1365058423015135,1.3722767500405793,1.5085416899049595,0.9190939597117687
5,2.1273882954386854,1.8016144044769113,0.9001308841762374,1.4149597198525306,1.3774953287314526,0.7718662503966123,4.218047248621156,8.88425657729251,2.050036533763287,1.5733344013684931,0.6509067234006624,2.125369140235791,1.7916664070158992,0.8677930781108719,0.8987297418351878
6,1.964925973594653,1.414812551360642,-2.3797203344417985,1.6538619025027825,1.531259307037279,0.8222339107427845,4.292035426318977,50.125081111739306,1.5415109919741015,,0.6380535849069913,1.9646853043816475,1.4183447733250591,3.2883364232112005,0.8551060171280872
7,2.1471765656287185,1.7436700270544954,-3.8334933025506093,1.2689094448015363,1.2748605013183694,0.8613838441007069,5.44021962211231,20.110662543825768,1.95408291884761,,0.6425374456860184,2.147006861175602,1.7490334397459344,6.412912359722756,0.6276743336542614
8,2.3873234398541685,3.15045095067748,-5.5377743905316485,1.4962178816686365,1.459278596406249,0.8624066078464274,3.9077923916524866,4.071977232951686,3.3038893803393647,,0.6547956803312163,2.3865707490671384,3.1074911946069936,inf,0.8662658231669532
9,1.9574863848129727,1.447813544910802,1.197263131617964,1.425836214257279,1.4123365017867242,0.8695602053428797,4.238403724793201,13.770532942214933,1.951342194144898,1.0952622017828277,0.6380535849069913,1.9573419100177334,1.4542425645309092,1.2036360472929506,0.7011198671550785
10,1.8875055399667535,1.922474626131498,1.887113320407153,1.5589418363551732,1.5431099106995136,0.8711035908216189,4.435544394196002,31.990368406354783,2.0211038624044253,1.7889666406464109,0.6403206450210053,1.8870229834545682,1.9246520481392957,1.8987964312131338,0.7149830735778462
11,1.867223191922311,1.2741803026166636,0.9622509337827969,1.56333380938571,1.5611429396275203,0.8999346954666112,4.5445490585332005,19.60552503452002,1.4335959235919336,1.0786469218904988,0.663668482632973,1.8671297762528316,1.280718212038048,0.9673797848476451,0.7836343913504664
12,1.8732227657586478,1.9439621237914793,-0.7782571536445002,1.6786417948458885,1.6788985367969165,0.8629781677730954,6.35103414240313,161.50275642807716,2.2295448245855316,,0.6619902821573977,1.8728972206876942,1.9458378503168947,2.3577212614532264,0.6289425125844292
13,2.0998056354729653,1.5465490783411315,-3.378706026528608,1.5131537448668955,1.4278539509406396,0.8046026579993044,4.676884831387355,13.346217316056272,1.8263800083245403,,0.6684167106117298,2.0997349560589624,1.5512066587145819,5.117566004923599,0.6129396411194644
14,1.2555293089306967,0.8338223350255083,0.3874577814866029,1.5041930677236408,1.4859902434765122,0.7944299186737507,3.726055284613834,3.7662399210920054,0.9764676820462317,0.7356854214862375,0.6425374456860184,1.255422056293341,0.8391556840827357,0.39299913796780256,0.4613263795437784
15,1.9312298315587881,1.7960614023080375,1.827916420376308,1.6072881318024046,1.5982308925441362,0.8240534252152678,4.570011241562643,38.23266869620076,1.8235118877738106,1.9425600621700312,0.6153451465759925,1.9310215365615626,1.8014615550345057,1.791759469228055,0.4991848984305872
16,2.0029660653053236,1.9700487846945198,0.8937303930226057,1.744938723756678,1.7464799767065644,0.8399759466806133,5.379011495577364,165.53747901467844,2.5188038977088025,,0.6584896970785714,2.0027274446121313,1.9652781955669514,1.8155418029459809,0.718305177415267
17,2.1836930738709275,2.6345342982367224,-4.81822737210765,1.5886771019802812,1.5858681476084258,0.9218157400836378,4.74011894337463,67.66431484552109,2.6761777387465973,,0.6333676938231112,2.182237447527971,2.5946441161420593,inf,0.5424879489516015
18,2.2691284927532616,1.729838671297958,-3.32599009245952,1.6754282188996021,1.6436886005194065,0.7924634554294976,3.9040363970732086,28.497781069668324,1.8952472979222699,7.231078018152879,0.6207552362147116,2.26786165693566,1.7185257637813485,3.3103036644220825,0.4792622925871
19,1.843067756369798,2.168180996200261,-4.011248752570059,1.6230479782287228,1.6187154754726931,0.8349011262314792,4.099949489321529,7.890106980794651,2.481793913421467,,0.6357360191111145,1.8373846472543305,2.1418471078672656,inf,0.6840232378993722
20,1.8802917700048951,2.3922673871074647,-2.857844667174776,1.6621482820523688,1.6315034729124291,0.7783437004332069,4.180720978672796,5.733596143674789,2.607318421844995,3.387610805861958,0.648888643467878,1.8728972206876942,2.2664447074651424,2.964157927955396,0.7294199036639301
21,3.3772598294234455,-3.0912843993202337,-0.2859754301032117,1.5681231442964063,1.5512455470317894,0.7125348231900801,3.485620523054417,4.578111326804985,,,0.6125606311107803,3.367762605575918,5.331752142634274,inf,0.7170562550034041
22,2.036240392704323,2.9040786541963466,-4.94031904690067,1.7564608948097837,1.6803649181950182,0.8893279236470715,4.45993000215803,11.677859910810902,3.805694848917372,,0.62595550513784,2.0345106668484734,2.8762792922780664,inf,0.6205554854189806
23,1.937412382981976,2.6598493326321995,-4.5972617156141755,1.3141481290885597,1.3069556634536013,0.7710935708171653,3.6542876294642612,3.7510727036786786,2.7278593565623854,,0.6403206450210053,1.9372477759766606,2.6470310509800545,inf,0.7292425960801879
24,1.7390306327379028,1.710262216243079,-0.033107697200523756,1.6993427363550493,1.6414445001941387,0.7612851877962001,4.04550209370398,2.580499322841473,1.9284462265805518,2.4330606532606076,0.6333676938231112,1.7244123957684447,1.5872490205828556,1.376890378575842,0.6978969284956112
25,2.0189851343603697,1.5488950371880197,0.007141580050638918,1.7027183943810071,1.6895837485703462,0.8638124924549733,3.8014340361193404,10.01620432124787,1.7194565069270158,2.4577406454251456,0.6380535849069913,2.018492789392822,1.5495465782149016,2.608416964850092,0.7119850509448811
26,1.697166007379202,1.235361255769731,1.1673835424333294,1.736261862603353,1.7259164746593838,0.892191297275049,3.5288195026136817,1.9642220762090368,1.5297944407993653,1.381558548862142,0.648888643467878,1.691612520623116,1.1672605702136776,0.898523157630608,0.8528996069160136
27,1.9093167481628879,1.2212359905818435,0.995605284300281,1.3362577836253313,1.2966889143162372,0.8652617978915126,4.0875666623704525,71.45423916347336,1.3802913983400373,0.8557128474227865,0.6357360191111145,1.908967670133596,1.2260266707539027,0.9960142057061935,0.7987089808954728
28,2.0928865342376732,2.010894418334867,-2.303305281462174,1.6165404874043174,1.577652358675585,0.7504236312141216,4.267739246428075,26.67081703369375,2.3758600255781226,2.4269131816298857,0.6528756675646988,2.0916040954725355,2.0040746897627018,2.6771571758475288,0.5746321838139457
29,2.5173946066862034,0.4328444489947372,-0.8472850841520998,1.6713868200096242,1.5750275858174887,0.784268695770456,3.121936101822299,2.6124457293538557,3.4379133710397527,0.989990983541629,0.6125606311107803,2.5119353221759195,3.2716121209491438,0.9235371403949223,0.7637450322207472
30,5.703782474656203,-2.186449948618211,0.0,1.7223131965544376,1.6965836482345964,0.46210574014633576,2.5075857460195183,2.3632943345824455,,,0.6380535849069913,6.662632820949152,inf,,0.9597916114264873
31,2.7410755644871467,-0.7971883544277101,-0.7968214074073416,1.366610408259583,1.2846155398419237,0.7154705579788302,3.4424221282669962,3.897328358220944,2.529333365438153,2.323097482748367,0.6284777104787076,2.48131311427787,2.360986864999171,2.4709204078132605,0.9082377232338712
32,1.8873992031897993,1.8930698727890645,1.5770288119971716,1.7014664072365646,1.6787771291587756,0.80747927132054,5.012052938064566,44.298496813243005,2.129219707544836,1.79128209089576,0.6509067234006624,1.8864365161699632,1.8950456750700582,1.530258195640156,0.5328524263168659
33,2.1259072288125727,2.094336600019266,-4.220243828831839,1.5231370991835818,1.4786474379268397,0.7883338272599263,3.9532035322730334,10.793857835988703,2.1872022900823427,,0.6284777104787076,2.1252760780236355,2.0848535171921756,inf,0.7990899957086476
34,1.7144631174083387,1.4304292206970965,1.0174860304613964,1.3618025161274205,1.3500563102818073,0.81620982569419,4.3630697659576985,8.883693273341564,1.4816989549619395,1.3106924195840253,0.6619902821573977,1.7142430268002267,1.4297314898948563,1.0207925098235635,0.7757951084310114
35,1.6633476209543407,1.2434634999132723,1.6941605226414698,1.6843045141395168,1.668375012564203,0.806874592124615,3.2616315710715993,5.654389588718923,1.4336837798591373,1.8360791149541922,0.6547956803312163,1.662955901843762,1.238881334161681,1.6662512750781167,0.6731906646513671
36,1.4616992742366537,1.4894590356065263,2.248873328846315,1.607315470541683,1.606447682865311,0.6427204029796784,3.249522105825853,2.815145234865843,1.695104064204627,2.900095794384213,0.6333676938231112,1.461449034720651,1.492714856263293,2.8475989920324607,0.856818001875719
37,1.5959933720328892,1.1984242139950874,1.6229253634159413,1.4502795235126116,1.431887269721543,0.6114614712228608,3.198292031614764,9.234281978854376,1.312847405723142,1.7298164599552333,0.6380535849069913,1.5957541853481783,1.2038632092795225,1.6186122887101417,0.5543720503609514
38,1.9732039189178006,1.7563368022569017,1.258239002351603,1.590440828495083,1.5472650477482315,0.8253962640044602,4.162725303635608,6.577715690431457,1.857126719088733,1.4981503192946986,0.6547956803312163,1.9728018445236293,1.7573626742739654,1.1942930790576085,0.8362813877014226
39,1.5766913513674394,1.7472802840134531,1.093207759251547,1.3895494896252432,1.3800771391992943,0.7768062161549251,3.9995089262196415,4.271140070047646,2.106926600096616,1.4121467903870752,0.6425374456860184,1.576164335671175,1.751472842882952,1.077771816354654,0.6334827271897154
40,1.7057375540837567,1.322813320465623,2.0216546459834914,1.4636829629664225,1.4511875554146145,0.8463795593669438,4.477652427324486,12.901090617972642,1.5324636166076782,2.705347748246951,0.6207552362147116,1.7053371545904796,1.3220004583788425,1.810745915928784,0.7918454048383647
41,1.6730679834517017,1.1980630509432928,1.090216606644569,1.6745085855999124,1.6538129179288825,0.7250884371060118,4.617810693194819,9.973589676102716,1.4048539238039643,1.3133572550307089,0.6380535849069913,1.672910335389674,1.2029669763560382,1.0862700808650025,0.6702702283263755
42,1.4859557742904907,1.2404357564333373,1.2042934073900513,1.6060336104130948,1.5548101497235418,0.7252879157334119,3.4315077291206415,2.279378307732668,1.4119973466463756,1.7606140790238451,0.6509067234006624,1.4857955330982617,1.2390617863203295,1.1651867792907795,0.7817094163520574
43,2.211001270363292,2.0720602453235593,-3.864884040697719,1.6341377936174388,1.5894960701576824,0.8547152076561162,3.7319041412915293,2.9987970675893783,2.1630344585413446,2.4145222906857806,0.648888643467878,2.172239324642311,1.8389903308692832,1.4301885546771158,0.8799204365766665
44,2.2425154305286847,2.880252617683202,-5.122768048211887,1.6866255224982798,1.6387380659433164,0.8302128510002844,4.492492487601157,11.829936441451222,3.0714851775471304,,0.6447042257417027,2.2335774068020178,2.8568228557631006,inf,0.6300255810330273
45,2.101706469084128,1.8622579371845949,-1.4637435390531972,1.7086001530575328,1.664491059690724,0.8370719762168672,4.730876483878844,29.007925134168545,2.340210398358387,,0.6652988471865258,2.1012782362890103,1.83834438073754,2.051841930081432,0.8132883594493421
46,2.0929343359656665,1.6449506311033169,-3.7378849670689833,1.5453320697489223,1.5345633163418078,0.8803135882111103,3.924257192738057,4.053919793347342,1.9818272046829144,,0.6333676938231112,2.0925943282581363,1.6492171891925669,inf,0.6242726807461662
47,4.366829532959627,-3.661423472038371,-0.7054060609212556,1.3965872057561963,1.3634635373967212,0.5797342412691517,1.7458524320819429,1.7178188117285487,3.5551796391439012,,0.6509067234006624,4.290359446148058,3.50628759052012,inf,0.7230885023861771
48,2.870440334630032,-0.34070760560961766,-2.5297327290204144,1.3726621086933732,1.2153896946306655,0.811759598584087,2.9405886211523478,1.7902640041491327,3.5541347534304633,,0.6468212168108125,2.8631457716425732,3.5074665752562,inf,0.8073637266739314
49,2.269913211604931,0.13425353363898473,-0.09324337381239234,1.3370125748130355,1.3253763171087773,0.867726110411571,4.424463893580591,17.177724622368565,2.5828444046512176,1.8510172632492883,0.6403206450210053,2.2598449393178868,2.4731586181800895,1.8705403470811695,0.6562208134724449
50,2.2114399473756485,2.721788481993867,-4.933228429369516,1.5835392558107624,1.5356391159431555,0.8800692859724105,4.3037788787417215,46.014544902245376,2.928311020853942,,0.6727386042041725,2.2072749131897207,2.676727729973169,inf,0.6201400597101161
51,2.4383742503354737,0.5734552482096031,-3.011829498545077,1.6559690914901835,1.6703644583261836,0.6733812846815564,3.8131089084476235,43.708421862394786,3.9601892329349604,,0.6619902821573977,2.4367516079009532,3.218240702585816,inf,0.844971648709954
52,2.1290748299367186,0.8473828175095632,-2.976457647446282,1.5167739096217052,1.4896283710632265,0.8840054291526126,4.155074725953471,21.531596002991478,2.9741460973045477,,0.6652988471865258,2.127791802620883,2.894578747693794,inf,0.6248138903010595
53,2.1628915353069456,1.7342227537448238,-3.8971142890517694,1.7122703969529458,1.7106469673311042,0.700555799810214,4.148039855141752,10.241287946639439,1.8769187879691063,,0.6425374456860184,2.1575232104846673,1.7439995603096126,inf,0.7558793412820514
54,2.013384874015997,2.0129850510872127,-4.02636992510321,1.458031718595238,1.4397477396620189,0.6660047244632687,4.342749921688259,40.83372715566159,2.309391017215554,,0.6180765742263259,2.013154550008148,2.01602668630754,inf,0.8425370140090805
55,1.712306552392303,1.3018722476805475,1.2985510774767692,1.6320976240002132,1.5785613900754403,0.7419033394054267,3.875779782837876,1.9083552857388035,1.5973566827809165,1.3500294397868984,0.6380535849069913,1.712209190470046,1.3078157756529896,1.3058313970837914,0.5474661155313961
56,2.034335262610852,1.3411852421456447,1.533661503881805,1.4506915286865385,1.3998583446233541,0.7797644800218811,4.035644647873034,50.35806605985762,1.6351393684776088,3.5976574704300286,0.5783247308855777,2.03425574905808,1.3464856240366934,1.509152303305354,0.7083127429673666
57,2.0772245581963493,1.343214343318154,2.21617865648567,1.230425133119912,1.2006778247816217,0.8818644884175161,5.40909574879694,7.53197442586178,1.5521098096731238,2.068116596159795,0.6425374456860184,2.076867080672485,1.3472578056333748,2.2026965472142126,0.7443061840742062
58,2.3078148504962472,3.3354336368737973,-5.643248487370045,1.5336557950222107,1.5050408466809184,0.804124364664571,4.173515449755114,83.00202846460395,3.567836572831999,,0.6547956803312163,2.30759763481759,3.409607860170752,inf,0.7651039072733176
59,2.2704510666275146,2.7507546341743287,-5.021205700801843,1.6404985725549373,1.5816510928133525,0.8566556583949867,3.9495411212711287,26.6588595423839,2.878542623948006,,0.6333676938231112,2.2704406396674783,2.753617674760918,inf,0.9008279928816839
60,2.3715779644809976,2.635718428349744,-5.0072963928307415,1.6310753438143482,1.5884055255607366,0.7999257861895235,3.9848439675403333,37.94856753279605,3.3288656089096893,,0.6153451465759925,2.371577964480997,2.6423962308807734,inf,0.7301264653107233
61,2.293950439650658,2.234757642709593,-4.528708082360251,1.1765803719232504,1.1633760034744576,0.8587565057513792,4.039365541178426,49.75913426254466,2.3079856687819316,,0.6357360191111145,2.293845615940645,2.233335251185752,inf,0.6410962592088846
62,1.900640732302704,2.413508479968092,-4.314149212270796,1.5943930684709835,1.5742164906026983,0.7592945004154186,4.35021085418054,50.71770506409231,2.7023391929795832,,0.6233814453054027,1.9006075408268592,2.420219473974966,inf,0.7376704739548984
63,2.1777204796715366,1.9132851812850489,1.6060878255488191,0.7381290040886985,0.7364111577571173,0.7783724929961288,4.484170641102032,7.189341253111915,2.1364331013226194,1.3829442742346088,0.6509067234006624,2.1777161109481766,1.919967352539439,1.6127879993193823,0.8013704935238654
64,1.8579405797038058,1.3949124087518368,0.8812284251508329,0.5435788277657443,0.5358539963896376,0.7407343971924675,4.040391062243057,7.152568147058052,1.5399592086640408,0.9129406449888731,0.648888643467878,1.8578992717326,1.3991977659557984,0.8864377687244739,0.7643476258063353
65,2.1484344131667874,2.858861979663954,-5.0072963928307415,1.2805940609959894,1.2897367224184677,0.7953141332877448,4.2302423177183375,11.554933035811093,3.552009160223899,,0.5947193981915972,2.1484344131667874,2.865539782194983,inf,0.8638165960621159
66,2.5617624511828363,2.445533941647905,-5.0072963928307415,0.9179462726303649,0.8854054057804178,0.842199409640813,3.779928775110427,35.62126894285111,3.1387998573823035,,0.6602640781246099,2.561643716008383,2.4523304793533875,inf,0.893968997507962
67,2.120263536200092,2.193885676070704,1.3829442742346085,1.2647393842100974,1.242131087265002,0.8223876413274332,4.174581227617883,6.163577747117135,2.1938856760707046,1.3829442742346088,0.6468212168108125,2.120263536200091,2.200563478601734,1.3896444480051726,0.8090493589909421
68,2.11999198221523,2.4818393025073475,-4.601831284722578,0.15525433535522937,0.14403164586411013,0.8718835849912512,4.434579969540349,18.354811169560296,2.4818454877271594,,0.581717464821069,2.119985796995417,2.488523290258189,inf,0.8031924858444257
69,1.6433394641097823,1.0125816715574811,0.8439477735019216,1.2468881937952683,1.2265804587178728,0.8933076871406572,4.009967094930486,3.6591743364977347,1.2238907652246886,1.2204253447368336,0.6509067234006624,1.6433394641097818,1.019259474088511,0.8506479472724855,0.8268703530478958
70,1.6554557115323842,1.0492555883043113,1.0464720376133956,1.2296856754623968,1.1917170079570605,0.8333007135287287,3.903492125572947,21.27090874166896,1.3371926833184136,1.0957105777374776,0.6425374456860184,1.6554236792709087,1.055965423096816,1.0531722113839597,0.8999832715674754
71,2.1213958156781367,1.5051032571226806,-3.6264990728008173,1.2621946786359255,1.225513571769185,0.8608759543980454,4.382602208014333,34.282486271619334,1.9380280293654304,,0.6180765742263259,2.1213752650527815,1.5113339175941003,inf,0.6143079763838153
72,1.5839503833108983,0.6692923502291048,0.29014801743437824,1.5455683283225718,1.5255988485361,0.8434781915404371,3.8366695852389285,2.458178560707707,0.9011217401085291,0.836935987428393,0.6668815377411301,1.5836618761191166,0.6758637274144823,0.29651907408774125,0.6915720839867601
73,2.1922598244687075,1.5715046374095527,-0.8005111383603492,1.6847578506199934,1.6498181653673036,0.8111643902259007,4.42805506382915,21.618162823625582,1.9119570365610734,3.2128533874841345,0.6584896970785714,2.1918391050598816,1.5741614029915485,2.5981393243417252,0.7841031990118559
74,1.8264216664334958,1.8532746775355031,1.0872124525189806,1.089193811814879,1.0659479353154333,0.8445641499552905,4.281316406884671,11.818884901908124,2.0526769805820693,5.117263805632695,0.6207552362147116,1.8263509139976741,1.8576515630367583,1.0928790866355982,0.7237420032688137
75,2.1668177210756365,2.146585191692437,1.383690573737331,1.599036114280466,1.5652248873211427,0.7797552035155757,4.306509206715049,2.411031313752143,2.433005728515294,1.0974893741956517,0.6566669596287297,2.1665983837944585,2.1533928599599705,1.3904802190525687,0.6319116640486134
76,1.9160923312314506,1.485198094320872,1.581157925095603,1.4663368604299796,1.4699915633318437,0.8397286532099368,3.9341255173577645,2.4955864436495383,1.773832954161155,,0.6509067234006624,1.9150576855725485,1.491487302416202,1.641446092651274,0.6236343626252403
77,1.8072783464026936,1.52087368049601,1.6595204687448972,1.5148811657934242,1.5227969323935675,0.8460003590006123,4.2877689597590996,16.53493027122389,1.8406843969062379,2.162997787332078,0.6584896970785714,1.807008479990794,1.5209384399317687,1.5458291914564957,0.8626202405249586
78,2.1078164474860417,2.312492584802481,0.01501207129957649,1.6036273078999193,1.599297650964771,0.8419000834530248,4.221830487375262,49.18695118179487,2.5741054492071007,,0.6125606311107803,2.106561542438977,2.2745765981737893,1.5796894370333259,0.722304747383657
79,2.2554515241002546,2.386160917951539,-2.5105875000081834,1.7785184409424408,1.7968063075982899,0.7441316488933136,3.6350268924091034,3.494073107614506,2.548993681314836,2.015734549612705,0.6068309995095971,2.2547477635798856,2.29635520113793,1.431511967113184,0.8233842598532845
80,2.309100665159427,3.368160728279422,-5.677261393438849,1.714442187005508,1.704076474072744,0.6665086429659884,3.9173547666030766,35.81535263769405,3.3752562800555426,,0.6125606311107803,2.308603165319609,3.365620507095048,inf,0.7887967584047851
81,1.7591436312011057,1.7974220428008942,1.3354144510692114,1.4041584318786042,1.3177143979837707,0.7197477068267869,3.9490520284412627,3.9264141286953116,2.0371520434988075,1.7810831470778516,0.648888643467878,1.7588406224709454,1.7974523297315732,1.3306508695511874,0.728677253706293
82,1.8415708568783058,1.2461139255206526,1.2012420808849127,1.6596352472061393,1.6544896940064557,0.8249254061462672,5.033345400619672,12.016470853844316,1.4725617613254804,1.6917638913515076,0.6602640781246099,1.841299914788191,1.2395062200124787,1.0818172681747253,0.6042878590998615
83,2.603813060601705,2.5878879820804985,-5.191701042682204,1.7887140634979704,1.717434257596743,0.8087223419519245,4.800914467999414,22.51371685651037,2.583489357914464,,0.5604843169999094,2.602789690444717,2.5356789751614235,inf,0.9218013945382503
84,1.9635963285191012,3.0437000643116403,-5.0072963928307415,1.7200564694179727,1.7359214275873516,0.6806377325679877,3.4438414988191597,28.481411901206926,3.0437991603483763,,0.5370774965580548,1.9634972324823647,3.0504769628794057,inf,0.8504025867708521
85,1.8968269327962977,2.188081017230724,-4.084907950027022,1.5959868335958198,1.5570216615293433,0.8342225290178596,3.679654235486386,23.184465447766833,2.194181928479922,,0.6333676938231112,1.8968237324766637,2.1941930396527622,inf,0.8934154760467531
86,2.0021499829121807,1.740778624327993,1.9541648792652309,1.6688427438810327,1.6338805112913724,0.8244305846801301,5.128263868812607,9.032654569448793,1.9298987271035302,2.3265852741004087,0.6619902821573977,2.001904534756608,1.7450749528525378,1.9634919751978517,0.8507828047397852
87,2.0204982962669367,1.4041996867518924,0.9341565944487185,1.5825942831948694,1.565984584248914,0.8710438915871999,4.336568610218235,3.8489147097373895,1.558042538534586,1.0373602188240323,0.6566669596287297,2.019999317967014,1.4061740497653188,0.9338743602227739,0.7869993193030272
88,1.7998261628962837,1.4003460492015514,0.7899930367675845,1.4926326441164786,1.4760753787610874,0.7536093449658312,4.926423337356939,4.425416404057003,1.6200398893387777,1.2200873083215433,0.6403206450210053,1.7994556758625253,1.393102840688302,0.6958564750917514,0.716222401935806
89,1.7169653702519474,1.4335370014292446,-0.19160148665263366,1.7268070370790634,1.754789792348709,0.8141768055934813,4.0070207222766685,13.906130696129875,1.597460288537569,2.2230069595249597,0.648888643467878,1.7157865704648207,1.4153836739842744,2.003517698317139,0.7658709739642423
90,1.768118246118247,1.300270843025662,2.012315126058189,1.5428561717655915,1.523418626581047,0.8538765388905445,3.53213588615807,5.417177351515395,1.3874576860609058,2.4428889763379247,0.684994737851132,1.7677825598466066,1.3048307580433418,2.001672003282763,0.8350127805193637
91,2.04943350612638,2.0015244205945737,1.3784868724989616,1.7122989773976802,1.6885733072167879,0.8567165811086946,3.6014130272115628,6.864686892366791,2.4891522328539555,1.3712608057901823,0.6153451465759925,2.0489770008760164,1.9959426780185616,1.7136710322566184,0.959158201670237
92,2.388104897425482,-2.388104897425482,0.0,1.7413942800674906,1.6993041884681308,0.8821958524348534,4.149492248038328,11.085891464924583,,,0.62595550513784,2.3876589542407243,inf,,0.8987847896324296
93,2.1776935611492534,2.064810898860125,-2.426316939143562,1.7678347276424602,1.7199968353884008,0.7181732812829833,3.1926439998820615,4.841784101096004,2.065441275383596,3.5142276638323704,0.6008849035917525,2.176931874068457,2.066686390901398,2.6100697927420065,0.9162371216507174
94,1.8325814637483104,1.6702851559996084,1.0956145780893758,0.9125242596883777,0.8548887979646698,0.7649425615029338,3.8795384008811338,11.02147284282464,1.9167101091754621,1.9444518266963502,0.6509067234006624,1.8325814637483102,1.6769437947994736,1.1023339155911043,0.6518236871973733
95,1.5329885797409522,0.7455174083893219,0.2983084204957729,0.7820878067033749,0.7602142891071808,0.8339398676963772,2.997310458594761,0.632858499444708,0.8009000031702911,0.3187311041503152,0.6584896970785714,1.5329399414613754,0.751914385835818,0.3048204210696957,0.6469283637970503
96,3.113537133555884,-0.050554291179296725,-0.01171645149182096,0.7820878067033749,0.7266022775157059,0.6790626571248783,0.19468833957190188,0.12016803633731135,3.076760051442067,,0.6333676938231112,6.532367626111251,2.677972745864932,inf,0.9017419518043742
97,0.5063177632839789,0.06459959344583499,0.0297167277396283,1.429618099422238,1.2214913015577304,0.5371470013320959,0.7035206703938459,0.1120916660692779,0.07253260957119834,0.02737754352327428,0.6468212168108125,0.506298848055851,0.0712800933788468,0.03642850311050357,0.768512135949793
98,1.9425823589626383,1.8119510653727355,0.8439477735019207,1.227982366064104,1.2114419471829434,0.8924906526065804,4.294114755888885,10.240193343349095,1.9661017451999927,0.6897970936746635,0.6528756675646988,1.9425823589626385,1.8186288679037637,0.8506479472724855,0.7981279943715116
99,1.4885005973859418,1.046785209257957,0.6897483474813701,1.5927079764060599,1.562393999804178,0.8359903407747536,4.542230544020943,4.278972540251885,1.4541449223947214,1.3682040621002174,0.6333676938231112,1.488450140890575,1.053097409611571,0.6963978370864053,0.6842821456271732
100,1.6799084595094038,1.740802843765518,0.7660531126351766,1.543639517982998,1.4871428053181104,0.7844593256571651,3.648707539837492,3.9510645893639613,2.034065825092076,2.2687339301575307,0.6125606311107803,1.6797411659061623,1.7386023745909636,0.7378764254430622,0.6041887690994127
101,1.6988757284321634,1.2148604548830788,1.1063547585437101,1.37308376417985,1.3522982706329376,0.8407820962499835,3.4397914281201114,3.1267937256524236,1.652112127291745,1.3716513338353897,0.6425374456860184,1.6983905664226069,1.2187359287823776,1.1114303264791132,0.7996812651222089
102,2.002341846827936,2.0155108675175404,-1.1867353748301763,1.6285157281177143,1.6182390095008423,0.8617025277257189,3.986828119537019,3.49680832580697,2.315347962538976,,0.6125606311107803,2.0021513366171018,1.9872327899685125,1.7011531213205662,0.9025847225532276
103,1.9923205219812727,2.3971481145420626,0.6767386585234165,1.6362483158421397,1.625128393194684,0.8147723875498432,3.1775333357011935,5.568323006509834,3.0201622076629677,,0.6125606311107803,1.9921635335727754,2.3854285040332406,1.450243085720164,0.8278305313156916
104,1.8751633500466922,1.717476211539545,2.1044539249191674,1.3155669385401723,1.2941713347396575,0.6211626579632464,2.7550297593218582,2.920052408792185,2.033543025995525,1.7884093823427731,0.6233814453054027,1.875141078167106,1.7228825464918858,2.112447838148006,0.7095151442647817
105,2.094782490205144,1.5173705727620965,1.1607080035692574,1.5354809706102748,1.4747116988916118,0.812212505064691,3.1860122584220045,4.406942202207878,1.7387832249764041,,0.6309483474627791,2.0947582457917293,1.5163374604346151,1.1539824417188014,0.8887587591405813
106,2.0155949422424335,1.5971762492383657,2.0155077536006227,0.5549845407258418,0.5412276560485759,0.5964537554639202,2.6915360169790534,3.079462796210785,1.879275058733282,3.810462550633622,0.6309483474627791,2.0155699095299684,1.6033689741574018,1.995612457240888,0.8692266743609536
107,1.4834733166736418,1.3184612916062892,0.8157173365456374,1.3684704375040146,1.3521761972397972,0.4765962789985691,3.3668567363225765,5.301394144496258,1.3846246703966865,1.4244935254112376,0.6233814453054027,1.4833928055834413,1.3250303696655559,0.8226067458781644,0.7272890573604062
108,2.1198982165442497,2.8873981762864918,-5.0072963928307415,1.1290342282734243,1.0745020622634383,0.6435237683507465,3.034584823913529,4.640747424023146,2.8874031584308453,,0.6380535849069913,2.119893234399896,2.8940809609618743,inf,0.8806204581038671
109,2.0148207118336297,1.488398284220838,0.8075801293310461,0.9553355361774377,0.9487606931035225,0.513841680630208,2.571921435666778,3.046145381875575,1.6817062881900997,0.9019552189662342,0.6125606311107803,2.014819690680961,1.4950771079045355,0.8142803031016107,0.9013573901731888
110,2.1189849174046462,1.3796531866646977,1.5053082018761161,1.1243421952752042,1.118520594723096,0.8960407601989967,2.8900946477876244,3.28106471507284,1.6355653449649212,1.9425600621700312,0.6153451465759925,2.1189680793704517,1.3861094327790955,1.512246770097505,0.8680946032404133
111,2.2641863334688126,1.794501459561086,-4.058687793029899,1.7008430468606783,1.6919448483128803,0.8686660664442613,2.865873970452843,6.594112764679402,1.8050596541770558,,0.6468212168108125,2.264112522877851,1.7987333722848786,inf,0.9156869042020679
112,2.659260036932778,-2.659260036932778,0.0,1.6436636966963638,1.6143631471239395,0.9055696170732956,3.179521323567409,3.8689534450761043,,,0.5783247308855777,2.659260036932778,inf,,0.8847951256618884
113,1.919517931218433,2.1714877297381525,-4.0910056609565855,1.6156917502885824,1.5923909450882288,0.6615223955159987,3.3037554464436347,5.541606633818107,2.6823141986909342,,0.5783247308855777,1.9195170860316426,2.1781663774559727,inf,0.9060479218252981
114,2.3025850929940455,1.6060990111685856,1.7884093823427736,1.611444111543396,1.5925971832157373,0.837385980207556,2.9662515006910266,5.684619492967776,1.7884205679625405,1.6060878255488185,0.62595550513784,2.3025850929940455,1.612776813699615,1.795109556113337,0.8376239079079181
115,1.967564380009265,1.941119724153366,-3.908684104162631,1.0946083245021347,1.0367031683662762,0.5881102527616094,3.3651922985409817,3.903784400720315,2.321832581102789,,0.6038851895711802,1.9675424491824272,1.9478194575112335,inf,0.7248890984561532
116,1.9090305984874723,1.1512448032899123,0.8445413313394714,0.8319744894100057,0.8122213513071309,0.8650023641271285,3.7204021669002305,5.424014551636731,1.244437472362084,0.7530480690786847,0.62595550513784,1.908967670133596,1.1579026312537346,0.8512825644163523,0.8334434666642409
117,1.5237462400721722,1.2958838386062872,0.9574174667963393,1.475513648621589,1.4702289529532802,0.37897738797010155,2.0812589698537547,2.4605870688096623,1.3980922404467007,1.096493547317533,0.6380535849069913,1.5237190370315628,1.30236423098224,0.9627393036281859,0.7214404088232955
118,2.1484344131667874,1.4725676185440637,2.0760914547945535,1.7393131988545611,1.6842906609613209,0.9182669973975552,2.040524256752229,1.950820584420354,2.165714799104008,,0.6619902821573977,2.1484344131667874,1.4792454210750923,2.082791628565118,0.7826338153629594
119,2.0661963149298157,2.535634969792762,-4.601831284722578,1.761649741995536,1.7507548987015362,0.9444774228212982,2.190608872536026,2.768464270959131,2.5356349697927616,,0.6566669596287297,2.0661963149298153,2.5423127723237906,inf,0.798078030532547
120,2.040136435833273,1.5808655958775781,2.0760914547945535,0.122888179777612,0.07010571173167711,0.6549646910811203,2.2646310949149866,2.2969929917848986,2.0495334002683,,0.6097226960127671,2.0401353620934444,1.5875444721484355,2.082791628565118,0.8500226795336931
121,1.784388827352672,1.208004544935804,0.9129406449888737,1.085257999358867,1.025625403013872,0.6148916381382205,2.4260006907052296,2.853240130434386,1.351438331086127,1.8684520900163095,0.6207552362147116,1.7840558848430226,1.215015289976483,0.919640818759437,0.7374848020945063
122,2.5628973742340038,2.383375841791161,-4.946273216025165,1.7718168786165909,1.7416860076721807,0.8944447667040729,2.1494546352708452,3.4653796531105248,2.444500271048034,,0.6180765742263259,2.562796121782707,2.3786241032920756,inf,0.7647493362729705
123,2.995732273553991,2.704711299836696,-5.700443573390687,1.7451024565304367,1.7035843661695502,0.962679236019099,2.2506803261737454,3.6247593842381143,2.7047112998366956,,0.6309483474627791,2.995732273553991,2.7113891023677246,inf,0.765342648354141
124,2.3810335519654244,2.626262840865317,-5.0072963928307415,1.70956155723639,1.6829070360264369,0.9442303643605561,2.447342389172459,2.6779784377805216,3.3195365136211707,,0.5978297680564633,2.3809070597695157,2.633067135592255,inf,0.7509416695405996
125,2.206876873681058,2.008760804230288,1.4814558085940588,1.0602178534177094,0.9786213609596629,0.7157752029968646,3.175296156672179,6.404698643141934,3.4935726190026615,,0.648888643467878,2.206870954388025,2.0092646648879984,1.4943358435309748,0.849568185590673
126,2.445685936634719,3.254757636755968,-5.700443573390687,1.34916040676054,1.3265532379117908,0.6095428133318588,4.577570734396786,20.08414720089747,,,0.6566669596287297,2.445685936634719,3.2614354392869966,inf,0.8674720153019825
127,2.70805020110221,-2.70805020110221,0.0,1.6786922739112575,1.6580824790388717,0.919768303995038,4.8178031932276015,119.46293256011056,,,0.6008849035917525,2.70805020110221,inf,,0.7970545773432232
128,2.040220828526554,-2.040220828526554,0.0,1.6056648510886895,1.5675877774756808,0.8805909065190488,4.214918506210648,76.52939817427979,,,0.62595550513784,2.0402208285265546,inf,,0.8177866698051486
129,2.3715779644809976,2.23025332024158,1.0952622017828268,1.0018014059341276,0.9237723359076147,0.7907183281528426,3.638814025304967,2.795141123495941,2.2302533202415797,1.0952622017828277,0.6357360191111145,2.371577964480997,2.2369311227726087,1.1019623755533916,0.8617804309984787
130,2.3363736394974746,2.265457645225103,-4.601831284722578,1.0064578210571942,0.958706951319404,0.654335303052779,3.52835818774812,10.680880599101755,2.6709246840843632,,0.6153451465759925,2.336371708746378,2.272137378507228,inf,0.8728064285768732
131,2.445685936634719,2.156145348087859,-4.601831284722578,1.2653158207615254,1.223899441554816,0.8068378092502295,3.46982362726071,9.173308006379173,2.1561453480878576,,0.6233814453054027,2.445685936634719,2.162823150618887,inf,0.8646751989960261
132,2.569177293978468,3.131266279412219,-5.700443573390687,1.6402711368789413,1.627138467782181,0.8819734670370954,4.262068272989045,37.20168819889971,3.131285371155095,,0.6357360191111145,2.569158202235591,3.137963173686124,inf,0.8375320543648979
133,1.9383676139547772,1.682634417756074,0.9774791661264435,0.6470948223995243,0.6039359535591997,0.6754653059461879,3.039308808893946,3.307648159513747,2.663503428406385,1.0952622017828277,0.6309483474627791,1.9383278563161916,1.689351977925688,0.9841793398970082,0.9250586424074767
134,2.4849066497880004,3.2155369236026865,-5.700443573390687,1.5887512042417462,1.5409811393545283,0.9045307065866154,2.549862380060607,4.749396544216618,3.215536923602686,,0.6008849035917525,2.4849066497880004,3.2222147261337155,inf,0.7989931545236036
135,2.5257286443082556,3.1747149290824312,-5.700443573390687,1.4953252497838512,1.455115330079751,0.9440813516102631,2.471281676914214,2.373994315627394,3.1747149290824312,,0.5947193981915972,2.5257286443082556,3.1813927316134603,inf,0.7647265140260423
136,2.995732273553991,2.0115641192767506,-5.0072963928307415,1.4624714835423012,1.434699641680196,0.6621183338648511,3.051378575156758,4.319288725488375,2.01156411927675,,0.6125606311107803,2.995732273553991,2.018241921807779,inf,0.7858673345045687
137,2.659260036932778,3.041183536457909,-5.700443573390687,1.5391205158757744,1.5006013996752088,0.8577036919747915,3.258320368304501,3.592782143901567,3.0411835364579085,,0.5978297680564633,2.659260036932778,3.0478613389889375,inf,0.7856970179961081
138,2.2380465718564744,2.769249820974267,-5.0072963928307415,1.3335720483503282,1.2801825036354422,0.7951948601960933,4.243852431136931,3.9397025774790926,2.7692498209742666,,0.6509067234006624,2.2380465718564744,2.7759276235052956,inf,0.7606726997956591
139,2.4079456086518722,3.2924979647388146,-5.700443573390687,1.485756264444615,1.47098880740116,0.9182155802531001,4.653571673231932,52.222254817318195,3.2924979647388146,,0.5567373465730988,2.4079456086518722,3.2991757672698436,inf,0.8474539991017359
140,2.813410716760036,-2.813410716760036,0.0,1.3635335886906468,1.333413131548903,0.9367153657005388,3.8970794214150652,17.90655927329129,,,0.5713653840954815,2.8134107167600364,inf,,0.8260315569765015
141,2.4079456086518722,1.9062036036189238,-4.314149212270796,1.5270827849796589,1.4924909180944728,0.9359374769097923,3.578671762571544,20.778215426460694,2.1938856760707046,,0.62595550513784,2.4079456086518722,1.912881406149953,inf,0.8425037657238013
142,2.3715779644809976,3.3288656089096893,-5.700443573390687,1.0850599645926393,1.0382150932420966,0.7702408724804972,4.190218996768175,47.50590000264376,,,0.6180765742263259,2.371577964480997,3.3355434114407183,inf,0.8736576748013827
143,2.659260036932778,3.041183536457909,-5.700443573390687,1.6196153293243278,1.581899788139948,0.8743921035216387,4.35571761178036,23.60753047075577,3.0411835364579085,,0.6619902821573977,2.659260036932778,3.0478613389889375,inf,0.8083043622692266
144,2.6127400212978853,-2.6127400212978853,0.0,1.6481439859599787,1.6289233370968552,0.9248541109133798,4.5838195248230855,31.65969351722949,,,0.6038851895711802,2.6127400212978853,inf,,0.8312199934655595
145,2.70805020110221,-2.70805020110221,0.0,1.6108687788910598,1.5835498839945978,0.922127279954634,4.621128666533099,215.49718424774943,,,0.6357360191111145,2.70805020110221,inf,,0.8557542197389458
146,2.445685936634719,-2.445685936634719,0.0,1.5102564811190113,1.5010790915090095,0.913296782281259,5.231499975069752,118.38728988057787,,,0.6468212168108125,2.445685936634719,inf,,0.8228694964646732
147,2.568004527964259,3.12780260943606,-5.695807137400319,1.0139223720691857,0.9356278267097997,0.9000488695568728,3.891912961559581,4.561363201681193,3.1324451277362333,,0.6357360191111145,2.5679984456544536,3.132456238909073,inf,0.9262231498150512
148,2.445685936634719,-2.445685936634719,0.0,1.6995697166277528,1.6868937170277838,0.9189087884575642,4.166853190754983,10.217952663926269,,,0.6125606311107803,2.445685936634719,inf,,0.8326798425030835
149,2.5257286443082556,-2.5257286443082556,0.0,1.506877644449336,1.488535827904642,0.901063541825316,4.953499694902979,26.21594566480728,,,0.5978297680564633,2.5257286443082556,inf,,0.8015975175951869
150,2.5682882587270512,-2.5682882587270512,0.0,1.4682621339131279,1.4492932095480442,0.9239631274573933,3.328560354453173,50.07065128423175,,,0.5883313578629602,2.5682882587270512,inf,,0.796691324941498
151,2.409455221771186,3.2909883516195007,-5.700443573390687,1.432532032739642,1.4513515862302897,0.9139589193727264,4.84258883146329,57.91825498119436,,,0.6509067234006624,2.409428188612095,3.297693187309621,inf,0.8520340321436983
152,2.066203242536604,2.535628042185974,-4.601831284722578,0.3226316561236152,0.2679811583954174,0.5280014147558141,3.7545554590878067,38.2647730827593,2.9411000779009258,,0.6068309995095971,2.0661963149298153,2.5423127723237906,inf,0.9228079716461015
153,2.17742195004004,-2.17742195004004,0.0,1.6994909124366315,1.6362310339186843,0.9589182378007813,2.6009180203456332,3.8823710352119187,,,0.6233814453054027,2.17742195004004,inf,,0.8442008921062847
154,2.3025850929940455,-2.3025850929940455,0.0,1.68128743540532,1.6192161060045376,0.9316024027201727,3.5691596133307293,18.051088735664635,,,0.6309483474627791,2.3025850929940455,inf,,0.8270596729685737
155,2.3238152835149792,2.2780160012075985,-4.601831284722578,0.5416423079444139,0.5035334454456384,0.5612457974468584,2.915439881041363,5.107194107486572,2.6838280889202712,,0.6180765742263259,2.3234683039104698,2.285040783343136,inf,0.8021469013331743
156,2.0852219737173536,1.766089418341847,0.747169805778094,0.8460171900997769,0.7799734131408285,0.8043013707932278,2.8326871996384955,3.204772600638276,2.0085381580857655,1.934526125972323,0.6403206450210053,2.085146673930869,1.7618171126129765,0.7648953875950425,0.926415563634622
157,2.0601375603637844,3.6403060130269025,-5.700443573390687,0.574072819223771,0.5471428236490212,0.43977995223838023,3.4549502266137653,5.825448767973662,3.6403688342017007,,0.6180765742263259,2.0600747391889858,3.64704663673273,inf,0.8849183357144383
158,2.3767906601454896,2.630505732685252,-5.0072963928307415,1.6182591977616403,1.5830993759490035,0.9075715865467884,3.595916331875341,8.512453248277549,2.630586233519775,,0.6468212168108125,2.376710159310966,2.6372640360508046,inf,0.894428654839849
159,2.095121060430903,1.9966309000284057,0.5080898585461346,0.794282493091771,0.6937391677198695,0.679230961803271,3.4568679440911074,3.859020712974006,2.4882983295354935,2.716785835461485,0.6309483474627791,2.0947582457917293,2.00359433782791,0.5146257848162635,0.9460638805819662
160,2.269795270171055,3.4306483032196318,-5.700443573390687,1.5666335590733986,1.5276453248375135,0.8704465537945802,2.8878210955956973,4.087355227882398,,,0.6233814453054027,2.2697952701710546,3.4373261057506608,inf,0.8906525279327027
161,1.6784307839210513,1.8247882121334165,1.5007273098909923,1.073075871715319,1.0380081511794672,0.5337571250219104,2.9328519904242505,3.100160016837569,2.0761026404143212,1.249412881610086,0.5641709578113449,1.6784307839210517,1.8314660146644446,1.507427483661556,0.8951462568298377
162,2.269795270171055,2.3320360145515227,1.0952622017828268,1.6710798731264291,1.615662766828934,0.9498521454371434,2.8595546792835442,3.344321112844896,2.3320360145515218,1.0952622017828277,0.6233814453054027,2.2697952701710546,2.338713817082551,1.1019623755533916,0.867853788131336
163,1.4279555301586306,1.1396698531432912,1.3474977108502717,0.9166060492701537,0.8488399346401192,0.6572750006587206,3.0235281547649335,3.9074325572270308,1.2737557510836954,1.6090933379130954,0.5915533975974677,1.4279500363887232,1.1462979754243574,1.353452806334295,0.8206302366917463
164,1.8971199848858813,1.4054283157064353,2.394545185913088,1.7522820596856168,1.7331279343155186,0.5885760561311664,3.8620959512851765,9.831536692837986,1.8574134394494919,,0.6403206450210053,1.8971199848858813,1.412106118237464,2.4012453596836525,0.5687045691535453
165,1.6964492894237304,1.3649369543516967,1.2494128816100867,1.5303785263430716,1.5187664320307033,0.6007022924707897,2.7745051593394896,2.9294403378433627,1.4390449265054195,1.4629869819081451,0.6790044388599258,1.6964492894237302,1.3716147568827268,1.2561130553806499,0.7185440255113472
166,2.522462884746635,2.4848335080841064,-5.0072963928307415,1.626032264004183,1.6093166183533298,0.9258689539531424,2.2325965055470194,3.049106487977904,2.4848955386151603,,0.6447042257417027,2.5224008542155807,2.49157334114619,inf,0.8071177663566175
167,2.1484344131667874,1.942571247789798,-4.0910056609565855,1.4980389808561374,1.4477680913490651,0.8337406605412245,3.202825634017183,2.866372066418876,2.165714799104008,,0.62595550513784,2.1484344131667874,1.949249050320828,inf,0.8503407401929375
168,1.771892114979018,1.443644808623667,0.535646413847406,0.7162890558902186,0.6576758193828965,0.5500190959589097,3.153953842433785,3.3922868777645956,1.5306568160017273,0.7851072734789882,0.6180765742263259,1.7718914845905887,1.4503232415431266,0.542346587617969,0.8688887258693268
169,2.120263536200092,1.634269888135282,1.9425600621700307,1.394753955841508,1.3854514127480113,0.7150620296448301,2.6674778365943603,2.977858517893685,1.7884205679625402,,0.6509067234006624,2.120263536200091,1.6409476906663114,1.9492602359405953,0.8270119223559851
170,2.3025850929940455,1.78842056796254,1.6060878255488191,1.5925816636991539,1.5728536352661593,0.9466153338072247,2.755001032862215,3.6456706601657096,2.1825786051560137,,0.6038851895711802,2.3025850929940455,1.7950983704935697,1.6127879993193823,0.7901092353300161
171,2.1484344131667874,1.7602496909958436,1.7884093823427736,1.4404394958100324,1.4282138268323206,0.9482098216711801,3.0950723170835475,6.583129961286476,1.760249690995844,1.7884093823427731,0.6068309995095971,2.1484344131667874,1.7669274935268733,1.795109556113337,0.8718115513049618
172,2.2380465718564744,2.769249820974267,-5.0072963928307415,1.6368407919526644,1.607764585453351,0.9625615366675321,3.4171622811191056,3.895494764908037,3.462397001534212,,0.6125606311107803,2.2380465718564744,2.7759276235052956,inf,0.8163860520842955
173,2.3360346239807175,3.3551360774292345,-5.691170701409952,0.7522514266199838,0.7095812327107855,0.8572204358445943,3.3751572588952263,8.701666968326542,3.364416593174008,,0.6509067234006624,2.3360269802166784,3.3578051635863546,inf,0.8475444488882794
174,2.0149030205422647,1.8937810836203663,-3.908684104162631,1.0184188744051248,0.9746652944112721,0.6173881504803502,2.719949960451432,3.804789833105813,2.300082661873497,,0.5947193981915972,2.0149030205422647,1.900458886151396,inf,0.9130582226512504
175,1.8206014576238991,1.6530179286805433,1.1248618115328521,1.3018126057782762,1.2019206759091416,0.7588510265941174,2.8937391280018927,3.5307345730609625,1.800568701898188,1.3829442742346088,0.6153451465759925,1.8204333298126627,1.6587255933192047,1.1327002510070208,0.6892670440916651
176,1.2174068576725532,0.8775301774261186,0.8425620622818988,1.2496848518553756,1.2391056656684372,0.4113064224617197,2.1594679587416543,2.1125908403378006,1.1611686994859491,1.5267694931333236,0.6180765742263259,1.2173958246580767,0.8841550026098602,0.8489956536642979,0.8130970113879635
177,2.148058801473898,1.7606253026887329,-3.908684104162631,0.7855549352148372,0.700910933921371,0.5575466540934653,2.4078402143768876,2.2639534071095673,2.166095678941026,,0.6309483474627791,2.14805353332977,1.7673083733638906,inf,0.9173086616110707
178,1.59290861048289,0.8494384248863143,0.8568511783378292,1.5540524870874108,1.5475848320493455,0.3480378354592524,2.2737004372321152,2.0030282177048977,0.8887929262530538,0.9128068567754152,0.62595550513784,1.5929086104828898,0.8561162274173438,0.8635513521083934,0.6099838827357695
179,2.3025850929940455,1.78842056796254,-4.0910056609565855,1.699403400826074,1.651127664295285,0.9476651570885917,2.576620458561256,3.692757708108763,2.01156411927675,,0.6125606311107803,2.3025850929940455,1.7950983704935697,inf,0.8348200072148017
180,2.1939405896495296,1.4270614420613215,-3.621002031710851,1.142673865364161,1.1013162216608667,0.8325789768513716,3.1112156925731953,4.219114188046274,1.8971753166883822,,0.6068309995095971,2.193830344268204,1.433849489973676,inf,0.8783487579832869
181,2.5682882587270512,-2.5682882587270512,0.0,0.1792080277878048,0.1316431705655067,0.5771230322764973,6.306746473358889,7.772485489452927,,,0.6068309995095971,2.5682882587270512,inf,,0.9098856517997715
182,2.3364866446697268,1.7545190162868587,-4.0910056609565855,1.0352408023959112,0.962268692795245,0.8117763634231199,3.7570653985239417,4.503924597606845,1.9776625676010688,,0.6380535849069913,2.336486644669727,1.7611968188178884,inf,0.8331467241957579
183,1.9902104079518939,1.76432301638348,1.2494128816100862,0.22490934442804392,0.1485268282940302,0.6394944038279295,2.9179356280256683,2.0312464057949304,1.7643230163834798,1.249412881610086,0.6180765742263259,1.9902104079518934,1.7710008189145092,1.2561130553806499,0.6567326066757703
184,1.8307988000773574,1.6625536593937675,2.2037410270342797,1.0369892097698183,1.0211707215497858,0.7359676969911789,3.7092518159935564,5.848654626680293,1.7952538438670682,2.071062106389552,0.5978297680564633,1.8307775362487841,1.6687679684311472,2.210925958127066,0.7516961032978792
185,1.8548581522204768,1.1491409189877801,0.9013349460690927,1.3299753444067957,1.2912091479265537,0.9078283998313503,3.3040295514266917,2.647966532692845,1.2806529418147978,0.9521613581421544,0.6447042257417027,1.8548412741143518,1.1554407804543703,0.9084299390102204,0.7647938396387848
186,1.605251385210058,0.9157784291910924,0.6108656301724036,1.3487832744277004,1.3453599441442827,0.831651271414048,3.804817443908811,5.195891778500998,1.2716923923048797,1.2107386029851925,0.6652988471865258,1.6052245787812318,0.9224504028577063,0.6175890258860166,0.6831357803688217
187,1.6903229975528196,1.216850544483449,0.798304419414825,1.3304754265932806,1.3276074827386521,0.6940185534213967,4.487711429161507,1.676112924303295,1.2390326330939898,1.158336440679893,0.6068309995095971,1.6902865002974212,1.2231491971972952,0.8033860882758139,0.8814350854828598
188,1.8591547989528558,1.4701696056647557,1.6746219013278485,1.5711795826044004,1.5642130817897157,0.7585459484159466,3.7926154118488955,10.556147865046437,1.7322349905422112,1.4126004838174966,0.6584896970785714,1.8591108315857512,1.4759867483718803,1.6822267022894206,0.7243634006331652
189,1.964462893785267,2.2035213409156285,0.05057326535964268,1.3747122917013719,1.3639772277378628,0.7864149844769694,3.612385586022894,4.309234451218852,3.0395891443970093,,0.6333676938231112,1.9643683471682172,2.1982550558071776,1.7939030927713064,0.9002079877094652
190,1.4707486907988165,1.0512721470791384,1.1960036973767845,1.5569424485755894,1.5349506721894297,0.7827974055220629,4.0303038354638385,4.354833207693275,1.2496460005873478,1.3672702363181926,0.6284777104787076,1.4707393371657638,1.0579102355701553,1.2010518758982722,0.7389486856330912
191,1.4606489376211749,0.8435001683379175,0.5116128796418629,1.5250123303967817,1.4713014975724426,0.8043983892123031,3.3476198627742044,4.463660642914357,0.9609188181098051,0.921308823628664,0.6357360191111145,1.4602997744303863,0.8494218341329791,0.5163616594504374,0.7322948215311477
192,1.7866793669065693,1.0105114964393993,0.749110369773601,1.5133723894458138,1.4908883055165314,0.7382494109148638,4.093735805799387,6.333309079629058,1.2998798765626622,1.395389185020816,0.6668815377411301,1.7861750909341545,1.0158195563445975,0.7527424897519062,0.7835614293655743
193,1.3901478603661759,0.9744485817422626,0.8033112761690537,1.5038483281207258,1.5109267941920435,0.6484429043373758,2.9789356235764144,2.8360009820399936,1.1013915630967654,0.9193652761689953,0.6547956803312163,1.389990070738506,0.9808738630088341,0.8095927812169158,0.7179683617880943
194,1.7640495287841342,1.81850665201278,1.8660063818005352,1.5677551466657038,1.5590832935920798,0.6708301095882243,3.1072709783111154,3.9231864727236414,2.1406011021990836,1.842087288690799,0.6528756675646988,1.76252434395972,1.8233974791127003,2.169153945971331,0.851869855508835
195,2.311883184322993,-2.178427983608161,-0.13345520071483213,1.7754537798811705,1.7807048887996375,0.6626291565427773,2.616853215035183,2.8107621642089824,,,0.62595550513784,2.311289533624192,7.150365266632897,inf,0.8370989140325533
196,1.7548912663363367,1.674681081649617,1.168908849851341,1.3402060884064766,1.2720427621405463,0.6129030528596034,3.1444303159835316,5.721144061047741,1.959875728080509,0.8837563545488277,0.6447042257417027,1.754849115207958,1.6802498181298788,1.1767602408010513,0.8192464226934779
197,1.7259666115301968,1.1269983869082902,0.7043394999382948,1.3979167585131096,1.4027184751553627,0.8219976493404321,4.479583654469628,2.7021292805290136,1.4492694548952996,0.8111463030185703,0.6566669596287297,1.72584689253734,1.1276145113387277,0.7040000002607527,0.7611176846038222
198,1.6966688523217595,1.407761757192146,1.45025131889598,1.350473085248866,1.3627840858846374,0.7857481095000871,3.5748269311898766,7.535946370602682,1.5029306826510394,1.7698167575626567,0.6566669596287297,1.6965705088917251,1.4134509110643936,1.4506003897709039,0.9331283117098166
199,1.3445837135841736,0.9806615544196382,1.0903996546674852,1.4155818310914552,1.3879615155112501,0.6149750628974743,3.352732983071998,2.2154161653297835,1.3187612828675865,2.1378683288958498,0.6425374456860184,1.3445128271049358,0.986814734754764,1.0945041007608165,0.7651550170775012
200,1.6068677691573376,1.4111962722202396,1.6129206628982096,1.3677826824168,1.349421151981831,0.7931922319448613,3.3484276850335775,3.7772444937882304,1.6130623032065878,1.8131582066798506,0.6528756675646988,1.6066639855513751,1.4117684424123071,1.5561007885625193,0.742620589332363
201,1.6937064491443157,1.508605197756585,1.5479120585515327,1.525335802781807,1.5285413547249398,0.7528119008103151,3.5135393926932297,3.8899645561809995,1.6907552764301108,2.169306045913841,0.6509067234006624,1.693483993293459,1.5121466048247212,1.521079672404007,0.7257228916583491
202,1.7388511424162318,1.5805656949135327,1.1123856987880054,1.142138415473109,1.1273473511384777,0.709376804861577,3.7819432379478033,5.01466097873638,1.8623157826573524,1.3982012985069467,0.6153451465759925,1.7384082937310603,1.5711218994052711,1.0716079474764348,0.7492448047429728
203,1.8434019552177574,1.4837125774241424,1.716282780024239,1.4152581589339788,1.418555087576678,0.7536013481401238,4.514611872674229,9.182276756113286,1.8091638107865053,1.636966617714148,0.6684167106117298,1.8432633120951707,1.4868544878860328,1.6990209656796122,0.8197632838138913
204,1.8694473730533552,1.5691953557999463,1.1708694276857723,1.4983217872829504,1.4645352765430966,0.8393935803494776,5.2765383270955235,8.26299309191867,1.7375155369533801,1.2827506951033802,0.6425374456860184,1.8681366808258202,1.5587204476169128,1.139092344392077,0.794384465074827
205,1.7715595934992165,1.2809783266741708,1.1913218213265582,1.4896864203213804,1.4505854980967592,0.8008785002397252,3.488661462379699,2.4465653446593447,1.4677444445849763,1.5065463416858396,0.6509067234006624,1.770911636715217,1.2826851822839138,1.173898256010475,0.6294931333907448
206,1.444290984498831,1.3143639324276841,1.5508437827837733,1.6023782476749153,1.5745952524449172,0.7849439288680151,3.1846297993797745,2.764498746673502,1.560960781921569,2.0157833548715973,0.6602640781246099,1.4424180163895464,1.2882186833854594,1.4463650961281043,0.8376966810216637
207,2.3898868756217553,2.161879017089337,-2.8143754226056164,1.5917305754253857,1.5614416589458187,0.8377137069247066,4.8290490930575,20.535729785065925,2.39699659594074,2.8229775154533443,0.6528756675646988,2.2621898561885785,2.1468654508732223,2.476721065201561,0.7717731550597992
208,2.437405563444082,0.35270893590105246,0.39393994903236296,1.2420049806234608,1.1580262599555007,0.776645681469317,2.625670301323254,2.471943026833009,1.998425836852259,1.9349994427484059,0.6207552362147116,2.1426416995659276,1.730694923472385,1.1991740747760309,0.9544747907789527
209,1.900018230975149,1.732158556805727,-0.6056756792486784,1.6593158453671242,1.677428554740875,0.8313289552685956,4.38948731330474,11.931951349218284,2.312448964747216,4.091425111291443,0.6309483474627791,1.8992704436138341,1.7288275382402434,2.3858394211059633,0.8332154326848127
210,1.705949114775556,1.6864284155193592,-1.1388559197328023,1.6220812530153004,1.5991005891333696,0.7631731338248917,3.417610036498694,3.0048471297998085,2.2387488766230677,4.8934332051674465,0.6425374456860184,1.6970555337587574,1.56235297563202,1.694531441028933,0.6814531520074126
211,1.5889987343489755,1.478896262910483,1.358216071034382,1.7176280075176484,1.7149762449849475,0.77836692863629,3.232463129868878,2.943608569126987,1.6966020602911356,2.228287721375505,0.6284777104787076,1.5887642049434678,1.4783447314527507,1.4109392421525337,0.5918571797457679
212,2.107269566362921,1.6477794120855869,-3.755048978448508,1.3908096323318035,1.3742388415572762,0.7974867235440619,4.923989894329751,19.347452187680087,1.9845650931946512,,0.6333676938231112,2.107109687893959,1.6545794362336295,inf,0.8653735262018727
213,1.2906131616906185,0.8184662387450421,0.5870763698081167,1.5990690676430952,1.5853917601231047,0.6798304282080414,3.5257601364708697,7.893679806125228,0.9402041289493038,0.8244200027094468,0.6357360191111145,1.2905398356072995,0.8245519121903977,0.592458578262862,0.8142907411404787
214,1.4296516084395148,1.0900072363911784,1.4491247321597363,1.3813039839236132,1.373296763207686,0.641538258478662,2.640041831170147,3.491069092758157,1.333151382663838,1.6276740024794607,0.6509067234006624,1.4293874511448301,1.0955082068595334,1.4525551527462377,0.7335513181095488
215,2.2110580291481075,1.8222924347971565,-3.995114937190194,1.5476665715044529,1.4726620762411333,0.7307073590981954,3.10383663831153,5.432202508416879,1.9464511262835087,,0.6468212168108125,2.2102085048945144,1.825867149203611,6.678342114654332,0.8551615463488635
216,2.174224420263867,2.4276068644587108,-4.601831284722578,1.1283990573629659,1.0956889758014918,0.7707908492746846,4.167482590495626,13.875101226311696,2.4277371247752115,,0.6425374456860184,2.174094159947365,2.434414927306241,inf,0.9296763115731137
217,1.874365122682279,1.8794130367338853,1.236957179933909,1.259826984492776,1.2453229066526599,0.7808650162960569,3.8894887832776748,10.620273899199416,1.9166806516333452,1.2592815930166594,0.6357360191111145,1.8743442942344735,1.8859118227216904,1.2404288462869237,0.869037636102129
218,2.128736678864603,2.6751491246142165,-4.80388580347882,1.5149155504510707,1.5072180309075967,0.5640756025440616,3.4695456731176946,16.013187647403292,2.883974028185899,,0.6008849035917525,2.128351713049844,2.6618102582880807,inf,0.7932912536118053
219,1.7367570523182077,1.538001270999265,1.3044153528787632,1.3198314855412514,1.29613219870849,0.7008575833651344,2.982979734741021,2.7791256841444274,1.7826870597174986,1.2983901742381105,0.6357360191111145,1.7366401700069756,1.541749782393633,1.3113444254576438,0.9447868021827551
220,2.016310838450934,2.6089885207553176,-4.6252993592062515,1.7511856496566935,1.7550360105272513,0.6923169121834645,3.6596817845967524,7.166212922344821,2.9911425903868234,,0.6180765742263259,2.0161538024439176,2.581268696753348,inf,0.9115689528418557
221,1.582380463452907,1.26412656081962,1.8906946148056196,1.4879261953258633,1.4843295853304947,0.4001360058148391,2.9040114774200485,3.818847613473186,1.636857446607417,,0.6284777104787076,1.5823092450458478,1.2676886187120435,1.8433965556450391,0.8480367897936412
222,1.583514241791446,0.9814351156700902,0.567194771582332,1.609863043795334,1.5907617678511576,0.7683621561158167,3.766750995387818,2.159610028899837,1.3513314134346046,1.1192233920962418,0.62595550513784,1.5834453321598467,0.9881818278327194,0.5738949453528949,0.6520086934942602
223,2.1484344131667874,2.4533968715557903,-4.601831284722578,1.6384127149174146,1.6117396562860875,0.6982923311549288,4.377137121947716,29.50138667755209,2.4533968715557894,,0.6333676938231112,2.1484344131667874,2.460074674086819,inf,0.8605087723436314
224,2.3283460348724527,3.372097538518234,-5.700443573390687,1.4524421256352662,1.4391908106322784,0.7537252215979418,3.5113502678580764,17.448083398063694,3.37566281309195,,0.6097226960127671,2.3281308471840183,3.3789905287376976,inf,0.8013395204565683
225,2.238468155909029,1.6599048659909097,1.1055732840455215,1.2289798143004629,1.2202945549522817,0.6315979007640911,4.266803872694574,3.0487040916537094,1.852082061352739,0.9136093176985088,0.6333676938231112,2.238254926894211,1.666020391743109,1.113048963609732,0.7612408742908604
226,2.02367882733606,1.5819601997239587,0.9955634131135729,1.7404468107318551,1.6770433115839485,0.8507339538847614,3.9452356703581954,2.0851397577711217,1.8851607013267553,1.7884093823427731,0.6333676938231112,2.023523402835876,1.5879835721604028,1.002591841736114,0.939403309302997
227,1.9275679501810237,1.575651045873444,0.8075801293310461,1.0241649211515136,1.0224435626179322,0.8122405081406656,4.945559978975519,4.974308922182968,2.2128617184300894,,0.6547956803312163,1.9275028302614312,1.582393968324065,0.8142803031016107,0.8011912871928214
228,1.9968891250947036,2.604942159627874,1.0952622017828268,1.2224457358538523,1.1859209680047873,0.8530247132327666,4.3044205801417545,6.680458650815803,3.0275881350252045,,0.6333676938231112,1.9965720638575413,2.611937023396065,1.1019623755533916,0.6301050871283945
229,2.3635069609244055,2.2383243237981723,-4.601831284722578,1.4485543021615672,1.4358152671220208,0.8662886232378071,4.426857268199571,8.787330540685012,2.2384340523317734,,0.6468212168108125,2.363397232390803,2.245111854862803,inf,0.8554702796925501
230,2.065763390156427,2.9415330026743143,-5.0072963928307415,0.9509750758167549,0.9269460290064169,0.7577659607779779,3.937155275223225,26.489424693733344,3.634685758796773,,0.6125606311107803,2.0657578145939137,2.9482163807678567,inf,0.8910626196557853
231,2.1128658131693,1.929358160350776,-4.042223973520076,1.4537081012765702,1.4403302726280844,0.623645998295469,3.6886611046930313,4.250857520085974,2.2705894824787265,,0.6284777104787076,2.11279152136139,1.9327628766912786,inf,0.899179282985958
232,2.268948638216,2.7476206265954763,-5.016569264811476,1.5487147803197325,1.5089483373104648,0.7243966680947519,3.7585548577290835,46.83990896058474,3.4315081485004666,,0.6380535849069913,2.26893542489022,2.7517502050595377,inf,0.8670653220074654
233,2.209634073687505,2.392197211035073,-4.601831284722578,1.4880283582010605,1.460846061702755,0.7101457496111064,4.307273631542739,23.08304265647304,2.3933458854021676,,0.6097226960127671,2.209600848404275,2.3989082388493315,inf,0.8415589153494158
234,1.8184471917527874,1.7477995156897106,1.0322344903947966,1.6347136827841002,1.6148682759750126,0.6137238000720543,3.6089490467510235,5.526838750336307,2.09037529970104,1.940325424368615,0.6584896970785714,1.8183088044615916,1.7528863843056866,1.04066398537161,0.7326071195846562
235,1.6748370004839657,1.5406999231187195,1.788409382342775,1.0855621149244294,1.0659960964146056,0.769170701465246,3.708308059946585,8.295305909811237,1.542404156626294,1.7867357417847434,0.6233814453054027,1.6748064075344216,1.5474083185992937,1.795109556113337,0.8655030568129617
236,1.8688373183172682,1.407866785129738,1.727242202498454,1.2773844754702093,1.248118671966972,0.7362431552742386,4.427919177044118,14.125559713123632,1.6273987204953555,1.5384298714308051,0.6233814453054027,1.8687845124122706,1.4137413395323861,1.7347984303023958,0.772277975391461
237,2.3027092154548248,3.3000909965729415,-5.602800212027766,0.9640255078433512,0.9558843929716421,0.7857045008713289,4.024585016245402,5.83304946781038,9.098190936502919,,0.6425374456860184,2.3026962102784534,3.4178933826941287,inf,0.710932714077244
238,1.6250163396078527,1.4963501436422935,1.4269205247461003,1.4438410163567315,1.4216749560782365,0.8108197282240822,3.563561804257361,6.527234836615614,1.871180368202472,1.5077630730378329,0.6602640781246099,1.6250028647051544,1.502357851327273,1.4174463202285734,0.9191772186709453
239,1.771956841931875,1.7312621541225928,1.0952622017828268,1.3594777480118532,1.3350469461764054,0.7663534925120514,3.6473432034465096,2.2074703906433495,2.0170879052690807,1.214901558744503,0.6068309995095971,1.7719568419318752,1.737939956653621,1.1019623755533916,0.8478657625069211
240,1.8206801601034028,1.4818681404889138,1.295932897244978,1.4233461800303602,1.3823842391825942,0.7999930409262482,3.2818171555660696,4.592767092493414,1.6826484449722925,1.6237674284149795,0.6509067234006624,1.8205705510821746,1.4886555520411706,1.3026330710155427,0.7655141035349828
241,1.6588181151233456,1.3335752571651303,0.9129406449888737,1.606071317237051,1.6191951810379288,0.8123310959382285,3.5850209068159753,9.901202927234346,1.4025830017959984,0.8439477735019216,0.6309483474627791,1.6588032419794296,1.3402679328400762,0.919640818759437,0.7352926654818618
242,1.6471656475063932,1.7506928328902482,1.2006227174406532,1.6965812103481133,1.6681235307391635,0.7176113927428966,3.379435123352801,5.0700311072929845,2.1073936447172614,1.249412881610086,0.5947193981915972,1.647139779618112,1.757396503309558,1.207322891211218,0.8368080961919079
243,1.6786258523015647,1.0260854475351309,0.5944869138703379,1.6318790232111133,1.5913549917025573,0.7176839154568115,3.491615044758852,3.0473899399902873,1.0773952229288468,0.9469822812636999,0.6284777104787076,1.678609371295399,1.0327797310723257,0.6011870876409025,0.7256770240343348
244,1.7740258171183536,1.5881311912445606,0.9486421170225996,1.4973715637469458,1.4814557408690983,0.696028856229592,3.008947868206693,3.7731043481928723,2.130511601871133,1.0997115973323695,0.6309483474627791,1.7737231067419565,1.5940394988339615,0.9564144961111891,0.7458971108233595
245,1.6808332513214084,1.6217150492709083,1.7013980053531434,1.4518347160064278,1.4111649461994191,0.7502637017765267,3.0888380534827564,11.098752677374913,1.822404420778139,2.1938744904509373,0.6566669596287297,1.680814575276328,1.628411527847017,1.7080981791237073,0.6564200112053854
246,1.5311006652795198,0.9117710619044437,0.8576058177956112,1.5425735421186306,1.5255565721325062,0.8358355168265384,3.8958703234056307,1.9552475235502036,1.0633741369003802,1.0231888619020646,0.6547956803312163,1.531088946023124,0.918450559927585,0.8642576854306129,0.6289192945115142
247,1.5611810929762162,0.9612086500665245,0.6097543860011276,1.5006763434799681,1.487550315429767,0.9336113093730468,4.328548422708811,30.03698133991778,1.1948276054073992,1.1493294230531035,0.6447042257417027,1.5611769888168467,0.9678905567569233,0.616454559771691,0.6675193735164904
248,1.672895547376682,1.1652621500386322,0.7688524124291667,1.6678425770626086,1.614600317760929,0.8340030905518729,3.9439828788430176,1.4362246429434702,1.4639302420274571,0.7685526342249321,0.6097226960127671,1.6728511410249602,1.1714006812576514,0.7746870614047587,0.5479179899488794
249,1.3146768399478597,0.9060343571358143,0.6170832262976185,1.6006977989636404,1.5815745737944145,0.5332940563553379,3.2092424919589004,2.2621933072413256,1.117662880900197,1.097146726275851,0.6841113288387766,1.3145733625063014,0.9126981361822148,0.6234950046152893,0.6358209532867777
250,1.5112794112471972,1.2676618697476472,0.9783527682120252,1.3457958816544537,1.331220460078896,0.686808642192636,3.4065790967881115,3.241802432471046,1.6471912718748847,1.8076877067324655,0.6284777104787076,1.5112027217188626,1.273908525519809,0.9847372694089317,0.7984232277969295
251,1.9742378950304185,1.783904408096898,1.8051268397353422,1.6061675590695397,1.5805987848474203,0.8285926478975467,3.1634912325984246,8.361655688372863,2.336809281783442,,0.6528756675646988,1.974001029221839,1.7905602845298454,1.9696803683892252,0.8499568432617113
252,1.931394126759952,1.823139297575422,-3.754533424335374,1.3526133067801362,1.307631007400011,0.8360192086081284,2.963562159751949,3.61904083291547,1.849834836042342,,0.6207552362147116,1.9313280969563609,1.8298831299100415,inf,0.7142415202876785
253,1.7536500806151845,1.644208399781457,2.299235006108763,1.478759900714606,1.4735653076629696,0.8057620459866796,2.9898273638992037,2.4196586010178613,1.8742127091878726,,0.6447042257417027,1.7535007571109646,1.6510355258167053,2.3059351798793277,0.6849518708964966
254,1.5075693618718375,1.2048412912883846,0.5509903926839121,1.4159314416073985,1.3961068214125352,0.7615657362185051,4.041906123821567,11.30352210173207,1.40992422376828,1.367667251805692,0.6309483474627791,1.5075333617496645,1.2110723532920622,0.5571344492634799,0.7138331507545844
255,1.426138283080433,0.8838594359761027,0.5046420741537094,1.2991063393411075,1.270791000208799,0.8580114201826746,4.160854864277707,6.478224838978123,1.1264644700863735,0.7361997248176199,0.675384900321601,1.4259133758069198,0.8897569567357815,0.5096630291742412,0.8728910997403646
256,1.7275253992074697,1.5301979243290345,1.3125626302118794,1.709130898481823,1.6611778235143493,0.8352327984111644,3.124706251286247,2.8365042849849664,1.6438451762968602,2.3027465700628467,0.6602640781246099,1.7272834500436902,1.534441886331871,1.290430814326913,0.8455215763175209
257,1.6070275056328478,1.1867698954324937,0.9175057553660162,1.5365550399600896,1.5097687839590057,0.8030110076214964,3.8654881792521687,4.5975815622821985,1.513939980274731,1.477544766778448,0.6547956803312163,1.6069964507841157,1.1931690392259002,0.922615515779602,0.747254166788776
258,1.7962754079958476,1.170150006705877,0.9903012561685527,1.2402084595902305,1.202120434197382,0.7014573488845647,4.417894515768195,6.464014673879545,1.314860422344595,1.2286407512781397,0.6468212168108125,1.7962361412551335,1.1753456720665745,0.9952494286014332,0.6827447114971621
259,2.1220811408617206,2.479750143860857,1.0952622017828268,1.6194972044746376,1.601285934554102,0.7966347991639084,4.484739060067693,7.510395695826438,2.5324506734347145,1.0426184682974058,0.6380535849069913,2.1220243447732843,2.4864847424803216,1.1019623755533916,0.7017206108499482
260,1.8067565231515148,1.1987172620829123,0.9684207478459448,1.5156136114592886,1.5090590181019616,0.7993440229919907,3.5181335784517573,2.3820149436833287,1.5217083676443046,1.6658217140901133,0.6357360191111145,1.80639944596757,1.2036571548745745,0.9685811536679857,0.7902417506067217
261,2.1280438898333074,2.2411635721060152,1.327886024566082,1.5377432712725705,1.5175244100636671,0.8588075782122423,4.752243622975601,18.704145719985235,2.27159222260822,1.298362294127653,0.6713451011121618,2.1271389697695318,2.242520016095688,1.3408124769417777,0.5859385493790481
262,1.8519668515335448,1.9125000226049174,-3.764466874138462,1.7271252252887543,1.728438791584843,0.7441558513353018,3.5845472435903316,11.997962057162688,1.9713899208808843,,0.6357360191111145,1.8518633932977604,1.918467167225169,inf,0.891948460654622
263,1.8856943327086992,1.7549578036024158,2.0564413501942895,1.5888247831853466,1.5724350273612426,0.8857061719845354,4.43521724209015,10.770208504699768,1.9739394344743466,,0.581717464821069,1.885264612424915,1.7609811559395,2.0642256944425825,0.8085110655892355
264,1.831964332205545,2.076719771957086,-3.908684104162631,1.7447714547029964,1.7468349161425436,0.7669471137891384,3.494626445016264,14.14555800954491,2.464786394814378,,0.648888643467878,1.831956658979468,2.0834052477141927,inf,0.8274717497788725
265,1.7319660868624949,1.6550544466667652,-3.38702053352926,1.06212481339507,1.0193512346826696,0.8237146043692007,3.8810970226300983,12.29730256602517,1.7195860500357354,,0.6008849035917525,1.7318566764950118,1.6613725355179665,inf,0.9371791940381752
266,1.684338760064088,1.0107929617629,0.6665596159200402,1.6129981440110783,1.5926777145760413,0.8430076258032646,3.686219475318555,4.725084826443049,1.1245387974114454,1.117843669395253,0.6668815377411301,1.6838621739182589,1.0155587004858968,0.6693093171204983,0.8400489727769166
267,1.8392592969828092,1.1756134635933773,0.904772035701725,1.622724264829235,1.5885966643068594,0.8095528583114204,4.873016167425837,5.826049236424957,1.4399790869762255,1.4069931615374411,0.663668482632973,1.839130640644073,1.1804390557237736,0.9115228717806502,0.8495737551338419
268,1.524829124285736,0.7823796659995934,0.6815615817017382,1.62267724341128,1.622729104262117,0.7894004011499732,3.5257538565639637,3.2096911941405697,0.927297470688186,0.9464248210049263,0.6468212168108125,1.5244842065539368,0.7881512222936105,0.680655383056459,0.7319433679146782
269,1.6563665048467682,1.3473478842016111,1.4419544184149706,1.6864978664649546,1.6108325766070364,0.8050214170113854,4.3369319516275056,11.117193160091556,1.9812023673786336,,0.6547956803312163,1.6562383906753768,1.3497687108197125,2.0682782196776226,0.7965947173404518
270,1.730280180568646,1.5012621802729351,1.3669388369957134,1.726991187390882,1.7053005336855132,0.7711769506604804,3.7194809700494993,8.177281347874278,1.5400764076093845,1.5901589564566763,0.6380535849069913,1.7301627710114045,1.5074995309418524,1.374196872185631,0.9098469593249515
271,1.9548719962924588,1.2253707458662466,0.6555574016795758,1.2645018943776174,1.2551574794565847,0.8146522657555472,4.630217990214439,9.905280386363456,1.4421065412061564,1.170786110525541,0.6333676938231112,1.9547490977225177,1.2302622131929268,0.6577966254912285,0.8063649054203184
272,1.7901179231330362,1.798582406491449,2.1083931568809193,1.5793930185048164,1.5752339129420097,0.8852979429872302,4.221168235705704,31.42574750639014,1.849966314547053,2.057099535575055,0.6284777104787076,1.7900276363832963,1.8039457599766726,2.1164980664470288,0.8586379395307506
273,1.7134819468297307,1.2247487217390012,1.1006444630099628,1.6732413552440415,1.6839100465342327,0.8114790617613677,3.7622644308609634,4.95764099022087,1.5738430178891343,1.4763425265578105,0.6357360191111145,1.7133180429214925,1.226243959165444,1.090244038997593,0.7266228607057633
274,1.4681890061816258,0.9216070909260108,0.6989289633968565,1.68729918520686,1.6027296245462543,0.7399996299028753,2.9762388899776333,2.1091498200830965,1.1911006529208445,1.2701253202386307,0.6566669596287297,1.466733443635853,0.9075863715227397,0.611242129741321,0.8141416314746911
275,1.584943371467961,1.2736600754640246,1.1967090097694189,1.7027078575312184,1.6770882266862952,0.8042176667902449,4.418352369556352,1.9671408323527704,1.618327814716442,1.2704423542019547,0.6309483474627791,1.584745299843729,1.27937408690837,1.190363642044871,0.6871606342135248
276,1.868622065234526,1.4097089114969665,1.5626905608559065,1.6935676167156513,1.6682242111169894,0.7801885732907291,4.720740178847774,9.527088961069282,1.5709709476923968,1.7092603695015403,0.648888643467878,1.8678488903353094,1.4126068736307174,1.5478579733362743,0.6462916682351078
277,1.792554774919463,1.8800695179802471,-1.5887880847484044,1.7576218379907167,1.7466110423247472,0.7694032601297627,4.866157472759604,25.312958704738143,2.0032685371489394,,0.6447042257417027,1.7922262448174988,1.8816551337190022,3.042335688546757,0.7014113991995446
278,1.9411126938093994,1.6492197542478582,1.2933930034723242,1.592448305127767,1.5885081677886492,0.802056206822017,5.8353009596341,17.33786977076045,2.250668504984172,1.505546596326941,0.6309483474627791,1.9408783851942915,1.6490611210647412,1.2737135974885772,0.6437758318700647
279,2.3049840455315422,2.202158132334729,1.1899513086391336,1.4372435007729831,1.4179220057394972,0.8006478374915122,3.901759638050701,4.619946934221763,2.3109350488793203,1.1021336689690837,0.6652988471865258,2.3043644528941227,2.188469603699717,1.2176374062131579,0.9200719641409376
280,2.0273417054516183,1.648557602293418,0.8212353021248577,1.7148305752863326,1.7138476153110336,0.7824720509111892,4.60394776299103,5.243513886248713,1.8855193708916356,3.4239444092178926,0.648888643467878,2.0242801823548615,1.6522316229504128,1.553109029956527,0.7584039054683298
281,2.2139793500849088,2.3156977355608728,-2.3502520606068016,1.3844888720637285,1.3712331898200434,0.7881837891991768,3.9885408687046935,3.50156828664279,2.794271486188774,2.484851018736105,0.6180765742263259,2.2030414626577843,2.4903529567451463,1.9779720815149764,0.8424629357321494
282,2.579347915677224,-0.1454224883182964,-2.4339254273589277,1.7020425314334993,1.6988837281448117,0.749158576831351,3.673218700664108,4.208115859563043,3.828989383982471,,0.6619902821573977,2.5746854890347866,3.425707688817497,inf,0.5934406245185191
283,2.864000403719183,-1.3885192571584002,-1.4563633831832477,1.5182447852888117,1.4298677407156835,0.8197523415289677,2.5262957081793864,1.2250674148169076,5.038956853125478,,0.6425374456860184,2.8065822321664813,4.158331460655604,4.442651256490317,0.8870891271131648
284,2.2752903775301268,2.7306499447049357,-5.0059403222350625,1.5029867828296544,1.470621422599609,0.7103010679977363,4.423581582017372,8.558597501464494,2.7776221791296534,,0.6584896970785714,2.27237925093698,2.739924100259973,inf,0.7443512610211916
285,2.0582742423052514,2.1154078985336264,-4.051487783447139,1.6326428287587644,1.6410090926825383,0.8249932620969408,4.256238239248741,50.36270790250918,2.3409675635059672,,0.6207552362147116,2.0568541244889436,2.0461948783633037,4.819609296672155,0.6466508566935342
286,1.902999034917081,1.6002725566329563,0.18234482626255177,1.7250995049570892,1.7266228198565197,0.8251914969392397,3.6399314592555947,2.484940179763271,1.7546610699963139,2.4773425450781725,0.6528756675646988,1.899493169031437,1.5775059260470004,1.7260080916652745,0.6510124303422961
287,1.7431345619394563,1.4054985141942709,2.5484604103716775,1.6793085613539176,1.655110722976202,0.8536606530933801,3.966336507239267,16.001498758957098,1.5050124294321237,2.4495560977229243,0.648888643467878,1.7425249593503567,1.406617527503169,2.561328975953472,0.8457085831914226
288,1.6763519845691341,1.6301623643984775,2.292042568187354,1.4463510372242383,1.436052987619936,0.6904373785460747,3.2371561312716293,4.620488428517229,1.7664291298044588,2.4919415044075888,0.6468212168108125,1.6762308246546023,1.6342121937390888,2.3132967485889733,0.8357707174279645
289,1.9179847032489594,2.0878383804921077,1.6912704027643377,1.6017350063725313,1.5793574967106754,0.7528284088794786,3.9301767681248676,11.658358419460658,2.1567964518632565,1.653338751957326,0.6180765742263259,1.9176250810777944,2.088098289490778,1.7047480922384253,0.6315715518136586
290,1.9059634932087017,1.7997332184775026,1.818482488132123,1.3928153332555122,1.3868828800150814,0.6921538087872806,3.6127172185702516,2.5629799357103398,1.8845087728596182,1.8871249152184648,0.5947193981915972,1.9055255835265044,1.7990316833066617,1.776081656508825,0.6414734209945728
291,2.137654528208897,0.2144820003463388,0.049312385778536694,1.1812070830640484,1.1642402997584922,0.7369637666117613,4.59123228978643,7.028428077125135,2.022882375811209,1.6977124042892398,0.6097226960127671,2.071473372030659,1.8918429277850375,1.3827917305686885,0.5780756568457628
292,2.354127852174159,2.379764498079685,-4.733892350253844,1.7729769538137135,1.7685592032048534,0.8034677605895821,4.029672830960392,16.50895980140708,2.483899830570453,,0.6468212168108125,2.3405177471626954,2.2780754591575363,inf,0.8360478352443755
293,2.089226326857224,2.392381937659361,-2.3306601965695877,1.4337503541888157,1.396971922439293,0.8856925501676572,3.541282507391726,1.9032502027120395,3.1320940882995436,,0.6068309995095971,2.074387667377157,2.205483582587847,1.7205219278872796,0.8693575267894789
294,2.0699536343526117,3.0218654228585877,-5.091819057211199,1.4589905527463318,1.4172668121351233,0.8481974407705256,4.597210979669331,12.988218658730194,3.3046563849185944,,0.6153451465759925,2.06795224163208,2.838323037139933,inf,0.8913772713222808
295,1.8756614824450097,1.2938803425933503,1.6270129251969951,1.6396435150388693,1.6399796754755867,0.7778912736208826,4.068289323188888,11.469665204531644,1.4161371602740724,2.192329458207386,0.6380535849069913,1.8749237104888237,1.2941043086518096,1.5526759831034096,0.8751042017245441
296,2.135767779264182,2.248049968967098,1.1029803411212393,1.5477206046683751,1.52857985286771,0.7722483425693452,3.787078910978556,5.211142998366425,2.6644678416357297,1.9123987178340927,0.6528756675646988,2.1351891864167665,2.247726732441999,1.3651668146940152,0.9402666268603879
297,2.0270243219821147,1.9938617999824277,-4.020886121964542,1.5601592309607293,1.536676601211452,0.633553711592557,3.5961505685819324,4.4900873580478775,2.353080585144626,,0.6207552362147116,2.026722597347607,1.9918962543463583,inf,0.9410085414444952
298,1.8177444900819728,1.6526355643262696,1.5335662515372177,1.4787767443676776,1.4250481236532035,0.7397607746971732,3.9950921875074124,5.503342557787935,1.7913925670498643,1.6014998594049905,0.6447042257417027,1.8171456556184709,1.6559058298116682,1.5442727968169134,0.6964281942599431
299,1.6607153143475624,1.7185378195830783,2.317840352574764,1.4529923138153964,1.426213615787505,0.8262706503421211,3.8877831134985184,10.090967959165217,1.9138882277126485,2.122649475180045,0.6233814453054027,1.6605557836127105,1.7244402187114367,2.3254754604828505,0.7227880296325816
300,1.6290519688486993,1.5046285641168502,1.5657040656561123,1.4041042955651486,1.3608008705789092,0.7644567741360424,4.471092094253685,14.169495952435959,1.8158002166449085,1.5591855103775862,0.6180765742263259,1.6289605789229644,1.5078233572267645,1.4954149222262818,0.8317887790452829
301,2.056982039276575,1.9035142671059906,-3.1849524261525874,1.4333525775266978,1.4310934999858205,0.884186063052661,4.133509712675972,59.07978126522165,2.0941493043744495,,0.6207552362147116,2.0546838905541094,1.8860815837396907,3.323664748627069,0.7303527907630772
302,1.456841240585137,1.2652680710964876,2.2750338884230943,0.9352736689166323,0.9109913343849605,0.7330829558592563,3.223142262227903,2.111032609214395,1.5353582273920592,,0.648888643467878,1.4568122043091598,1.2712706505432863,2.2808871599247484,0.6630418219526741
303,3.915318234845165,-3.915318234845165,0.0,0.4692777198511235,0.45074156754965394,0.42500990067346067,0.8805902340605799,0.533358629271823,,,0.6207552362147116,3.9148046483900227,inf,,0.8530570777086529
304,1.766967733787598,1.9521419988849718,-3.666408437040367,0.24284172449096972,0.23729284477406787,0.5740405454421788,2.435440197469328,0.9283747451718978,1.999779795780806,7.628120503974979,0.6602640781246099,1.766286673255024,1.953739509855749,5.895779296973574,0.6643241250426567
305,2.1150008580678947,3.2140085513813124,-5.004007432031114,1.2800389835784989,1.2519236999283334,0.9176150132345423,4.0597937393581125,10.250825566885187,5.6762582570287465,1.301632645879615,0.6233814453054027,2.113710977108402,3.184606389439635,3.2760342387081494,0.9410081728036587
306,2.1093662776149,1.9065687517034715,1.6718544681862273,1.1138171807016155,1.1006184116504805,0.8231742284411291,3.7323907802853893,7.892172809102622,2.239227085080191,1.3489273889563544,0.6125606311107803,2.108939012468859,1.9047476467357871,1.6834512727328863,0.7139560643389602
307,1.800314981594671,1.4852529681483393,0.9113075507191373,1.4155102715969134,1.389032297490522,0.7981553030103224,3.7948732042902296,1.9794009536453991,1.645812889327653,1.2530927006530623,0.6447042257417027,1.7982471353636094,1.4433856766272075,0.9103408630679201,0.8310402690750729
308,1.230616449938894,0.7390971244675713,0.43237156922723563,1.5262511780663406,1.5287334074471515,0.6541063371602229,3.23918718768503,2.72402727656692,0.8884256163870331,0.7358704006374699,0.663668482632973,1.2305449599289353,0.7449771038894785,0.4362580476454817,0.6900789747365904
309,2.152299418083221,2.161849794187575,1.3829442742346085,1.6938078957516556,1.6924087850058014,0.8642066138065947,3.932865747901035,1.7841736759870939,2.5022238065145106,,0.6403206450210053,2.152251211693488,2.168575803108337,1.3896444480051726,0.9159218750985972
310,2.247888668333994,1.9125228463758415,-4.1604115147098355,1.7251950589359835,1.7152155421634943,0.7871270902840876,3.569682325382424,33.211564630671695,1.9160468197032638,,0.6727386042041725,2.247781300953372,1.914128580764495,inf,0.9189180894010893
311,1.8715007914156656,1.5619476959423153,1.5704978185874792,1.6729041418885582,1.6497123449725892,0.6294364595915957,4.059048192799553,14.664532176110129,1.6319111413999439,1.5007273098909921,0.6668815377411301,1.8713078546545232,1.5675913941916437,1.5784250334008854,0.7338439265205619
312,2.092864562011976,1.8158195421506549,1.7884093823427736,1.688571059770613,1.6322304573019353,0.6619523553604335,4.832619537897662,9.757833477452714,1.8158195421506547,1.7884093823427731,0.6284777104787076,2.0928645620119766,1.8224973446816841,1.795109556113337,0.9043509240364483
313,1.8018407065270416,1.2394706883541895,0.8640226223961185,1.6818574818843954,1.6365201197671158,0.6736530149213047,4.156580630323192,6.567626977162797,1.25988269657634,1.2833069678971751,0.648888643467878,1.801742467281457,1.2457510463869201,0.8712184799105654,0.6753033297937157
314,1.5833392557214456,0.9602978118267382,0.3967431381256552,1.1656997685816737,1.1620052070469904,0.747042028314525,4.13212929603973,8.47815456693338,1.0706274702277934,0.7725198300934348,0.6233814453054027,1.5830664930266458,0.9665564714810457,0.40368859316234723,0.7573076344047364
315,1.6621220361819002,1.1479497793126212,1.0952622017828282,1.5255271708574183,1.49397034903396,0.7550169374628111,3.4742046717410155,7.123882395486401,1.3296475581536775,1.523106468971529,0.663668482632973,1.6620771414251632,1.1546724766003877,1.1019623755533916,0.8755711933040484
316,2.1842135768014708,1.4179854816733601,0.7095654429927363,1.6875982579001072,1.7024569952973132,0.7317949769822368,3.1163528634053015,2.1108838486764863,1.518786784970424,0.8144865426129538,0.6652988471865258,2.1836175739300026,1.4241940570951521,0.7172047489319475,0.9510007033729074
317,1.4511554127654798,1.10827174783037,1.5251693269520663,1.078777907593025,1.0512715730557785,0.7012609446901217,3.4028574640656406,3.4445559988884997,1.3547019046978959,2.198138889237395,0.6038851895711802,1.4511055120101684,1.1148665904990527,1.5317113609783943,0.73790130237868
318,1.8233108391319743,1.9704046978016323,-3.7937155369336066,0.9375870484330217,0.909648564775025,0.840763722034822,4.9851348201719565,22.812727636499687,2.091161286755341,,0.648888643467878,1.8231125468860772,1.975085864472113,inf,0.8427839094303821
319,1.664302421738209,0.8170754581348967,0.5079507381746056,1.6931438284392182,1.6326280446013874,0.788701562030034,3.0966331649778427,1.3970266096742843,0.9455177448403476,0.5299528810257076,0.6619902821573977,1.6641874652050093,0.8231220691993013,0.5133236177493913,0.722315339841976
320,2.445685936634719,1.8684632756360773,1.3829442742346085,1.628387662948221,1.615570334554509,0.7857596251444388,3.9122783767602813,8.97968325332402,1.8684632756360768,1.3829442742346088,0.6309483474627791,2.445685936634719,1.875141078167106,1.3896444480051726,0.901208522532959
321,2.0709393700889214,1.6835940542464525,1.2494128816100862,1.3960146207914035,1.3939546074284876,0.7375329990032025,4.300912494613768,17.964707777873652,1.8378278256412186,1.7884093823427731,0.6547956803312163,2.0708562785214126,1.6903549483449898,1.2561130553806499,0.6679054523355324
322,1.1964344926959722,0.515260724908174,0.31759076638295203,1.2913011770665648,1.2805654331560459,0.6273667892598359,2.4789292716151943,1.0185259156860398,0.572274630495013,0.31767345886997966,0.6333676938231112,1.1964088903923764,0.5217903757276502,0.3244175929897541,0.8915945168302953
323,1.6415342816627139,0.8110763768307636,0.2635250779107219,1.0812098904274876,1.0722860485929089,0.7598664778696231,3.0372034800404184,1.5643688627845704,0.9565263424620701,0.5368150874754495,0.6284777104787076,1.6413873477408807,0.8177216092259789,0.26999465333318273,0.7423425999426919
324,0.5274263815648188,0.19605438264436226,0.11362033927498993,0.8765195429303468,0.8440893218024128,0.42644998805643364,1.5475012242515034,0.6483627398421894,0.23787055134746096,0.2493554356697471,0.6207552362147116,0.527425607227426,0.20273139896641998,0.12031997632531556,0.7952688161715993
325,1.3618407492627487,0.8164088707116366,0.3646405583573662,1.754228310573299,1.7286928206988204,0.648515907940818,3.052884255488704,1.6243563677967519,0.882361654734336,0.3177325693129591,0.6684167106117298,1.3617968895195032,0.8229064072630445,0.37134138083879226,0.796223556144107
326,1.4078071139659993,0.7025989140071895,0.26790784087537256,1.6402617822101098,1.6169204550289424,0.7721191352911058,3.3054459291783846,2.990945511635818,0.8980776825297873,0.46516805888868645,0.6727386042041725,1.4077677166388656,0.7085222432013545,0.2731853053678387,0.8617069767503374
327,1.9827817509347687,1.3190743561454785,0.7539849671478165,1.1120299665540887,1.092543834020393,0.8302851101452706,3.882563623475196,5.9514410036991645,1.5057861520601397,0.8801846330646206,0.6284777104787076,1.9826778732475279,1.32533279368851,0.7587187282530894,0.8802791030883553
328,1.59290861048289,1.2743216188515802,1.7312509685028243,1.4459339695860696,1.410015327499055,0.6842332982808083,3.8857683499668787,11.381418523881631,1.6226283131197963,1.7884093823427731,0.6153451465759925,1.5929086104828898,1.28099942138261,1.7379511422733884,0.8305997542905023
329,1.8230362990445255,1.388376191653083,1.3776315185377395,1.4459400912119482,1.436622089146917,0.8210887535995287,4.137120513573451,7.113693654086085,1.4797796444899158,1.2992942449476839,0.6619902821573977,1.8227686561024001,1.3949966744817737,1.382970258336052,0.7926720249452585
330,1.920075919262539,2.376564141587723,-0.09073211779258017,1.5422063947202975,1.5365944987845794,0.825384273402484,3.794765939571871,3.4556434684212896,2.6060897381680355,,0.648888643467878,1.9185327967225712,2.37915268951756,1.71625191671991,0.8370992745013296
331,1.5657361460868837,1.367946598277113,0.8175005930860944,1.3860086840008778,1.383636088246083,0.7064701610545849,4.093312091972458,4.978134379887267,1.5012621971110174,0.8086838566091593,0.6509067234006624,1.56563370247538,1.3745587504047407,0.8243688608715637,0.7481390397142934
332,1.8096305574587563,1.759901942779262,0.9331483949402188,1.334617112170174,1.3223020011627202,0.6713170868020992,4.4699109602031095,10.908790367708441,2.105350234172798,2.9478740272899193,0.6547956803312163,1.8083632183948353,1.7608584153604503,1.2182701090267605,0.9060265289263315
333,1.641405607982456,1.8123876240301369,1.1350342050041724,1.6423963451556651,1.5735439888340346,0.48798429606635846,4.052845750169119,9.36744048102804,2.0424053732329117,1.688093185227719,0.6547956803312163,1.6402408215891455,1.8097967254924836,1.1506980418385966,0.6680026401622922
334,2.3701973968229773,3.1366523133789315,-5.506849710201909,1.7266625801390485,1.7209703054882646,0.842353182220289,4.693820084012162,12.362351045558999,3.2206650695222625,,0.648888643467878,2.36908108428241,3.0852405307422077,inf,0.9047257545560333
335,2.323207556856953,3.377236016533734,-5.700443573390687,1.7427751532753206,1.734873741955899,0.7262111199325721,3.9622993315332358,7.877371084324398,3.3774289899961674,,0.6180765742263259,2.323014583394519,3.3841067925271964,inf,0.9127292770135329
336,2.2821461034343815,0.363111076845982,0.22756910622620197,1.4982658746353075,1.517692142716981,0.5753169768963976,3.8537089646543903,4.16878768616465,8.020254629072328,,0.6547956803312163,2.2820202290409357,3.3889724227922744,0.6803264921308838,0.797785834000065
337,2.2617904411633365,2.3400408435592412,-4.601831284722578,1.7470117893572925,1.700132185528039,0.8327211344508088,3.592664338617756,14.379088651204574,2.745639955335133,,0.6699045166045591,2.2616564374956085,2.346852649757998,inf,0.9034265982900719
338,2.2055832452779054,2.801713147552836,0.6897970936746631,1.551765734305493,1.5498068162446883,0.6771150855851032,3.8221143305592404,13.488458594385532,2.8017371787044643,,0.585052858160615,2.205559214126277,2.8084149812354933,0.6964972674452273,0.9200740288096942
339,2.659260036932778,2.3480363558979636,-5.0072963928307415,1.7064216225905497,1.6582717480909706,0.7561976067623111,3.9056270573876373,4.874466738669948,2.348036355897963,,0.6528756675646988,2.659260036932778,2.354714158428992,inf,0.9361743649699136
340,2.168725688978064,3.5317178844126227,-5.700443573390687,1.4341177134721912,1.4117542302592918,0.6114970621540131,4.19132157656495,186.7652498119752,3.5318064529063795,,0.6233814453054027,2.168637120484307,3.538484255437409,inf,0.9374182690023248
341,2.2879389721331096,2.719357420697632,-5.0072963928307415,1.3784289197735593,1.3253932896349563,0.7082230874403393,5.109034525585104,7.945219276738352,3.4126376178232287,,0.6309483474627791,2.2878059555674577,2.7261682397943128,inf,0.9100215129453452
342,2.2072749131897207,1.8837307477668648,1.6060878255488191,1.226658795890293,1.2181362264211058,0.7884110770877422,3.8353186304806663,18.908155531767747,2.106874299081075,,0.6602640781246099,2.2072749131897207,1.8904085502978945,1.6127879993193823,0.8497545755774906
343,2.09179783212869,1.1243211073735915,0.5350643979478096,1.3445097054175044,1.3401980754903862,0.8495311918557866,3.974626484036301,7.0202429241161255,1.5346675716001927,0.7012683663954359,0.6207552362147116,2.0917840648782224,1.1309882302691014,0.5417890186043605,0.7376735411471915
344,1.5495714038637436,0.6040555570169484,0.4079723096955634,1.4005253103992883,1.370995804127722,0.8055919139408713,3.353576637914219,3.9384614687223265,0.7171265803712605,0.7345252198591962,0.6727386042041725,1.5495455848234208,0.6106722668837029,0.41475939517072424,0.7253148946405
345,1.6775458050660814,1.0225396329598115,1.0342468252896042,1.530720591553345,1.5111549019359887,0.7733574646932732,3.700499364286064,3.669570794937018,1.2005712519332026,1.4326895483142792,0.6380535849069913,1.6775383251380322,1.029012999840442,1.038075773872393,0.6438164405538549
346,1.8612525738325463,1.41268359872715,0.6541763110893095,0.7444858221296875,0.73332600468467,0.7948119883262676,4.257096052431886,3.655588854562147,1.6427814865059482,0.8085158963927256,0.6652988471865258,1.86118100400656,1.416030397874604,0.6348116035469819,0.6384456506046434
347,2.0620402371052933,2.028965423851292,1.6060878255488191,1.5210037465853588,1.509380688285856,0.7850661792220355,4.446125409684976,10.553192577771346,2.2521545841946806,1.3829442742346088,0.6652988471865258,2.0619946280761154,2.0356888354115,1.6127879993193823,0.6876063912813625
348,2.083176285585342,2.0078293753712435,0.9129406449888746,1.6063997623811441,1.5908381362381767,0.6012738031758486,4.103320770946749,19.85914225038192,2.6384629239092665,,0.6309483474627791,2.0828250370277233,2.014858426459892,0.919640818759437,0.9179512276362792
349,1.6322860549019433,1.9122948767509185,2.152512554852543,0.7819304197231519,0.7717252475119887,0.6588481608349955,3.5151156746836594,7.779231631790491,2.269212120689362,,0.663668482632973,1.6322517354997823,1.917445654480817,2.160774072826398,0.6974110175887982
350,0.7985324794793965,0.11441935112924373,0.06564278460166961,0.9089208178312522,0.7853600832560147,0.7154927742098505,1.9487042290959558,1.7862882277159264,0.12814192939078767,0.09759033477207768,0.6602640781246099,0.798532387880633,0.1210972452590368,0.07234295837223344,0.7432954174433358
351,0.7656259849041616,0.24130197297192435,0.13382930756150446,0.7237774096710728,0.6396682743704674,0.6533454487721206,2.1993838349420645,1.377035246542531,0.28117152796446143,0.2085412085613272,0.62595550513784,0.7655984062182454,0.24799894145746823,0.14052765092265496,0.7835946382759705
352,1.5448993912965288,0.5179580223677716,0.26694024285463014,1.082693008943096,1.029410295145904,0.8594070835619383,4.043555817663648,1.7813282948795228,0.6897037697055808,0.518051346336854,0.648888643467878,1.5448993912965292,0.5246358248988007,0.27364041662519367,0.8166249024610704
353,2.3364866446697268,1.9776625676010693,1.3829442742346085,1.2118319650333944,1.170451610733314,0.8121720533996645,4.151601979466489,5.94894769772555,2.2653446400528496,,0.6447042257417027,2.336486644669727,1.984340370132098,1.3896444480051726,0.8116515073995765
354,2.4079456086518722,3.2924979647388146,-5.700443573390687,1.6667558271817788,1.660284234980951,0.8736051550180081,6.181055028106989,121.4587577660905,3.2924979647388146,,0.6153451465759925,2.4079456086518722,3.2991757672698436,inf,0.9129470603323556
355,2.305422119981708,3.3950214534089787,-5.700443573390687,0.36324473205081187,0.3273864884764059,0.7682684027403267,3.8956725773840017,4.41420004597218,3.3950768374347637,,0.585052858160615,2.3053667359559227,3.401754639965793,inf,0.7849342817651686
356,1.9425823589626383,1.455276121434003,0.219793464428927,1.4172711402180234,1.405864207770964,0.67933384385629,3.7503628241684592,3.756237963858074,1.5606366370918285,0.11443294877110145,0.6097226960127671,1.9425823589626385,1.4619539239650314,0.22649363819949178,0.8867141310891598
357,2.5257286443082556,2.481567748522486,-5.0072963928307415,0.4070375699285377,0.36512627811694487,0.7582001416340162,3.537488320441101,7.073751320166623,2.481567748522486,,0.6284777104787076,2.5257286443082556,2.488245551053515,inf,0.9163230038792868
358,1.5158580461379314,1.1831587738141693,0.9190832167950269,0.9804178921538262,0.9481073033280395,0.5932534431303513,3.4259696806531683,4.528191436592386,1.4120084707746323,0.9769200383511845,0.6380535849069913,1.515846380376273,1.18970694052735,0.9258961513100371,0.6325924718055214
359,2.0407403382546194,1.7137930860807544,-3.754533424335374,0.44091046806668754,0.4049368696751681,0.5198961668399842,3.032367545113312,6.62248235716244,2.2659185202798313,,0.6233814453054027,2.0407337805767862,1.7204774462896162,inf,0.8572918923399795
360,1.5611574858431014,1.0928337084948243,0.9582240411188576,0.6487932550971665,0.6371471575953013,0.7731123413431393,3.8091309241492404,4.7129418799451805,1.4947827258552526,1.9530857960022812,0.6038851895711802,1.5611240521555498,1.099406632978684,0.9642270013384739,0.8882819857662256
361,2.092864562011976,1.9981410989446093,1.6060878255488191,1.587039993122934,1.522602477298258,0.6727918677334401,3.2119183172299643,2.591966110052153,1.9994797872302057,,0.6097226960127671,2.0928645620119766,2.004818901475639,1.6127879993193823,0.7880724111938493
362,2.032625486131267,2.0583801748253183,1.6060878255488191,1.4024669558900411,1.383415018611674,0.755949294366875,3.0748054007279135,2.8812022715961447,2.2815912564898104,,0.6233814453054027,2.0325579557809856,2.0651255077066297,1.6127879993193823,0.9159816482146237
363,2.3364866446697268,2.265344640052851,1.0952622017828268,1.083737179741557,1.0167459126411562,0.7324177636981987,2.9516687168978173,2.702744322677681,2.2653446400528496,1.0952622017828277,0.648888643467878,2.336486644669727,2.272022442583879,1.1019623755533916,0.910452106511582
364,2.4976975414043467,3.20274603198634,-5.700443573390687,1.702662310581083,1.662582303279235,0.9372194614058645,3.0223177551165676,3.3057283759583123,3.2029243855518423,,0.6566669596287297,2.497519187838844,3.209602188082872,inf,0.784314693065982
365,2.269795270171055,3.4306483032196318,-5.700443573390687,1.74186698974303,1.719779723118938,0.93307361144022,3.3477256458835325,2.821536370188188,3.4306483032196318,,0.6097226960127671,2.2697952701710546,3.4373261057506608,inf,0.8237823185289046
366,2.4849066497880004,3.2155369236026865,-5.700443573390687,1.6526488473512972,1.6159871532836707,0.9249005794837433,3.98698304982954,16.271915473238735,3.215536923602686,,0.6068309995095971,2.4849066497880004,3.2222147261337155,inf,0.8097865441100339
367,2.349587404065934,1.964561808204862,1.3829442742346085,1.649132928827831,1.6293688347773116,0.9353267649385247,3.2818873097401178,2.5444263950843644,1.9647054219570654,1.3829442742346088,0.6309483474627791,2.3494437903137304,1.9713832244880947,1.3896444480051726,0.8346075433117387
368,2.2669444009203947,2.0472048113504013,1.3829442742346085,0.4362582723120616,0.3567918843578892,0.8258976629405328,3.1726724237660267,3.6323991027932414,2.334935034137038,1.0952622017828277,0.6153451465759925,2.2668962505855386,2.0539307642162865,1.3896444480051726,0.8700699349667942
369,2.3715779644809976,1.719427696475588,0.9129406449888746,1.739505804820012,1.735748160290684,0.9444623695709449,2.4908285076613903,2.3059737589310525,1.719427696475589,0.9129406449888731,0.6357360191111145,2.371577964480997,1.7261054990066182,0.919640818759437,0.8084166621852691
370,2.870569130599985,-2.870569130599985,0.0,1.7046392994116721,1.6696390162812025,0.9420861364836653,3.0523223993281943,5.262142921998803,,,0.6425374456860184,2.870569130599985,inf,,0.8317649194682827
371,2.3715779644809976,2.23025332024158,-4.601831284722578,1.7329143154262332,1.6942934228930646,0.8952561414994262,2.511267982584954,2.619954367284926,2.2302533202415797,,0.6309483474627791,2.371577964480997,2.2369311227726087,inf,0.8580715014780508
372,1.4277736951341788,1.1834425612052102,3.0858772301660156,0.4448819137655455,0.38308871259164784,0.5767537476519887,3.229527917710683,3.7373417213894986,1.3308837524638006,2.9384450201144934,0.6447042257417027,1.4277647139271106,1.189987849194319,3.0927188996855683,0.7642428170138637
373,1.083178474009975,0.6366035609390697,0.5260782172607772,0.15530386776307525,0.07524658295096566,0.5319535314526336,2.0052912903830156,1.6835793206377048,0.7152715820650994,0.9029240912072293,0.6447042257417027,1.0831655396790847,0.6432432383108406,0.5326912030643814,0.6905177178589151
374,2.040220828526554,1.4629981675279136,2.193874490450937,1.5952708696752234,1.570310197151887,0.9471023148271261,1.8176802816209119,2.3355019513538684,1.9569960282424448,,0.6357360191111145,2.0402208285265546,1.4696759700589417,2.2005746642215014,0.8125081162569201
375,1.91959284073794,1.072800531550536,0.9129406449888737,1.5398378256509684,1.536372248971235,0.6323875787815955,1.772936374798701,2.131461310780516,1.2159013751912098,1.8684520900163095,0.5915533975974677,1.91959284073794,1.0794783340815657,0.919640818759437,0.8812268842215955
376,1.9902104079518939,1.9184736962107372,-3.908684104162631,1.5633572602058403,1.5468580573789223,0.7425620468805783,1.8484444093897308,2.234323815100425,2.100795253004693,,0.6180765742263259,1.9902104079518934,1.9251514987417675,inf,0.8533838912853158
377,2.117997197846226,1.8577617265416055,-3.9757589243878315,1.4967009836575933,1.4742173751488716,0.6605438339286165,2.089690904143561,3.2027197734811503,2.1459344109427767,,0.6584896970785714,2.11767429857821,1.8609634559319197,inf,0.8667341866711149
378,1.5901443219346871,1.0192567980976832,0.6027857166850339,1.5155482932673672,1.5048303672187266,0.5604393537460974,1.7646160536394315,1.725308770807561,1.2199462140927941,1.2076070311900673,0.6233814453054027,1.5901256014017275,1.0259533211616723,0.6094858904555975,0.8795821548851384
379,1.771956841931875,0.7929925155296613,0.7342488562454972,1.5980868762538765,1.5816764381652413,0.7693944966481281,1.8915815260998894,1.9194243371377993,1.0381149735626465,1.5007273098909921,0.6425374456860184,1.7719568419318752,0.7996703180606907,0.7409490300160612,0.8256846260007199
380,2.2785392229238526,2.1125817813072865,-4.391121004231139,1.3950787029504175,1.3549251560202713,0.9536586467040957,1.7589101544773798,2.500383662169873,2.323396651960814,,0.6180765742263259,2.2784346327617624,2.1116241736093833,inf,0.788284043213329
381,2.3715779644809976,1.5371061396816335,1.7884093823427736,1.5989658605060906,1.5806450697227037,0.9591105873577078,1.760285028139366,2.374988441019813,1.719427696475589,1.6060878255488185,0.6284777104787076,2.371577964480997,1.5437839422126636,1.795109556113337,0.7960099854902809
382,1.1081936088484476,0.48137610036892764,0.39395171058372114,0.9266889865130962,0.8694468712418456,0.6421559567774874,1.7938504144119183,1.7203762974257397,0.6255636844165811,0.5470430875793917,0.6309483474627791,1.108191355115104,0.48805615663330065,0.4006518843542854,0.8922258475228553
383,1.4697246327236793,1.1401432433184053,1.4777876980292204,0.8208049337987776,0.7973215808278203,0.37242437196617384,2.1714628389858026,2.240571074402928,1.2868085293438447,1.5525898693098052,0.6207552362147116,1.4697242804046116,1.1468108118618252,1.4844984581064604,0.7774223336262052
384,2.5682882587270512,1.7458609535437448,-4.314149212270796,1.7408739204578456,1.7179443464142847,0.9673542614217528,2.314052535943742,3.7062686767194855,1.7458609535437444,,0.6008849035917525,2.5682882587270512,1.7525387560747736,inf,0.8306855937112512
385,2.5257286443082556,-2.5257286443082556,0.0,1.6397094904593055,1.6259343273030278,0.9546819136045062,2.538932671730746,3.1568642598092675,,,0.6309483474627791,2.5257286443082556,inf,,0.823452203352812
386,2.6127400212978853,3.0877035520928016,-5.700443573390687,1.581005469691375,1.541441085184233,0.9334639352566974,2.4846188313981283,2.925491587328327,3.087703552092801,,0.5883313578629602,2.6127400212978853,3.0943813546238306,inf,0.8428455729365707
387,1.83265164177897,3.1746447510517717,-5.0072963928307415,0.10060391803536387,0.04333535798650357,0.3735433523218453,3.2329576024756017,10.942124405777072,3.1763191227846392,,0.6403206450210053,1.8326509106041315,3.1813232847576387,inf,0.9093696265213709
388,1.9075324080973353,1.3950158924949814,0.7851072734789883,0.9857152847959149,0.9670353080057438,0.6653891049489756,3.755922025269025,5.303477625404257,1.4903888256731328,0.6897970936746634,0.6509067234006624,1.907469654723508,1.401756448399837,0.7918074472495522,0.7967910517275558
389,2.17742195004004,2.8298744427907017,-5.0072963928307415,1.6421583030081484,1.583475608366845,0.9673437312248764,4.4360572656226696,21.600480754370757,,,0.62595550513784,2.17742195004004,2.8365522453217307,inf,0.8730400911558784
390,2.4079456086518722,2.5993507841788692,-5.0072963928307415,1.748469110647609,1.726058824813542,0.9484958984188856,3.8640609378904247,4.358702575686005,3.2924979647388146,,0.6284777104787076,2.4079456086518722,2.6060285867098982,inf,0.8286214355636741
391,2.4849066497880004,2.522389743042741,-5.0072963928307415,1.7672460183488268,1.7370970127377225,0.914352110291963,3.895364857290506,33.684468556886685,2.5223897430427407,,0.6125606311107803,2.4849066497880004,2.52906754557377,inf,0.8758800543952481
392,2.6127400212978853,-2.6127400212978853,0.0,1.680687787287535,1.6723934834079321,0.9408835001653227,4.740039905981469,31.26954650730235,,,0.6528756675646988,2.6127400212978853,inf,,0.8699711572512938
393,2.870569130599985,-2.870569130599985,0.0,1.7610967664197106,1.7386115796194492,0.9434612749024051,4.068916050667851,65.87765794704457,,,0.6125606311107803,2.870569130599985,inf,,0.8714280921740181
394,2.5682882587270512,-2.5682882587270512,0.0,1.7367592511569039,1.7117687090842995,0.9177307962460846,4.319298225057663,47.13575182982801,,,0.6547956803312163,2.5682882587270512,inf,,0.8457251055401056
395,2.049225663813018,1.7053077605223557,1.9425600621700307,0.9835369419509449,0.9231273258113188,0.67345853572797,2.8388471770481303,2.9221288401561307,1.8595346448917756,,0.6403206450210053,2.049149459270856,1.7120617675955465,1.9492602359405953,0.9102039684364784
396,2.1484344131667874,2.1657147991040087,1.3829442742346085,0.7846261106234513,0.7485552532618903,0.8219888001281799,2.6123464459968804,2.944186457758941,2.4533968715557894,1.0952622017828277,0.6619902821573977,2.1484344131667874,2.1723926016350377,1.3896444480051726,0.8348971343718387
397,1.9902104079518939,1.9184736962107372,1.095262201782829,1.3061029141561005,1.2155645766549434,0.621127592738049,2.8112381316770465,4.210087982927806,2.100795253004693,,0.6008849035917525,1.9902104079518934,1.9251514987417675,1.1019623755533916,0.7604260720556264
398,2.17742195004004,2.8298744427907017,-5.0072963928307415,1.699998389046883,1.6501723209107808,0.9170455969461162,2.9927449073571633,2.8553487969165126,3.4998800947889523,,0.648888643467878,2.17742195004004,2.8365522453217307,inf,0.8274568250134394
399,2.5257286443082556,-2.5257286443082556,0.0,1.3112932536668422,1.2764512143705764,0.6416589874802768,3.5650365502841037,22.092191437098602,,,0.6180765742263259,2.5257286443082556,inf,,0.8289348769300604
400,2.3025850929940455,2.2992461917285323,1.0952622017828268,0.8891240587055131,0.8257820809493408,0.5724783673988071,3.9448020483518804,7.935114972215532,2.7047112998366956,0.6897970936746634,0.6309483474627791,2.3025850929940455,2.3059239942595604,1.1019623755533916,0.928879362506178
401,1.7139465433962846,1.585691677698051,1.0111609042911782,0.8426645337320087,0.7150383460048024,0.522594101630909,3.0762663297790684,2.1613453853305065,1.816786596546778,1.4732251056339314,0.6153451465759925,1.7139346037647496,1.592255674319071,1.0179868236032863,0.9414534757829947
402,2.0930472218398974,1.997958439116688,0.21979346442892833,0.6803096831049227,0.6264414120149736,0.5185710686708955,3.73723205991931,3.3239670568594097,1.9979609025300304,0.5074755368807087,0.5978297680564633,2.0930447584265557,2.0046387050610597,0.22649363819949178,0.877224928566058
403,2.2380465718564744,2.769249820974267,-5.0072963928307415,1.7336370347460366,1.7015568129078473,0.8806772544746766,3.4154078704964883,5.246749911206253,3.462397001534212,,0.5677978065141052,2.2380465718564744,2.7759276235052956,inf,0.887546846898095
404,2.3025850929940455,3.3978584803966414,-5.700443573390687,1.6838632557213735,1.6543208762814818,0.9136553141795426,4.172794312674653,13.716775546676743,3.397858480396641,,0.6309483474627791,2.3025850929940455,3.40453628292767,inf,0.8119118576581772
405,2.269795270171055,1.638888833991576,0.6897970936746636,0.5956143790756356,0.5776505219345274,0.48636747453977297,3.236260245804271,2.1213758094747424,2.044353942099741,1.3829442742346088,0.62595550513784,2.2697952701710546,1.6455666365226058,0.6964972674452273,0.7845533511184548
406,2.120263536200092,2.481567748522486,0.40211502122288234,1.4892225680191054,1.467551186902059,0.9321558961418379,3.4460173225988937,4.757745635529602,2.4815677485224854,1.0952622017828277,0.6180765742263259,2.120263536200091,2.488245551053515,0.4088151949934463,0.8727580252626392
407,1.791759469228055,1.4237774543746302,2.4815565629027194,1.239248048419212,1.2214763155654271,0.43572418566650906,2.8700870606651914,3.343462707491458,1.5193385017639987,2.385995515513351,0.6468212168108125,1.791759469228055,1.4304552569056603,2.488256736673282,0.9265097501181154
408,2.0661963149298157,1.437022681124652,2.193874490450937,1.7184512476267826,1.6949933133130708,0.9467403956021795,2.9653067984181543,4.238389391660299,1.688337109405558,,0.6233814453054027,2.0661963149298153,1.443700483655681,2.2005746642215014,0.8783558148402009
409,2.3364866446697268,1.9776625676010693,-4.314149212270796,1.212737649799926,1.1706567231734981,0.7878155898157935,3.200297966451681,3.2679633216183244,1.9776625676010688,,0.5915533975974677,2.336486644669727,1.984340370132098,inf,0.900601563338422
410,2.2380465718564744,2.0761026404143217,-4.314149212270796,1.062497935877945,1.0430704622584035,0.9211988758846766,3.072263031933484,5.146951915878472,2.0761026404143212,,0.6357360191111145,2.2380465718564744,2.0827804429453507,inf,0.8732387253105103
411,2.3397618345187783,3.3606817388719086,-5.700443573390687,1.7090552473045078,1.6700919475068363,0.9304960551759666,3.149914516311423,5.719516584377899,,,0.6068309995095971,2.3397102256329747,3.367411150288741,inf,0.8331164265656728
412,2.17742195004004,2.424409334682538,-4.601831284722578,1.600363213326704,1.5973585302998656,0.8287731962745208,3.0399829909466822,6.371396657149239,3.5230216233506466,,0.6357360191111145,2.17742195004004,2.4310871372135665,inf,0.8515958642170082
413,2.120263536200092,1.7884205679625391,-3.908684104162631,1.575419580151894,1.5463808986805738,0.9456605823636236,2.5560854891325406,3.9725324489960774,1.970742124756495,,0.6333676938231112,2.120263536200091,1.7950983704935697,inf,0.819187136888444
414,2.120263536200092,1.5007384955107592,2.0760914547945535,1.517904753583229,1.481247224615433,0.9596175700739786,2.505392623122885,3.3536936158532122,1.5007384955107594,,0.581717464821069,2.120263536200091,1.5074162980417887,2.082791628565118,0.8384633655547642
415,2.1484344131667874,2.1657147991040087,-4.314149212270796,1.5498891894067797,1.5318957376823201,0.9031673233247003,2.768564478899123,2.5486469626907113,2.4533968715557894,,0.6068309995095971,2.1484344131667874,2.1723926016350377,inf,0.8403838915692657
416,2.3364866446697268,1.9776625676010693,-4.314149212270796,1.5202649706612277,1.4858216135705338,0.9760377216763514,2.3591705828134475,2.5581399373187836,1.9776625676010688,,0.6207552362147116,2.336486644669727,1.984340370132098,inf,0.8200286383962185
417,2.0143457558709312,1.8955290832967115,-3.909874839167643,0.06698765724152846,0.04641982821791863,0.6111667463399345,2.7960407167914414,2.868273550790225,2.9879723549644814,,0.6509067234006624,2.0143198572816843,1.9010420494119766,inf,0.9214276591604976
418,1.6324852212727057,1.2598817642159783,1.052358831478148,1.107993958156864,1.0147881548928934,0.6471500427761923,2.981838948030278,3.390045804749129,1.3408157047888665,1.269520387239402,0.6380535849069913,1.632365417077805,1.2652323859100993,1.0368980582923004,0.849307799150601
419,2.040220828526554,1.7143125958088197,-3.754533424335374,1.7516911259322232,1.7292985663937133,0.8587143392710656,2.6476550841414714,2.5476550920942365,2.0507848324300317,,0.6468212168108125,2.0402208285265546,1.7209903983398478,inf,0.8208167185910944
420,1.6811936214314622,1.3121227324153675,1.610607328663058,1.17762822822977,1.161231785876333,0.49309966842838,2.1833662340729703,2.5822713142920013,1.533807030700401,1.7889666406464109,0.5915533975974677,1.6811726345986473,1.3187907999276118,1.6163800520599574,0.8347988954610519
421,1.771956841931875,1.7312621541225928,1.0952622017828268,1.6949510983339027,1.6410873231401468,0.8056501160901234,1.7525005110862664,1.6644450748600026,1.8507188303370048,1.381270633676579,0.6447042257417027,1.7719568419318752,1.737939956653621,1.1019623755533916,0.833853623260765
422,1.3796853785861762,0.8030582674042164,0.6167265970026281,1.058490970413368,1.0064121627730787,0.5465491890718972,1.9933310789434302,2.561977911707787,0.9004934902157242,0.8512267267229335,0.6713451011121618,1.379649818401222,0.8088132532664246,0.6229126800020203,0.9043451804549021
423,1.6871397282473461,1.0688648659769,0.8616473506013222,1.1833598349369898,1.1109234764940696,0.5895386188098655,2.346286934552156,2.734142029562387,1.068905395539624,0.8616473506013226,0.6447042257417027,1.687099198684622,1.0755831980706532,0.8683475243718864,0.8716575510224239
424,1.7829803044600816,1.674077395436609,1.5441673637124724,0.33975304613449725,0.27418738087166306,0.6220149801166511,2.6782476987527697,3.0192065996685056,1.8777257413928155,2.0364358644872134,0.6068309995095971,1.7829318806253758,1.679431936274267,1.5516103784621276,0.866130160239035
425,1.981213051107422,1.7733203732279519,1.9425600621700307,1.7829358653332514,1.7795473866346132,0.7769557525891726,2.003128394334501,2.291495417087913,1.8509261235779226,1.8651020031310277,0.6284777104787076,1.9810653597964543,1.7801458670699482,1.9492602359405953,0.8461986893783904
426,2.0446366612151086,1.5763653704957425,0.9774791661264435,1.762611551834942,1.7225204293408374,0.8741986561096309,2.2402957535957677,2.181275444910372,1.7099440934227481,0.8439477735019216,0.6333676938231112,2.044589330912625,1.5830905033292546,0.9841793398970082,0.8391742412489914
427,1.2729656758128873,0.789891737851413,0.8010227287848886,0.49336854820753884,0.40283040139696263,0.41977853866210363,2.4220526346164433,2.600858606482748,0.8721298360883852,0.987048617142595,0.6528756675646988,1.2729656758128873,0.7965695403824424,0.8077229025554516,0.8241049323680804
428,2.269795270171055,1.8212103907855304,1.6060878255488191,1.2861880035600066,1.2738070047029415,0.9151247709269835,2.6995437626720546,2.1258004276696316,2.044353942099741,1.3829442742346088,0.581717464821069,2.2697952701710546,1.8278881933165605,1.6127879993193823,0.8223214268077065
429,1.896387354661922,1.5014711257347193,0.5074755368807082,1.1800100424775049,1.0505584207193346,0.7746472630661823,2.2865608640651245,2.1353348864435016,1.724622513352693,0.6897970936746634,0.6207552362147116,1.8963795183581575,1.5081567645695124,0.5141757106512727,0.8935463331597457
430,1.3597619960552518,0.8749456745357085,1.2651612385782247,0.8589154428067122,0.781339826737193,0.515930779072388,2.339171306048631,2.2215765475254723,1.2963197833714386,0.9615715354460945,0.6097226960127671,1.3597606260080353,0.8816248471139537,1.2718614123487892,0.7059971707740211
431,2.120263536200092,1.9707421247564936,-4.0910056609565855,1.2415277381883365,1.2457245400690498,0.7121669690526446,3.5880596434619045,3.8192138780834872,2.1938856760707046,,0.6380535849069913,2.120263536200091,1.9774199272875244,inf,0.7474670258877124
432,1.7525387560747738,1.1753160950761306,0.689797093674664,1.1220032448282464,1.0814101238917766,0.711023619311324,3.3274904594285477,4.556535614520447,1.3088474877006542,0.5562657010501406,0.6207552362147116,1.7525387560747736,1.181993897607161,0.6964972674452273,0.9299813533764232
433,1.9661156248579132,2.0242778057608715,-3.9903934306187847,1.2328279607182155,1.227361117152362,0.9028565702322664,4.343871228875051,2.799872394059766,2.4479187625656404,,0.6233814453054027,1.9654781372147416,2.0275139307470713,inf,0.7381929208752277
434,1.9747624650056885,1.4167116830859217,0.8922115501022394,1.4417053820109675,1.4481666683786367,0.7673548785984959,4.6895008260525755,56.93154704658433,1.7469945379477412,,0.663668482632973,1.974641182880573,1.4175964574101105,0.8997451828372651,0.8118484910451701
435,1.7118014021094548,1.1033450442600736,0.9503370775510627,1.4369100048964367,1.4238782123742177,0.8361689849184151,4.693899034115166,8.012044699303164,1.211904661671873,1.674798234255796,0.6425374456860184,1.7117783019096258,1.1098139405917131,0.9555114450274363,0.6591387689290344
436,1.7031829595581571,1.4882608413334306,1.1156113051765737,1.758751307936007,1.6319200408705998,0.7146290880798644,3.299695618379557,4.5233892266283195,1.62421724978557,1.1733581127366577,0.648888643467878,1.7029552558859458,1.49448528826219,1.1225506996062933,0.8469209653919416
437,1.716856700704647,1.6002512709586074,1.3711742232718218,1.5379352464614244,1.5115513497239248,0.6222943069472777,3.228266979532289,3.798651746672801,1.842389177681313,2.1022373284490423,0.5947193981915972,1.716219189982708,1.6021700804921326,1.370162524452302,0.7642672440727235
438,1.8515336424373892,1.2750287149641284,0.8934832022274866,1.57188772798539,1.569877969516636,0.8614379498783835,4.027220381191421,1.7954362411609353,1.445349385908135,1.0568624921570624,0.648888643467878,1.851438704729656,1.2807498697463398,0.8932520090988938,0.7504043370639346
439,1.822808250008438,1.6132074406549595,1.4073773174405741,1.45004599457487,1.3910815109211474,0.7242064492079837,4.196308611204279,19.941263656899793,2.2103975099178683,,0.62595550513784,1.8221499505521235,1.6126042146388746,1.4019278217818196,0.6483258340012342
440,1.5216778254328072,1.5191387830042544,1.8830349416531358,1.56943543387674,1.534630375659349,0.7596316040022635,4.166081060759702,28.875344957345096,1.6495297247870693,2.03892868537384,0.6528756675646988,1.5215796719124162,1.5242769888241434,1.86493329838998,0.7020042472766198
441,2.0678021928905874,1.4417195743026827,1.109368748166247,1.6167761665379106,1.580734422827646,0.8438499535523059,3.6400407910667067,5.383069305988009,1.6868447683481875,1.7370202152740695,0.6380535849069913,2.0676886559871854,1.4481716339951098,1.11291976164493,0.8873855898839362
442,1.821309586744148,1.4812387138481686,0.7851072734789883,1.6603865393650907,1.6434040939865449,0.6303139668599863,2.847501666406258,3.1480915714676136,1.4812913605752378,1.008250824793198,0.62595550513784,1.821256940017078,1.487969163106267,0.7918074472495522,0.7297061652652281
