,bvp+eda_XAp0,bvp+eda_XAp1,bvp+eda_XAp2,bvp+eda_XCond1,bvp+eda_XCond2,bvp+eda_XDist,bvp+eda_XFuzz1,bvp+eda_XFuzz2,bvp+eda_XK2_1,bvp+eda_XK2_2,bvp+eda_XPermEn,bvp+eda_XSamp0,bvp+eda_XSamp1,bvp+eda_XSamp2,bvp+eda_XSpec
0,2.8741924564514347,2.2443784001481264,-5.118570856599561,1.5751640193574672,1.5332275287112962,0.6550867713323275,2.7028604983709976,3.1619320698205517,2.435178387101132,,0.6357360191111145,2.872138989635105,2.2255076814507806,inf,0.810477818810265
1,2.0923696212690603,2.024588295086988,-4.116957916356048,1.6758306068612638,1.6670743738391693,0.672220729984462,2.8448079873205656,2.429855020163584,2.4447738637126784,,0.6509067234006624,2.0839851817297084,2.015036970043503,inf,0.7823368441279552
2,2.285623234323446,2.4161633512832372,-4.701786585606683,1.499534463737762,1.4539523465341475,0.839904353286441,3.3539496545232326,3.0366717534467895,2.487882278957614,,0.6727386042041725,2.284963491644226,2.408430927758704,inf,0.7589056392427704
3,1.9611420038406444,3.5653980934929312,-5.526540097333576,1.1990379196250154,1.1750646915054543,0.6947952587951822,2.9612040267468487,2.671140501121272,8.747088360511079,,0.6403206450210053,1.9606516057103487,3.7735900764305605,inf,0.9431019860096457
4,1.6316732637213445,1.2577484322298935,-0.543303073563675,1.418524226235726,1.366995096549858,0.7631068731481223,3.521210025451227,2.5477439050504813,1.6025898343400409,6.774357452165615,0.6309483474627791,1.630945325385262,1.2558328970007728,2.896769220739029,0.7420721289937461
5,1.2124791508812824,0.8216293814847744,1.0181225856490603,1.0402077571810606,0.9973468384244855,0.5421428973501285,3.280338254179067,3.118052843270016,1.0527310030744301,1.840635300288046,0.6333676938231112,1.211892975127076,0.8257670325378049,1.020420594657393,0.7800677822022118
6,1.3094605869274714,0.8287185912465433,0.8613468147874537,0.9351237975930196,0.8978903630883389,0.8178106870254,4.045360399807837,5.267929572258816,1.0782415211748695,1.312592498428953,0.663668482632973,1.3094156278977147,0.8353113804807508,0.8673605082017957,0.7871098610741009
7,1.4737458474599967,1.2280414958283148,1.2540021681097078,1.0217724547094291,0.9681161045160297,0.7460207224584817,3.7774423859824133,5.643765132973575,1.2672582760751365,1.5026790476016947,0.6333676938231112,1.4735481917414512,1.232504006698086,1.2427500584919056,0.7468770397630117
8,1.5952912222571267,1.1507484437714777,0.852089308155223,0.2797955025574042,0.2736814112605448,0.7384579556013056,3.856172779250562,15.150747861372833,1.3213693534125086,1.6402237027138176,0.6380535849069913,1.5952611021988918,1.1563927363854503,0.8557480403351,0.6857020101054424
9,1.3796509939634147,0.8422281979617099,0.8155771636113194,1.0491924590841772,1.044557895873101,0.7497460118159261,3.501664923282444,2.7693883524759157,0.9283941838299895,0.9323944236212148,0.6153451465759925,1.3794732335517432,0.8470771731663049,0.8151094653918983,0.6343032998574624
10,1.8169050980392913,1.12674447569093,0.6744504630169064,1.3821240869062457,1.338079491425299,0.821720038162533,3.7606779703016873,5.623810630901829,1.38812724825677,1.0706347164502608,0.6468212168108125,1.8165987592417006,1.1309784724252434,0.683872240546716,0.525283265188416
11,1.5605435731196546,1.249347415547876,1.095443028609819,0.8564264107077124,0.8272904884225574,0.8221118774143382,4.446522431203654,11.992068140784717,1.4287347841827998,1.6092044798970941,0.62595550513784,1.5605419337574007,1.2560218969940442,1.1021481628274978,0.6943155999145183
12,1.4285679225253027,0.67378202848118,0.5761155447315205,0.8072650744979786,0.7856016170721898,0.7696647977502773,3.4963353443222096,2.691670436757007,0.9774790345545523,0.988662221415008,0.6333676938231112,1.4283671375417983,0.6787425503521608,0.5786899042734311,0.5522386315634427
13,1.6807536627722683,1.449386017089938,2.564627809392996,1.0061095192714828,0.9932941352795261,0.5716493773293866,2.66026765865324,2.1476155555127185,1.5559202339197309,2.526598313155113,0.648888643467878,1.6804566441145994,1.4560714394048477,2.5705932924022683,0.8474050971626375
14,1.5547716172689918,1.561451098931416,1.2176425609890034,1.1580170461925337,1.1628892668881725,0.7384136334337355,3.6959737750413293,3.424439395032442,1.6566257244547777,1.7909048235849272,0.6447042257417027,1.554739311578502,1.5665561849508347,1.220656089185348,0.81466748482875
15,1.438993446753085,1.1195299592271952,0.9252479176273787,0.38732625664726944,0.36787199197081855,0.7450211576170336,3.2594083631716124,2.571988796356009,1.5220617566293138,1.353153414620413,0.6403206450210053,1.438945301838492,1.125726316418371,0.9293723137716444,0.6739482862927274
16,1.2976477932138273,0.7743930329896107,0.8645469049755623,1.0730442957239807,1.0353286004635407,0.6378244054897422,3.386247852949956,2.8594615306052114,0.9194016024619662,1.1968277830793894,0.648888643467878,1.2975918223582072,0.7808724192571694,0.8708086242009491,0.7514793784413911
17,1.390514464310531,0.6954298099811074,0.43529272379932316,1.6409051960467302,1.5034681851373612,0.8231395546959456,3.494257854027788,4.473157803556457,0.8243585771805012,0.8223230663731581,0.6509067234006624,1.3904808901937336,0.6981583767290451,0.42961736254677585,0.5613550442344599
18,1.6020302486469624,0.8015055833152618,0.6725646024292349,1.511502640187127,1.494253527151188,0.7766400967745731,4.0915872502340065,5.276521980462668,1.1913390580420555,1.3264024585994834,0.6509067234006624,1.6019658975953994,0.8078332797057955,0.6746428844234725,0.7432665981897912
19,1.2484063923167998,0.7802209478332667,0.7399602467048187,1.7367836996761166,1.7368114361182059,0.8370023769872209,3.6112496779832495,8.034349176970958,0.9381655395493148,1.0256320831817516,0.6447042257417027,1.248389213986338,0.7868015515026486,0.7456093559778875,0.7757072801742879
20,1.6667193117125434,0.7613646565594645,0.37863776033723173,1.524717504264568,1.5210321881097273,0.8956949449703933,3.307642279896032,2.4558473437332724,0.8983530311874877,0.2989307849876517,0.6357360191111145,1.666596326274049,0.7679975096403622,0.3855058689964218,0.7894447738530733
21,1.0727369273001428,0.5341174847909591,0.36814541229189923,0.23961561702026368,0.19511603390028362,0.7268095099273151,3.1533022036361102,2.6227440979406382,0.6777379575539896,0.5690146311287906,0.6584896970785714,1.0726846666581942,0.5404266511422151,0.37401442174240895,0.8989643948579614
22,1.3843819527721815,0.993768700325075,0.9842234077527268,1.7304716463717156,1.6975969481636681,0.6044065924667704,3.183515894036949,3.5045108703938586,1.1709131752672461,1.2903771033997489,0.6425374456860184,1.3843407151739406,0.9996954842290983,0.9892218135698752,0.5874779148969239
23,1.3799413004740815,0.8800577297209509,0.8685178774699422,1.5983653636804425,1.601115639504583,0.7065840105410586,3.184592185267325,4.09528316575302,1.1808265146755834,1.5023853989607412,0.6566669596287297,1.3799147541558516,0.886659901315161,0.8750829596856422,0.6632134987451785
24,1.2714017560926967,0.7852215432741969,0.47529308277128024,0.9200639364640151,0.8640876056608991,0.7537458267077385,2.726392414414671,2.433040766132953,1.0062512490550508,0.7557828191535695,0.6380535849069913,1.2713796326572526,0.7918386648312329,0.4808723456529626,0.9149596425006973
25,1.5624713362448477,1.2912884826460556,1.2399657717479555,0.8427434170679452,0.8258631355420627,0.6968920537603092,2.9678343503229234,3.213587875212571,1.583389933926474,1.8581080619163814,0.6447042257417027,1.5624483101026037,1.297588247997488,1.2457060490743783,0.828652131708171
26,1.7754995934678233,1.4301323796869667,1.3503726770721745,1.5274017919510285,1.4984787977685137,0.7561461253857916,2.9713858086824287,3.223477791148423,1.5886290506778846,2.333103112409101,0.6180765742263259,1.7753613234184187,1.4365940586052082,1.3518596182825504,0.8613111354687949
27,1.413418187564876,1.1964732450902098,0.8903727216001944,0.7551192500500348,0.7332934943701326,0.7278967819881896,3.1357138349637594,2.2584959735375247,1.3733343874296244,1.5123738464150218,0.5883313578629602,1.4134143618790318,1.203120730387405,0.8970847188100061,0.79133229905948
28,1.3325826072817162,0.8612763072066547,0.6002162134707247,0.4885935505848575,0.4777654671307603,0.6680792926671018,2.807312358433373,2.0394988095840785,1.01078432636423,1.129665886360641,0.6403206450210053,1.3325640386989228,0.8677653535907753,0.6062528398767832,0.7852807460704705
29,1.7404843071281308,1.1779385542295286,0.89542105175116,0.6947543066477052,0.6688181507296938,0.6854346252506333,3.2565820768769447,2.0537321532761763,1.3827881438671548,1.47079591877874,0.6153451465759925,1.7404328420627144,1.182875416079715,0.9010091668666109,0.8170759784623084
30,1.9824046974224347,1.2473916157203577,1.3686848846945021,1.1219166328663797,1.1281068596332318,0.8008859227355721,3.0239618269711186,2.3102658138992203,1.3202737995417784,1.7013980053531434,0.6180765742263259,1.9822745010505374,1.2536909679164014,1.3758937051719493,0.8269962159073362
31,1.9814628983583196,2.7506627570741697,-2.5550266276437106,0.12001135905309418,0.11019544188521735,0.7230485983808084,3.7087184808276157,11.741160142941157,3.019242046934769,,0.6233814453054027,1.9813876545377826,2.699943892415873,1.9813012739954967,0.796894803255026
32,1.7644007759814584,1.8400916391639917,1.354469452873997,0.7669817043063021,0.739046722757484,0.7407639689535082,3.178193277675745,4.639945295462012,2.119027422526279,4.2527241388109855,0.6380535849069913,1.7643388736520629,1.8451134468305517,1.3460636743925616,0.8799942573985088
33,1.4783581978456701,1.1582666201504535,0.9181831581403004,1.4379800039497896,1.441526940795699,0.824793041802788,3.331714425013943,3.289058931449766,1.4364597220457491,1.8487316764324404,0.6425374456860184,1.4783121888902477,1.1645746863055493,0.9235783086944857,0.7572645217490647
34,1.984921485373481,2.329227726897315,1.3829442742346085,1.5313454463569354,1.5261262660301922,0.5850243442912659,3.1157692494085016,5.303108440682141,2.329775396763354,1.3829442742346088,0.5978297680564633,1.984373815507442,2.3364531992943833,1.3896444480051726,0.7165493749824535
35,1.5362280213166133,1.1165641683368133,0.632478906243918,0.7796819653831676,0.7334547624566817,0.8298427284883274,3.3262144294984273,2.554364209163241,1.3590236130042506,1.2771917142479465,0.6713451011121618,1.536135820470163,1.1180577078413363,0.6189038507233403,0.8814064604748166
36,1.8715133853694108,2.00159748498693,1.663488805885183,1.075548820569766,1.0587145325667076,0.7233368636540556,3.506275117082546,8.59457036406966,2.2195534228192826,,0.6333676938231112,1.8714522381373035,2.00616934057351,1.6245815225470182,0.7105610742220551
37,1.3250596592938746,0.9548750909898818,1.1980135146881628,1.1350335758320582,1.1322974915190693,0.6129009830253818,2.8146235380382194,3.361905313507657,1.1795616898935808,1.4494674697515477,0.6153451465759925,1.325011132702992,0.9612632614667382,1.2041185662968958,0.7625082113588633
38,1.708749785978858,1.1011412026886727,0.48930722503950275,1.147089358949329,1.1194731573281285,0.8239825249195104,3.518676140020641,2.164778167734396,1.1133286608856385,0.794359771693571,0.6333676938231112,1.7087059140927694,1.1078579166586755,0.49601235925718223,0.6202442984249747
39,1.8107040189627521,1.0536897467266004,0.8814124687020328,1.089866056407363,1.063052739772869,0.8591864060741838,4.0019285491242576,1.8311302000142886,1.3414259189651445,1.3383433023412508,0.648888643467878,1.8106704941198155,1.060290870256526,0.8878637959798182,0.8222297033949454
40,1.7404808822601134,1.5615131576259669,1.2945564057871084,0.12932326130896363,0.11507679754590279,0.7718037884807333,3.362210242490667,2.5088946284921514,1.7635296484497938,1.0945187073247866,0.6584896970785714,1.7404328420627144,1.5681853583063479,1.3010063359684094,0.7903388881210042
41,2.120263536200092,1.5007384955107592,0.46665354236045387,0.8809183312886598,0.8554151235338184,0.8056081486311374,4.244299099665014,2.5298917932700853,1.6342698881352822,0.5562657010501406,0.6668815377411301,2.120263536200091,1.5074162980417887,0.47335371613101757,0.6019220887450921
42,1.301154745576481,0.9326418724403789,0.8961929573479246,1.2521210614865241,1.1500728580672075,0.6734665833343173,3.048169751917541,3.776947564653079,1.306441966505236,1.703220606100694,0.6284777104787076,1.301136552779584,0.939308727011199,0.9027563397899521,0.6002005965464922
43,1.923424521213818,1.5593985562732302,-0.917028580008457,1.653105371972598,1.664371727991945,0.735610278664702,2.898262554775941,3.4056388261946555,2.509742112963048,,0.6333676938231112,1.9232358320164409,1.5498156534136982,1.816416265840915,0.9394950867121753
44,1.2953677242380146,0.8132302147098729,0.5785525579409683,1.1553404109843006,1.140869433842169,0.6840042868388835,2.8309195684555744,2.6487396414510016,0.967867634175387,1.022639682534393,0.6333676938231112,1.2953573661277886,0.8197343816699085,0.584824953407791,0.7677326979882159
45,1.8879116773533515,1.437617166527546,0.8377145075507388,0.7741260496594288,0.774577587207567,0.7437311241835125,3.6021676673518273,2.467370089221445,1.83765797371198,7.668845828767284,0.6380535849069913,1.8876831705315449,1.4380975718458562,2.498287898153302,0.7239567677958961
46,1.3778174159998773,1.0147094636540472,0.8788639553144617,1.7052133454852016,1.6794669974664944,0.7306517623914413,3.417096180755415,5.7923203176442275,1.1445925121767964,1.3829442742346088,0.6447042257417027,1.3777972308659443,1.021054054322235,0.8839706437386549,0.8063691241393894
47,1.5879889778525114,1.1494966442525472,0.8386655886805086,1.001628165269165,0.993720838972143,0.6601878451601488,3.5612120336470308,2.6583637689886728,1.404445116475055,1.307558754797577,0.6180765742263259,1.587948255813421,1.1559018494199764,0.8440785417114126,0.6684899041372679
48,2.0150718059288266,1.736956359695483,1.2478362768167055,0.11826719857387903,0.10105784275635228,0.838683123171612,3.6241250872411594,3.7199541204199904,2.0745990612623806,1.60742472414366,0.6509067234006624,2.015069701099364,1.7432789283924055,1.2539547217051836,0.7232269016682665
49,1.7149230423120079,1.277470329976468,0.6252585725370925,0.7852230429922944,0.7742641515258684,0.7552726826523026,3.0172187171107567,3.5115844943839045,1.4205723234256826,0.4821577288964189,0.6380535849069913,1.714921892503467,1.2841492823160388,0.6319587463076561,0.8743990006060388
50,1.5632082250763153,0.9792514364716101,0.8941222264710884,0.8955942091379162,0.8711864236986125,0.7519083190331646,2.9700425028659527,1.9027772093245967,1.2430398950314883,1.5105114065042702,0.6403206450210053,1.563137617905819,0.9857743618580936,0.8997264764983791,0.7349743977423084
51,1.2995642140112569,1.0341496362136748,0.9712750801677772,0.25718709591164207,0.18561674808992643,0.5667334916938215,3.0682709054345754,2.9350748594329397,1.3085693760591808,1.4729327277798276,0.6180765742263259,1.299464482081499,1.0408224780965583,0.9777955147735915,0.7976563665630649
52,2.0339614156802184,2.012081758498049,-2.6977207202996416,1.4743208767445628,1.426222348491561,0.6969893140709955,2.8699636626665095,2.1147341053621367,2.1976600731364484,2.3367699038858003,0.6447042257417027,2.0155699095299684,1.9286319942624128,1.4570098859182883,0.6558674536202954
53,1.7787289242679565,1.8287487851724196,-2.4058376341588104,1.4639317162571897,1.4582743758792232,0.7073226057335478,2.6964633604806436,2.4181218121091717,2.0803743256796245,,0.6333676938231112,1.7719568419318752,1.866229497866543,2.9251915230553927,0.7602841676120171
54,3.2521979217583326,1.66657947601691,-4.9187773977752425,1.6635567324572746,1.6627344111273201,0.6448056684638056,2.0953199057546747,1.9665595282060715,2.6847780084952757,,0.6403206450210053,3.2396455863545865,2.6149597780361984,inf,0.9317297345783268
55,1.4825654351182818,0.6597146757280392,0.3718776294348327,0.8740099917613648,0.8464984397351352,0.5761558706699588,2.92866865641612,2.276416738321208,0.772503333378811,0.49612880416988214,0.6566669596287297,1.4817289931125122,0.6541183045488038,0.3399014143419187,0.867086712251835
56,1.7883930225877043,1.2729932211877228,1.0262693302958779,0.9142702469203184,0.9023674876711121,0.7266836040849736,4.05549564935445,3.517655046792818,1.4288453280006763,0.8704450099105885,0.648888643467878,1.7883652361600393,1.2796988101464177,1.0329695040664402,0.8361494462722918
57,1.7403425740968552,1.6946857319404385,2.1480913152082537,1.6935463092949576,1.6544495066726048,0.7164043937044176,4.112326918824145,4.432519489522806,1.7738112813839684,2.1830393386790887,0.6309483474627791,1.7402428664423475,1.6986563824038194,2.119340920519376,0.8373577593942385
58,0.9376985470736136,0.44247143306142667,0.3321061051865588,1.3836034403881892,1.329025820131705,0.6509125581096435,2.2949076284204724,1.8849282187392133,0.6084652734061194,0.6336902169048467,0.6509067234006624,0.9375994928204064,0.44891711521672295,0.3380827793484028,0.712338032045616
59,1.3048880138108763,0.7739540488352266,0.5467757255147561,1.6040990319820292,1.5748107072289201,0.5128020560815333,2.413652894959299,1.9235031962740314,0.9861153037171816,0.8033460644876493,0.6153451465759925,1.304693893026403,0.7804527809044659,0.5535329492466701,0.5779108215375224
60,1.080319539750429,0.6859690385342618,0.5705654165726963,1.0821927260284645,1.064093149162164,0.6628356830948443,2.8092074043301554,2.8756076394971593,0.8157318954209213,0.8075315758999078,0.6233814453054027,1.0802813319833862,0.6924601314089069,0.5769352371356031,0.6014834259599581
61,1.8502965405930467,2.454992059165212,1.0094496191964462,0.6420025827465613,0.6328583349009381,0.853610451287303,4.0324007555457495,6.254315614905028,2.7948818258100867,,0.6425374456860184,1.8502363989870307,2.4597796997105785,1.4699277369241557,0.6713657346598703
62,1.499089855265235,0.9055168521211223,0.807580129331047,0.1665678765945074,0.15487627862570744,0.7048385193705657,3.51537666484948,4.588083756051942,0.9828793116074592,1.275465693702335,0.6097226960127671,1.499089855265235,0.9121946546521517,0.8142803031016107,0.5465616063608401
63,1.7151099636421296,1.5018819997095463,1.7869543425937842,0.2126938811736031,0.19401552567419242,0.8021601785472559,3.7968596752155603,6.861627755554835,1.905476941166027,2.0765094276324048,0.6447042257417027,1.7151071177069726,1.5085021143004758,1.793715050239604,0.7425165697393643
64,1.1333354410491894,0.4949072244801036,0.3430743964898988,1.2406344694163192,1.2058579642628655,0.6393455884599173,2.3920531576179993,1.670015874750435,0.6743288948836235,0.5379611791005249,0.6357360191111145,1.1331347227065327,0.5013931034538066,0.34847286203632405,0.725506979471861
65,1.341740721981528,0.7587592508164636,0.8441460077958003,1.682889038386346,1.649869489684112,0.49326535137476846,1.623445067336905,1.7524832837203987,1.0032773503202386,1.3020411783782204,0.5713653840954815,1.3417034777920154,0.7653148316580549,0.8505621981395444,0.9093888239576781
66,1.774499146739231,1.2707349197650033,1.0424215075670706,1.7518881760113805,1.7390020224405396,0.8746134999486117,1.2754373175238378,1.524438792224513,1.441158852205406,1.2326360583088953,0.62595550513784,1.77437807139728,1.2771018468936417,1.0495536320819754,0.7809548361596077
67,2.0661963149298157,1.6883371094055581,1.2494128816100862,1.7465120546387225,1.7136137521100234,0.8984938832206453,1.3513797163127022,1.5391714367796447,1.689293132422924,1.2619705777594428,0.6097226960127671,2.0661963149298153,1.6950149119365872,1.2561130553806499,0.7513086371336765
68,2.120263536200092,1.7884205679625391,1.7884093823427736,1.739528804174944,1.715848000987505,0.8656178578796047,1.3809264853751404,1.7584326192945243,1.970742124756495,1.6060878255488185,0.6357360191111145,2.120263536200091,1.7950983704935697,1.795109556113337,0.7690542746668685
69,2.1051941003966284,2.2089551118741677,-4.314149212270796,1.5940776656336586,1.586322766398598,0.8741890738229914,1.270498332336742,1.6673651352230487,2.496729996262163,,0.6309483474627791,2.1051012884604137,2.2157257263414114,inf,0.8001651035286653
70,2.0770483296833495,1.265345363803752,1.2560875043501931,1.5619677434852612,1.5472492684770758,0.8881803498159336,1.2718898462628305,1.6165970236686633,1.5440462867655758,1.3829442742346088,0.62595550513784,2.0769557449452747,1.271016875479583,1.2638865537140302,0.7942404065571212
71,2.2951527331541675,2.6185747885746897,-3.594601848678948,1.6664519837601053,1.6662264019576003,0.8546054641904034,1.4297624658609527,1.9542660053447132,2.7122384551457586,,0.6153451465759925,2.2950579376849825,2.609716965711796,2.268683541318364,0.8233836229931926
72,2.3715779644809976,1.9425712477897985,1.3829442742346085,1.7090811146356548,1.7078921443224389,0.8782501254167749,1.3292174693735448,1.7058477369322531,1.9425712477897987,1.3829442742346088,0.6233814453054027,2.371577964480997,1.949249050320828,1.3896444480051726,0.7820856572650344
73,1.91959284073794,1.3829554598543767,1.7013980053531434,1.6373257391295188,1.553048922770933,0.894277027469184,1.4695728882573686,1.7919988803153069,1.5836261553165272,2.1938744904509373,0.6125606311107803,1.91959284073794,1.3896332623854053,1.7080981791237073,0.7971162904515966
74,1.8119621765455742,1.6912568195088935,-3.5032189960544677,1.6082096666071275,1.59859808558589,0.8219368094429093,1.4490251852748826,2.055434052020648,1.809039855165276,,0.6180765742263259,1.8119621765455745,1.6979346220399218,inf,0.827350177340319
75,0.7506979681542707,0.5262691088315337,0.43863633967382376,0.664234481591504,0.5973039311183269,0.2403018718936624,1.6995591994726291,1.5385380681212684,0.7493709758398365,0.6903147063140834,0.5978297680564633,0.7506821358709719,0.5328550954612074,0.4452474387344874,0.8838325310443889
76,1.9145445690635272,1.995092262000861,1.5874208919237165,1.7312515807211095,1.7344397580165307,0.5268513730179712,2.4969217665136023,2.345041586557401,2.3898619463004636,1.392927718218792,0.581717464821069,1.914303821986149,1.9988309122946877,1.5437876624438387,0.9111569034865226
77,2.5267130541221863,3.1737305192685006,-5.700443573390687,1.76602332751549,1.7337035066352864,0.947192725323205,2.9655824048609274,4.541458951926218,3.5810199970000474,,0.6068309995095971,2.5265623250568328,3.1805590508648827,inf,0.8498062067070019
78,1.2349037560246068,0.8009109871827731,0.6174730368257788,1.165673003434535,1.118825346005702,0.7197725751137436,2.826758761423805,2.5971281659703593,0.9668185325506445,0.6821081674313149,0.6566669596287297,1.2348903069607375,0.8075552165879283,0.6241428877459497,0.7086798124731121
79,1.6650081600246693,1.5005165193021872,1.6262416566089852,1.3935600856745274,1.3582792701650397,0.6280493437913666,2.9800918858473207,3.843736811600513,1.9398785501008904,,0.6403206450210053,1.664950622364359,1.505399623598554,1.5702579109202826,0.8212365497594172
80,1.8969001958186937,2.0114567881904457,1.5096168324721253,0.8595124088754327,0.8303040489651857,0.6414268988300119,2.7138412207458575,3.402881859976693,2.194107873605226,1.6060878255488185,0.6207552362147116,1.8968977873513597,2.017906861038663,1.457278868397623,0.6963402696593696
81,2.1571624065255652,1.956232239512714,-4.113394646038279,0.7421499465516085,0.7073291054616689,0.5101911236971397,2.123743061532817,2.950389171149387,2.434805053035006,,0.6068309995095971,2.1570427877033875,1.9609116401578468,inf,0.90978479753802
82,1.8711507942812549,1.1900047041045843,1.0265000756854659,0.7866237757403358,0.7329097995767714,0.6702820600725298,1.5676935053190832,1.6194354438675647,1.2745591847820887,0.9420772390755283,0.6403206450210053,1.871019150213687,1.1968060330795718,1.0332083670796386,0.9191575911383255
83,1.483547630335291,1.1258534896970793,0.8904677891368147,0.7287085815924058,0.714244011361178,0.3762905758252183,1.9575475987181412,2.007154362198081,1.27246484866552,1.3316509798470582,0.6357360191111145,1.483539745558726,1.132539177004674,0.8971679629073784,0.6162234378504997
84,1.7948612184836212,1.5421376464292929,1.1004951137513572,1.2795240984166962,1.2437995902873376,0.8138975962734339,1.9262149529858552,1.6072570445948355,1.7083881483019259,1.5007273098909921,0.6284777104787076,1.7948308477525412,1.5465265335535971,1.082417602748129,0.9147126408450693
85,1.12172651624359,0.8393233350968976,0.5974249270964458,0.3685773936172741,0.3142052697130385,0.5207747997594884,1.9970511078115047,1.7993214232755954,0.9923384639183787,0.8889618183455934,0.6097226960127671,1.1217103399140866,0.8459910791438839,0.6040711637516916,0.8586935108431188
86,1.356883609176528,0.8216651596845035,0.5626636546109363,0.9946135494944004,0.9514042755942667,0.6138524640042944,3.1357965787638706,2.5102589348153956,0.9700743826148576,0.6520871074489782,0.6038851895711802,1.3568650170958874,0.8280358105515001,0.5681467393855583,0.5569628693341045
87,1.771956841931875,0.9840477522923712,0.4561822424931581,0.8261692910554248,0.8156388223642633,0.9077605551560769,3.6473640477913705,2.6145839696671094,1.0396025156740611,0.5829490359054225,0.6284777104787076,1.7719568419318752,0.9907255548234,0.4628824162637222,0.4763697967516596
88,1.2230713557085497,0.7782271186987768,0.5387450316184275,0.984850464847008,0.9755647769743063,0.704941745882181,3.7419894234301228,5.232924378410217,0.950942319459925,0.7505200777594114,0.6566669596287297,1.2230423670462867,0.7846368084066584,0.5443649253225465,0.6962392945828746
89,1.1593433258289982,0.7321475216501225,0.5604141233516553,0.6829234741089443,0.6773125084457097,0.40815963038837466,2.7314963782082007,2.277734072228903,0.9914311411456193,0.9161950606218933,0.6547956803312163,1.1593181637855046,0.73876524801004,0.567020610696276,0.6117828347700723
90,1.4271629764467286,1.1379350491170517,1.0530020111833474,0.5411077660038578,0.4942409416564142,0.5381530289094101,3.00750596882123,2.9095962247690506,1.6330298458481527,1.2506066265292126,0.648888643467878,1.4271626530081487,1.1446099298015135,1.0596768894039976,0.7577528461759617
91,1.6091780766427488,1.432050071746293,1.4492262582829607,0.4576555336027231,0.4258240912676075,0.6070878163319898,3.8897687207105927,17.21005791877644,1.6063767503732593,2.4815565629027185,0.648888643467878,1.6091601732294265,1.4376315039380398,1.4254028261298255,0.7045321367330903
92,1.181242647353171,0.7094821309600596,0.46997792640180935,1.2087837322704362,1.187939148668132,0.7752693635958352,3.138526552195123,2.3072126024363824,0.9018950606814732,0.6105443464296136,0.6125606311107803,1.1812333173564464,0.7161089144466736,0.47650019941037575,0.6838580296529193
93,1.2026836567708346,0.828412155188265,0.65410864959567,1.09853451492467,1.0694898219226479,0.7516122871210872,3.0272790783684247,2.18862686062561,0.9545313676983828,0.9008274416954661,0.6207552362147116,1.2026773474962968,0.8349826601685841,0.6601098840297728,0.7082541628923721
94,0.7810426212859576,0.330571869933707,0.19033191489372436,1.1507700092984696,1.0864432830390764,0.5902550647333561,2.1647984110123355,1.967887028386286,0.364549759497391,0.2677866521705011,0.6233814453054027,0.7810316658704655,0.3372392604608286,0.19704734599260082,0.827798008290714
95,0.6911919865168257,0.32602719891662835,0.34928632407721727,0.922527722655643,0.9179268431621795,0.4753261883422024,1.9695197536456777,2.2615275969799393,0.48584908919706205,0.5330172757411555,0.6207552362147116,0.6911713560096939,0.33267365408542027,0.3558931124255523,0.7145243760274875
96,1.096579972481057,0.6364247678813979,0.6213397999667876,1.1213219975371966,1.0889299654157558,0.6134806153218438,3.45763125966962,3.076942450837805,0.7557046270985537,0.7093801528917376,0.6333676938231112,1.0965144905859636,0.6427157816302509,0.6279526029305611,0.6547203569941419
97,1.0027591187325897,0.46271173844164726,0.31840349205291685,1.3683853063513238,1.3542408109633932,0.5839341858215863,2.381944917066815,2.2136344678966973,0.5550299412357517,0.4252437173441672,0.6468212168108125,1.0027568030245884,0.4693859752213399,0.3250983545513654,0.7982599688011046
98,1.269816237267975,0.8341873252864609,0.7933978343876857,1.339136832187314,1.344601981040358,0.7258163285956297,3.1940638341807097,2.075666347385132,0.9913877533530224,1.4098830263398465,0.6333676938231112,1.2697961010516083,0.8406087843320508,0.7991496919292794,0.6917522583753969
99,1.4245416021754436,1.142637776819747,1.0504725658303777,1.1974719467328163,1.200881269846567,0.6627687018608017,3.3759564965761957,8.15373034027396,1.4527872303828315,1.2103412256702075,0.6602640781246099,1.424527118018265,1.149283607875742,1.0572191952331547,0.6902104824607133
100,1.533642484323268,0.9843837050630135,1.2331571480638095,0.865037621991447,0.8353226520439989,0.6539090001677978,3.7706498547454936,2.5562656752309305,1.1231085586484375,1.4309378160405548,0.6309483474627791,1.533609199382312,0.9910089506419164,1.239943163727456,0.7910098716322428
101,1.1662421466131745,0.6999966458219602,0.5032604060047061,0.9813192176657952,0.9450797347636378,0.6503339841040143,3.055558866994664,2.569618693809704,0.9476289905414315,0.7530745145396159,0.6447042257417027,1.166141945461709,0.7062492937919367,0.5082755225452315,0.5066343780887663
102,1.4578292428900466,1.4094009864444237,0.8839531081156209,0.7725852021357373,0.7614228850916929,0.7097392509051276,4.141937488659548,11.680790625449397,1.5365878450429211,1.6063187630812426,0.6403206450210053,1.4578142323066359,1.4160937995588636,0.8906532818861848,0.7962016576494524
103,1.660731206821651,1.7371272735749903,2.299235006108763,0.9988836760781996,0.9725049816843674,0.6984972147795546,3.6621780315543586,4.387000488349173,1.9602708248891996,2.076091454794554,0.6357360191111145,1.6607312068216509,1.743805076106019,2.3059351798793277,0.812797017505899
104,1.5260872524655595,1.3287172347297918,0.8963788502547398,1.1047953852863743,1.059726081487441,0.7860457189472668,3.380103336013793,4.494113426218842,1.4750596375893417,1.1567205779992342,0.6566669596287297,1.5260674146678894,1.3351339659284955,0.9033599331552995,0.8320179772344445
105,0.9746209722817253,0.603080016530774,0.4594986825320968,0.9203832822761264,0.8536403989476593,0.5727932167741961,2.3234951596260167,1.6648906457042614,0.7467554533839759,0.42583559114930464,0.6284777104787076,0.974537973566183,0.6097738159206971,0.46621840869853576,0.6593542121320956
106,1.3470736479666094,0.9193827209389307,0.9457304678118641,1.4927715596860742,1.4795558910686009,0.4347872805861994,2.7926770249282242,2.0468009827164817,1.0921909292722207,1.1783873675867385,0.6699045166045591,1.3470736479666092,0.92606052346996,0.9524306415824279,0.6444551132849676
107,0.9625540349341695,0.535704984859964,0.33611500253841475,1.232660033160651,1.161360858553916,0.5863540494117442,2.6926267778410957,2.796961947184396,0.7024218598907948,0.9996970378856762,0.6425374456860184,0.9625092056757693,0.5423685112712738,0.34260590105337346,0.8505481756884263
108,1.788789075133628,1.9626181961971578,1.2525390346146743,1.5790637560074217,1.5890928975629035,0.706315852037036,3.3243248642391703,6.920005173761996,2.1199201439143747,1.0952622017828277,0.6309483474627791,1.7887639602482566,1.9691083653526313,1.2594519566461646,0.8518023238271809
109,1.4352961404699982,0.9053048976931455,0.5452311538168395,1.1274258163770483,1.118775899348071,0.820265313039711,2.9088942529144126,1.9367785277731655,0.9621967447271137,0.660348541845721,0.6309483474627791,1.4352512058464215,0.9118664610644148,0.5510846701005168,0.6161508942843025
110,1.34815056170856,0.9840901167678746,0.6565860347081776,1.162637754758409,1.1670852627951342,0.7009750728567529,2.9889409622593552,5.2091236652239505,1.15930911077836,0.777811111101596,0.62595550513784,1.3481425951555144,0.990760760512643,0.6632942174102642,0.7468763399364803
111,1.4493310275618119,1.0588820946529172,0.8674353505547017,1.0820391134414333,1.027920984782303,0.5588708980830215,2.4839189267708615,2.5042981805021314,1.4177283535427336,1.7348090310679714,0.6309483474627791,1.4493051609292946,1.0653736471923758,0.8722869912937605,0.8870880848200488
112,1.0595204009936514,0.5140063194037399,0.29522038850104937,0.9615781452445019,0.9637467158942262,0.765880177524138,3.025799086015673,1.5172048100796096,0.6166476839778882,0.46471542876260874,0.6547956803312163,1.0595197888620134,0.520682998303752,0.3019191221426808,0.5404272795950331
113,1.4377458995409484,0.9865790159453716,0.6732872203428633,0.9544332168818932,0.928079831611748,0.6643478095694728,2.9773075607401758,3.772422141578347,1.1267851996192433,0.7346849978530503,0.6547956803312163,1.4377280162347401,0.9928167188672494,0.6787295798511302,0.8682177336545077
114,1.455148749901639,0.8434394520712472,0.4535499299192236,0.6549088324575473,0.6458649079098348,0.6536364890589292,3.1385165779878554,2.2706872373621,1.0689189979336755,0.4649799018024241,0.6447042257417027,1.455144385667095,0.8501109358828297,0.4602474543003709,0.6540171291782243
115,1.3110028663588214,0.6547292740559509,0.3853084885132727,1.525268629045784,1.536738682049077,0.6894689820447467,2.996123905149004,1.3169574848965895,0.8341147450869116,0.49540423401095113,0.6447042257417027,1.310980766814361,0.6613418061927853,0.3916652222071751,0.6040273112834894
116,1.171903709243226,0.5592035456607582,0.277106777487484,1.4140809699615626,1.388536217482349,0.7097489653702257,2.633013811815498,1.3153707435002948,0.6917198665895665,0.3071130108617346,0.62595550513784,1.171900084437942,0.5658763775920586,0.28381554666306086,0.7906107374278296
117,1.4433502888620497,1.126773821754947,0.8349411345754829,0.3015857801954124,0.2981533485339935,0.6517617743250528,3.161490001982932,2.2195946106182287,1.362495808254353,1.2475440021794697,0.6528756675646988,1.4433116084537112,1.1331257058466069,0.8402121719207589,0.7865005254800864
118,0.7393118215558719,0.31450051299066406,0.17468844032558128,1.6104678393593215,1.5821645006361342,0.6507468153568159,1.8972968945540505,1.2320208157740964,0.3460155840060657,0.23816844494134748,0.6333676938231112,0.7393074725433613,0.32117444076348095,0.18138507699132028,0.5844005497022552
119,1.1486839314044759,0.5046675534162048,0.32456842514384054,1.113994722891539,1.0833294016488397,0.7445425663447529,2.7504583193042698,1.7933058084237659,0.6000071851641412,0.45434396894566514,0.663668482632973,1.1486782663415938,0.5112929953933567,0.33121523218999827,0.6366828641102881
120,1.4273967235457823,0.9065805140890322,0.7623563276837655,1.369767285502215,1.3518385988165467,0.7512183428743612,2.9671784556647682,1.416088010763815,1.0150815055458366,0.6896684514927145,0.6403206450210053,1.4273941720053165,0.9132389886262592,0.7683922433059468,0.8786228015178901
121,1.6072891031804426,1.1487154910438035,0.6385037992871125,1.010913811006317,0.9299524446507825,0.7783112717120657,3.6619101708722908,4.6854591529733085,1.2035417203478391,1.3299012803737187,0.6309483474627791,1.6072735896047239,1.1554088071505515,0.6452039730576767,0.6700010565994996
122,1.754156929896199,1.1736979212547054,1.1598007229204006,1.26354144141019,1.2455016496493867,0.7481530288729795,4.3384809767769745,3.7445171599647056,1.3813516102724015,1.1753049094563641,0.6547956803312163,1.7541426056567482,1.1803900480251863,1.166500896690963,0.5560043155461543
123,1.4330371980761194,0.6799561876711351,0.3773793002378443,1.156709579850934,1.1244261820689758,0.8518175733893177,3.5747279767682687,2.481004658302094,0.7289459796080078,0.539401894998136,0.663668482632973,1.43301333834527,0.6863247003338783,0.3829182494439652,0.7652105805674372
124,1.3559719847320066,0.6067151174568315,0.25615801882984757,0.6892323305722582,0.6530393599246045,0.8108956087187289,3.081418653442264,1.9918748898360237,0.6661994228971407,0.33170024706525236,0.6727386042041725,1.355786710364132,0.612550841030812,0.2632714528031062,0.8864781262530531
125,1.1165987681778538,0.6471715328121359,0.7100103897378143,0.8693350182681657,0.8416126534239109,0.6975360028606638,2.9818031431401555,2.8097449481772716,0.9270546846474617,1.087518775359185,0.6233814453054027,1.116538677201565,0.6537202605804874,0.7165161230659753,0.8465594376466253
126,1.3265275554784863,1.0281240977975288,0.9459899345539546,1.2136462066648692,1.1418927030871593,0.5701260478531629,2.491174183362193,2.2223435168578702,1.2742979075826226,1.2780692018153081,0.6097226960127671,1.3264752924324423,1.0338566227739272,0.9383088781306935,0.7230862130166349
127,1.970433227476442,1.7841001968589318,1.9425600621700307,1.597594753824016,1.5467988757814695,0.533814827579549,2.439076109968014,2.39149808953286,1.7842053471826709,1.9425600621700312,0.6425374456860184,1.9703280771527023,1.7908831497137,1.9492602359405953,0.6994168905729911
128,2.125302692105954,1.597076015610806,-3.703260944339225,1.1293706438690014,1.1226682704389974,0.4863733746821178,2.608561298441073,4.906356586996975,1.6295364809960347,,0.6425374456860184,2.1249969433393385,1.6023923655364731,7.68017564043659,0.8623963797987151
129,1.7357128505173265,2.1729712536453043,1.095262201782829,0.826208118709815,0.8048173720643844,0.6217016984459386,3.1152759058925263,2.883775745672847,2.1729898588675254,1.0986235494855325,0.6180765742263259,1.735694245295106,2.1796676613985544,1.1019623755533916,0.6697705781754102
130,2.6125918487559825,3.0878517246347044,-5.700443573390687,1.577297143348249,1.5239537349012773,0.7915259038650436,3.967717190836673,6.315154507491229,3.087855055767055,,0.6357360191111145,2.612588517623631,3.094532858298084,inf,0.8679924632485296
131,2.5257286443082556,2.481567748522486,0.6897970936746631,1.2070125170271209,1.1966577082729064,0.8208413930065529,3.1385063855030886,3.0821098700652,3.1747149290824312,,0.6284777104787076,2.5257286443082556,2.488245551053515,0.6964972674452273,0.837568604417526
132,2.1450539079307838,1.7636301962318472,1.7884093823427736,1.7793416258502588,1.7158539547990963,0.7778610837733427,3.099031109558416,5.019907637138601,1.9459939550673009,1.6060878255488185,0.6528756675646988,2.145011705889285,1.7703502008043757,1.795109556113337,0.8073140433271089
133,2.6127400212978853,3.0877035520928016,-5.700443573390687,1.789413902948106,1.7638604090243897,0.9396025689049866,3.607751010872398,9.687766027467376,3.087703552092801,,0.6125606311107803,2.6127400212978853,3.0943813546238306,inf,0.8860364915389318
134,1.9932331280118114,1.9602373227561678,1.7436230357374254,0.9357323362567561,0.8481816835668811,0.6118969520911838,3.1590595119918743,6.594338534240954,2.323519195922705,1.6481806193729114,0.6403206450210053,1.993141528760752,1.9637626243401107,1.753567309706135,0.9196378143339362
135,1.899666908549115,1.7213351231617362,0.9774791661264435,1.0616114728055255,0.9965124136792136,0.46973977177184906,3.127364884104216,1.9332012805551466,1.7213603515036746,0.9774791661264444,0.6547956803312163,1.899641680207176,1.7280381540347038,0.9841793398970082,0.7177161561485039
136,2.3944050162420405,1.7898880825549348,-4.184293098796975,1.7589584920062498,1.7412726638538998,0.9233443760415984,3.4552181982429797,6.918137951390264,1.9201795574748977,,0.6566669596287297,2.393969654795898,1.7910292756943333,inf,0.8969253277852944
137,2.445685936634719,2.156145348087859,1.0952622017828268,1.7766141241096847,1.771058830743522,0.8622317868106206,2.815114569973959,3.5279748610835915,2.1561453480878576,1.0952622017828277,0.6509067234006624,2.445685936634719,2.162823150618887,1.1019623755533916,0.8754613451520822
138,2.5257286443082556,2.481567748522486,-5.0072963928307415,1.768120498856219,1.7648139787548938,0.923582940765702,3.012807159867197,3.839583177940472,,,0.6309483474627791,2.5257286443082556,2.488245551053515,inf,0.8797764368516985
139,2.510216286390559,3.190227287000128,-5.700443573390687,1.7778626006257556,1.7605731448715376,0.6873618215021039,3.105610507150232,7.244927696121657,,,0.6468212168108125,2.5100193506030757,3.19710202531864,inf,0.8068403193915559
140,2.469610571658221,2.5376858211725204,-5.0072963928307415,1.7468642474232325,1.7134324571198916,0.8928957331037701,3.1174755937917227,3.3062544952402964,2.537869313891127,,0.6357360191111145,2.469427078939614,2.5445471164221565,inf,0.8870650636984112
141,1.9829811424781754,1.6029617247730832,-3.5859428672512585,1.6436055545833836,1.6044331376326195,0.9057971537847431,3.0608426740750905,4.803709773305146,1.9257641294734174,,0.6068309995095971,1.982919974689214,1.6082279909313872,inf,0.8913555287491084
142,1.8830016863466383,1.9342689484721012,1.8537270965585266,1.2012587267015042,1.142840255446761,0.5639502984862929,2.7783906342859246,2.8674252415803476,2.021893861153796,2.990142594067454,0.585052858160615,1.8823408474592935,1.9379135958304934,1.8835280313664142,0.640574393150898
143,2.0933212115817788,1.661212212753595,0.8439477735019207,0.9000638795501315,0.8219866391075441,0.45745670151556733,2.7183900971790047,2.734503369739052,2.220834098325088,1.3829442742346088,0.6097226960127671,2.093315113945708,1.6678961129206946,0.8506479472724855,0.9069119945828484
144,2.113409019625136,1.795275084537495,1.095262201782829,1.7611312504009629,1.7349977925587885,0.9269108634824136,2.63156343682676,2.3207313160235845,1.9783979293402456,0.9129406449888731,0.6207552362147116,2.1126077316163405,1.8027541750773204,1.1019623755533916,0.8715591759121462
145,0.7259303190305035,0.35687073641636746,0.28738931327091466,1.0178105493140417,0.9864231343571035,0.43006722031076305,1.5446392107589386,1.4015469579645243,0.5149055776906322,0.4858290625682155,0.5978297680564633,0.7258770051828642,0.36347826222256874,0.29409868704710246,0.8381485644211181
146,1.6784307839210513,1.4570634320080988,1.4629869819081445,1.7389608740564584,1.6468757612538576,0.721695237840966,1.5592196965384753,1.7515688016333344,1.5602252973791415,,0.62595550513784,1.6784307839210517,1.4637412345391272,1.469687155678709,0.8946084771929008
147,2.4612434861855204,1.4474406179771107,-3.908684104162631,1.7481177594366102,1.7262955504912638,0.922528438785387,1.7570275654717145,2.1975662226567603,1.6299457376428659,,0.6284777104787076,2.4610599233137203,1.4543019833799404,inf,0.8219299584047609
148,2.398490021167445,1.3216557201174663,1.9769477452204933,1.7260734648097311,1.7216030717623014,0.9382315716173046,1.6817430286465902,2.0953638800338386,1.510322055774817,1.7884093823427731,0.6468212168108125,2.3983620483878143,1.3267204543900823,1.9853889600291008,0.8128900092598802
149,2.2380465718564744,1.6706375323061566,1.095262201782829,1.7521513259652488,1.7290427357719602,0.9404254159419105,1.8667221869289865,2.1722541183215602,1.670637532306157,1.0952622017828277,0.62595550513784,2.2380465718564744,1.677315334837186,1.1019623755533916,0.8544974953799874
150,2.4079456086518722,1.3465878156835016,1.2494128816100862,1.6155920560359456,1.5902677365251545,0.9655489719848979,1.558865837319909,1.8437204426746974,1.9062036036189238,1.3829442742346088,0.5490601803369085,2.4079456086518722,1.3532656182145304,1.2561130553806499,0.8373570696479335
151,2.538780259396686,2.4685161334340555,-5.0072963928307415,1.77750764223667,1.7515040123679926,0.8760760126940813,1.6399800282911852,2.127737680122604,2.468707632792881,,0.6038851895711802,2.53858876003786,2.4753854353239104,inf,0.8213674130540828
152,2.1484344131667874,1.942571247789798,1.6060878255488191,1.7375263782182686,1.7484387245719422,0.9124268876802609,1.761765843362744,1.907522196576201,1.9425712477897987,1.6060878255488185,0.6447042257417027,2.1484344131667874,1.949249050320828,1.6127879993193823,0.7700311128217275
153,2.3025850929940455,2.2992461917285323,1.0952622017828268,1.6827019946378776,1.6508382969264255,0.8346730675683578,1.754457469924907,2.0759457617952544,2.299246191728531,1.0952622017828277,0.6425374456860184,2.3025850929940455,2.3059239942595604,1.1019623755533916,0.7691936870762695
154,2.2678903482721804,2.0462588639986157,1.3829442742346085,1.6232829397776978,1.5678432447193258,0.9081531474798699,1.6165384815952015,1.9864049341641679,2.0462875553351356,,0.6447042257417027,2.26786165693566,2.052965357866165,1.3896444480051726,0.7983881833438892
155,2.4079456086518722,2.1938856760707055,1.0952622017828268,1.5859899550030576,1.5645239250656875,0.8604698083156479,1.5234670306988516,1.5705727472720608,2.5993507841788692,,0.648888643467878,2.4079456086518722,2.200563478601734,1.1019623755533916,0.8041372596851647
156,2.3715779644809976,3.3288656089096893,-5.700443573390687,1.584325096578197,1.5575245705979068,0.8896128241057826,1.3288084719942448,1.539406001158282,3.3288656089096893,,0.6566669596287297,2.371577964480997,3.3355434114407183,inf,0.7868604472782719
157,2.1337855571441056,2.1803636551266905,-4.314149212270796,1.6818924791277707,1.6527621805308705,0.8967051651937984,1.2323442209925848,1.389293150155814,2.1804626557385642,,0.6207552362147116,2.133686556532232,2.1871404582695932,inf,0.8035276977333786
158,1.6096059836172636,0.9553433738442727,0.567194771582332,0.5604910394873471,0.4930533939749509,0.4918620882413333,1.807164597097583,1.961743555360923,0.9553447644703372,0.6472374792558676,0.5978297680564633,1.6096045929911993,0.9620225670013667,0.5738949453528949,0.8167088995294671
159,1.8836395887650321,1.7891672641646965,2.024286633575676,1.7329925850871597,1.6978614997646626,0.9164852716983116,2.2259917301622525,2.3449571939578404,2.2074232577416795,,0.648888643467878,1.8835824032149067,1.7938077508512738,2.033081308740817,0.8258063258458017
160,1.8288972560241958,1.7930506323495885,2.0751455981316203,0.9197015729401782,0.8639713847419501,0.3494368005814243,1.6278291580387618,1.8403785939800639,2.1874382861349226,1.6808167229010058,0.6509067234006624,1.8288384774694757,1.79967782691737,2.081955158420152,0.8161302633904858
161,2.75934349548976,-2.75934349548976,0.0,1.5276349251482184,1.4845572456646927,0.926889542800655,1.2716609318213545,1.8149258512514388,,,0.6333676938231112,2.7593434954897607,inf,,0.8615192003085864
162,2.445685936634719,3.254757636755968,-5.700443573390687,1.6315226034840236,1.5974824984909226,0.8887538960583633,1.6410516365971148,2.3825848484565424,3.2547576367559676,,0.6509067234006624,2.445685936634719,3.2614354392869966,inf,0.8217874194744879
163,2.7538722107550884,2.253424182075653,-5.0072963928307415,1.6418578945218292,1.6078803518906692,0.945053622046339,1.4845788580156214,1.9038524654450304,2.2535512324664015,,0.6468212168108125,2.7537451603643395,2.2602290349974306,inf,0.8207658904823321
164,2.426564170456743,2.5807322223739986,-5.0072963928307415,1.720206777307213,1.696669106214323,0.523041868689721,1.3825857905621555,1.8257947524534084,,,0.6447042257417027,2.4263862009759922,2.5875879943857782,inf,0.8446168791944352
165,2.2752602406415536,2.732036152189188,0.6897970936746631,1.6192382177553222,1.613700434852554,0.3857940842296092,2.62242694555207,4.677504198804803,2.73211027402481,0.6897970936746634,0.62595550513784,2.2751861188059315,2.738788076555839,0.6964972674452273,0.674678564999878
166,2.3025850929940455,2.704711299836696,-5.0072963928307415,1.7026756233777731,1.6757359311355158,0.7861802576164002,2.5154588645196405,3.222511908568733,2.7047112998366956,,0.6233814453054027,2.3025850929940455,2.7113891023677246,inf,0.8590038352951513
167,2.6127400212978853,-2.6127400212978853,0.0,1.346416557894761,1.3292007447392424,0.9382646554478153,2.3958440164569375,2.9631361294145098,,,0.6008849035917525,2.6127400212978853,inf,,0.8623158558591834
168,2.5188960987105404,2.275692462766624,0.9025049250282402,1.6565624025009344,1.6415582244430464,0.8973478936850134,2.252833515459484,2.4641214045944757,2.4738259782842142,0.70473513078353,0.5748741956352443,2.5185323774376607,2.228457422035056,0.9634816633342814,0.870308458284043
169,2.3325414011759893,2.0459880282181757,0.3817936516120284,1.5491651686775483,1.5479006503438626,0.7166381661437208,2.131460759016453,2.232034814183098,2.4221393806059273,,0.5158180382284114,2.332357251327716,2.0417012136969888,1.5160535878229897,0.8728254555770804
170,2.05364355675747,1.2182654051759179,1.4924141539749822,1.0633476077688337,1.0136121489896954,0.8976840910870055,2.1129631216082863,3.0380217015626854,1.3541342049882583,1.676663876104511,0.5158180382284114,2.0534706136915233,1.2222695506136834,1.4472130573392683,0.8638941079709058
171,2.4079456086518722,-2.4079456086518722,0.0,1.6589365063434254,1.640845700009529,0.9103472809727708,2.4006599156303707,2.85741308483152,,,0.5783247308855777,2.4079456086518722,inf,,0.817230783346543
172,2.622912347242729,2.539704651265324,-5.162616998508053,1.6322258580102154,1.6324383798555715,0.9116699229248585,2.26685590557395,2.490895576228348,3.348904194572852,,0.541134803179459,2.6226373232540796,2.5101656048163834,inf,0.8484778295245099
173,2.52327932463704,2.4840170681937015,-5.0072963928307415,1.703844170667407,1.6707231355252614,0.93724815129047,2.2580062550880404,2.320948328017974,3.177211809281018,,0.6284777104787076,2.5232317641096684,2.490742431252102,inf,0.8378783598546936
174,2.642202697866651,1.6719465144041452,0.689797093674664,1.7317577736621232,1.7219467217981037,0.9112651719702419,2.2628457641942754,2.7079838791751634,2.1164499460164303,,0.6207552362147116,2.6419503993976865,1.6788766154041388,0.6964972674452273,0.8375866708432513
175,2.70805020110221,2.2992461917285314,0.6897970936746631,1.7793487594449235,1.7231410253516188,0.9103981903744377,2.53931468817483,3.2197202494836423,2.299246191728531,0.6897970936746634,0.6180765742263259,2.70805020110221,2.3059239942595604,0.6964972674452273,0.7949833806695892
176,2.377275562067768,2.6300208307629735,-5.0072963928307415,1.7831158957122042,1.7603228549326972,0.9123685268943061,2.3280468264719443,2.304238875883132,2.6301074782742453,,0.6333676938231112,2.3771889145564957,2.6367852808052743,inf,0.8160683980025732
177,2.70805020110221,2.992393372288477,-5.700443573390687,1.7424835853570366,1.7357461031490653,0.8759957208284821,2.6959277602370273,3.88488497697563,2.9923933722884763,,0.6125606311107803,2.70805020110221,2.999071174819506,inf,0.8234025465544992
178,2.0135860812041115,1.7409473431312623,1.2494128816100862,1.1302301817406069,1.047787432976134,0.9162104901483977,2.4661972225843525,2.3346888229444485,2.5882607094140906,,0.62595550513784,2.0135705753084863,1.7476406515579164,1.2561130553806499,0.8708017764316281
179,2.092864562011976,1.9981410989446093,0.5074755368807091,1.2103694832446537,1.191203694614407,0.4069856030242277,3.1234240982504873,2.252787240060336,2.2171127626894127,0.6939689812440699,0.5947193981915972,2.0928645620119766,2.004818901475639,0.5141757106512727,0.6583970645078128
180,2.3183282393322067,1.9958209729385894,0.2843319855664985,1.0376326852692253,0.9797758853896971,0.726443083453438,2.7843826246913603,2.2570040352730754,1.9964504814667021,0.28545117986351404,0.6403206450210053,2.3176987308040937,2.0031282839977314,0.291032159337063,0.6281104037929608
181,2.817792861821099,-2.817792861821099,0.0,1.5227727353732186,1.475371819091933,0.8813947796826581,2.423377885510987,2.4797780097903908,,,0.6038851895711802,2.817679072502724,inf,,0.8578186208510344
182,1.7122186907199322,1.7751433715398794,1.111119135577483,1.348147681222354,1.3322270166637504,0.3776090192046907,2.1068668004179583,2.0291041177112272,2.0016593674052316,1.2884628686199686,0.6038851895711802,1.7121476235930064,1.7811650469769547,1.1185465035689268,0.8586328895016894
183,2.3025850929940455,2.2992461917285323,1.0952622017828268,1.7119194483177218,1.6792366595155093,0.8955452804974283,3.163213721979273,7.773353293501902,2.299246191728531,,0.6068309995095971,2.3025850929940455,2.3059239942595604,1.1019623755533916,0.8891943477787039
184,2.5328597563410957,-2.5328597563410957,0.0,1.1913408290130372,1.1574148312426706,0.67293686700532,2.521634932673357,3.3568146807656354,,,0.6038851895711802,2.532697313624349,inf,,0.8901868896597677
185,1.935939211630354,2.1347111000850014,1.6264431747900492,0.4420431283119902,0.3775012333956187,0.30743773508215483,2.2343619571931286,2.465944643793274,2.349444207394608,4.40083175131168,0.5947193981915972,1.9358608132023118,2.139334930181028,1.6352757194236578,0.8350919842506878
186,2.5257286443082556,-2.5257286443082556,0.0,1.779533043139128,1.7238784362738557,0.9052205998095324,2.150923091671256,3.128955589912062,,,0.6403206450210053,2.5257286443082556,inf,,0.8415030411916937
187,2.436250854639007,3.1390089470117575,-5.575259801650764,1.7676811734199445,1.7417184435318078,0.879123535167624,1.869140689582307,2.366246674765332,3.264327087772118,,0.6602640781246099,2.436116485618568,3.104980406760537,inf,0.8391214316693062
188,2.5682882587270512,3.1321553146636356,-5.700443573390687,1.7701417491597689,1.742347210704235,0.9277346475910957,2.005716901375054,2.32418113013064,,,0.5947193981915972,2.5682882587270512,3.138833117194664,inf,0.8571578224182762
189,2.6127400212978853,-2.6127400212978853,0.0,1.769068968674921,1.7633188102705788,0.7238079674460923,1.9493777693636731,2.1141297679244992,,,0.6008849035917525,2.6127400212978853,inf,,0.8450672564964371
190,2.333096489502159,3.3673470838885278,-5.700443573390687,1.7578568186091994,1.7269388498758795,0.8953332542322593,1.7377710685083736,2.290098845916605,3.3673992729119324,,0.6425374456860184,2.333044300478754,3.3740770754429614,inf,0.8299025002420258
191,2.6221990911436466,-2.6221990911436466,0.0,1.7506744704889374,1.7119769380270802,0.9456115489661792,1.653410362629686,2.1592308788788643,,,0.6097226960127671,2.6220254217511263,inf,,0.8408377891520379
192,1.6687580892936469,1.8658485996307663,1.4693396170210469,0.48668353374193907,0.4206750016619681,0.2935527346887564,2.164437421411088,2.383824982536933,2.645609823001333,0.6897970936746634,0.6528756675646988,1.6685393892694627,1.8696238474658502,1.4791610455117394,0.6375802325666537
193,2.5257286443082556,-2.5257286443082556,0.0,1.3476294983871493,1.3451381063921888,0.9502387348625996,3.3756412717139805,3.840260866278917,,,0.6207552362147116,2.5257286443082556,inf,,0.8387510483976359
194,2.445685936634719,2.5616104561960227,-5.0072963928307415,1.5948141163565948,1.5328427528133501,0.9417442237896981,3.036799817335706,2.2455086895325342,3.2547576367559676,,0.6233814453054027,2.445685936634719,2.5682882587270512,inf,0.8567871781813584
195,2.0926867736980954,2.5091445110244823,1.0952622017828268,1.0906761258886464,1.0465284616108133,0.3399039773602822,2.491416652149949,2.7364899718469275,3.5243775663893397,,0.6509067234006624,2.0926843980622953,2.5158246891913105,1.1019623755533916,0.79540634625572
196,2.5682882587270512,3.1321553146636356,-5.700443573390687,1.683985714423174,1.6580671292684475,0.8611880759570028,2.473713331118799,2.729755954402974,3.132155314663635,,0.6584896970785714,2.5682882587270512,3.138833117194664,inf,0.8776248507302267
197,2.70805020110221,-2.70805020110221,0.0,1.6426259883592325,1.612481035040264,0.9530115424758233,2.51079632852426,2.8645135700751094,,,0.6068309995095971,2.70805020110221,inf,,0.8689523034326752
198,2.70805020110221,-2.70805020110221,0.0,1.605612889512252,1.578046113210844,0.9131546221866081,2.364977379237311,2.353212276280136,,,0.6403206450210053,2.70805020110221,inf,,0.8715044734584747
199,2.731645116520483,-2.731645116520483,0.0,1.6381693908103503,1.6040714121331792,0.9005202261533977,2.334846191106402,2.1049942298431064,,,0.6068309995095971,2.7313188280415646,inf,,0.8566888543920583
200,2.2702361735715373,2.737060219259204,0.6897970936746631,0.981028863416766,0.957620937393052,0.7182814679658157,2.1375317848065905,2.273771932871637,3.4302181031699766,,0.6097226960127671,2.27022547022071,2.7437487251410606,0.6964972674452273,0.8554585933466874
201,1.5322085299394885,0.9580436684796583,0.8204434914471053,0.7409914686188572,0.6763729955503239,0.355392346774361,1.9812624004941712,1.7471074662856114,1.2462651677648426,1.133634604751051,0.62595550513784,1.5321682769427998,0.9642712886589248,0.826562968475374,0.8850812537871449
202,2.4717316614889864,2.4257230130917176,0.6135590319086068,1.6902311203950704,1.6767345571296979,0.7506221140897077,1.963547155576833,2.5984981262010582,2.4636071768396715,0.7623510639616509,0.5883313578629602,2.4711352457040823,2.4158085760496237,0.5857269319391084,0.8733746595847305
203,1.4579767454083434,1.5261848881483728,1.5946925962555638,0.17868665972649117,0.08333073799494005,0.4779206966172519,2.0513355276207483,1.8986972521782497,1.7870410928777125,2.406232976392347,0.5713653840954815,1.4579097159312668,1.5322823772471088,1.5940867337783393,0.7883030660461172
204,1.393862468521013,0.6663887090493148,0.3408834038563495,0.9919057542775878,0.9254406658798711,0.5006727041170166,2.3618804503084974,1.4480175559920836,0.7629880827260543,0.3457159549571828,0.6233814453054027,1.3938338226775149,0.6730644929831302,0.3476120035056241,0.6444189801742508
205,2.5831055129173293,-2.5831055129173293,0.0,1.7792859928002338,1.7614682363760343,0.9132591312865098,2.5324929418550997,2.2328961216560974,,,0.6380535849069913,2.582887058148204,inf,,0.8538000334176497
206,2.445685936634719,2.156145348087859,-4.601831284722578,1.7759270887517729,1.7339015123787098,0.8894178349049688,2.304424787768069,2.508468892059691,2.1561453480878576,,0.6008849035917525,2.445685936634719,2.162823150618887,inf,0.8559495863778721
207,2.813410716760036,2.887032856630651,-5.700443573390687,1.7732450998816647,1.7278621614658438,0.8986290553400824,2.347161556983961,2.2295020799713487,2.88703285663065,,0.6528756675646988,2.8134107167600364,2.8937106591616795,inf,0.826527605699806
208,2.0422166670069304,1.031899640686634,0.5809569158691557,0.23036313070440706,0.14597786326721518,0.4829579617997323,2.127861868984682,2.0506050488459717,1.3536652269075755,1.2026273956930322,0.6333676938231112,2.042188575236687,1.03789195788745,0.5829146068337697,0.6591271930235325
209,0.4508257695281255,0.1926341788467354,0.14351477671537738,0.08467349851939517,0.05560159057458756,0.42884165843028504,1.1823641883445384,1.019296799406811,0.3238110452129653,0.29955363362884047,0.62595550513784,0.45056708202058454,0.19905243431349393,0.14992575501568664,0.9097226870769247
210,0.6226697656829698,0.22661289526055461,0.13919719367389438,0.8443225377713344,0.7246900978603357,0.45271598045303846,1.7911435193134453,2.14120215144632,0.2827592502994708,0.24047751150689056,0.6509067234006624,0.6226680067603025,0.23328572635631065,0.14589488711918847,0.7674178063213772
211,2.444427925701957,2.5628684671287845,-5.0072963928307415,1.7774160950561013,1.7452353005272092,0.8650543718887318,1.6299565706238193,2.103998680060635,4.913431172468152,,0.6619902821573977,2.4444047064786707,2.5695694888830998,inf,0.8117934173750627
212,2.040220828526554,2.9670755643041873,-5.0072963928307415,1.7441082631252454,1.6915504364365792,0.8392948775799735,1.545277748416844,2.5383787965188773,2.9737869988921735,,0.6509067234006624,2.0402208285265546,2.973753366835216,inf,0.7876332429607132
213,1.5292129427619525,0.9161510705421196,0.48412191198894794,1.2866388413484815,1.2713746215378017,0.9033626009388025,4.107535794675259,6.559605487079096,0.9926423871477535,0.4672108006640915,0.648888643467878,1.5291900975913495,0.9227977054395414,0.4907304352374832,0.6407556704271556
214,1.4678317201007942,0.42594936351957213,0.19239449024081345,1.1154872120996187,1.0736961797927427,0.7946879579648854,2.8868389269012953,0.9232542600209652,0.4716053423823555,0.24125268305672393,0.6447042257417027,1.4677936846990274,0.43266520145236853,0.1990946640113773,0.7701501621694944
215,1.5769706110036457,1.1501054781731668,0.9453509493722949,1.36434718587341,1.3328997935413265,0.7605583920335296,3.5205664674013426,3.1476504940580763,1.4127361494302109,1.0896918653176337,0.5641709578113449,1.5765405685099898,1.15375524153954,0.9357355499810444,0.725119044009515
216,1.5178121814704786,1.840488061907467,-1.3619306739698627,1.3542867246212178,1.3195980265202674,0.5968334668939353,3.0341248497882294,3.834739471316643,2.063331848179643,4.202419903043965,0.6038851895711802,1.5175173091429763,1.8317203335884682,2.318534394401724,0.8438315199190672
217,1.3964511131712107,1.1223308575962088,0.6381093833714959,1.0975287927514317,1.105392601097861,0.6241049217928167,2.684101982323534,3.056240949574082,1.4615917208556402,1.7404549892207373,0.62595550513784,1.3964344877609176,1.1287387552556378,0.6435905404242976,0.9175794083047824
218,1.4810681236573702,2.2734653006780037,-3.754533424335374,0.6277778332536583,0.6039633439519775,0.5136137172982685,2.379855031906929,2.8493894828051305,2.609960963290885,,0.5883313578629602,1.4810446976657015,2.280166529200701,inf,0.9383940972223986
219,1.4254430971655385,0.860303229766908,0.7551712042550749,1.0889988275857285,1.0498217858783534,0.8424033611636487,3.6352319949215,3.3804567587133936,0.9549778421780533,1.3800762312246528,0.6425374456860184,1.4218985108186302,0.8376270927149685,0.7040622166938251,0.7302215090389773
220,1.5902010860165823,0.9687364557079627,0.8241130443600988,1.3153216630353277,1.2281103681143135,0.8707712058377223,4.055645173544284,5.964571568332316,1.164350509717746,1.1458914665662536,0.6447042257417027,1.5900711099432503,0.9733017131241831,0.8066489411262723,0.8587669073736048
221,1.298268214924581,0.935128334065805,0.8809283452098726,1.5091848485184447,1.4828522120588488,0.6584574612945159,4.231763792381418,3.1783383208121068,1.0328212622685589,0.890249795962264,0.6584896970785714,1.2964130323105245,0.8887841648129766,0.6885141198795565,0.8732983078163831
222,1.6310968409919542,1.3275833869787843,1.0556095052002652,1.4576615488228064,1.4665382128541176,0.8415401911094662,4.497731470324861,12.863361012906484,1.5685086582290213,1.4844369075856882,0.676637947632344,1.6307182977436714,1.3307199085863533,1.0510191964198916,0.7676429134346969
223,1.3280428890259404,0.9769386190198106,0.7697802452801477,1.5741921005133659,1.560546139125212,0.7348410074451752,2.776002987807188,1.5249968192066472,1.2425611353345398,1.2908358307335597,0.6684167106117298,1.3244260685381983,0.941184421664486,0.6790062825458762,0.7829952293638198
224,1.4662052529763778,1.3145588183714316,1.532955200026096,1.4171924788912473,1.381020507535365,0.8123266452355044,3.235072121066173,2.773603001654235,1.5340550220048486,2.7737546413942162,0.6528756675646988,1.4623598034244056,1.277353078186646,1.4585118110984412,0.7457784397624841
225,1.5340739927368536,1.2753409747965556,1.357154681636807,1.4528539234661275,1.428160725964667,0.8032599911421185,4.325139347162919,3.502076440930633,1.4333292571173648,1.387226979830722,0.6566669596287297,1.5330943458467665,1.2793908733923267,1.3515667554078274,0.8371750742851932
226,1.4787442712991192,1.4960460955568269,-1.3111043844580796,1.5472349227736555,1.5318200049039397,0.8209435817687621,3.2571580153082498,2.5063175631853944,1.5162660168236124,2.1025207989437686,0.62595550513784,1.4654818790169113,1.3310353034076292,1.511020600258602,0.8151688597312695
227,2.0942562941193477,2.4202438552971697,-4.47185164664859,1.3058703916199914,1.2977070214901558,0.7440704797409864,3.3114889802448855,2.907298929400887,3.2629089875795994,3.9682976308189706,0.6333676938231112,2.083538812932403,2.7815541758731945,3.7698832382670235,0.764234687779392
228,1.6819395973305677,1.7233064325704792,1.3854111150256978,1.5843992195295735,1.5610761847422248,0.8600555067360838,3.394055120847448,2.207197140310264,1.989351169093343,2.1351203761406006,0.6333676938231112,1.678728447266009,1.7102110370006445,1.7920887957582832,0.5295590767344049
229,2.1011803650313694,2.3260429948133603,-2.09485622778547,1.50212361275387,1.4909910923687903,0.8040339357410141,3.9615573033142724,4.135724493630981,2.62920995232295,4.362747678696458,0.6468212168108125,2.0996442489973552,2.315824272899159,2.1880753826826314,0.8921747990534928
230,2.2182503241656844,2.5829561992712438,-4.801206523436928,1.4964031536159945,1.4791657670822356,0.7713912860506617,3.9516291012545497,5.8328927628384495,2.9555931719916737,,0.6584896970785714,2.212845958239176,2.7747240629260834,inf,0.8784436543543834
231,2.425244896773415,2.6883517767496246,-5.113596673523039,1.5598032931603087,1.5245521509173525,0.7501223849844608,3.7092207025331243,2.488032840562333,2.9213594582516103,,0.6333676938231112,2.3927529616174557,2.725096416785949,inf,0.8955296363711839
232,2.30549531438355,2.7737695027777693,-5.079264817161319,1.3854650637048156,1.372842314800525,0.7955842045915114,3.7516946578459325,2.407376357310442,3.305954889946344,,0.6584896970785714,2.301918648450885,3.114181753753535,inf,0.7782428355401216
233,2.2948674778856026,1.7670221990041575,-4.06188967688976,1.6568415752277246,1.6131531099473768,0.7888082155005036,3.2516557459856044,2.0054585145364205,3.8239182042013877,,0.6547956803312163,2.2786515760319483,3.6864956627586603,inf,0.8055461416678669
234,2.160856748642767,3.3247305812670525,-5.485587329909819,1.4045435463425018,1.392505223161556,0.7958027351905862,4.415818015805619,7.508649436882341,3.4704448873937226,,0.6547956803312163,2.155890713843242,3.2778646235998985,inf,0.7390611110108
235,1.7528001277663592,1.4234478117716056,-3.0279578270180876,1.1587102321513634,1.1341747531492516,0.7358744071562392,3.539612617701004,4.203919920452181,1.5697658685417044,8.073227596987712,0.6207552362147116,1.7511935074813934,1.4827959551968555,5.870990393640108,0.803406229092935
236,2.163337979006134,2.2224260220887495,-3.3916403054630675,1.6151972365684573,1.6042250598815035,0.645391507633151,2.9506114227612916,3.713492221195567,2.299757150848458,,0.6425374456860184,2.1570427877033875,2.134940035424561,3.1643384076030263,0.8657609442452417
237,1.588430334331057,1.2586812660706996,1.2835137684296312,1.471467705522548,1.463278983817991,0.6854243136451567,2.580456168653494,2.7105742376209068,1.4464968104552567,1.9231065677181707,0.6180765742263259,1.585233223737283,1.2553964422640675,1.4006693091774134,0.9270671536410795
238,1.3824661120578872,0.9436883607572482,1.17011450405544,1.5385133411198706,1.513499943265417,0.6184699541588208,2.904917995117742,3.5695060754898034,1.1943781304997836,1.453770055079678,0.62595550513784,1.382125286025528,0.9478310037646497,1.1582524688616074,0.6170313295590941
239,1.1694972962888421,0.7808767640415764,0.8059651025587127,1.5705762028249386,1.5215560131000803,0.3830469134514865,2.368887494295673,2.512777253824896,0.9306305725222487,1.086538940456579,0.648888643467878,1.169070518983365,0.7872491774600024,0.8102427757265109,0.651679653959936
240,1.2634812697574844,0.9196146453246095,0.8956626818299704,1.7077215081647723,1.6510049055942946,0.6927426195249775,3.665447107670237,1.5048411671522972,1.2315883411185629,1.588600848903034,0.6403206450210053,1.2634476244547892,0.9259079945027351,0.9004431636355342,0.60053418403128
241,1.2039728043259361,0.885552856420526,0.7743544817027268,1.6506266979571942,1.5845429003577922,0.5925985963019487,3.2548282618841573,2.3805410561887745,1.03639466546321,1.2917072915589143,0.6380535849069913,1.2039728043259361,0.8922306589515553,0.7810546554732903,0.8272118071886003
242,1.7660173439265938,1.4525406799475131,1.3867262798039288,1.3774626845332727,1.3440482028815903,0.6095816332031861,2.396190448340581,2.748311327101665,1.5025126958735529,1.6911659819428886,0.6584896970785714,1.7659617764069144,1.4590439088368232,1.39246202855476,0.6786733602655625
243,1.032581195188267,0.6278892976895041,0.5454849833379019,1.5539033096894994,1.5543694881707055,0.38265208694994685,2.498340982219472,2.4585684000388617,0.756581733332253,0.8394157983570377,0.6333676938231112,1.0325748914068027,0.6345509868198409,0.5521398299864563,0.6691855258868667
244,1.0740294560536932,0.5405574309201555,0.40628604940976487,1.1618397912125518,1.169890744691365,0.5027213622702776,2.3760350874618523,1.8395368101810985,0.6545580754439893,0.5673207875865304,0.6547956803312163,1.0740172418127294,0.5472121397744029,0.4129414093127892,0.6430002464800114
245,1.249750067147706,0.7168430487441324,0.4844543475652978,0.8713395206288712,0.8662517712683049,0.6923208248501765,3.299080104526009,4.442996591266315,0.8365703205839015,0.6623237131967793,0.6468212168108125,1.249706533045492,0.7232551197086015,0.49018350525239424,0.632336972794392
246,1.4711358500010572,0.8326456663663617,0.6852617690357756,1.4400778749221428,1.445173149571106,0.7228179233074572,2.126219947756477,1.421980909302071,0.8971127665788944,0.6605082736066257,0.6380535849069913,1.4711262966365881,0.8392669788052691,0.6920279862629303,0.9339781492799827
247,1.0128667251626515,0.46821853451993745,0.2459080736227479,0.3664140982616274,0.32641120800856377,0.6139738875950949,2.306825780321393,1.1854346804210687,0.5435969967153909,0.40184610974590534,0.6509067234006624,1.0128628186593989,0.4748984136319391,0.25260828055442097,0.6044041998635594
248,1.3432194569284812,1.166620839309584,0.6004594298578572,0.9714908074093636,0.9569392898507696,0.7699254393256645,3.7266084249929596,1.8288987042879379,1.303504005601936,0.7369268273500009,0.6097226960127671,1.3430646009285707,1.1732639188677696,0.6067322022575656,0.8498762923804631
249,1.4928364384354447,0.7232727774059662,0.49129331695620504,1.3972227612718304,1.3772852639874444,0.8363093027797146,3.615978146055848,1.9493894489098529,0.8706612873208487,0.6978032940373381,0.6233814453054027,1.4926924519097104,0.7298499334107987,0.4977491022040546,0.8574939083393625
250,1.3213096306528764,1.060010537306431,0.7508239610845608,1.5515919667159441,1.5147872371671482,0.5879123828603445,2.4586775022702034,1.6255391612241215,1.1079267680370442,0.9667937738073046,0.5947193981915972,1.3211310352134775,1.0665279190272472,0.7578631511047365,0.8954807652496275
251,1.1241522732577405,0.5795701169088017,0.5310420791025989,0.7283734736589643,0.7123167117182853,0.690339286622478,2.8107042885252915,2.405357083581507,0.7739658206051914,0.8029246322684052,0.6584896970785714,1.1241352458991956,0.5861671317525922,0.5376893167380848,0.8487080446067361
252,1.2767182156741916,1.0564295277300202,1.1667211657649732,1.6429141345307934,1.6428424945632292,0.6419317672721331,2.2840281790146317,2.2967120003269312,1.4525547931264682,1.8692235957765784,0.6180765742263259,1.2767028089342483,1.0631227370009932,1.1734213395355366,0.9247604732079228
253,1.6404353925010517,1.2172597589871161,1.0476388657891818,1.1367407482462044,1.142739110059062,0.8101698825898254,2.533142139055095,2.632404826610602,1.3446497330198932,1.1256762945007535,0.6509067234006624,1.640412716733531,1.223706670018568,1.0545926068268439,0.9101184017626414
254,1.4002162553607433,0.8868571258883502,0.44647523455625215,1.4314430246814516,1.3960367756945,0.7184680979469843,3.2466324425204016,2.8971461878215723,1.0282103259754791,0.703720803322403,0.6447042257417027,1.4002129997459856,0.8934123518765883,0.45299244262889476,0.855716666156645
255,1.2058487242279652,0.7125846067488417,0.6037541410770013,0.37960886502871427,0.33793558429273196,0.5381293096791717,2.8985044551481742,2.1986008126540995,0.8200537802746972,0.6763203379714523,0.6309483474627791,1.205826372975259,0.7192359435672164,0.6104361193615853,0.9293775595640035
256,1.3493962608370729,0.8009717895449731,0.6097459819811482,0.9363112049125089,0.8752243293693297,0.6769304937394826,3.345343802230605,3.1617391164705557,1.1432142541244794,1.2585850762258184,0.6380535849069913,1.3493840070997936,0.8075627237378556,0.6163533554726779,0.7598334336059887
257,1.1075235864582145,0.7380939333080754,0.6602599223309711,1.2317458935518844,1.2216934751869306,0.4632498387129353,2.974412932109247,1.7359885805535265,0.8553350906533029,0.7901542130211713,0.6380535849069913,1.107518498139106,0.7446989401260631,0.6664528416756405,0.6390114588354573
258,1.1085286200435644,0.8077253194288607,0.6027857166850341,1.3290082996140735,1.283305878297839,0.5438197468976504,2.7838955659213687,2.0137278294008985,1.0365675584457865,0.9129406449888731,0.6602640781246099,1.1085279534554862,0.8144037885479684,0.6094858904555975,0.6320629592471634
259,1.1468689060941448,0.8024224919181149,0.5176075343256743,1.3716342460638178,1.3175427160063395,0.5698431367124298,3.5160307885688855,7.611742279419702,0.9700670336384722,0.9411115219555694,0.6333676938231112,1.1468576012961043,0.8089121049546526,0.5243484268054465,0.7121604179704886
260,1.4590762668025619,1.162467426716717,0.8380195150291265,1.591206839316202,1.5715973028634926,0.5880202688104452,3.0401714514844502,4.442420114714256,1.4687986200221514,1.3829442742346088,0.6309483474627791,1.4590562311287538,1.1689512622999199,0.8436123525300275,0.5182224423612548
261,1.0040634246542022,0.4768236181442531,0.32431835127646513,1.004688314448915,0.9818901145189374,0.6485154155919802,2.5823456024086227,1.7654653035038779,0.5222536326830003,0.36463952712242514,0.68318204999448,1.0040599717268868,0.4835045166751736,0.3310181948698703,0.5826218951468349
262,1.3866112511511328,0.9136884126118143,0.5654789066861805,0.6761673903778731,0.6353646495282171,0.7695614212457705,3.488768662531201,2.681035259594576,1.0837874408530928,0.7661369963251399,0.6619902821573977,1.3866055206361034,0.9203223217920794,0.5721084058042364,0.7044171663783387
263,1.3729189658153673,0.9054243113464409,0.6047157531069063,0.8047109363074204,0.7730723547696122,0.7415066551271897,3.4200071493330713,3.4989785410184004,1.0331403429376604,0.7266903215100795,0.6668815377411301,1.3728298601666014,0.9119153146991134,0.6104381400276722,0.6716861266137024
264,1.3857685772093147,0.7867875813810334,0.5271830364260808,1.2048046051415557,1.2033505488651364,0.7361346625933706,3.305024162487939,3.1029655997384697,0.821219911310383,0.7179432340835065,0.6309483474627791,1.385761169958232,0.793427044891889,0.5338745280756336,0.5076072215331748
265,1.7916274517127468,1.5103388329799734,1.2965149131445743,0.2072676580771644,0.1716410565484186,0.8106890007784574,4.08690578305162,2.336154736259254,1.7115928512716465,1.5007273098909921,0.6566669596287297,1.7916261447828206,1.5169920555862417,1.3032409737698258,0.5519498063804061
266,1.6418009651074454,1.058839261237552,1.0393408130661226,1.1740627150487326,1.1505145554056841,0.748807779138015,3.145630468188788,2.191636509655883,1.1809980778098539,1.26486855360969,0.6447042257417027,1.64178894265176,1.0654282721465582,1.0454306866657634,0.7910596813520653
267,1.832237808961598,2.077665837386945,-3.9099036463485435,0.2647998987009026,0.21901195580491054,0.5745244329951767,3.6483860683047338,14.433596774682364,2.4819149104770224,,0.62595550513784,1.8322343017937732,2.084243053983753,inf,0.7920449422503186
268,1.8596026651907005,1.5927453426179876,1.1287564205516527,1.1005438315526939,1.0777169100395692,0.7586956905465111,3.510383897128292,2.694673619450258,1.8983447195713108,1.246062794724804,0.6602640781246099,1.8595387916493444,1.5978762700110396,1.1345098975776868,0.8029187690590286
269,1.3706914509475734,1.1290200878576653,1.3563754721263557,1.6242402050337945,1.603853353751168,0.6838167656628841,2.9385617351160143,6.11076273669552,1.3176956536308573,2.315654646912809,0.6380535849069913,1.3705960054017932,1.1354661864589985,1.3461208132113374,0.7210555739327945
270,1.4286703022985408,1.1816719222232743,1.0079163527317028,0.6875020557948116,0.6570164847381933,0.7495645280961198,3.5558002087841794,3.3921573343648204,1.2973613778691209,1.870239880506337,0.6566669596287297,1.4286453016604208,1.1883461684948227,1.0144580020584166,0.8788443243402543
271,1.5599555332444281,1.3271830190999143,1.9374121042705492,0.8716999114491192,0.7915005297116359,0.7411832377688045,3.9902068581478978,10.317990732035842,1.5661130443591746,,0.6468212168108125,1.5599072817369446,1.333067862029335,1.8694988360404785,0.6710555891567629
272,1.5693438142238414,1.0020402100963144,1.026427990885355,0.8622239885394208,0.8292342655752486,0.8447882821052263,5.033449651831036,6.494543838439158,1.1372429668988333,1.1166759312290757,0.62595550513784,1.5693094917138897,1.008297413363031,1.0322560087187913,0.746818927429388
273,1.5171327026262156,1.0583327903273254,0.9312936816314745,0.7531528600864923,0.7430080788057934,0.7569857753939568,3.915702391667704,5.057590005116272,1.291660049801142,1.2815717188852283,0.6309483474627791,1.5171119790467342,1.0647461968177165,0.9373722727092975,0.7673215072232815
274,1.6952198700261287,1.5444891631101552,1.4857091084473946,1.283317706956585,1.2510057956523457,0.8220323811792001,4.208413300274822,10.605503251302016,1.7709598427364046,1.3217625994684736,0.6740851607140061,1.6907684860881715,1.542375310577734,1.2616783321533203,0.7900544488558259
275,1.7656082203803234,1.6598919931939744,-0.31937633741909544,1.6398806900046996,1.6177050787148552,0.8911024827828006,3.5856404921287317,5.582078241029235,1.7570504672902822,1.3974280881960248,0.6684167106117298,1.7581312882480709,1.521438605292386,1.0726822124321933,0.8224595470500841
276,1.1265661600361012,0.696471324998204,0.4731488616402546,1.5307086627159252,1.5149023329918374,0.7509190295914322,3.1810411294142806,2.211744308484954,0.8288533455319476,0.7197164471924349,0.6425374456860184,1.126463216823886,0.7023060780380697,0.47559515803216723,0.8006161251745351
277,1.3266751732427162,0.7033232765311099,0.3942146566018536,1.4927736772885434,1.4499182329783382,0.6980346419024079,2.7187617470410697,1.3870378622277406,0.8256892584706519,0.5537548924348537,0.6547956803312163,1.3227563403159028,0.6999268675453241,0.3860034160153642,0.709994941001369
278,1.9517312250047083,1.4269280517925016,0.8915981154767811,1.6585203398437787,1.6405085220350752,0.746679827152078,4.643979862035867,3.2524219520346156,1.5585666943208725,1.1276981946437712,0.6233814453054027,1.950989694798612,1.4333505697971205,0.8947287390366332,0.7271022246816576
279,1.3086074943930783,0.5409471007249136,0.34137888746402933,0.8920039671532514,0.8839732722463696,0.7446315952629495,3.1251978205507047,2.8622760301770165,0.7129276011909147,0.6550255871555163,0.6284777104787076,1.3085517324987368,0.5470709303962712,0.3466144562647557,0.7684278401894662
280,1.9441003847625264,1.9664580549137445,-1.1618705746698628,1.2464562715446754,1.232517579434586,0.7645427168331114,3.811831321505739,31.448372524538478,2.2852680720745595,7.166491568716034,0.6125606311107803,1.942427332220215,1.9657143264999586,1.7279821674622127,0.7406544843620041
281,1.5959108920870924,2.210946080640012,0.05260523228474634,1.5465137262995616,1.5661069306232367,0.6193730565419293,3.5385992000201587,7.376219482892175,2.328040801733243,2.448154130951034,0.6357360191111145,1.594111519480255,2.1369797834429907,2.363267667347369,0.7233698483925779
282,2.3116729269027436,1.853892497128304,-4.165565424031048,1.6163288433540792,1.5875546088648076,0.8658243418186838,3.02717684389963,13.023225032028806,1.978141581712113,,0.6333676938231112,2.3039193160071822,1.814035111854052,inf,0.9251679075361295
283,1.9089261836508407,1.6652971193556916,0.5878410144825561,1.1975947719407642,1.1541065856136519,0.6158453605809552,3.052313822150402,4.851197156413198,1.80909342437671,1.8876637230133375,0.6284777104787076,1.907469654723508,1.6314584004047268,1.5605384526746366,0.8231748163378988
284,1.7364237071084874,1.19625633469336,0.9976761362128728,1.130720763452082,1.0988392279408272,0.8004060333945507,3.649366603309318,2.2774286188810318,1.34651367863852,1.219468362947156,0.6333676938231112,1.7356312154504538,1.2016225283458413,0.9949719689493703,0.8615898598679201
285,1.895966556358164,1.7215732603663647,2.0725756780302715,0.89903514146615,0.8850396463755354,0.7175704042059001,3.761458261097783,4.583878911104517,1.7254846778448265,2.079034654885061,0.6684167106117298,1.8959355014782215,1.7279888516129274,2.0765303314723775,0.871117818192615
286,1.7190414980629467,1.142612395467061,0.957634635622751,1.5708773531824511,1.5566382338365727,0.809887156711843,3.879317786579147,2.2450912077217975,1.2562375374283565,0.9720861776113622,0.6447042257417027,1.71869489837105,1.1255569239115617,0.8780695190539572,0.7738307091386901
287,1.9939194039763757,2.1679300896990927,-4.161849493675469,1.4699358572892147,1.4367393530603947,0.853081857381623,3.737659594178831,3.5617820885709004,2.5615360644810994,,0.6652988471865258,1.992407942714894,2.1420644105979862,inf,0.6585194199960206
288,1.7451309972101807,1.9401989634350358,-3.6470944338901465,1.3706868926845412,1.3764412539888977,0.8577049272021533,4.58047018110936,6.922035213956448,2.0374597072688334,,0.6619902821573977,1.7446850618421261,1.9441943922718101,7.025538314638521,0.6336438647686963
289,2.1013699745021186,2.0253050968372865,0.3277637956262298,1.7222574743588899,1.6723291003574559,0.7033355579027873,3.871780311484956,6.831318065814189,2.0805290151890836,2.1410093390382747,0.6447042257417027,2.0912442537989873,1.8472368105921804,2.018045431355534,0.7818263960034372
290,2.286896745970943,-2.0818178665522886,-0.2050788794186544,1.3706336217605521,1.378370894968358,0.7920404526709282,3.9145673177119273,5.704262498659098,7.729083293457691,,0.6740851607140061,2.285509492203791,6.557106099647075,inf,0.7854031010718432
291,1.860489756646228,1.349393745606765,1.2754535175002144,1.2652014088133965,1.252092158391965,0.878048640123433,3.7162410672413424,5.003723931122638,1.5433998196190881,2.0222553932641705,0.648888643467878,1.8598242001421843,1.344984367514581,1.3494572884695586,0.7363401960933347
292,2.0535382989710054,2.1074042745315418,-4.160942573502547,1.2809507086404734,1.2657445395678912,0.7165423759541173,3.9282475873402847,15.567064218972614,2.4135608679018588,,0.6309483474627791,2.0500121976558328,2.1083376945421803,inf,0.7241216676442003
293,1.4950869610136701,1.3130112783150092,1.4173556434243344,1.5561466367837928,1.4775565542340765,0.6675392000397306,2.929798242272242,3.678399052037214,1.43806382404231,1.7090323973131596,0.6153451465759925,1.4948203755135974,1.317109956076005,1.419380085705656,0.7665532596820563
294,2.0869100698618563,1.9900981635433554,1.3355230984034607,0.9020182697087082,0.8688781462085408,0.8571876475489534,4.186248222843546,9.292170246911024,2.1733325076658176,1.4408128097772275,0.6509067234006624,2.086309516765064,1.979771580184177,1.296478538327149,0.8888943744285654
295,1.9756436875532966,1.8197458030392502,1.0164235369427836,1.3994223701256137,1.374095108634584,0.8517950605719313,4.44877098047775,17.455548567419676,1.8903354530735725,1.6626622320945066,0.6380535849069913,1.9747212309094329,1.8219909280077187,1.4267038994577672,0.8142009231572271
296,1.8784060907406774,1.5942798715383264,-2.1535602892290946,1.71097237813347,1.6674669870912966,0.7867693886707922,3.879440741244193,16.198426879330572,1.702965417055709,,0.6425374456860184,1.8734757988480448,1.549285760729951,3.7506968851371467,0.844435613064114
297,1.7070033626053154,1.498501397463007,2.491588726437082,1.5661278701685875,1.5695637925734542,0.7503961449038894,4.147289624365423,15.29428955655792,1.5818534250837575,2.4084342980737556,0.6509067234006624,1.7068057633478915,1.5043223747294836,2.499343324729623,0.7986169501404896
298,1.6099819294001614,1.1334581055338189,1.1927583889908577,0.7202037163159883,0.6930351822594438,0.7441498101933146,3.9518220823702817,7.460644273110445,1.2026437999271233,1.1446766468610536,0.648888643467878,1.6096601593513393,1.1393856624543905,1.194009292870145,0.779822498051951
299,1.6042640781057957,1.2574432629989918,1.0639111803711105,1.3337395136361485,1.3264113021888717,0.7499150869647662,4.286909702425971,8.112044204788218,1.4372887618319874,1.846884872323878,0.6602640781246099,1.6042292787267152,1.263598514734555,1.0695130199511658,0.7418183665699427
300,1.8011728109948353,1.8494545688616342,-3.6315096164789344,0.7466203688601407,0.7166323786706656,0.7986279933737948,4.045387374839396,7.848451719403101,2.1241136891551933,,0.6180765742263259,1.8008674882587823,1.8539326522022912,7.752764808851328,0.7898742260543844
301,1.2341793047602316,0.6936525549330539,0.731583311269232,0.3759772781255959,0.34821173607291034,0.8597552863298368,3.173874275357144,2.6732032817798155,0.8200225778127299,1.3554634060030377,0.6380535849069913,1.2338975994606352,0.6968940784629771,0.7252987842478867,0.8744547593325778
302,1.7168846879925383,1.0436901469114122,0.8558913746633316,0.8939159189638143,0.8768300795138969,0.8597009468639143,3.8046146053492853,3.419834230192447,1.1507862324768452,0.7550744377055518,0.6602640781246099,1.7168375427107958,1.0502551990251978,0.8626795812375786,0.871943410534559
303,1.876106750031285,1.2610635938376287,0.9504852302023914,0.7286436702114278,0.6955270255647538,0.7893024829665712,4.703951794172259,5.490429318717591,1.5217749292558678,0.9129406449888731,0.6619902821573977,1.876083551140773,1.2676332668027228,0.9573167324294015,0.5984937218614997
304,1.9417412132250176,1.5614777828294502,1.5007273098909923,1.076066921359389,1.078117519516527,0.8749548963688385,4.867351670586115,19.93761809886387,1.7511956058081992,2.0041678715595217,0.6380535849069913,1.9417300091376835,1.5681667894478128,1.507427483661556,0.682192204478961
305,2.0149030205422647,1.488315975512203,1.5007273098909923,0.7257685485812025,0.7080311563024712,0.8908833544282798,4.347820561430801,7.911471114475893,1.6060990111685858,,0.62595550513784,2.0149030205422647,1.4949937780432316,1.507427483661556,0.6873814840724668
306,2.063512181334812,1.5456721544907825,-3.6091843358255944,1.0265113343611172,0.9924439464805872,0.8651940126717569,4.356024789395096,31.311716159256587,1.8502327452810097,,0.6684167106117298,2.0634807072866237,1.5517353179127409,inf,0.8169481112552583
307,2.120357439123314,1.3828615569311538,1.0952622017828268,1.3730059651504138,1.3365817544680476,0.8105122254651681,4.427372820562807,10.415580130474456,1.3828628629748247,1.0952622017828277,0.6425374456860184,2.1203561330796425,1.389540665505854,1.1019623755533916,0.7527576772368028
308,1.7339350189867286,1.6639234614099128,1.2006227174406532,1.2008219042420674,1.1602380613392946,0.7055861187735003,3.871439497816441,2.610758650253647,1.6639275707810581,1.6060878255488185,0.6403206450210053,1.7339309096155826,1.6706053733120876,1.207322891211218,0.7313963136184892
309,1.5298164927507691,1.461319564754407,1.1010123397469518,0.4091392915102788,0.4032560341357228,0.6969641290750409,4.230808178555895,5.312633375213117,1.6664097724815565,1.811092335817602,0.6547956803312163,1.5298055453490054,1.4679287308756588,1.1073342493604124,0.571466680338979
310,2.0544207610936702,-2.0544207610936702,0.0,1.3612118095304224,1.3136581946285737,0.6582219717656356,4.34765096512607,13.614483442823001,,,0.6309483474627791,2.054337089787672,inf,,0.9327675147442682
311,1.675488296067228,0.8416941013841679,0.5413511283793797,0.5190068089985509,0.4959902406041429,0.8648970767925444,3.2196088576952855,2.715728277503998,1.0230840580291267,0.5251753231191147,0.6547956803312163,1.6754590135318943,0.8481884645725365,0.5482461564151241,0.813830305234679
312,2.1184498661164843,2.1942067471488658,-4.27442108651028,0.7972120559148769,0.7604176516326007,0.7959845613819031,3.446705230081771,8.82278191860083,2.391957046893453,,0.6357360191111145,2.1183209797407536,2.200835190896254,6.395261598115449,0.9457750027377543
313,1.9339229737646686,2.1570826871919166,-4.0910056609565855,1.4064498660004072,1.374781227383369,0.731293150986709,3.035124606400057,7.59596783455552,2.1571448484209412,,0.6447042257417027,1.933860812535645,2.1638226509519707,inf,0.9242314258453364
314,2.294387637288298,2.3074436474342797,-4.601831284722578,1.627777754860881,1.594120892083309,0.7331167299240441,3.7052219597217633,19.650156876650538,2.307544994543226,,0.6333676938231112,2.294286290179351,2.3142227970742555,inf,0.8146513029898294
315,2.4849066497880004,-2.4849066497880004,0.0,1.3808326845039292,1.3621683207898911,0.7125321019288596,3.32687111175007,4.083453502730808,,,0.6284777104787076,2.4849066497880004,inf,,0.8737843447859767
316,2.1297885644408736,2.492383779216896,1.0749211428476348,1.0105073851404571,0.9897820738307042,0.7730041414632446,3.289479957301666,3.867891481623821,2.5729597014921644,0.9944743938394445,0.6357360191111145,2.1296593911737958,2.495713502131815,1.0850985695013868,0.9264247855550096
317,1.7303182431540958,1.8906837885567553,2.0760914547945535,1.667547395675938,1.684770485199608,0.5352212868676665,2.7632732664007764,2.8741721747973585,2.178458647051849,1.7884093823427731,0.6468212168108125,1.7302254571107825,1.8974543771310972,2.082791628565118,0.7130311355171581
318,1.8290089010398196,1.9255245232955542,-3.754533424335374,1.4338356726818062,1.4078270293906063,0.4390560291350029,2.8796553409891112,4.040852086360088,2.262028803911715,,0.6425374456860184,1.8289768570448712,1.9322343698215312,inf,0.7314344113017176
319,1.7386970677294025,1.918925613463759,1.5370553992687936,1.4024414124503262,1.39386977738488,0.7440021686444425,2.9737052881824253,2.1041452203450954,2.1700229659295918,1.7884093823427731,0.6619902821573977,1.7386611382330397,1.9239010075635232,1.502779538060674,0.8954709677575088
320,1.610394056831,1.378651357550025,0.9160186439395348,1.4802653908898882,1.4647881292068816,0.7538381945438133,3.2679988707321876,5.163323533790139,1.7113073615467331,0.8781711671810634,0.6566669596287297,1.6102715931826779,1.3834626777086403,0.9121962205376709,0.8074834100360382
321,1.6567890784736274,1.3730525828925866,0.6613985288184692,0.8172368401421926,0.8086465248618743,0.6667447130425062,3.5445008201953176,2.4433733792440644,1.4792463995377028,0.9529898736381466,0.5677978065141052,1.6567624844419224,1.3784038583574756,0.6644370746775139,0.7840177364991715
322,1.7626713564997378,1.5404808860182007,1.2403025186423382,1.5837517402566959,1.5490856434972646,0.634826903519939,3.00010364617373,3.150536221294136,1.792684783545417,1.4488666618018913,0.6447042257417027,1.762394860598151,1.5447051976848887,1.242950828483972,0.6780082080634904
323,1.8127869480336836,1.6904320480207842,2.193874490450937,1.3651853007322314,1.3472605023452433,0.7001190901294906,3.2017313004446395,3.7001903711808173,1.7137494855993614,2.170565164453913,0.6425374456860184,1.8127788364521304,1.6971179621333659,2.2005746642215014,0.874316021198325
324,1.6077936028477686,1.28526876544566,1.2112796760351592,0.3240859438091095,0.2921421821082516,0.7068077919729974,2.9146831633655097,3.579118935223232,1.5392168431836843,4.813321212309134,0.648888643467878,1.6076617130328446,1.2913472382589837,1.212820925271292,0.9071839718527529
325,1.6867005967770439,1.618716572103697,2.391676317624664,1.284411412719658,1.270577390815518,0.6938416337469048,2.9640605346489313,2.3135739263687283,1.8994647395182347,2.9482908513571235,0.6619902821573977,1.6866189777737786,1.6253472701604341,2.398505214872785,0.8974044577447114
326,0.9547344225845804,0.5335637251209606,0.3302928717596674,1.298471699024011,1.292215635612437,0.5981065201549888,2.1229199357855655,1.7868118287502832,0.7526044929261009,0.510705574604909,0.5978297680564633,0.9547139853052028,0.5402054736863057,0.33682901845290986,0.6567037445302436
327,0.8740013465941121,0.4563081330429113,0.36051797271825636,1.2342958151544088,1.187204013944646,0.41207911643031936,2.0983843173062517,1.9887619176532887,0.5678464684225399,0.5928280483162691,0.6380535849069913,0.873976517933964,0.4629775658062522,0.36722194993269364,0.7721669845437628
328,1.0391864772034873,0.7678947894249692,0.7082581344611303,0.5649568964161213,0.5635109803967311,0.4495484660584365,2.4122616437975726,2.4766389100877926,1.023588869964666,0.9267214079583537,0.62595550513784,1.0391805348986978,0.774551915139765,0.7147778372316698,0.8056509721628133
329,1.3991804606387457,0.9067739257156338,0.514385622062365,0.8359481380769436,0.788857078438429,0.3221970720912665,1.8073699260243874,1.5396019346383516,1.2044639231269414,1.0135916596105217,0.62595550513784,1.3991769869509043,0.913346214748778,0.5209012757547322,0.6626364552973285
330,1.1265926878363741,0.7446003361060667,0.6317029744192251,1.5738042722180685,1.5127186238226327,0.4480968728484828,1.8096596170381931,1.6362541289418042,0.9526868147940841,1.4490472521255777,0.6180765742263259,1.1264974921576454,0.7509651192633814,0.6355692020928216,0.7286376944795232
331,0.6195951324542238,0.38536019029046475,0.3796415870203891,1.3698296430507808,1.2864760402027622,0.27658310514538076,1.5116681814125288,1.355633359119,0.571378505032035,0.6062797442577614,0.6619902821573977,0.6195663314381452,0.39201235826502245,0.38624858723044725,0.6397660957316076
332,2.2627366503815245,1.6221334795995745,-3.4833970990528655,1.7898558119191448,1.7920471997504808,0.5578918828117383,1.2608929243093556,1.4579672166175077,2.0555228445901617,,0.62595550513784,2.2619764545659162,1.6264385370766625,4.4746275199464005,0.7956349513316674
333,1.6886557626254546,1.4789859235048337,2.1177502870895104,1.3219955471543308,1.2840092104821452,0.34745048382990773,1.538291394840926,1.6532689481906153,1.546353632334359,2.4621384770456167,0.6528756675646988,1.6886013771254287,1.4849293644949324,2.0707194036574,0.6851225736006443
334,1.7207273083965045,1.4562882440882907,1.4269081300250925,1.0754781763615942,1.0427175828636506,0.5330098903063921,1.1843121063169864,1.4739144367318109,1.7904976851653547,2.0901199692395878,0.5947193981915972,1.720555710221723,1.4585653560866454,1.4372224202778483,0.7830926778469706
335,2.091644868999486,1.4113879383069423,1.469655963634565,1.0829222162462768,1.0559473637123178,0.5617804378934799,1.3190462026956942,1.4149919780135944,1.9302749236805328,,0.6207552362147116,2.0916040954725355,1.4179211630752482,1.5162236733585202,0.867818335231542
336,0.727370509165911,0.362550144899887,0.3039049730977843,0.42800646646699153,0.3913710140164805,0.3696328805687758,1.5342437884349902,1.4315127476015923,0.5176674845293866,0.5319467784587097,0.5978297680564633,0.7273016377767556,0.369113067347867,0.31012771581511966,0.6102613250221225
337,1.1649145705031139,0.630833946743053,0.7328616731203477,1.55692340868972,1.5534359198156482,0.44385997948410044,1.8821049769572167,1.9028603908415582,0.9165287963247458,1.197541652661644,0.6309483474627791,1.16489455146209,0.6367132538207795,0.7378254305264995,0.7199567171206512
338,1.4068645594477476,0.6966675383163488,0.7349445510117545,1.286777641458687,1.2212462856501538,0.4759386620711954,1.588858242982552,1.6838189531773908,0.7912604620699175,1.0318862795190002,0.6008849035917525,1.406814579156064,0.701941350192547,0.7370249452196783,0.781744030548402
339,1.0721563450978284,0.6831993689711278,0.4742526051860483,0.9879254552247888,0.9037595696091958,0.4454262300611175,2.2724291236205625,2.2898774480122306,0.9617523089280821,0.9511395610164637,0.6357360191111145,1.072132655863731,0.6898091449551418,0.48101262822352087,0.7189330897723697
340,1.1391317981092106,0.5892688349308897,0.4723940145395613,0.7738957840139599,0.6324685626299632,0.4597250206537696,1.247573621786872,0.9902760038496248,0.6959369043673153,0.5393858172249001,0.585052858160615,1.1371452383848935,0.5917020314501743,0.47369140232492035,0.7984172892507805
341,2.080251498858141,1.289325927724772,0.4939574692836506,0.8731532833439312,0.8343650655322972,0.8701971926737982,2.0573681048227623,1.6091306064718292,1.452781720963172,0.7789313551031642,0.6180765742263259,2.079086049319178,1.2803297983280226,0.4705152690624737,0.7922401124588591
342,1.426940684197799,0.9129156769605338,0.6907153080839015,0.8414507790500415,0.7360144253066443,0.7956042685303625,3.0923752907759203,2.120673713843167,1.0036510061899977,0.8661784806239774,0.6509067234006624,1.4269311875996205,0.9190254435369984,0.6973332331842587,0.8397507466099041
343,1.7110941041505279,1.3811036136789552,1.1237198891138598,0.7145263727912928,0.6977573491154779,0.6644778726526239,4.176008957898058,5.478997755586307,1.6183776806800936,1.269124944612582,0.6207552362147116,1.7109785725446192,1.3837149824251673,1.1282422416253008,0.8905059561549218
344,1.6344789636182013,0.754315724563428,0.4179270404276103,1.0280589500893877,1.0010439057104437,0.8741770765166549,3.791655431629653,1.7955344212485627,0.8857486721256391,0.3427310865858733,0.6333676938231112,1.6344138985042775,0.7608958308053747,0.4247899756011807,0.7863707054091298
345,1.9422009225334689,0.8671475856530888,0.4898497055204758,1.023810414259359,1.0143501111610134,0.876732125325867,3.798971135846042,2.6310112775863965,1.1191914066157402,0.6897970936746632,0.6584896970785714,1.9421948371596878,0.87381183878117,0.49656951406776917,0.5075020399445648
346,1.1703386254753987,0.5314552484190307,0.43759017222545915,1.416206760038681,1.3600478337086266,0.8238840850452108,2.9029981642855263,2.3252405932172375,0.6127705146885014,0.5589514807596373,0.6447042257417027,1.1697145261612583,0.5362954730580858,0.44166279928762747,0.6870652075905002
347,1.2426444088474022,0.6731236821989746,0.5270917907955812,1.3315528579357374,1.2616658292827048,0.6041403795557224,3.3171221072986965,3.35060590103852,0.7511490596340911,0.7042639272355492,0.6425374456860184,1.242598139196491,0.6794218871990599,0.5333278211509048,0.7765443325209928
348,1.4272562180598933,1.0547269271296809,0.6509901677211962,1.0616289828529877,1.023593472783158,0.8171531759175212,4.343267341351036,4.117448917974947,1.2761191470668642,1.3889902296310228,0.6403206450210053,1.4272552541749894,1.061391715228734,0.6576498293310304,0.7067770917188587
349,1.342997159717832,0.9457211959203742,0.8976829108219517,1.4410122319791077,1.3444332285669236,0.7351500223768124,4.1459656326300145,7.882038968492015,1.140999202803632,1.4207962102645117,0.6566669596287297,1.3429794764339462,0.9522990413776615,0.9037946797604135,0.478148164262306
350,1.3471596706655156,0.8269291669135344,0.5782484361867883,0.6750865077691979,0.6401617030435107,0.6062963673830979,2.842551024676382,1.7106564994805242,1.0567046435968088,0.7282803637422034,0.6447042257417027,1.3471591217048553,0.833601729600699,0.5849184626332921,0.6310390455822257
351,1.7091222012732328,1.3315696373747465,1.206595944901335,1.0048573399045482,0.988289846175582,0.6566667998012595,3.2292515927804164,8.179775297284387,1.5931702004125081,1.7101266525827554,0.6207552362147116,1.7090741026094471,1.337717574558019,1.2085044161123966,0.6978253511018976
352,1.557288098778132,1.3705667523727725,1.1598007229204006,1.6648699888062704,1.6271022191257352,0.6697642778588714,3.563548296205576,3.022227188617107,1.47655218865238,1.367352436135075,0.6699045166045591,1.5572672252903932,1.3772654283915413,1.166500896690963,0.7406355930695682
353,1.6305099801111824,1.8057070928205916,-3.436217072931774,1.139938714163021,1.124933935651439,0.8450012659323749,3.6974698989360077,16.97256910954351,2.4565657294951144,,0.6425374456860184,1.6304345856527964,1.8108905871001384,inf,0.764835372933244
354,1.896826932796298,1.8577064915390757,0.8439477735019207,1.6089880009728545,1.5784853982004703,0.6841263062229923,4.326986315333502,13.840306651258887,2.0846828313860173,1.0224397420827782,0.6038851895711802,1.8968237324766637,1.8643874943897385,0.8506479472724855,0.7053274716212445
355,1.5925834000654542,1.4674183713724422,1.2507973539476174,1.1289842494069964,1.1231691066435365,0.7281580530396156,4.016098756955081,11.565584065397118,1.8026056727511524,2.3019070183865744,0.648888643467878,1.5925807953676774,1.4740509279438465,1.257545378375583,0.623201326204598
356,1.7517792942151886,1.1154509351192816,0.6326386798347148,1.2381730455522109,1.2098792669379639,0.8358631675101268,4.0277371692920205,6.202174572409037,1.2406235512765798,0.7587899651616147,0.62595550513784,1.7517698210118966,1.122138210853603,0.6393388536052786,0.6844795962026559
357,2.0468878700367243,1.7076455542986495,1.9425600621700307,1.3930194157013045,1.3880793196628167,0.6740480863417501,3.8883947366864358,9.804747734063687,1.707709647666679,1.9425600621700312,0.6425374456860184,2.046823776668694,1.7143874501977083,1.9492602359405953,0.7559527701408165
358,1.7530464879007668,1.5548875063617134,0.7799955529264104,0.16921395908888537,0.15545183170770913,0.7996546683214694,3.9268063521380854,3.454185607269199,1.687640072189676,1.553366010069455,0.6333676938231112,1.7529234454428568,1.5590428024913559,0.7890673024386845,0.6221127638060578
359,1.5206418540722453,0.9826339116031524,0.5943012219947548,1.2163371965423029,1.1844995382366958,0.8222606914431223,4.002752166370683,4.738156574118048,1.1306998332820704,0.7804580941913011,0.6403206450210053,1.5206133654163736,0.9891325743852722,0.6005246392438396,0.48195675251217535
360,1.1711829815029449,0.6374402937771146,0.4872728295631892,1.400908946999794,1.3362581694454692,0.6258637176800186,2.8078802626265964,4.048651927218526,0.8393782963058382,0.9139434864568401,0.6357360191111145,1.171182981502945,0.6441180963081441,0.49397300333375316,0.5090318419095118
361,1.8964805270712453,2.0122035770913858,-3.908684104162631,0.9198012188938713,0.9259214050310371,0.7900085533091622,3.9111741246177565,4.014605601180257,2.1945521206138654,,0.648888643467878,1.8964535403427207,2.01890836635094,inf,0.7670691879687095
362,1.9219684242878254,1.8325650000475484,1.2494128816100862,1.2159300843665317,1.2018367825449163,0.8209509332602571,4.2447522910380355,60.242549809523354,2.169730693486428,,0.6528756675646988,1.921944087602182,1.8392671392642204,1.2561130553806499,0.5302263183031868
363,1.885482689804707,2.023201414357924,-3.908684104162631,0.9417257390782237,0.935919734437271,0.7417872686483166,4.015426558955379,45.86419191367672,2.205594635647076,,0.62595550513784,1.8854110253095104,2.0299508813841505,inf,0.6427427737363409
364,1.7266228194530489,1.3882232470472844,0.7904879507770164,1.031577846297532,1.0091345170606987,0.8798437615253955,3.462550590652994,9.556266245766121,1.5274172201914424,1.0158202611260043,0.6528756675646988,1.726471229199938,1.3938169642978653,0.7984238000811394,0.4926138928635331
365,1.388786658380291,0.9308942479970612,0.655025586774685,1.4599457258397437,1.4060719707834815,0.6823936840965812,2.5709706461612116,2.1343933456336415,1.176934885020912,0.9341922260519034,0.6425374456860184,1.3887417980963697,0.9367707995413808,0.660929629009148,0.8849053390692394
366,1.8682590924963975,1.4989981261570497,0.9435419067320665,1.6917913204950783,1.6637048932648508,0.6731867282200868,2.455151427715526,3.477376213852237,1.5578016048310357,1.2699086726728992,0.6309483474627791,1.8682086413914611,1.5047252749978346,0.951243185297811,0.6508939481609344
367,1.5640611544185758,1.3031690749158944,1.0381037879428794,1.4866449415419318,1.483899941169845,0.5126512923132404,2.9385608241725225,2.2504746433490093,1.421908451454935,1.2926566574224634,0.5604843169999094,1.564039737948957,1.3098682939165427,1.044803961713443,0.6002216439973267
368,2.0661963149298157,1.8424877892328153,-3.908684104162631,1.3902373997174728,1.3716887638436615,0.5800268693188533,2.6917912719529675,3.217683763148811,2.5356349697927616,,0.6309483474627791,2.0661963149298153,1.8491655917638454,inf,0.7356792155055262
369,1.742530491503715,1.0386349735790317,1.124168552194603,1.5111611809352863,1.5099514861415069,0.5707305699812062,2.169302849809307,1.7897497426095432,1.241085630189083,1.5450025775394807,0.6153451465759925,1.7422076903988073,1.04506610949379,1.1314381936863451,0.7536325101018299
370,1.744106584301447,1.3172796594739802,1.2494128816100867,0.122888179777612,0.06941242933734736,0.5147640338170074,2.251738542518364,2.5160949877703764,1.5584990475203369,1.008250824793198,0.6153451465759925,1.7440492530719789,1.3240147932344781,1.2561130553806499,0.6868941781681798
371,1.3131284132251826,0.7866655716504629,0.5714846651246934,1.3584554454869295,1.2773929027862134,0.5761114439794632,2.2643387429253647,1.9458225529625404,0.8269585871529341,0.9744460465010985,0.6008849035917525,1.3130852054791493,0.7932936885574936,0.577954780448251,0.8870712569011279
372,1.9282078558025841,1.055853895640148,0.8081955518723829,1.77112088143131,1.738380883873204,0.7671835277802723,1.7290105156448676,1.865930518496995,1.4665584887226695,2.3025739073742786,0.5978297680564633,1.9279610904084565,1.0593621935641586,0.8088939479361661,0.8179512985346704
373,1.323111620856797,0.7860240080376797,0.5301662879111095,1.6310252187342023,1.5935011337351792,0.39755937804461755,2.1232058256663024,2.1091265202108906,0.9553465238089737,0.7133365936866094,0.5783247308855777,1.3230483415694116,0.7926884189205397,0.5367210671885535,0.7244032942519905
374,1.5826210682021593,1.3615193746595053,0.9734299205092389,1.1310087228405634,1.0661770939833126,0.5975952857950616,3.4295296150083883,2.643720221802665,1.7200227574868998,0.9703862191739516,0.6547956803312163,1.582525543105416,1.3675962191965227,0.9798389438128746,0.7082460108498239
375,1.6569706947610465,0.9989504409062169,0.961730809158305,1.2362680135583717,1.233828743719757,0.8171700025119959,4.378346489491433,6.561712529325057,1.1531928284602848,1.0952622017828277,0.6668815377411301,1.6568789870342369,1.0057199511640558,0.968430982928869,0.6521339914007782
376,1.7056238587578285,1.190925577194153,0.6612800227198972,1.236679303116858,1.1920599014540072,0.8593505694714919,4.525227565739409,6.831050490385282,1.6906058632448204,0.6907970220142474,0.6447042257417027,1.7055817729870026,1.196457789776844,0.664818934799156,0.7681576689262115
377,2.026234263929198,1.8824498402334329,-3.908684104162631,1.0761638319682356,1.0721353478610682,0.88068857257208,4.1599668954914,47.34027910170418,1.8825516016688177,,0.6380535849069913,2.0261325024938137,1.889229404199847,inf,0.6338924132778584
378,1.9230070685327314,1.5680122970637156,0.326048211094506,0.8797494079212371,0.8438022328266638,0.900549104331238,4.4875819960235335,5.234987377706281,1.4849265168513939,2.559260817565817,0.6357360191111145,1.9206540096391571,1.472905944893787,1.8719675891921017,0.7633898329939814
379,1.715430055632818,1.4254789316748484,-0.05934299872328985,1.5380967088088806,1.5380089979042944,0.7540359736475535,3.6994435483874937,3.724805991646453,1.5406194075528006,2.292700664108553,0.6333676938231112,1.7144281262917314,1.3469692286565362,1.7089095630796773,0.7205326253142531
380,1.314782895816973,0.7556416334734639,0.5610321232918811,1.6566160067738316,1.624339558305889,0.7578859688405427,3.856117158184164,4.963272191769734,0.838415805513702,0.9878046718409087,0.6309483474627791,1.3147388500744255,0.7620395741859267,0.5667332557042866,0.6350755427199013
381,1.2894929863148494,0.5306380552228385,0.43284072215105107,0.3134723857093362,0.29273463242193354,0.794721350796866,3.3932432830503196,3.1728734435580517,0.73795376942001,0.8208888864659434,0.6309483474627791,1.2893693242831659,0.5366365836734803,0.4374653151984994,0.7236854044325122
382,0.7760281613908321,0.18732633624858497,0.12723102996981206,1.3282577820469543,1.3093154536193155,0.6639440400155475,1.7424304692455195,1.3242052553720391,0.4903058848807734,0.5272352583132124,0.648888643467878,0.7760216717281401,0.1939922048149652,0.13391250694877332,0.8143084341982776
383,3.161981661177871,2.0397118726163064,-5.201693533794177,0.8098985808542825,0.7811356239270515,0.8423837618768383,1.0605203644465664,1.4602759612451948,2.638077548198867,,0.6284777104787076,3.1460385009159344,2.1770270353212964,inf,0.7919470562894678
384,1.5291985175536142,1.1686940919581175,1.0490026574138613,1.1167365808138574,1.1044708641926917,0.33455910375564374,1.2953921761294491,1.5746468304305663,1.504467843476436,1.7459626880779469,0.5915533975974677,1.521020117506586,1.169190165467293,1.0404175205204431,0.9477205189504813
385,1.93725961311443,1.2593501137460268,1.095436707751074,1.2986294727453096,1.2667452740587648,0.9244605146346434,1.2139831912771875,1.431329919892037,1.7313472524950724,2.0252254751231376,0.6038851895711802,1.9371706720019126,1.2624473362618738,1.0875025686561282,0.811258572486793
386,2.128367013272539,1.606191725943967,1.1732889644653528,1.417272422678706,1.4008318121227892,0.8440097519096955,1.2575414316400215,1.5793969475215561,1.865497717664053,2.218833986406768,0.6584896970785714,2.128071718647903,1.6104649420748167,1.302557840858245,0.8315272470503868
387,1.0436120031032756,0.7932325878602562,0.7956289468184587,0.7206618783481297,0.6516583258095514,0.18607445541575993,1.6310573771662427,1.625622912042191,1.0171034310507365,1.2300331806590716,0.648888643467878,1.0435560829200312,0.7992160183305548,0.8013647741079711,0.6229774175399917
388,1.4684744339204505,1.3394256815634022,1.0998811710122078,1.63652001191334,1.6346607645028173,0.5447522979453646,1.2202072608850618,1.4368934260581583,1.4002840908766383,1.2190472561242094,0.6284777104787076,1.4683242270704562,1.3441609921686373,1.108466416933354,0.6685252221895082
389,2.0093883370637484,1.6116136946471027,2.0760914547945535,1.7803761457468559,1.7009064961925182,0.8407400421473971,1.5362202075045035,1.6739924413940503,1.7519096426845584,1.9358486275820446,0.62595550513784,2.009335216238801,1.6183446180030785,2.082791628565118,0.7976554106687404
390,1.9993466746103308,1.5475977962195833,2.1501490156754905,1.7794049462403232,1.740041851285121,0.7972108651353214,1.757695692956721,1.7601714650498825,1.9005292578649355,,0.6333676938231112,1.9992757646565658,1.5527445067401733,2.1584511914102587,0.7746561952536419
391,1.9338463420372527,1.529201755070753,1.901427782618632,1.7878691811322613,1.7605829212173891,0.8699254303238773,1.6870293766873499,1.7479777201369904,1.6103963844280595,2.152913132819872,0.6284777104787076,1.9337839692574728,1.5346221620981326,1.8501139425099506,0.7806580009680796
392,2.1436453640824493,2.132442573549468,1.4210055488734872,1.7861415950475967,1.735803482278196,0.7789399281874085,1.523471627688033,1.8670193052339485,2.1705601841004856,1.3829442742346088,0.6727386042041725,2.14358902817031,2.1354799754620557,1.431402459174632,0.7774022034255159
393,2.106564049106034,1.802120055056597,-3.908684104162631,1.7495932823963247,1.7334767886660136,0.8627497832550395,1.526553081238314,1.689639013592994,2.447473793128238,,0.6180765742263259,2.1064702140677554,1.8088916926259053,inf,0.7666920312408699
394,1.7525387560747738,1.0575330594197476,0.9411115219555697,1.7679307681716072,1.7765605072440638,0.8408650852055114,1.4425727882183488,1.536121029210575,1.382955459854376,2.561599270576255,0.585052858160615,1.7525387560747736,1.0642108619507773,0.9478116957261333,0.8008842903055411
395,2.1966273563330017,1.656892457724223,1.84357367244818,1.7307496374252032,1.715449619833605,0.8763910113121763,1.386357525957925,1.8481959255686817,1.7290230879926902,1.7715455762907681,0.6180765742263259,2.1965248222219462,1.6609047846020268,1.8530418559830246,0.7573610794614016
396,1.91959284073794,1.7014091909729112,1.382944274234609,1.662336682925581,1.6011463726907649,0.8556529052029507,1.4516729699179822,1.5938322408338237,2.682238443984637,,0.6008849035917525,1.91959284073794,1.7080869935039398,1.3896444480051726,0.7752825099429604
397,1.6368772220768815,0.9581136251967743,1.067262512644779,0.7229901372410653,0.6669548541302028,0.5495730734496941,1.5897104524808134,1.6715809484955373,1.3827616648268553,1.5789675193296244,0.6547956803312163,1.636752013680815,0.9642391151279873,1.0715776264808188,0.8674291076935321
398,2.0892199015774144,1.1905025658441826,1.2474935787640469,1.39254798844195,1.366527899395665,0.5902883235346342,2.068590755496571,1.6298551056079291,1.4678608353758156,2.1400549778765035,0.6309483474627791,2.0891776732530856,1.1957192527129092,1.2402305523485602,0.8379562809500802
399,1.9392358226327318,1.9260950260126957,1.0957995753582526,1.0309564339493817,0.9804224092630093,0.5682216190905485,2.718677979117908,2.489241383029412,2.028788987675846,1.7292816886226121,0.5978297680564633,1.9390228102069467,1.9210404562904884,1.0007162720544434,0.750647385244565
400,3.019649802336134,-3.019649802336134,0.0,1.6953046589852954,1.6615648910503416,0.9404420719758468,3.294273924559217,7.592198582725482,,,0.6333676938231112,3.01911463378889,inf,,0.8425248685518266
401,2.17742195004004,1.4435800816708113,0.46665354236045387,1.6843107948775886,1.6710185687593915,0.9371981267954697,2.7135597861423637,2.7525154804392633,1.4435800816708106,0.46665354236045353,0.5978297680564633,2.17742195004004,1.45025788420184,0.47335371613101757,0.8863814163827326
402,2.445685936634719,3.254757636755968,-5.700443573390687,1.7402622606191263,1.7119940103280227,0.9392649831039966,3.244249779475729,2.8774894224470664,,,0.6233814453054027,2.445685936634719,3.2614354392869966,inf,0.8654949351642104
403,2.1484344131667874,1.942571247789798,0.9129406449888746,1.6047141145871482,1.564917461443379,0.9644258601947057,3.131096903454236,2.7257533530687725,2.8588619796639536,,0.6403206450210053,2.1484344131667874,1.949249050320828,0.919640818759437,0.8531651557657289
404,2.5257286443082556,2.481567748522486,0.6897970936746631,1.6616093116432098,1.6588337328339258,0.9558059952653041,2.8280767617589344,1.9462693943912739,,,0.6233814453054027,2.5257286443082556,2.488245551053515,0.6964972674452273,0.8576951126915943
405,2.4849066497880004,1.8292425624827957,0.689797093674664,1.5447535527748955,1.5483369812290817,0.8993036334179206,2.8607538698935646,2.6666536604581736,2.1169246349345765,0.4021150212228825,0.6468212168108125,2.4849066497880004,1.8359203650138247,0.6964972674452273,0.8313075324271674
406,2.6127400212978853,2.394556371532856,0.6897970936746631,1.5585695217085223,1.5423216217264706,0.9414373200418504,2.655360160194733,2.319815921332653,2.3945563715328557,0.6897970936746634,0.5783247308855777,2.6127400212978853,2.401234174063885,0.6964972674452273,0.840805601317946
407,2.5682882587270512,3.1321553146636356,-5.700443573390687,1.5856453028928432,1.5611345469188973,0.961153455858986,2.757469284981737,3.5273513586959546,,,0.6097226960127671,2.5682882587270512,3.138833117194664,inf,0.8423752401813848
408,2.3715779644809976,2.23025332024158,-4.601831284722578,1.5596258556151048,1.5274733995814707,0.9294562812052228,2.7346429225710933,3.451083746904601,2.2302533202415797,,0.6207552362147116,2.371577964480997,2.2369311227726087,inf,0.8665825892583485
409,2.5257286443082556,-2.5257286443082556,0.0,1.4080613324320599,1.3866979616549802,0.9690972568591556,3.1227083925221915,4.65591871346821,,,0.6357360191111145,2.5257286443082556,inf,,0.8701816813575598
410,2.5257286443082556,-2.5257286443082556,0.0,1.2846389564410998,1.2404537826837423,0.9347474540575104,3.230843576713005,2.75565892745697,,,0.6233814453054027,2.5257286443082556,inf,,0.8366125871739244
411,2.5257286443082556,-2.5257286443082556,0.0,1.6902610549283206,1.6508059952488454,0.9347411636953024,3.037490263919115,3.0488047089798305,,,0.5748741956352443,2.5257286443082556,inf,,0.801441976608188
412,2.568146393345655,3.1322971800450317,-5.700443573390687,1.6504629953338217,1.628890876480835,0.9030967124303303,3.161686446822142,3.9733626841729066,3.132300231698886,,0.6652988471865258,2.5681433416918003,3.1389780342299156,inf,0.8763712544256252
413,2.3023664941752253,3.3841677712443596,-5.686534265419585,0.20353593427429464,0.14232845771453606,0.4726555080556962,2.9152765251134043,6.294898303500979,3.3880972339469793,,0.6566669596287297,2.3023628954595243,3.3848902772454665,inf,0.8095850553276001
414,2.5682882587270512,-2.5682882587270512,0.0,1.7133184187455774,1.6891054349186054,0.9289677961880622,3.145866599703873,8.584798526298922,,,0.6008849035917525,2.5682882587270512,inf,,0.9139361408028986
415,2.092864562011976,-2.092864562011976,0.0,1.3473684656531308,1.338317083008243,0.36324115239167415,2.9535390793621144,2.7485554635594602,,,0.6333676938231112,2.0928645620119766,inf,,0.6315402146732539
416,2.659260036932778,3.041183536457909,-5.700443573390687,1.5296372469856745,1.4767436775345342,0.8916699577996291,3.2528254095617806,2.6341409398867213,3.0411835364579085,,0.6566669596287297,2.659260036932778,3.0478613389889375,inf,0.8793524621996335
417,2.2695836121822914,3.4308599612083954,-5.700443573390687,0.33250280605366617,0.26822577073682385,0.6998236189162689,3.1448503198100948,4.557944498264049,3.4308633338623267,,0.6468212168108125,2.2695802395283597,3.4375411363933557,inf,0.7856878278238453
418,2.293076044375378,3.4073675290153087,-5.700443573390687,1.7584567548047547,1.727567532678099,0.9003693600375041,3.8312737700953177,7.728274729560169,3.4074787237736315,,0.6068309995095971,2.2929648496170554,3.4141565263046605,inf,0.8717987647028816
419,1.9694280435217293,1.7885503172586825,0.9036615417876583,0.5080484306082345,0.4755285655835733,0.5805734475926774,3.382698170277714,2.6885388433380197,2.2560253028628754,1.4004685440598859,0.6380535849069913,1.9693721302942755,1.794709911940926,0.8994237207658534,0.8465129000269132
420,2.5243679111575803,3.1760756622331066,-5.700443573390687,1.7004836929414262,1.6449228125037552,0.9171282413834788,2.458464824116486,2.614821736192066,3.176102854357279,,0.6309483474627791,2.5243407190334075,3.1827806568883084,inf,0.8530082233651559
421,2.3364866446697268,1.418046779665647,0.33312214973593113,1.7590489204423623,1.7206536108669783,0.9266647938692313,2.3819311967365246,2.628933621411515,1.7545190162868591,1.6060878255488185,0.62595550513784,2.336486644669727,1.4247245821966754,0.33982232350649494,0.8423549814025078
422,2.445685936634719,3.254757636755968,-5.700443573390687,1.77691038339289,1.7598869215343425,0.8944857758105712,2.4662799615486826,3.4455762874702214,3.2547576367559676,,0.6207552362147116,2.445685936634719,3.2614354392869966,inf,0.8375978190448989
423,2.813410716760036,2.887032856630651,-5.700443573390687,1.7652507861460545,1.737296989063725,0.9042744266688845,2.698521904656709,3.219741099823143,2.88703285663065,,0.6038851895711802,2.8134107167600364,2.8937106591616795,inf,0.7882767807824701
424,2.5630392396154,2.39543861177088,-4.95847785138628,1.776517462044253,1.7399331499110797,0.9378869542299498,2.3654516191249524,2.3047515696931,3.1375033074635854,,0.62595550513784,2.562940265927101,2.392575728948075,inf,0.8315393661876
425,2.6995932393128417,1.360314095902969,-4.059907335215811,1.752937652246239,1.7285558378129013,0.928633268350754,2.452133264990301,2.8148412323604384,1.6147283378666402,,0.5915533975974677,2.6994208744041557,1.3647178457608793,inf,0.8009475591344893
426,2.70805020110221,2.2992461917285314,-5.0072963928307415,1.7416058318906467,1.7339378867000992,0.909584815274864,2.490114437033055,2.4316905222302476,2.299246191728531,,0.6008849035917525,2.70805020110221,2.3059239942595604,inf,0.8588334251212063
427,2.5021879608015754,-2.5021879608015754,0.0,1.6654288613793116,1.628712203725517,0.8632936902906332,2.4746708215533957,2.419013889122511,,,0.6038851895711802,2.5019849913227517,inf,,0.8314774127944293
428,2.633615480091127,3.0366912593621707,-5.4217758155453435,1.5414545859320627,1.493057563831988,0.92161953347864,2.2296532357329335,2.2120409543776396,3.067191582363663,,0.5947193981915972,2.6332519910270236,3.0313097704758962,3.1780538303479458,0.8221986175895132
429,2.5682882587270512,1.3403958454355798,1.7884093823427736,1.1313146350251722,1.119665880992086,0.9281356432052706,2.488088042903425,2.496622111872798,1.34039584543558,1.7884093823427731,0.6547956803312163,2.5682882587270512,1.3470736479666092,1.795109556113337,0.8399376640338129
430,2.4079456086518722,2.5993507841788692,-5.0072963928307415,1.551322872291883,1.5179946218395444,0.9053760726016209,2.536473880954878,2.5898164505249657,2.5993507841788692,,0.6284777104787076,2.4079456086518722,2.6060285867098982,inf,0.8334812332424141
431,2.568146393345655,2.0336848913769225,-4.601831284722578,1.418827488696201,1.3813595024742855,0.9009529559566243,2.3353901988056034,3.0913178692441754,2.033687943030776,,0.585052858160615,2.5681433416918003,2.0403657455618056,inf,0.8107986651642387
432,2.1827954834069825,1.1550531788945584,0.7902423203971711,1.5967496022005818,1.573923552267647,0.909153591176028,2.3215926079626583,2.376861642479837,1.3204888648687003,0.9468807687268146,0.6668815377411301,2.182730131185767,1.1598839263774912,0.7953341421409746,0.831945273907265
433,2.261105190288866,2.05304402198193,1.3829442742346085,0.6955836019984479,0.6445195297141555,0.582705604063734,2.5980384633219047,2.048561558140863,2.340921155700224,1.0952622017828277,0.5947193981915972,2.2609101290223523,2.0599168857794727,1.3896444480051726,0.8178755205877394
434,2.75934349548976,2.2479528973409812,-5.0072963928307415,1.502789523821144,1.4492745052821645,0.951222889039587,3.2242514844349266,3.043565274701362,2.9411000779009258,,0.5915533975974677,2.7593434954897607,2.25463069987201,inf,0.8902241214851919
