,bvp+eda_XAp0,bvp+eda_XAp1,bvp+eda_XAp2,bvp+eda_XCond1,bvp+eda_XCond2,bvp+eda_XDist,bvp+eda_XFuzz1,bvp+eda_XFuzz2,bvp+eda_XK2_1,bvp+eda_XK2_2,bvp+eda_XPermEn,bvp+eda_XSamp0,bvp+eda_XSamp1,bvp+eda_XSamp2,bvp+eda_XSpec
0,2.00406134512966,1.6531357345536883,1.7064358294491098,1.4845765686666144,1.4317373451744482,0.8486869947136292,3.2036838217206163,2.758693180507544,1.9855330158104143,1.7062235885339898,0.6153451465759925,2.001986795275718,1.649382810088566,1.6034626492440134,0.9640733025205607
1,1.3497537214117925,1.5132621485803803,2.500942103754484,1.2394468575392381,1.2051774870317757,0.6650059776808092,2.3031005575487113,2.0310192152818125,2.113044662049306,2.5451678587407267,0.6425374456860184,1.3469027224042753,1.4745028310271664,2.444121990293604,0.9364864091086023
2,0.9668183591909056,0.45198724220706965,0.26599169138130674,1.4762896625943043,1.4584920433662665,0.5907735752223408,2.573487386063702,3.6543064356993398,0.5487695515654452,0.4598478163010604,0.6447042257417027,0.9665903680567925,0.4527783007925273,0.25413380298588856,0.7861565301654918
3,1.5246579745015731,1.0813775690016056,0.747615503322077,1.5646149423421853,1.5134634907302604,0.804310417278454,3.686538490620284,4.4919176415196835,1.2188751712394092,0.9197234190856022,0.6528756675646988,1.5245352386786701,1.0856323366216722,0.7505278630524829,0.9443680554376481
4,1.4484857185554354,0.8606135061846301,0.773420411107598,1.7727790972045285,1.7502321582215967,0.610559714070207,2.59199389864522,2.3345946410250407,1.0988628107239922,0.9654053372099874,0.6309483474627791,1.4483589080199304,0.8650624637188007,0.7666591613854061,0.7737090223430221
5,1.3878213754532693,0.7201931173400526,0.7262310344368013,1.5763014769715398,1.5541262494012194,0.735938812316425,2.0888075245083217,1.4976554222176985,0.8614147438797487,1.1268825942633716,0.6509067234006624,1.384961915886112,0.7000953645793596,0.6251619379215784,0.863678932572576
6,1.0388488686740442,0.5890436453008889,0.4390966001428087,1.5628542744996223,1.5442681361015294,0.6801677559781765,2.1128088340213664,1.3196073768198113,0.8110884854816505,0.8497192950470995,0.6309483474627791,1.0387094959350667,0.5943951665774444,0.44305338684426465,0.8441477361605881
7,1.1194666216998794,0.6117372564056456,0.4262929174688854,0.48124625913415403,0.44550658996239423,0.6212233837235209,2.4871519010722603,2.914783540841538,0.8031554048374832,0.6906630262189087,0.6380535849069913,1.1194274283820298,0.6182858724289382,0.43228529027166,0.9083388431199899
8,1.425394574102291,1.3993815548555097,1.069629291654282,1.7223307460214916,1.694842153986389,0.41736651423850074,1.9628077379973794,2.0932017720492926,1.6532268173182183,1.950943182488695,0.6008849035917525,1.4252662163519842,1.4057051982627329,1.0755114104378136,0.959626992169759
9,1.1344196933077164,0.639907505115284,0.5940236394232306,1.3555311807157606,1.2681111391566562,0.7228146802500398,2.154521088026615,1.9576739870346933,0.7929590691630446,0.8286791407637718,0.6284777104787076,1.1343776451148524,0.6463100101461529,0.5993786141160564,0.8962838818894004
10,2.0262145286474653,1.6639018591630275,1.1791284224882945,1.5942738860321732,1.559843865725684,0.8817256243857869,3.3446410523359593,3.366867653140049,1.722469532916802,1.2436948087733957,0.6380535849069913,2.024448433385796,1.667101249284019,1.172103421077795,0.9441958061694586
11,2.3679904790550665,0.4359344504370175,-2.803924929492084,1.6353693866016328,1.6275505757607798,0.8849084229445264,3.66887288714801,21.00184438030321,4.663900779308454,,0.6425374456860184,2.367538515005897,3.7219064404622886,inf,0.9327351104175458
12,2.270308253991463,1.7754025619645462,1.6513826705493955,1.3910022670125337,1.386319294478603,0.8237304807410283,3.8018405866102682,4.41119960774123,1.865662153356365,1.6027377386635364,0.675384900321601,2.2697952701710546,1.7776657061521954,1.6630104864837474,0.9483672268080965
13,2.4830697059905935,2.1831457852536778,0.07266382913418568,1.5543075601658067,1.5336335910226564,0.8772960534456121,3.4886607267261374,5.105282803498623,2.2428890570157742,1.3232757567591031,0.6652988471865258,2.480914628518463,2.135428858067754,1.273768566261478,0.9073485801789428
14,1.9563102980170584,1.7396846376304138,1.408783060508978,1.4822302940065426,1.4486304724983867,0.8536121094359592,3.2431466878030686,1.9935996112202754,2.3798182212848107,2.839405484651047,0.6602640781246099,1.9554555618988447,1.7289892951472259,1.2901799995271521,0.954101631526596
15,2.029853678665671,2.192188193164132,-0.9073088826238767,1.5423159309945567,1.510928317184212,0.8935397104054255,3.248459039726436,2.7994633438023944,2.3932431292989573,1.4097851596284723,0.6566669596287297,2.0266382767606856,2.1518127947584147,1.3855694607619422,0.9377494315760341
16,2.2158049272574263,2.29250589656627,1.113840965299345,1.363599025838212,1.3624663733269742,0.8057555193359033,3.8210762430131875,5.000500387888233,2.360005573865104,1.1719548225710823,0.6309483474627791,2.2132523384134166,2.2785891622676715,1.1442823255012982,0.9146291420060539
17,1.8408894755171767,1.707439898034916,-3.5483293735520927,1.5459929896241102,1.5149743369569337,0.7081246375976837,3.4853289992031624,6.753389245935193,1.961085343016884,,0.6584896970785714,1.83989984455599,1.6994108392357996,inf,0.7669288907679831
18,1.7506846219665837,1.7619849232005853,2.0327243346992345,1.2283176629620016,1.1996079180884163,0.7854964212453242,2.997741281307125,2.352403435453995,2.1145671089531675,3.6579292781199126,0.6602640781246099,1.7504895750298382,1.766118658143645,2.0216598030051447,0.9478232371060654
19,1.4910891387579415,1.517801664809282,1.2770204068221327,1.2728859628018032,1.2392205801896317,0.7918869088817037,3.3226274009826393,2.7481932334682444,1.60014907804798,1.4597188992051224,0.6528756675646988,1.4905690467514818,1.5069425867025865,1.23609499610154,0.7457611530698943
20,1.8190143757993285,1.749009929657143,-1.8856611282333995,1.6250328573586323,1.5795927631832822,0.7191994118815431,3.513019877885313,9.224261882751566,1.9030530375563834,,0.6468212168108125,1.8185826832719307,1.7518226160387962,3.3598228355234685,0.8582767989170021
21,2.0336100340851924,2.3016325287478305,-4.335242562833023,1.640328110688087,1.6392257372305132,0.6153904108054364,2.917671610232416,3.6973398343655335,3.0320225709048034,,0.6425374456860184,2.0302704976733867,2.4526820555904556,inf,0.8974282195241715
22,2.0527303818738636,2.5442901658511925,-4.252900806929428,1.7814002638454352,1.7654874217430776,0.6226323290125462,3.4486968709708887,7.0342837830965,2.6443004861801853,,0.6309483474627791,2.0521723056370806,2.550778123612698,3.914242762166459,0.6966387806417246
23,1.4512770260686307,1.2413843677471361,1.2477049832970137,1.1456563828754733,1.104769698536774,0.5695852420691335,3.045405052873186,2.9027178053829568,1.35134051809278,1.6573878803816795,0.6284777104787076,1.4491158387022998,1.207291129248072,1.1812303261193786,0.7472395212754596
24,1.7891649633401994,1.718349350486809,-0.1427879593808643,1.274770425181954,1.239052552964327,0.624046963660778,3.0083594580702244,4.486014644562652,2.061214361472571,,0.6584896970785714,1.7874354977480005,1.7047812823013235,2.7448641742249267,0.7341120936663292
25,1.7775207769530674,1.5315314706585628,-0.915959389003465,1.255308860700941,1.2464292215257744,0.74858717061337,3.356173476357704,3.319962465065813,1.820646912382961,,0.648888643467878,1.776805177446244,1.5299915287944268,2.1605969903512996,0.7555332075499059
26,1.7595870506813307,1.7937538355748,1.2578033523909187,1.5363682565771721,1.5257973866068724,0.7948448989460338,3.985706039378685,9.452894650775363,2.018635391315964,6.517840606038229,0.6509067234006624,1.7590986869885066,1.7898256067031042,2.009315875673932,0.797518553610816
27,1.9384934959101288,1.8698742677848124,-3.7127789468072665,1.50943221543821,1.4691584321741913,0.7167092082618872,2.8477329880611797,4.199564322212627,2.0944834884006918,,0.6284777104787076,1.932401799030521,1.8578953366535345,6.007829901194246,0.8553048092447171
28,1.2886616614511142,1.281181686545457,1.7352654544230801,1.1973435068298919,1.060821129713289,0.5533261980126611,2.422778733753302,2.2333346265540146,1.4285353277161918,3.096570692835426,0.6180765742263259,1.2855846436774916,1.2370931037975075,2.0703443045774446,0.8380346737526296
29,1.3811728839269017,1.419832145964858,1.6254026145884777,0.7587368533452782,0.7611031368910511,0.554776056674414,2.5190004716287775,1.950503821244558,1.7611041013512678,2.5221405062443214,0.6380535849069913,1.3808425824416453,1.4173146914667083,1.560152834148212,0.6591672629489119
30,1.6360456968551065,1.1552966977198011,0.9493129311068236,0.9836938296713499,0.9597037079497639,0.8218013111407868,3.2641483271143126,2.9496519122955607,1.4379630156200065,2.0347861479088363,0.6740851607140061,1.6354397149731013,1.1563544795620695,0.9425476336555229,0.6277107881448731
31,1.4017212802948158,1.2449394374289506,1.0995701262207338,1.3936316060919431,1.3333882701529378,0.7109086468512088,3.098546021576382,2.5010894846857945,1.506426702750696,1.585300151649489,0.6468212168108125,1.3997173814520312,1.1902535315845777,0.8913525131048311,0.9084337296391494
32,1.6443271808401823,2.3187094271255306,-3.3867711846130915,1.0640199387729217,1.017583046870797,0.6801974688089933,2.683351107561167,1.8985374221004743,2.757596047496947,5.052271666886982,0.6528756675646988,1.6384091095715658,2.260917065062173,3.679597378189568,0.7814196580189672
33,1.7409255823532044,2.54576171348629,0.02130882175875204,1.5901805219784069,1.5020315462056386,0.6463359263014432,2.568220077447609,2.257654829349592,2.784803490821995,0.9900629113261642,0.663668482632973,1.7387875844619494,2.447672266667957,0.9906236506040138,0.9526522195686278
34,1.7808700285253747,1.9087235904905744,-3.689593619015949,1.4224920276703505,1.3784394688517398,0.6876317828813785,2.5138038881289018,2.392712135987894,2.4221179652661187,,0.6447042257417027,1.77313400510489,1.8566383178686818,inf,0.9457720108300642
35,1.9622284664160823,2.332559068141429,-4.2947875345575115,1.4944744547182263,1.4720401082063748,0.503149882476878,2.16413323355983,2.0327215512470134,2.7386030924994436,,0.6547956803312163,1.9541999704288602,2.326474169984734,inf,0.935746185264086
36,1.7708007557096985,1.8785005010419644,-0.15916282914587,1.5464702973386746,1.5483577263070707,0.76686336829699,3.0363516534667436,3.261947197122368,1.9981618316719296,2.1450620294888982,0.6468212168108125,1.77032418850799,1.8780533222966165,1.8429853759003605,0.9191045470831212
37,1.8353331790256167,1.7851598018050738,1.0331164918718643,1.5655977311680505,1.5587368976807252,0.8177040340894565,3.4067628281147235,2.038965245608616,1.9674724923581157,2.3084321352755706,0.6699045166045591,1.8300153146825875,1.7523043431980405,1.7005619005375696,0.7904089443306982
38,1.9912756408542232,2.000696984113998,-3.991972624968221,1.3962009943081357,1.3917970607804635,0.7268597334556828,3.1610465965094803,2.6105264067930523,3.3157092955674208,,0.6425374456860184,1.984858899193888,2.9690810512258223,inf,0.788459373465726
39,1.8061177729879925,1.486827738558196,-0.6771531400297,1.5435655532537458,1.537950332846868,0.7484903883618863,2.986761746202998,2.1546038042812237,1.7982330955011525,3.8673562337337315,0.6333676938231112,1.7967720110515992,1.4499890173061372,1.8955027082169558,0.9484573338223792
40,1.8114451937951686,1.7044643895462162,1.2659441664869435,1.3583740118743342,1.3164982984057145,0.8879072829914714,4.43745143303327,5.183649452212475,2.1062555627026276,2.4537879486692904,0.648888643467878,1.8102629407926145,1.7033568702838282,1.2269883458067528,0.7223287669901697
41,1.9719705043228801,1.870564637428124,0.8943361884019638,1.227924343095511,1.2170333290273538,0.8143295334825232,4.180682932225893,7.800050803728998,2.0786870735250864,5.957521636943544,0.6309483474627791,1.9716839014222882,1.8675017800535918,1.3378978202580403,0.8775826625248601
42,1.706553910281842,2.2772472024879993,0.680933151348678,1.5597488977948328,1.5804501891224028,0.6767110062868035,2.6777430758293654,1.9445902496179004,2.502866566569011,5.579049233974044,0.6602640781246099,1.7028332600336535,2.2746175507169477,1.9329459132685989,0.8125362225097864
43,1.6333582472984234,1.8087919178632235,-0.018173949828539815,1.7022838321899623,1.685449110943901,0.6875549292100261,3.1548517168095858,2.0763224164669727,1.9896592838887002,,0.6727386042041725,1.6313427478221503,1.773528039206314,2.4575167178043755,0.7810797429314532
44,1.5990752906327705,2.4987090972622363,-4.097784387895007,1.2424085303914172,1.2406986668006674,0.6023321791577368,2.7666725895638598,1.5598674992422659,2.5254392322668844,,0.6713451011121618,1.5975093415688266,2.480961871496984,inf,0.7060614419648168
45,1.545545405946691,1.664830926971225,2.219915652580854,1.678886625951732,1.6496030851008847,0.6964109204799314,3.2487865282064243,3.355289265810558,2.0005182007651987,2.1513633456053762,0.6547956803312163,1.5452119401348292,1.657134582782161,2.0937510868927336,0.7322851679712562
46,1.777366545359759,2.2275773518614166,1.2035012665208855,1.4669085402491888,1.447325053160979,0.7826479945000637,3.618566679514021,3.1827408311859733,2.371450896918171,1.5624824769439418,0.6668815377411301,1.7766738318100141,2.139245643897255,1.1654960004500339,0.7300703619954553
47,1.6737021849363574,1.3437594351847126,1.5502258516911587,1.3514499930254256,1.3186194218267875,0.5663915285478323,3.330993037353129,2.725969832370621,1.5975625316083106,1.8618671819011903,0.6713451011121618,1.6732655751802659,1.3404043990603924,1.4891442051099055,0.9231340842546134
48,2.371817413986594,1.760469650116638,-1.7253290165251793,1.0454201843973672,0.972478389292592,0.8308813245779204,3.890753511384477,3.871996176646586,2.246455890776405,6.08574029067742,0.663668482632973,2.3688436109970383,1.754586532120159,1.895063076378704,0.7827002978353663
49,1.7792063185485423,1.4597056986046166,1.4735115869888604,1.285700858489052,1.2482188141574322,0.664001668480607,3.6696228724430955,2.200308316302543,1.720411644474381,1.7388082778067353,0.6528756675646988,1.777988065144137,1.4625087058270274,1.4651078123386974,0.8535366637620279
50,1.82177328404414,1.7158569506920403,0.6717592382813629,1.6040056977265045,1.589463962420202,0.7547118715497185,3.603663791506579,5.276177740372961,1.8660168331535818,1.8524590488760944,0.6811855325194978,1.8206391687787056,1.704233574244671,1.360599408118873,0.9172293847393799
51,1.9389892737115357,2.2357765493358555,0.08849541014289475,1.2013317287733047,1.1668239185247435,0.7135948319725756,2.5029015706232527,2.238274727985737,2.70769421439852,,0.6333676938231112,1.9339376617191602,2.2222823042210282,1.8441732119120953,0.7979091544939547
52,1.9856361091928962,1.8675041538469601,-0.41961903652488663,1.4235456964505102,1.3685287560927264,0.7110579233723934,3.017427461933505,2.4869935373744543,2.0082252180112357,5.122014408391292,0.6447042257417027,1.961362253614235,1.824028100880545,1.9838199254838762,0.9189409193401709
53,1.8281665703342818,2.1874268500812715,-3.977357893660483,1.515017912472197,1.498327409626412,0.7300922490477693,3.286887214320911,4.281837272790343,2.529645001977772,,0.6309483474627791,1.8211196245345416,2.1901100309770523,6.703188113240863,0.8386431240187431
54,2.4976344507407306,2.597663583543259,-5.0952980342839895,1.5994179747093633,1.5660466688565011,0.7086881034827096,2.744630344705493,2.5137453117816184,2.9290403861411707,,0.6380535849069913,2.4954958513422687,2.566432737141538,inf,0.8056271791765625
55,1.9478062222939803,2.0641030372983646,0.18042463310591117,1.3900010544102852,1.3794242285369207,0.711185396982131,2.892103124859176,2.823365774678875,2.37402990682558,4.083469017041057,0.6425374456860184,1.9409557755901818,1.961116898984796,1.511530847430855,0.8785370087596324
56,1.9759553286368263,2.0476780957668357,-2.0953474951960773,1.454044637367513,1.4372926785098583,0.7683119203129702,2.704076319678996,2.401313295300317,1.9591082030462805,1.838763474429352,0.663668482632973,1.9264343725546567,1.7083778602890038,1.560146620717223,0.7120100345681696
57,1.6790930544413072,2.120995299166955,-2.9377437091652547,1.2397647699196388,1.2490124387404082,0.7625450944934155,2.8967817564651623,2.9710545282026533,2.2043772601919907,6.126155422779369,0.6357360191111145,1.6773599289195589,2.0910438487336704,3.6318279864267016,0.7691423425744621
58,1.6039170191034373,2.0127288298452397,-3.597528085571142,1.464953615777035,1.4814249466632556,0.527411972343947,3.3426358425399036,2.9701494314719086,2.121089973827199,,0.675384900321601,1.603787240925286,2.018056811852492,7.785720896534624,0.7028971187321844
59,1.4989709783336764,1.4623575115996135,1.8208277189851088,1.4389648208742316,1.4190038162273049,0.6222287624737212,3.2047508673704237,2.6906117900719226,1.7000343651725167,2.2723480556101867,0.6207552362147116,1.4975487548135737,1.4432745465786891,1.8036089519293361,0.8081186267017716
60,1.601528791780476,1.3869218169230266,1.122727918693125,1.3591402986855776,1.3310572404896373,0.7382827292448891,2.744499869511167,3.0456066623935265,1.6919254995726094,1.8861362960733512,0.648888643467878,1.5955350072651089,1.3747461338593578,1.1233969765544736,0.9084004039803933
61,1.644134771443398,1.6558050527248336,2.127153517795162,1.1689696744436642,1.175492158688413,0.6179878414493442,3.6071281570556875,5.89950084494477,1.9238838581889037,2.354233101199019,0.6528756675646988,1.6437993399514115,1.6422852346102395,2.168237040462967,0.7787644262645301
62,2.146784858578759,2.2921812916005204,-4.438966150179279,1.586731127188716,1.5858517802282206,0.7759947515145973,4.246140165247424,39.16237625955922,2.2973307782478702,,0.6668815377411301,2.144157856399527,2.2585251032000153,inf,0.9492509039846841
63,2.3862073981047516,2.058594148767183,-4.444801546871934,1.4915907311719712,1.4779364596083446,0.6093735202712871,4.791308319098352,12.498008541967287,2.27067986978841,,0.6584896970785714,2.3837951484195887,2.0483558734368614,inf,0.7197311389269552
64,2.2924041223641667,1.3930795228015773,1.533665756901287,1.5133949542516574,1.497879259345454,0.7593915188262579,4.029950221975737,2.4137063235717635,1.6124635711981163,2.679431341624,0.663668482632973,2.2901077048162755,1.3930105988625894,2.1149748504485775,0.8075053697290696
65,2.3065461507471907,1.5312494556353262,-0.626011358956652,1.4205699866918784,1.4013576163193868,0.8131394543723137,4.762282724545996,9.984226925318424,1.7773098944825743,,0.663668482632973,2.305701053672303,1.5221850725496433,2.4557148436871965,0.8311835931477586
66,2.0530036004211842,1.572729628597544,-0.6591343374987639,1.3753780175978407,1.3698251736651983,0.7792664305851783,3.4987755617020735,8.976682477612478,1.633145306624084,2.774395427618953,0.6584896970785714,2.0521723056370806,1.5560492454594015,2.6518489214024674,0.8250068123993991
67,2.1832331007823114,1.8013452698463746,-3.984578370628686,1.578321310224879,1.5455264521989502,0.7575340573844955,3.9812248030292263,33.76729633883552,1.847827807921805,,0.6699045166045591,2.182828697052487,1.8041573468491143,inf,0.9296893501946247
68,1.8762066824832309,0.9775215452341188,0.8755514524118233,0.9624070269779254,0.9473157613951755,0.7930491080771973,3.4731366145122307,4.389275048772654,1.1727751337173051,1.223558492826297,0.6699045166045591,1.8757934648380645,0.9840490880232774,0.8815004707883354,0.8527259434987988
69,2.554830905508462,2.015294836212341,-4.1686527107925695,1.0871067428621137,1.0700933626277973,0.8135892071165689,4.3355427148679135,7.479191976050202,2.5567004626984664,3.3926436392422685,0.6668815377411301,2.5544711131739093,2.0157610214529016,3.792810376962168,0.9454283507613199
70,2.0154391165821273,1.2877467102965054,1.7007604790668274,1.5882338435872094,1.6015063283681297,0.7723084502939646,3.1933950973926715,2.5518161293752906,1.432952261091766,1.5556742708150861,0.6619902821573977,2.0153197740386073,1.2945146016095757,1.7074899065988698,0.8292301355590059
71,1.8261900566331386,1.7495108075175656,0.9110132803870306,0.9927515079470736,0.9715660476981239,0.8524075282526165,3.410274164309705,5.928414987816472,1.808454551931353,1.3598829180061278,0.6602640781246099,1.8255920577645068,1.7551307933896019,0.9091364883229883,0.9481633811125602
72,1.8443965474396236,1.9143361190235222,0.3878549777528213,1.0602594031030348,1.0381463249391991,0.8264682074826574,3.8509865583473486,10.460543041490073,3.0228518506062523,,0.648888643467878,1.8442464582417768,1.8849921345637393,1.1046461895462403,0.9466330460953958
73,2.2708992158246173,2.0432499964461788,-4.314149212270796,1.548317844211128,1.4932592131076334,0.773849159146193,3.282464714559001,14.914243426778086,2.7369633436738834,,0.648888643467878,2.2703330491568576,2.0504939656449674,inf,0.8763867544035063
74,1.9682528637274337,2.2762266514725664,-4.2444795152,1.1375863166816662,1.118184299182525,0.782211714557533,3.3613094754870483,5.478589016429932,2.6215438138356175,,0.6403206450210053,1.9680989543444622,2.2762936041212973,inf,0.9058516049462555
75,2.0862218578116347,2.9210745350191067,-5.0072963928307415,1.3023375954362786,1.299328091106958,0.7900467589103051,3.8157738411836872,2.354268238836101,3.614313043560054,,0.6333676938231112,2.0861305298306325,2.927843665531138,inf,0.9161939717318289
76,1.5793080026585378,1.096976012733622,0.7547148349812742,1.4398711749011075,1.4141990801836215,0.7827539232097033,2.974582777955981,2.169465937333167,1.2546022989312164,0.8965604426745082,0.6509067234006624,1.578208446119349,1.09527931063375,0.7567952058041528,0.8944080629621188
77,2.019901820185777,2.0698842985848955,1.607307367734732,1.1629739270686832,1.1463019106433725,0.8725717320097988,3.3913169407888346,3.42502226669319,2.069836948582727,1.60742472414366,0.6528756675646988,2.0198318137790174,2.076514751113756,1.6141248979142238,0.9195996268813779
78,1.548852737058583,0.8809547515224303,0.418536306482149,1.1399883046083499,1.100426605013031,0.7216714931761661,2.949265014847592,2.9953014990810636,0.9667897948995458,0.5471544943062681,0.6652988471865258,1.5486564401742415,0.8875870376344779,0.42515217185092824,0.794583788043268
79,1.9910436000389427,1.9783976711472115,-1.1193651718056756,0.8866683705272507,0.8745431060316188,0.8817401874626298,3.194990544503347,3.4588835223922487,2.9274067725251873,3.2983533473386895,0.6333676938231112,1.990373022798987,1.975871536795798,2.270836394679465,0.9456406216197794
80,1.6917898265357234,1.2636045019441773,1.1322612455914043,1.658656406306249,1.6516496279868291,0.6940234640152533,2.9112941427304166,3.808271264621619,1.5238037684417556,1.7884093823427731,0.6528756675646988,1.6917331551609305,1.2694903437071852,1.1398100515047813,0.9349040334584136
81,1.6456519944503367,1.14199767422875,0.8088285421842651,1.2896481775830198,1.2602868317885998,0.7509315378301139,3.928789559228359,3.6523356634508124,1.3315425410872341,0.965819387865445,0.6309483474627791,1.6455833590704536,1.148206300979467,0.8136122188695214,0.9179876662798475
82,1.4095780666642388,0.9897045403498055,0.9612990894708817,1.58065917278928,1.4788838343126076,0.5770328511856945,2.8019885049992532,2.9729171702723387,1.1460774334306403,1.4397872476255815,0.6309483474627791,1.4083127747918949,0.9898047449237146,0.953972287839518,0.9585079949756937
83,1.8612218942097771,1.4317464506255437,1.3055128530019737,1.3492527471115987,1.3074505972023833,0.7725478408582994,2.9629735836196773,2.8944914839651155,1.482083404602937,1.2552882458715096,0.675384900321601,1.8611095473628483,1.4381331117763136,1.3126165149997262,0.9624612042644877
84,1.4946624555720258,0.685856224577245,0.4966332598192005,1.6201180246084206,1.5870590881594535,0.8455111742402326,2.7043746589406243,1.7876853880021213,0.8426859181950748,0.8067810642373702,0.6207552362147116,1.494622238005519,0.6918602427987983,0.5004587570876575,0.8800449222477928
85,1.4225816173262418,0.7823873859420711,0.7291549452578665,1.068910076854605,1.0529034402569692,0.7319994796705127,2.3388449922110017,1.5773436180964122,0.8375066300365607,0.7303824291292501,0.6509067234006624,1.4224974097838512,0.7885218785745574,0.7348651794680149,0.9184510148864581
86,1.5559985249377897,1.1458167800137498,0.7977417317489897,1.2143300149672087,1.2204724015649737,0.7836147104602339,2.732553860286191,2.2974330698125187,1.381566955875657,1.359121360333374,0.648888643467878,1.5559498061869854,1.1524337838164624,0.8044905088833303,0.9166426823382944
87,1.8689153083546421,1.0056142065497,0.4828782717033193,1.310923434150384,1.3175528781212398,0.6944965831362748,2.930779259310489,2.916865860795578,1.1927686442447751,0.849317393079162,0.6468212168108125,1.868856519613022,1.0121591433591177,0.4886830516306446,0.9038111346647966
88,1.8608800223855118,1.2140028955144515,0.8073489907402847,1.4130768125047508,1.402420333044667,0.6494262411518387,3.187562065480104,5.560392755121988,1.4983286634562578,1.2248920876018377,0.6447042257417027,1.8608237718375769,1.2185316857260928,0.793446834711195,0.9505621738981157
89,1.8424352171067888,1.1052123733827754,1.470236115961058,0.9771324245586325,0.955935983853447,0.7279262041227157,3.1996630504048933,3.1825715224707434,1.1958003030253395,1.4778491889699914,0.6528756675646988,1.842211012724153,1.110036148890099,1.4414023128876223,0.8373552811189815
90,2.4441291379354637,2.1035807102807005,-4.547709848216164,1.3049819549156176,1.259283146026778,0.9119277341104007,2.5545140623434768,2.474395371664454,2.1429853636062512,,0.6008849035917525,2.374439196762029,2.052120011828643,inf,0.9614648140112869
91,1.9698451876462704,1.7449492010569991,-0.3709589665869477,1.7126888971800338,1.6393786480927803,0.7767448978103213,2.9804849277641603,3.8341996250788757,2.096597395477226,1.877895354590937,0.6333676938231112,1.968655769376945,1.7322962659712604,1.5411950597327766,0.9630879201686412
92,2.2627315836461155,1.9078214309887023,-4.170553014634818,1.6367604902704984,1.5980651446728413,0.8074202279952531,3.358886689210585,9.041847472106618,2.4941192395921554,,0.675384900321601,2.2603773923414883,1.854169877198132,inf,0.7768272902488067
93,1.9779659495296669,1.720316562487547,1.1260617997326823,1.3840533217611055,1.388284692286871,0.7289604534964956,3.5716048808285574,4.816204532032909,2.064288434559014,3.0754646055557346,0.6207552362147116,1.977767813880005,1.724534660566072,1.1149614266696393,0.9438202918311164
94,1.5161374773290122,1.1500678957679502,0.9512793771516814,1.5965515713945295,1.5539257662690469,0.6507294047771766,2.630637491671649,2.1558731554959554,1.3311805826995002,1.4035929978767148,0.6425374456860184,1.5157957897304726,1.1519125320883596,0.9425653539460974,0.9518520515002027
95,1.2113885425364102,0.6833696217731764,0.5467555539529034,1.4024376001708738,1.389100666719115,0.7514808023090409,2.1577869275664416,1.3997363240234852,0.8999955068540019,1.1628271683549543,0.6509067234006624,1.2113704700767471,0.6900550667057439,0.5534046454230401,0.9542944142376618
96,1.6530798816719368,0.9437395326680056,1.7381802809796958,1.2694825786384356,1.214883468370892,0.8110229273950149,2.708872770877095,2.312835783701733,1.3093208359162216,2.7347891305583576,0.6333676938231112,1.6529835200308252,0.9489064852429944,1.6549734864460561,0.8089148854797245
97,2.020490659056683,1.5297157286472673,-2.9216461934954996,1.4974456251299997,1.483256662098607,0.7050509122081255,3.239170272244073,2.5548012425694413,1.841777010373571,,0.6566669596287297,2.020083080583807,1.534654056446851,4.326467287665583,0.9320333936782529
98,2.0440840541969125,1.793950734677563,1.5545209366088208,1.6222436781324914,1.5814896298495738,0.8035530482870444,3.5316501479106526,2.043416515635631,1.9148491541080677,1.6074325829677443,0.6602640781246099,2.0429596183247902,1.7936467478186018,1.4550664576859762,0.9218571783567887
99,1.5249391493611792,0.9390556178806024,0.9617331150469459,1.4903900772428333,1.478593559683301,0.7543208607787006,2.9686555173161047,2.7318231521937517,1.245498573412546,1.9535909529488464,0.663668482632973,1.5243311258035421,0.9445709498427426,0.9679224836590219,0.9381779418213858
100,2.058345180290242,1.2229871019225982,1.2152705931671428,1.698743830227709,1.6728102632938258,0.7774512410294903,3.2962759610381953,3.4144197873934563,1.636463711263635,2.682632903378708,0.6684167106117298,2.057810521553541,1.225307572043013,1.2146935740710376,0.9560258256288032
101,1.8192754441627805,1.1617612443120606,0.8182646684312673,1.4421155703823163,1.4020660735090653,0.7595617387124366,3.5495942541082925,3.7203630993527503,1.2416076740782742,1.123437519005683,0.6425374456860184,1.819062151756064,1.166939837155351,0.8221616269851721,0.9427764795706909
102,1.867331661690492,1.2127814456806847,1.0453675660285962,1.5922335791627442,1.5587150250377628,0.7443546442003003,2.6936253157687227,1.6234913115982348,1.5307287041438091,1.664826642720477,0.6566669596287297,1.8671297762528316,1.21585632792272,1.0356511506155937,0.9489293826738423
103,1.4607125730508983,0.8358501014381643,0.5191152588088692,0.6776198447777925,0.6768421324586428,0.6726208478068961,3.2225528824909992,3.3986797510407616,0.9469012932305539,0.6622666326162698,0.648888643467878,1.460682714457085,0.8423469217761108,0.5249308615415719,0.8659338991305111
104,1.6857345512858597,0.9829412871687091,0.5926450503354999,1.1411755292234373,1.114281119540443,0.7526043685143451,3.460560742328204,3.925191500798345,1.2517064514141203,1.1370163183880542,0.663668482632973,1.6855992733996645,0.9869229216434001,0.5961860035730119,0.8973151954604006
105,1.9846312520843663,1.9267649932696236,1.0958414339237241,0.1792080277878048,0.14694504052798776,0.6328742961350142,3.3362549980661873,2.3543269947607643,2.085291357636872,0.9374808120854234,0.6584896970785714,1.9845354839258684,1.933058566551733,1.101409493289171,0.9456078129525679
106,1.0930134381748642,0.7786430320608657,0.9518377403086664,0.8087665448792922,0.7994373801064953,0.5234876757926747,1.8752023738720733,1.8449510074129216,0.9500607382477636,1.3296132291081262,0.6509067234006624,1.092928472199812,0.7840258430914748,0.9455718957098106,0.8234714908741984
107,1.805724888433082,1.6897853922239794,1.7502952760867938,1.1241981510602284,1.111527544145338,0.7005573654160204,1.7045443802277138,2.1072722863069138,2.1899397945134136,2.313021201466469,0.6125606311107803,1.8036296417985422,1.6791393935574246,2.0032174943126195,0.9346289210712082
108,1.3773694274219364,0.8921383797660338,0.5241015944312393,1.2039863128010706,1.1816847534742876,0.7775289044765128,2.8628326119494067,2.391129467736001,1.0375033634221331,0.7703347478288279,0.62595550513784,1.3773125959847767,0.8987387618974135,0.5303469662377955,0.9532756889148561
109,1.658490193558903,0.8595928348499193,0.6821843005651593,1.0064695549983655,1.0020868881612985,0.8017434370361927,3.1373561865622657,1.875795201089708,1.109949809110571,0.8747389440086062,0.6509067234006624,1.6584531019198299,0.8658876171135774,0.6884425918356359,0.928556481358067
110,1.5036062264225916,1.0173283300068776,0.6907150809075757,0.5583635395890222,0.5368034899265031,0.7516600869116236,2.9194010684242553,1.950312986178298,1.1497397799798272,0.8473975428217728,0.6380535849069913,1.5034775767043065,1.024058255139653,0.6974698533997782,0.9345893022599994
111,1.6900331370708912,1.1528571881581606,0.6573738290262279,0.6652265354226647,0.6494907648542957,0.7798751444676727,3.142076908180168,3.2858745632259687,1.1713601745957247,0.6554442349561487,0.663668482632973,1.689985377105649,1.1590525172975386,0.6645819166732553,0.938726601941347
112,1.919358429976224,1.8110842824813351,0.866765023786678,0.35294894914214675,0.3285949292270903,0.7756677409699322,3.095519891562068,4.90699527680062,2.376114053587663,1.3953034810545064,0.6528756675646988,1.9189869637124382,1.8111775550851565,0.8772303622126078,0.8809289408942095
113,2.050484037223763,2.010592913541941,-3.92725260712296,1.4081177532210938,1.36492337493556,0.7655683927010596,3.5656123481347177,5.465420272157986,2.185809266482848,,0.6547956803312163,2.0503575015266673,2.009263624637048,5.402033674093373,0.9512234305289833
114,2.0661963149298157,2.535634969792762,-4.601831284722578,1.6443521555679912,1.6202568586035406,0.6757252652560289,3.070042411778026,4.0020481524705644,2.5356349697927616,,0.62595550513784,2.0661963149298153,2.5423127723237906,inf,0.9405152293023245
115,2.040220828526554,2.0507848324300313,0.9129406449888746,1.3986006810384977,1.3640889999677448,0.7168232177397494,3.1157631015710634,2.9389458927987864,2.5287127526889632,0.4350127247299415,0.6333676938231112,2.0402208285265546,2.0574626349610607,0.919640818759437,0.9450859165726514
116,2.9311937524164198,-2.9311937524164198,0.0,1.7914914239587723,1.7577501127911503,0.9154346677008265,4.223735929189825,71.091582583004,,,0.6068309995095971,2.9311937524164198,inf,,0.8381413965332584
117,2.6127400212978853,-2.6127400212978853,0.0,1.7861840352360516,1.7666439546036619,0.8803039903855722,4.129755167487817,53.846319808993016,,,0.6097226960127671,2.6127400212978853,inf,,0.8228687510976821
118,2.065185820864189,1.4407402126849145,1.4820880634646727,0.2678618456678791,0.2454678358470273,0.5014747683463084,2.554739098475246,3.3103913419358117,1.687003120846119,1.2467780170702292,0.6528756675646988,2.0651442369790116,1.4469847053904255,1.485261124976798,0.8531511852479994
119,2.412085022783366,2.553733292335996,0.313851272214813,0.9712902786078379,0.9293360322380868,0.8642747962365069,2.986189419756558,1.6411932860889928,3.6577222172030255,1.169621099224862,0.6425374456860184,2.3771889145564957,2.5704715803783715,0.7661723155748352,0.9343302897526717
120,2.451422579136263,-0.14919054562738943,-2.3022320335088735,1.5750758538103418,1.5584855625098155,0.7092265608658596,3.9243676017663374,12.41596807768042,6.185301177830801,,0.6380535849069913,2.4429972467107905,4.152383347229194,inf,0.947747548498613
121,2.3394623554946876,-0.3566993734457531,-1.9827629820489345,1.6748721917232081,1.6461504143134778,0.8396923026430473,3.6057794626142172,2.6665278182324452,,,0.5978297680564633,2.337751812473196,4.425422237697833,inf,0.9374029853530284
122,2.2964643260670874,-2.2964643260670874,0.0,1.7506915279019344,1.6221469379329865,0.700716003641356,3.641596734651227,22.40377436468407,,,0.6068309995095971,2.296382148869438,inf,,0.8763223834324483
123,2.8917877482357373,-2.8917877482357373,0.0,1.6826730730789428,1.6523922819217411,0.9079100748426238,5.35260079165494,146.31749743144442,,,0.6403206450210053,2.8913722582297483,inf,,0.9210476119524391
124,2.3715779644809976,-2.3715779644809976,0.0,1.657270958752491,1.6114883568028715,0.9059658794777661,4.447522187731709,110.53391777308308,,,0.6068309995095971,2.371577964480997,inf,,0.8746646026729991
125,2.6136704216105833,-2.6136704216105833,0.0,1.284585666145634,1.271610913156953,0.8794727674871233,4.670611324986065,735.2084627313566,,,0.6153451465759925,2.6136495256807257,inf,,0.9043876009818764
126,2.3881858553190303,-2.3881858553190303,0.0,1.5279569431808013,1.4911606335074339,0.918185049831629,5.741336746581843,196.1337582410939,,,0.6180765742263259,2.3880219526112176,inf,,0.9054380870311216
127,2.8337972176962847,-2.8337972176962847,0.0,1.6521387336764026,1.6371781615676135,0.9329764087748759,5.0594793122218995,inf,,,0.6153451465759925,2.8334244774544146,inf,,0.8495638404734369
128,2.5033229643400463,-2.5033229643400463,0.0,1.1251168673101797,1.1162238146322636,0.9170319680260537,5.023878934120695,inf,,,0.6008849035917525,2.5027991026295884,inf,,0.8611065493440406
129,2.700243774835101,-2.700243774835101,0.0,1.5172522554756331,1.4936808964308879,0.8734342824490362,4.768929425520065,inf,,,0.6153451465759925,2.700082031453033,inf,,0.8545522303452846
130,2.7982678309627884,-2.7982678309627884,0.0,1.683934797661817,1.658202256877494,0.881326080034568,5.778234254582292,146.97523795946418,,,0.6309483474627791,2.79597108247468,inf,,0.9106595951776203
131,2.70760203219983,-2.70760203219983,0.0,1.3132762759409535,1.2719190559706965,0.7093356808046616,3.902957175260514,2.8255916886535175,,,0.581717464821069,2.7048885377646315,inf,,0.9160649685627396
132,2.6977660165972788,-2.6977660165972788,0.0,1.3298674086502928,1.3171938433999624,0.8679345415893454,5.300808176555303,402.3821955770757,,,0.5947193981915972,2.6948049743521896,inf,,0.8741561092888136
133,2.575161264727098,-2.575161264727098,0.0,1.4120590328028946,1.3667116613418109,0.8883655700402757,4.779581859089291,406.64470249657984,,,0.5978297680564633,2.574102228592471,inf,,0.8718795452916368
134,2.658893450270568,-2.658893450270568,0.0,1.4482616552706666,1.4356338424471262,0.9097666725680494,4.557663243540854,inf,,,0.6038851895711802,2.6581495426487507,inf,,0.8661164907319148
135,2.983130433503865,-2.983130433503865,0.0,1.1748528700894403,1.1585294927934549,0.8984313368585869,4.100533869289605,96.53884883224968,,,0.5783247308855777,2.9805153077491306,inf,,0.8942728334571504
136,2.6770795472962976,2.1973219271578546,0.5970702787817403,1.3549136455145865,1.2427840322808947,0.7490259827816241,3.93203849969756,4.417048282824198,2.189902444885991,0.5715667307909593,0.5915533975974677,2.6742931043040765,2.187922184673906,0.5664638954332979,0.892139316855771
137,2.757213417854122,0.8079469440992506,-3.5651603619533727,1.3403004792415196,1.353370285426022,0.7778184835550221,4.635064553437138,12.57284271932941,3.474562286804663,,0.5783247308855777,2.7558408649385586,3.420615467519257,inf,0.8566107667525584
138,2.6450076871585044,1.854339079798693,-4.499346766957197,1.355830178223278,1.3304758416803253,0.8999471567149593,4.249070482944824,70.60605971679831,3.9358431193100443,,0.5677978065141052,2.6447624618662915,3.2989706824205007,inf,0.8816854446979241
139,2.398305950981352,-2.398305950981352,0.0,1.2298521323372467,1.217169752237903,0.8902760299735699,3.9728789679822607,86.41241404653121,,,0.5713653840954815,2.395553572275991,inf,,0.8762189162937118
140,2.3887173406013695,-2.3887173406013695,0.0,1.5320070103170085,1.5038964756341988,0.9401099999674478,5.180869657574991,238.14876481456258,,,0.6357360191111145,2.3786265570707905,inf,,0.8977019737124683
141,2.5871626031933888,-2.5871626031933888,0.0,1.465635839410322,1.4454374275600168,0.9254069440631416,4.40776056692385,61.76404505631979,,,0.5947193981915972,2.584800652608644,inf,,0.9120583045822314
142,2.446397643522919,-2.446397643522919,0.0,1.4662329010788115,1.451144790864462,0.7514801541959854,6.202211693689035,102.39860841606742,,,0.6180765742263259,2.442613737597749,inf,,0.9119623635185363
143,2.590286944866722,0.8414182163718182,-3.4317051612385403,1.4951468365230938,1.4937960880656849,0.5524514049931024,4.267780816996521,11.35838651167079,8.120874416123929,,0.552929491858785,2.586865550097498,3.6277425483246932,inf,0.92320636957812
144,2.6045903271598774,0.7676015300628372,-3.3721918572227145,1.2420476203368205,1.2052578104476923,0.9170064650114018,3.9103034643542935,6.646072717126954,4.2545025990456455,,0.6822068148872973,2.6030897654657235,3.6226916335545933,inf,0.9020899559701586
145,3.092880296953595,1.2784451955564187,-4.371325492510014,1.530957714939488,1.5186112354584576,0.904577419251586,4.330326590519411,143.93481414457023,3.2197434483740497,,0.6547956803312163,3.0512449834842497,2.714412894890039,inf,0.8394483018669787
146,2.7182329871794426,1.9874097210090351,-4.705642708188478,1.3006286057361702,1.2981501940476934,0.735974720547421,3.8385071760761997,8.756920991277376,2.266823945206457,,0.6619902821573977,2.714068273427773,2.0747576923674096,inf,0.9293718913352502
147,2.4387294156870256,2.159955802268958,-4.598685217955984,1.5282343536168863,1.494590807551007,0.7883148491563705,3.943854480281344,16.551107396946218,2.1745645558026934,,0.6180765742263259,2.435101128252494,2.1513563488034433,inf,0.8694052869490135
148,2.3831106219299687,2.3650807916011787,-4.748191413531147,1.4171001054718124,1.4052441198082437,0.9419352552516101,4.057358152049962,107.28702500605178,4.588321790252685,,0.62595550513784,2.381748557685374,3.2206814227105394,inf,0.8811399685111334
149,2.7364110522631493,1.6879107682141066,-4.424321820477256,1.23905638828796,1.2204774346418703,0.9440660722289453,4.524579880807632,8.385162023370642,1.908434792593514,,0.6425374456860184,2.733197083524166,1.6850325998136761,inf,0.8797483173374485
150,2.5956678924115244,2.245872719172995,-4.841540611584519,1.3650140336958914,1.3269684003258653,0.8982475001660623,4.168298283484947,578.367793222746,2.373374336699757,,0.6380535849069913,2.5945727173424364,2.2063420457717506,inf,0.8342839258927764
151,2.656079062825333,0.010635378882250635,-2.6667144417075836,1.7053747211038701,1.6770148955410984,0.9491351664949347,5.267822686255218,413.71920494008674,3.8678321218190086,,0.6233814453054027,2.650253102375993,3.1775820209501866,inf,0.8754657683277448
152,2.4743641615904988,1.810419515530187,-4.284783677120686,1.235717700374017,1.2031817182799969,0.7176141414726608,4.1129590337556445,19.807107256063645,2.38363474338729,,0.5713653840954815,2.4690333006317102,2.0622670367899256,inf,0.7004312579063868
153,2.4897764252891017,1.3294235995469865,-3.8192000248360882,1.3302700367458553,1.2805501362841678,0.768757442654796,5.049640323702504,50.71300014101659,4.539935933997039,,0.6125606311107803,2.478924578110453,3.512539968997529,inf,0.920454080192481
154,2.1919645340772216,3.0301419042226434,-5.16475314816726,1.3850151613967558,1.3647945529095404,0.8310606467539756,3.7599269436758895,1.5616251168685795,3.4667408519515392,,0.6425374456860184,2.1911431070203515,2.978097217252543,5.139712336371398,0.7320415519424949
155,2.2583733368817835,0.25470236212734054,-0.20020514265048384,1.5531903634213693,1.520802302609741,0.7638058138589753,3.6734147650023306,4.342752153326982,2.4762200714057223,1.1960060059401791,0.6207552362147116,2.2539007545297762,2.3805838191270903,1.0963265733872538,0.945187597081541
156,2.2819914984223426,3.0544918497244935,-5.336483348146836,1.6915487533618703,1.698456645514214,0.8868918260185674,2.8614313034349514,2.877891492307755,3.1433864252094583,,0.45235697871908603,2.2811498122739806,3.003922327524035,inf,0.8714919329256068
157,2.4891918492307674,2.440808519646243,0.7479753542508574,1.0133373995665127,1.0061944822404336,0.7660047089351828,2.8651180762814,3.1506743429524917,2.52280218594068,0.696565136954966,0.5567373465730988,2.487844293775343,2.43355986659297,0.7924286501413894,0.8589278975047344
158,2.2668087689254963,-2.1524185968842118,-0.1143901720412847,1.4088355415966567,1.382881918805831,0.8760354627221458,2.817900035179421,2.665667046518783,,,0.5068466436745385,2.2665746554710124,7.349230824613334,inf,0.8679277303866177
159,2.4558898016236577,2.26088033867522,-0.7211575943940818,1.4448707893908406,1.3986971096356215,0.9354327304408484,3.097113609693938,2.4463380458284973,2.335878317360247,3.42594204059925,0.5113665138247345,2.4543127847033666,2.3016802910193084,1.3092376216249162,0.8542595864152209
160,2.454757714715709,2.2518152378675755,-1.0359623840965821,1.2798275875002718,1.2581728216858692,0.945837982687869,3.677973748668661,10.803163121638132,2.412883679306281,,0.5113665138247345,2.4527621964614332,2.1613366202709594,1.5359707605522277,0.8404804156621466
161,2.2864112524254705,0.813003058297435,-3.022943257212766,1.4893508071077615,1.450842252459035,0.9169224090287831,3.7341627774768003,4.450243613115365,4.500257137736322,3.509808054402586,0.5113665138247345,2.285509492203791,3.9459057245347817,3.7898553714539385,0.8301237666173324
162,2.3783072000371734,2.289689214202204,-1.6091542738337918,1.4360681325893896,1.4239447479567526,0.9360650619658254,3.894230471567394,3.491187828734363,2.569953508698699,2.103119403268444,0.5567373465730988,2.377308639189982,2.2367901775424106,1.7182923173461826,0.8271393568937198
163,2.2954701145819185,2.249164887151076,0.5439671080353898,1.1889562313712603,1.144910278372584,0.9236392043759687,3.483949683536485,2.4324218523552306,2.3030560698766838,0.5758024629849499,0.5677978065141052,2.28879177086171,2.2251168238480568,0.5568306234561944,0.8440298903334161
164,2.149187582594227,1.9864952761421537,-3.5071226645279294,1.2209646116023123,1.22247877301076,0.9157991228978984,4.174049464824103,5.252206892435963,2.1107018323849434,4.938111823600019,0.585052858160615,2.148148739689627,1.9535561769387664,3.7794995080678477,0.8194150532967789
165,2.4209190980997333,-2.4209190980997333,0.0,1.6415360343239416,1.6271769797622564,0.9430794977164659,4.485295947895242,5.272876051062155,,,0.5641709578113449,2.419868253608778,inf,,0.8705519057322126
166,2.3787880068496188,-2.3787880068496188,0.0,1.1630698214031752,1.13588953226286,0.9442455669290231,4.787333697879679,283.2898129409984,,,0.6038851895711802,2.3781471132164667,inf,,0.8832885099574116
167,2.8727842235353123,-2.8727842235353123,0.0,0.8237105326733275,0.7929933509039488,0.9323519214810156,4.0486133812903695,331.22323811700994,,,0.6233814453054027,2.872138989635105,inf,,0.9261341226057214
168,2.5237845454771475,-2.5237845454771475,0.0,1.246499291103383,1.2546803599340435,0.9293674709451681,5.180344631574197,134.87170238836356,,,0.5883313578629602,2.5233703162401286,inf,,0.9188267885393893
169,2.533934039867782,-2.533934039867782,0.0,1.0669432764352775,1.0270726885305586,0.9479001747310486,4.7098132642496084,63.27597196562574,,,0.62595550513784,2.5299040157187362,inf,,0.927093746799318
170,2.1697093928752422,2.1699978096655834,0.8794421995262054,1.4392199834788817,1.4152279151157705,0.7289252378083735,3.749864369519826,20.400978235924057,2.2447597792960754,1.6384558212656157,0.5641709578113449,2.168637120484307,2.134783735840568,1.4946722978025675,0.7897056925935477
171,2.169191403942334,-2.169191403942334,0.0,1.691501840033238,1.6941113981702094,0.657565756990112,4.186611550481416,64.77658196446903,,,0.5451288209179292,2.168734306936592,inf,,0.8090687691077543
172,2.373009346968685,3.327434226422002,-5.700443573390687,1.7160098129507646,1.6854158629500986,0.9352526383860271,3.5370148689636896,3.503143438665728,3.327793605948354,,0.581717464821069,2.3726499674423325,3.334471408479383,inf,0.8613074625437093
173,2.016435824076932,2.078301334393269,0.9185131364760633,1.4229565040831862,1.3999342548264482,0.5426233494693117,2.999809551374646,3.1753484550718105,2.298831879971844,2.7097534381280255,0.585052858160615,2.0161538024439176,2.08487974792898,0.9230247640554992,0.8428491501839216
174,2.228821856424277,3.2397999174480328,-5.46862177387231,1.743262158305193,1.7173211867091134,0.8086609382840719,3.1370779640218087,5.498047082637294,3.6510205340993322,,0.5947193981915972,2.228405694819794,3.1901978376027444,inf,0.8201399434205676
175,2.4186387015803454,-2.4186387015803454,0.0,1.784018115116261,1.7486908155289742,0.9293229172086451,3.6939414364964125,7.5706657059458,,,0.6125606311107803,2.418494884268749,inf,,0.791371339938631
176,2.2952620325635777,2.7120343602671637,0.6897970936746631,1.7650639833183814,1.7438875027607408,0.9294159690651758,2.849040399287491,3.4073233301744783,3.4052753517243404,,0.6357360191111145,2.295168221666346,2.7188059736954244,0.6964972674452273,0.8431287917155947
177,1.8640088622402708,1.5560099619961587,-0.2598116448497789,1.5277456041645552,1.5036041801469127,0.593058476333386,3.231699703806091,5.339514183719151,1.6693257957324115,2.7101741782015023,0.6233814453054027,1.8613954045791161,1.4166997799490557,2.0047863738900253,0.9207358230885458
178,2.2413127128272525,2.367045990835537,-3.9010014586939974,1.4064298579170054,1.4066254879979587,0.9079772260206131,3.445159218813485,22.337357356412955,2.981677430970079,,0.541134803179459,2.239193062158721,2.1827300695144727,3.3747239049949838,0.8031773875710906
179,2.381847005034968,1.547074543334825,0.8140513257338142,1.752957111776601,1.7024764657248719,0.9381152754182539,3.239954742498965,7.4977339972853585,2.0000296766705703,,0.44694259446804574,2.380666761798877,1.5470340563484988,0.7927555232985118,0.8602404583227515
180,1.9138202362321273,1.7080046800112993,1.4851193390839632,1.18571122430218,1.1280388962831904,0.7073193704285746,2.902085548954432,3.539225960218684,1.8548049827134145,3.0632888703899197,0.5370774965580548,1.9117449284396386,1.7096835830896917,1.449310706636631,0.9137888334221953
181,2.1670163809622425,1.7210613943303121,1.1926264399095432,1.7502535730425672,1.6924490736181026,0.9076436329329796,2.201916825976516,2.518811190284512,2.4260628255413,,0.5978297680564633,2.1668893775401465,1.7231547211692244,1.184241222463341,0.8167121231846052
182,2.2473595233620847,2.472449903184608,-4.719809426546693,1.7879520709138665,1.7457020400103207,0.9621746754759487,2.5275162458265856,2.010677762691215,2.4854033874221853,,0.6125606311107803,2.2472555109417844,2.4632751907041333,inf,0.7954657960078839
183,2.516840639549661,2.4904557532810805,-5.0072963928307415,1.7781354798635114,1.75770650325269,0.9020164976955312,2.1821204769373885,1.662898598226584,2.4912430140459043,,0.6233814453054027,2.516053378784837,2.4979208165769333,inf,0.81456101183534
184,2.3654954690470436,1.7151440833292848,0.9233067535691317,1.656068428551135,1.6148533917283399,0.882787331945223,2.340046953012276,1.9213623935937445,1.7255990903801313,0.9129406449888731,0.6284777104787076,2.3654065705764546,1.720969821996469,0.9309478896741286,0.8207975692477103
185,1.892009968834193,1.1904813656020006,0.9460594923100203,0.947102216916708,0.9070169863630102,0.6195786832749874,2.5999213171392674,3.0688313034124386,1.467317233091186,1.6732926079872532,0.6357360191111145,1.8905490283919046,1.1960809520370876,0.9494456736691326,0.8352177308411334
186,2.176165823442199,1.4448362082686521,0.9774791661264435,0.7494723340303212,0.7388880296442047,0.9193505636996848,2.6685430409638164,2.9837285455391527,1.5913692453674857,1.2364288088436701,0.5915533975974677,2.176148251734303,1.4515315825075767,0.9841793398970082,0.8606440779843502
187,2.259461108631121,1.7923826739664905,0.9507419021797006,0.4717797974606964,0.43410606705593646,0.5804984758641848,3.3921435987550193,3.711151592571582,1.8311306185548495,0.9136093176985088,0.6008849035917525,2.2592063696921008,1.7959174793767188,0.9605239868509807,0.8961864230636186
188,2.269795270171055,1.8212103907855304,-4.0910056609565855,1.6409127502363414,1.5412942148111073,0.9641740734093993,2.4825984262041625,2.5079874480956894,1.8212103907855313,,0.6403206450210053,2.2697952701710546,1.8278881933165605,inf,0.8772977160895306
189,2.158967674551515,1.9725540074488994,-4.131521682000415,0.6238438351379904,0.5810151596534546,0.7436049077461089,3.1940203638988254,2.899165513790798,2.4431541169985964,,0.6207552362147116,2.1586771677239804,1.9757951855888995,inf,0.901957203144348
190,2.536145754577566,-2.0785850664124275,-0.4575606881651388,0.844069825750781,0.8136106334376114,0.935961066462565,3.3359089978919103,2.1625907722162596,,,0.5604843169999094,2.5354984359040604,5.694012683060396,inf,0.8793972027363319
191,2.550850400948002,1.5986681556065103,-2.139966700755332,1.4211006172314453,1.3753527964390684,0.9547786735433398,3.655713211741513,5.085893373376425,2.7841598635242435,,0.6233814453054027,2.550619193153382,1.5859372178780284,1.3766057040161412,0.9034853235769766
192,1.904851388927481,1.475861108065393,1.143434742526344,0.8542129665193832,0.8122103383107521,0.6652752413155532,2.92781816741949,2.5936440198052733,1.600374541454001,1.0967637758418096,0.6125606311107803,1.9047042282441893,1.4819330020866364,1.1426012506902516,0.8551353003606521
193,2.2309430775455317,1.913750061884933,-4.106457612675395,0.6817756531969323,0.6354658836821493,0.8378195091719671,3.6790812802835715,6.2537202160568,2.37684645718359,,0.6207552362147116,2.2305745570177735,1.9150632995918777,6.568779912142806,0.8823275427729635
194,1.645956063749674,1.1811248874795357,1.076907355579047,1.3283213447127553,1.2754850562799385,0.780968824779832,3.584607124085741,7.993593232330068,1.378236296119903,1.2761665730250351,0.6547956803312163,1.64471972657874,1.1800515742334758,0.8847644782273811,0.8636962810310312
195,2.088914880616071,2.451582127395143,-4.215495030593121,1.7617717994552429,1.7187586966007167,0.7241696430959477,3.443255600099641,12.195517108088426,2.469215355329379,,0.5883313578629602,2.0879218424457693,2.3765206840472044,4.109909078763212,0.9011605160955316
196,1.653909208506923,1.0969438232928352,1.4764990089301402,1.7178874253884473,1.6819473444764814,0.681777605633566,3.0780183362845523,2.9635856521185615,1.450527310534664,2.065537262724129,0.6207552362147116,1.6535639704766556,1.1024517349204304,1.4616270731695082,0.9315438488854733
197,1.596332766013409,1.5755964067336095,1.267158665340784,1.369598942319053,1.3534697143961387,0.8053710601027043,3.775786958629095,4.849890274978907,1.872995613578658,1.4342203131812392,0.6602640781246099,1.5962475117484045,1.575426711635502,1.16857087727502,0.6670881505614238
198,1.476296390352383,1.0340968845176408,0.8536109190999572,1.0991548814303371,1.094106862383663,0.758737427404831,3.1111249818922873,3.1169321255593676,1.27119726842471,1.2822236216825793,0.6468212168108125,1.4762190686478776,1.0403846678833772,0.8530949780715295,0.8465606020645405
199,1.5156935152595292,1.0574486741027165,0.8584614333546248,0.4842751465013212,0.47202959940839934,0.725216745069299,2.8000949705190386,2.475647865528694,1.3939298043462942,2.1080379211743154,0.6447042257417027,1.5154922995915725,1.0629926971559938,0.8607604525521189,0.7825102241826489
200,2.1532656693123293,2.854030723518412,-5.0072963928307415,1.4610066160668063,1.4434993475273554,0.6924716805924596,3.310817105980364,13.918257586723756,2.854088700911296,,0.6425374456860184,2.153207691919445,2.860766503442325,inf,0.9419510024077372
201,2.334051550951481,2.6718887712835815,-5.0059403222350625,1.5005819956817135,1.4976843164621998,0.6820112638494988,3.021262053835923,3.929742786470553,2.6721229530370763,,0.6153451465759925,2.3335025956288473,2.6788007555681057,inf,0.926812017343154
202,2.092864562011976,3.6075790113787107,-5.700443573390687,1.5977295695423654,1.6159642745754075,0.8287356250163541,3.0815301997354707,2.853439437988249,3.60757901137871,,0.6284777104787076,2.0928645620119766,3.6142568139097393,inf,0.8942415102060696
203,1.9448350766671656,1.6795564584992457,0.9682974061785656,1.5245215405380463,1.4913595106781763,0.8076878749840494,2.802051232138235,2.719749650598048,2.1202044068478187,1.0479699930410469,0.6309483474627791,1.9437458262259366,1.6868647197640239,0.9745596399981308,0.9017946256655828
204,1.982243756353686,2.031320975797441,1.6835287543542776,1.1911914487313586,1.1583258228499607,0.7764334818785175,2.5612154045000155,2.487319985330193,2.0580340460038213,1.6569462427823094,0.5978297680564633,1.9821131977192739,2.03403651691777,1.694321748169954,0.9171779726883833
205,1.4859656752753374,1.001132684020326,0.8526759856584349,0.9820503077462591,0.94392246571886,0.6675124963960404,2.587384128226534,2.032501984343087,1.2070145938164059,1.4963861426470844,0.6509067234006624,1.4858937263426453,1.0074484022664565,0.8558955141223424,0.939016521100513
206,1.0909683237950194,0.45552058641175663,0.351104169904348,1.5473798475945382,1.4661382924443087,0.6597499030686832,2.300511996378093,1.8390178585477712,0.5499902619741385,0.4831093147267097,0.6068309995095971,1.0908756272963878,0.46207693726202315,0.3576655185529607,0.8076232497191116
207,1.764927959561961,1.5471832353251036,1.0276492129600383,0.9898455058298332,0.9707303427172698,0.8642438084431618,2.782393756129753,2.2718763704149074,1.6947985548766002,1.5629835499041114,0.6602640781246099,1.7647930209982408,1.5535962494766,1.031277741425705,0.9459527287891131
208,1.906438931848642,1.5388457080735558,-0.40699454162663873,1.3010072207188124,1.252818402085945,0.732939342441903,2.400938289327805,3.062230880010068,1.9185169501414459,,0.6309483474627791,1.9062728560168158,1.5441147698361113,2.116535666086077,0.9446759198047309
209,1.7447924901200242,1.8762095415908269,1.382944274234609,1.4350307672542209,1.4308431990240986,0.7369160252364682,2.1590808808178026,2.5451302035556247,2.1667263983139535,1.7856184232327508,0.6403206450210053,1.7447486649587003,1.8829311692831794,1.3896444480051726,0.9429412279640363
210,2.23691827770536,3.463525295685327,-5.700443573390687,1.5564257936859465,1.5456261710800234,0.7410335720022315,2.5813377009267553,6.262379797435761,3.4635421789015686,,0.5883313578629602,2.236901394489118,3.470219981432598,inf,0.8905646849756289
211,0.9684430589612553,0.3464820293525884,0.23545505428196645,0.4192295549819007,0.3493015368923573,0.6108754136980411,2.068758071743477,0.5699227296810991,0.48950618617056035,0.2822484217641615,0.581717464821069,0.9684323391937709,0.3528236257468975,0.24188165296515063,0.8936462539741731
212,1.1945344052444582,0.7247914139486908,0.41273379922968934,1.085296720259841,1.0864391352063272,0.6370869681032711,2.93711334841931,2.00951992436158,0.849389781329443,0.6568379014717932,0.648888643467878,1.1944626143249437,0.7314379571723126,0.41936008466636726,0.9127387073023578
213,1.325577358575801,0.5841523247041329,0.5019428653173263,1.6602893440125244,1.6406617990688586,0.7718925135016685,2.5287467764275213,2.001047339014247,0.7146749079078646,0.6386529015066619,0.6619902821573977,1.3254710662298004,0.5904920064575608,0.508789654280892,0.9496200820380855
214,1.1227546822692822,0.513157058416049,0.3537078247479992,1.5901005844845617,1.5984105517512788,0.3392322640684193,2.209842532742183,1.7839830267139223,0.5792666757893196,0.47808704280941067,0.62595550513784,1.1227000841971995,0.5197202622008191,0.36038942645686267,0.7861740784871988
215,1.413722025512587,0.7887163461198292,0.5476342584722746,1.414616106659476,1.3966591921428195,0.785381997908358,2.5161883352746295,1.9684037969972428,0.8222152782101273,0.8289121915562967,0.6811855325194978,1.413642719305066,0.7954520306016409,0.5542919962349692,0.9214776793587521
216,1.1392302828326062,0.6299837235383214,0.3734068811680804,1.5241068575924421,1.5182162116447955,0.5649882285818286,2.619678378611256,1.958784993301955,0.6955362555981978,0.36582369788731967,0.6233814453054027,1.1392259715534068,0.6366601485183581,0.3801005492482098,0.7986911939966337
217,1.1825989637739578,0.7116746613833669,0.7535969411231385,1.5400460107450735,1.4761506375251854,0.7032361736395851,3.2275202763961475,2.766757569423296,0.9549118046124703,1.0845445553598345,0.6547956803312163,1.1822837946957252,0.7170608852122672,0.7605504793071706,0.7714167940568216
218,1.6867793581372927,1.8786795029128558,0.8969043092176796,1.5400460107450735,1.5265200671716346,0.6123972192474366,2.4046108345240618,2.487038652735514,2.435519193077357,0.9037415821996261,0.6207552362147116,1.6867390113833334,1.8836662879273935,0.8950029443022057,0.8718318828702201
219,1.9091645112537041,2.139155227072866,1.1001252528778602,1.0467559589361515,1.0041680059721352,0.6721365044812336,1.8134012176716068,2.7929583480366267,3.067050452742389,,0.6309483474627791,1.908967670133596,2.124595419828646,1.1654118332535317,0.8964078684379801
220,1.4623696806793707,1.296920145590433,0.6437039778985616,1.3257905545075557,1.3081004533321408,0.5503371765237939,1.7037547877205186,1.693464818187826,1.4538905098259114,0.8100827070867248,0.6233814453054027,1.4621200470157671,1.303206221906173,0.6506463983223694,0.9072647105252638
221,1.707915167718126,1.3196610272305662,1.5709050028886025,1.7349890771872856,1.7280801809827941,0.5884792481979119,2.370535993145556,2.98773976681539,1.4838539948494547,1.9565014723948104,0.6309483474627791,1.7077247402849811,1.325132665907939,1.579001767945968,0.9535504216253687
222,1.337816622568344,0.928639746337196,0.5974237735436487,1.737224378246644,1.742347206833662,0.8158842996537731,3.1370326976096843,2.644848191284477,1.0783929191863433,0.855919141311073,0.6668815377411301,1.3378005371511752,0.9353336342853942,0.6041239473142122,0.8327888530328917
223,1.62670088230673,1.030525675813227,1.0980950526140871,1.7335621473995806,1.7206643951366916,0.7897389298530327,3.897590577874163,2.3128259369526947,1.1898991015084566,1.7818849860046535,0.6309483474627791,1.6266971103241847,1.0371767284451965,1.104529938883848,0.6955974007356874
224,0.8792279644941311,0.3421781924570543,0.20197803350597776,1.4157293893227143,1.3644783327411922,0.6486366069028979,3.182736888714364,2.4326751127150277,0.4905011761347321,0.5259544204368387,0.6619902821573977,0.8792090569696233,0.34886671900426236,0.2086701286421032,0.7683731530915847
225,1.1625910992458244,0.5780083999746599,0.44656261017395216,1.5668470887964283,1.5725873130056771,0.6378030971186095,2.6873131281936686,2.3270860332374954,0.7893415699698625,0.6541273805044945,0.6425374456860184,1.1625820826727313,0.5846502645052462,0.4531973611071903,0.8248400085174318
226,0.901270354764639,0.38481734324948613,0.22702720206569493,1.3727071144716252,1.358336603264252,0.499099992012706,2.876365102858734,2.7224949097081454,0.5420723437488042,0.49380514916468915,0.6547956803312163,0.90126529239791,0.3914577736391308,0.2337021944031408,0.8392729784074009
227,1.359977052802517,0.8747306177884433,0.6291724718582286,1.238999746751041,1.226372017187363,0.7866047563861783,3.2475634715129957,2.9126930312844364,0.9135166428235992,0.8586504334177513,0.663668482632973,1.3599770528025172,0.881408420319472,0.6358726456287923,0.9475088519951549
228,1.59290861048289,0.9294811325598507,0.6097543860011276,1.4299591609106668,1.4153082354376696,0.7194731751910649,3.129500517266538,3.4059339865963705,1.3349462406680155,1.1598007229203988,0.5915533975974677,1.5929086104828898,0.9361589350908802,0.616454559771691,0.8831854227906972
229,1.3182775343827233,0.8396984687701508,0.9332904898194996,1.3383027680529047,1.2719360619022637,0.7042916672537832,2.993009741203479,3.9504424409529997,1.1876807350964234,1.746999164835831,0.6380535849069913,1.3182619507280637,0.8461082897372085,0.9384524392063591,0.9173387247562128
230,1.2922543450615354,0.8216683179524586,0.9331037526010983,1.495107709391049,1.4834412136143138,0.6282818445029201,2.478775058835896,2.4495843486898194,0.976743804492427,1.230928066935983,0.6309483474627791,1.292197037740775,0.8283443148244867,0.9391962509646417,0.8264384204509208
231,1.6503541336702359,1.1826575134657364,1.2546439269353327,1.6476675410545498,1.6090466002069677,0.7141246089482902,3.482874690520931,3.854710601039578,1.342075593289196,1.206606280543624,0.6125606311107803,1.6503177789992804,1.1889807087128836,1.261735062660733,0.8252705413528562
232,2.3238300653774724,1.9067336025883348,-4.230563667965807,1.5138233822125826,1.448787405823385,0.6728545462098006,4.104684454797216,7.832899922691149,2.2154805649104743,,0.6584896970785714,2.323695241390168,1.9076151759050897,inf,0.8762294511769435
233,2.1475668372767944,1.1841515924792438,0.7168405433179874,0.8407017923625598,0.8249544359601704,0.7025989481974273,3.6415675040165305,2.9333666863980348,1.7602776893312175,1.799641718751761,0.6380535849069913,2.14729220858801,1.1850011944269339,0.68200845153362,0.9369685990081271
234,1.670642969997315,0.9778100695145142,0.6507451741952042,1.5820462806022393,1.5692279052335354,0.7323857039963795,3.228831166427539,1.8240963703814068,1.2578777904836818,1.3865204402458713,0.648888643467878,1.6706043476715877,0.98437913249393,0.6575927098431092,0.9543709122845403
235,1.794655861856135,1.1355933606475408,0.4642591710076829,1.608317018647996,1.608789457039186,0.771282395722171,2.782940759759351,2.0554763335780177,1.3409308193683604,0.5971656757231419,0.6509067234006624,1.7945633965607892,1.1416428976791748,0.47168007557298797,0.9455542217663286
236,1.6643891194221938,1.2028411099122764,1.0381037879428794,1.7085297127245234,1.6693517417057575,0.725669277562776,3.156676484209697,4.723615475884118,1.5660550417410835,1.3680626293865952,0.6233814453054027,1.6643635267096162,1.2095445051558833,1.044803961713443,0.9416220802269123
237,1.6733754861559662,1.4508714695288014,0.9357876027968879,1.6799928916504996,1.655604158815983,0.6873299669120942,3.320469183788508,15.608261593822387,1.8689216970776248,2.1548469953448226,0.6584896970785714,1.673324794082957,1.4570823827976356,0.9395700288932137,0.9201829398396252
238,2.1310416704581727,2.557578132387891,-4.6886198028460635,1.7743874370247161,1.771216344334077,0.6828150084566096,3.6897070386128767,2.6228652303187032,2.606879253995884,,0.6566669596287297,2.1308751967946855,2.551656110350874,inf,0.9391053479434053
239,2.142937180011866,2.9037689187369993,-5.046706098748865,1.4603993869344076,1.4411547575993002,0.5425034699592234,3.2468338398415484,5.810735602521636,5.926608903734798,,0.6425374456860184,2.1420737328713715,2.9007404595891195,inf,0.9411512677956868
240,2.209634073687505,2.7976623191432366,0.6897970936746631,1.563269135956715,1.5487285977707788,0.7953513457106802,2.271142901312455,2.9483361948935713,3.4908427249864116,,0.6309483474627791,2.209600848404275,2.8043733469574956,0.6964972674452273,0.9323235054119566
241,2.153942045172705,-2.153942045172705,0.0,1.0312231924021538,1.0132452842643582,0.7119378455428831,2.6246772743554416,3.107789543536065,,,0.6357360191111145,2.1538777728328533,inf,,0.9309375024821842
242,2.4849066497880004,2.1169246349345774,-4.601831284722578,1.7767037529451493,1.740428237087812,0.9147023687535261,2.289374061146416,3.9969725520031036,2.1169246349345765,,0.6008849035917525,2.4849066497880004,2.1236024374656055,inf,0.8664448360472435
243,2.948619153123564,-2.948619153123564,0.0,1.7771543204980809,1.7387241468904364,0.9087911356575377,2.504361403666603,3.8819008809629874,,,0.6425374456860184,2.9482127575860146,inf,,0.8593087109847602
244,2.066658008605883,3.44805742468832,-5.4291794092708034,0.8617093853220539,0.8595264725876054,0.6538583768760337,4.117736384094772,8.444527100611378,3.469362476089274,5.1666207026027875,0.6309483474627791,2.065056613758802,3.3712464957631374,3.573366566992092,0.704018898393521
245,2.403217814909659,1.505466289252972,0.6897970936746636,1.6286857673960626,1.5772996366206784,0.9249287969797777,2.7415347919029527,4.32932492796786,1.9110068642854352,,0.6509067234006624,2.4031423479853604,1.5122195587083,0.6964972674452273,0.9046473471539017
246,2.5682882587270512,-2.5682882587270512,0.0,1.772683482512393,1.7397626836816436,0.9277778793961982,3.349214700042775,4.46143499597868,,,0.6468212168108125,2.5682882587270512,inf,,0.8449809206513461
247,2.75934349548976,-2.75934349548976,0.0,1.7795527229240475,1.7592321514859863,0.9182521281777084,3.3538352216519187,50.2879050012027,,,0.6125606311107803,2.7593434954897607,inf,,0.8409993076269332
248,2.6248352253629577,-2.6248352253629577,0.0,1.7892055049948947,1.7598990181259502,0.9280589602150578,3.558503573004669,75.87934476719454,,,0.6097226960127671,2.6246285929631377,inf,,0.8467934218061376
249,2.813410716760036,-2.813410716760036,0.0,1.783105924140117,1.7463949751165209,0.8870849113934898,4.037449208139651,31.742459606321358,,,0.62595550513784,2.8134107167600364,inf,,0.8793581742465737
250,2.995732273553991,-2.995732273553991,0.0,1.765561251024244,1.7295120334412248,0.8773910453954376,4.451373187141616,10.801541807003034,,,0.6097226960127671,2.995732273553991,inf,,0.8968989388230774
251,2.70805020110221,-2.70805020110221,0.0,1.765806106802073,1.7218864903584938,0.9021884359185113,3.533900112797099,23.798703760816746,,,0.6038851895711802,2.70805020110221,inf,,0.8856289819854453
252,2.3924620741979825,-2.3924620741979825,0.0,0.4826653666075603,0.4635929885429536,0.8491713443522676,4.5913946137687764,65.15592840755056,,,0.6284777104787076,2.3908093264088848,inf,,0.9407778068240763
253,2.2957215282176633,3.1087326669999835,-3.2030756241750056,1.4242714643750525,1.4192077337511575,0.5829887026252365,4.53248985302065,16.627199193477225,3.0873462664203037,4.913280752057561,0.5978297680564633,2.2949476658648345,3.0488320747599595,1.2516008533151908,0.818736139754281
254,2.153423806686771,1.2581187059097365,-3.4115425125965073,1.3881647966146795,1.3589922562928056,0.5275333560994853,3.9123536755421378,11.44048482885675,,,0.5451288209179292,2.1501501699502907,3.21478194567973,inf,0.8080228473743244
255,2.872186694322345,-0.14633262588048046,-2.7258540684418646,1.6497614316279914,1.630169050599474,0.9494487469533589,3.7917048972138354,52.95953596382377,,,0.585052858160615,2.870569130599985,2.833213344056216,inf,0.8625511501150684
256,2.5682882587270512,3.1321553146636356,-5.700443573390687,1.6874652363425855,1.6581131754730682,0.902954688905621,4.445261676154808,87.69710639322122,3.132155314663635,,0.6447042257417027,2.5682882587270512,3.138833117194664,inf,0.8963895731534087
257,2.5682882587270512,-2.5682882587270512,0.0,1.5241391202047063,1.4771016991358783,0.8945145060290622,5.088610994324076,34.69915036037697,,,0.5883313578629602,2.5682882587270512,inf,,0.8961994069602323
258,2.445685936634719,-2.445685936634719,0.0,1.3760979784472356,1.3548125971578626,0.9066881867827921,4.279390587177007,7.259205855447579,,,0.6153451465759925,2.445685936634719,inf,,0.9160597051030311
259,2.4788100114541463,3.2216335619365406,-5.700443573390687,0.18967299066309576,0.1623776202184986,0.7466539490475097,3.9308525352549446,3.2220402668134627,3.221916530566725,,0.6068309995095971,2.4785270428239614,3.2285943330977545,inf,0.9442810824500247
260,2.2147626834652976,1.5397707408700763,0.8439477735019207,1.1381117158495344,1.1297761709750909,0.9578706703661033,2.6273637428861503,1.6077017161264227,1.6940081332126562,0.6897970936746635,0.6233814453054027,2.2146759709499753,1.5465352559164272,0.8506479472724855,0.8767244269085591
261,2.4849066497880004,-2.4849066497880004,0.0,1.6957733915312172,1.6566528945660939,0.8974087685038576,3.553928985717149,4.090258476210211,,,0.6309483474627791,2.4849066497880004,inf,,0.8926748408422609
262,2.75934349548976,-2.75934349548976,0.0,1.7228838688677626,1.6973518837791746,0.9059133402515361,3.3869000067844652,61.42461058817013,,,0.6425374456860184,2.7593434954897607,inf,,0.8937071549229755
263,2.5255925709931883,-2.5255925709931883,0.0,0.10060391803536387,0.08034529424987845,0.5780855270135441,3.083369948714341,3.8478256701385027,,,0.6447042257417027,2.5255897650635353,inf,,0.9312230623013199
264,2.4830862190753167,1.8310629931954794,1.3829442742346085,0.23452148740946308,0.18572474443816656,0.6661726994912447,2.7544103648831455,2.5797762231739543,1.831943959237274,1.3854691517923474,0.6068309995095971,2.483041723178488,1.8377852916233373,1.3896444480051726,0.882163861061246
265,1.0899893352953667,0.6060051881586561,0.4744762386013661,1.191266009920947,1.1630165711480291,0.6378869381567188,2.7749539424942484,4.408969962575398,0.7547779402285715,0.5860097788156127,0.6380535849069913,1.0899829619700552,0.6126063509989012,0.48102826096104595,0.8991802435804588
266,1.6581681626691736,1.495860580540799,1.9221074168688443,1.418714149973151,1.4028125033593963,0.7278274601354164,2.8215174170369757,4.257837896732552,1.7374753193910089,2.0506319043654533,0.6233814453054027,1.658044760073701,1.4994224366658564,1.836638795405488,0.9090467951273998
267,1.2532583027681472,1.1719455179301295,1.4402993162210231,1.351492491953501,1.137094147638439,0.5369259501951829,2.81691425799799,2.718235827026593,1.5100458485650936,1.8601497468125612,0.6097226960127671,1.2532019537241748,1.1784799348265278,1.4448667286837837,0.6217656402859781
268,1.0896858987391513,0.6988316741323752,0.504957806796871,1.4737135930838023,1.3728471756421132,0.5343082512346491,2.3953808445818376,2.7771286462679066,0.9474009065514436,1.0257880943170028,0.5947193981915972,1.0896525472966379,0.70551271506625,0.511650991603426,0.7716236183420585
269,1.8548016806800622,1.203959170762809,1.2457099988477873,1.2642189615246926,1.2292433368736966,0.715607579340668,1.3992605881792732,1.6306645717268862,1.280537712199114,1.4632442166362518,0.6233814453054027,1.854699269001929,1.2105021799298947,1.2514536783005947,0.8175221337551386
270,1.9069728510351696,1.3922213711622042,1.0052915755776772,0.7013622120910556,0.6493042776190112,0.44495716947377284,1.7361319916642501,2.1192940538378178,1.3975031529505006,1.6945511456155793,0.6309483474627791,1.9068710763292795,1.3984102485030492,1.0097099085053944,0.7940872665023155
271,2.5240334606061365,2.4688343395414254,0.6851079229803059,1.126631323861502,1.10670046117056,0.5063823753001772,1.5672440483152024,1.8254761863568798,4.702575160077006,,0.6207552362147116,2.5239247168087293,2.495078826958043,0.6948292667429301,0.7156228995562813
272,2.489260995870161,-2.489260995870161,0.0,1.7667699745304253,1.7301661512725277,0.9446847143552115,2.0459312871659807,2.0219423547327637,,,0.6038851895711802,2.489182444650789,inf,,0.7813133983870358
273,2.5847354108782596,3.115708162512427,-5.700443573390687,1.786645060702374,1.7550362826481412,0.9561017906385952,2.4137054708075496,2.5161500755930555,,,0.6566669596287297,2.584506015010755,3.122615360910961,inf,0.8050418116003245
274,2.4079456086518722,2.5993507841788692,-5.0072963928307415,1.7872110880045329,1.7651594098587116,0.90648591789157,2.4567878083119004,2.077635378520617,2.5993507841788692,,0.6357360191111145,2.4079456086518722,2.6060285867098982,inf,0.8228167060328619
275,1.864319500320339,2.197754400547213,0.9542858743454845,1.2962343448703209,1.2624362158386497,0.4614637558657785,2.728140305907068,1.9485295747574631,2.381820376841159,1.0017878949274257,0.6180765742263259,1.8621104053245774,2.184714640929547,0.9456429438866826,0.751060393349516
276,2.624904356421901,-2.624904356421901,0.0,1.1828703689334958,1.172541724642897,0.9245954067847321,3.7010769512686776,4.689585163881845,,,0.5748741956352443,2.6218725048611575,inf,,0.8725818884910809
277,2.246061712579936,2.248542859036188,-3.041083705754785,1.6074364055991466,1.5212859645520338,0.9159501241221912,2.6419089333127603,2.0518948762605396,2.394880669716693,2.1043784528524547,0.5068466436745385,2.240967500284138,2.0848888629226887,1.4362616884623376,0.8934964796081052
278,0.9139418946805958,0.48902310547849404,0.35582608002952787,0.8768782736574868,0.8430089925694964,0.6187505221050286,2.616190184081287,1.9794690979322325,0.678469114662565,0.691791813848707,0.6602640781246099,0.913406007805565,0.49408929112446504,0.3613291990155292,0.8690668918220007
279,1.2502167279534733,0.6886513361142323,0.3914926171997126,0.6579482855750056,0.596302108226082,0.75270039376339,2.6630326124478545,2.7144519034985857,0.841939780129773,0.6122354640392592,0.6380535849069913,1.2502106728192237,0.6953217697983699,0.39810615317416204,0.8550771052018208
280,2.2072749131897207,1.7014091909729103,1.7884093823427736,1.7639500699802753,1.7574600777815153,0.9281358880760998,2.550716735133521,2.80904041574931,1.8837307477668652,1.6060878255488185,0.6180765742263259,2.2072749131897207,1.7080869935039398,1.795109556113337,0.804758704558262
281,2.5682882587270512,2.43900813410369,-5.0072963928307415,1.7746527715791123,1.7495508229184957,0.9471360484372111,3.0689162039940148,7.515355797057097,2.4390081341036898,,0.6180765742263259,2.5682882587270512,2.445685936634719,inf,0.8064465625951986
282,2.6321233611457573,3.0683202122449296,-5.700443573390687,1.7806497611999295,1.7626540032217959,0.9331959493292292,3.4298128319700374,6.728675529615634,3.068582510646023,,0.6468212168108125,2.6318610627446635,3.075260313177052,inf,0.8634448572902962
283,2.6595853046939077,-2.6595853046939077,0.0,1.7448681399186257,1.7259385473251363,0.9335763076886816,3.3898086466176256,52.95948121341866,,,0.6468212168108125,2.6595775476514323,inf,,0.8478282184759254
284,2.451009122782617,-2.451009122782617,0.0,1.5973612548437066,1.5952169575038848,0.9320511138517237,3.4822114839898983,8.426962661869709,,,0.5677978065141052,2.450827336135138,inf,,0.8567962638464964
285,2.3506149052660574,-2.3506149052660574,0.0,1.547650062041994,1.5377148971594676,0.9366993843818391,3.816394813774538,19.427767059675283,,,0.5329562494928909,2.3479311947609225,inf,,0.8194581816299342
286,2.665916183281702,2.4435115012290147,-5.109427684510717,1.6012543651272486,1.5848569415046323,0.9310754565796436,2.965290129875752,13.507362718438069,3.18209698817238,,0.5490601803369085,2.661962096909455,3.1546158718920903,inf,0.8113423115759236
287,2.0714001849150727,2.3550432547672737,-4.426443439682346,1.4665549425156297,1.4395359403390848,0.9192896657046317,3.714177589189899,9.900722697579141,5.039747669621718,,0.5451288209179292,2.070680036011263,3.8194320168364313,inf,0.802838745384862
288,2.471846280692077,-0.8131887860934484,-1.6586574945986285,1.3771297910974996,1.3781154730957805,0.9429362599199913,3.38578139595322,11.281917262179936,4.511700040528104,,0.5490601803369085,2.4703464984566708,4.471310332201147,inf,0.8480148634892595
289,2.4327885027683416,2.886354497151396,-5.3191429999197375,1.3177930073460267,1.273743641671797,0.9378737709634638,4.174898632758435,23.705375010942475,4.259675056918336,,0.5748741956352443,2.4316818885507026,3.344671278940334,inf,0.894156211983015
290,2.247434279459704,0.772314189658422,-3.019748469118126,1.2553887511480462,1.1608599568664166,0.7460671346264907,6.226802623901971,9.069548033439874,4.3417626218268035,,0.5677978065141052,2.2469401695821523,4.060758351906052,inf,0.9328252785225859
291,2.457662025269703,-2.4385969965961554,-0.019065028673547448,1.3534296132398926,1.3455611443045825,0.7903718115097724,4.41149349102229,36.81606604222659,8.945021365777787,,0.581717464821069,2.4558657810035864,8.951699168308815,inf,0.9202602655136458
292,2.65676303670847,3.043680536682217,-5.700443573390687,1.4670180476557375,1.4407379938321734,0.886885009895241,4.755698612586397,8.074931375240052,3.044511326550583,,0.5329562494928909,2.6559322468401034,3.0511891290816124,inf,0.9130133930008875
293,1.9170709831630477,1.584521583601537,1.4196903511019676,1.5158200573607528,1.381618640658966,0.6335072641030187,3.901239982894176,6.9121247941293475,1.6769610307375695,1.7370246597580206,0.5287703885177266,1.9164160738276106,1.5864449616110448,1.340848387341619,0.8422479248684883
294,2.4163324915667945,3.2841110818238923,-5.700443573390687,1.6354349604511285,1.6058066078026718,0.8839102250335883,3.8136220184277345,56.47884024955033,3.2890351861117293,,0.6125606311107803,2.411408387278957,3.2957129886427583,inf,0.8964830850193144
295,2.29598395251458,3.229669461299372,-4.588883008314741,1.393402456544021,1.3667175307008392,0.8783764532616635,3.4298810524122554,4.852468414596737,3.251528934399595,2.264852809975753,0.6008849035917525,2.294286290179351,3.1445710991476856,2.0768872618747394,0.9079891560055209
296,2.668947067164786,-2.630817009817691,-0.038130057347094896,1.237362772970611,1.2100106087481672,0.8912799799459834,3.6715191888213665,3.931174580409943,,,0.5641709578113449,2.663873838769381,8.050543929983075,inf,0.8940204011896093
297,1.4211975367816705,0.6655125240621258,0.1887286520207918,1.41875858358901,1.2895933792830723,0.8368207589603586,2.9052111906770555,1.2533778602918955,0.7114427220876771,0.2521507377684452,0.6008849035917525,1.4210238416409884,0.6715704866171479,0.1936800659115939,0.8881878604081765
298,1.3111341776830552,1.0515961442545227,1.1975777033511368,1.522522113521183,1.4566841070610193,0.6735528460801775,3.6809634793816146,3.058900052675189,1.2089055623057152,1.4299389573507058,0.6566669596287297,1.3087573541966628,1.0392901128741403,1.0953617634006618,0.7379271906638387
299,1.6147381103576617,1.2015836812013685,1.368557153258192,1.671966008170028,1.6135017455668408,0.7872545093809576,3.398381543633084,4.5675322216191505,1.4667344812905077,2.2064815360660606,0.6284777104787076,1.6139480679119864,1.1977973695289887,1.2892881129319222,0.7762152093199514
300,2.2400670931462097,-2.2400670931462097,0.0,0.8017614935875472,0.7172149435542041,0.6491108890387917,4.276186101945766,16.916543728905438,,,0.6380535849069913,2.2400276996615287,inf,,0.9025152208441848
301,2.530820984704425,2.4857482801070514,0.6422886949388573,0.9259404038759675,0.8988594918317374,0.7624283845843332,4.198428288555128,30.369472279790223,5.6124680954414075,,0.5947193981915972,2.530322513318483,2.4903631166312743,0.6965198650385845,0.8389379626756296
302,2.3366036157357644,3.3638399576549225,-5.700443573390687,0.5602593508184478,0.48036390483122254,0.6216992624959711,4.4035541871205846,52.38088670242013,3.363841979585825,,0.6468212168108125,2.336601593804861,3.370519782116854,inf,0.8979912591819676
303,2.158290175703693,1.750393928458938,0.4021150212228828,1.4030705292656518,1.4005686627817777,0.6210863308982811,4.010224293530006,6.497398235605258,1.7504879137938902,0.4021150212228825,0.6357360191111145,2.158196190368741,1.7571657163249197,0.4088151949934463,0.9453807079433565
304,2.781583184037199,2.9188603893534877,-5.700443573390687,0.9459645612100472,0.8985559201390421,0.6282537139488524,3.483600511237577,50.40223014997705,,,0.62595550513784,2.7811586729228486,2.9259627029988673,inf,0.7882617945524327
305,2.143224252299025,3.42376412037683,-5.566988372675855,1.488819903535227,1.4474854494695846,0.7133447940019637,4.651955155248251,61.139306189147476,5.287479981540064,,0.6403206450210053,2.1431152516891876,3.587695895354933,inf,0.953167357675257
306,1.8574795308480436,1.8470133410432277,1.990274617363931,1.0419922904541001,1.0134033665525526,0.725128627100998,3.61815594252887,4.402173769644984,2.1058664219410725,1.7419119643012373,0.6584896970785714,1.8560491324444386,1.844003622267623,2.0070686212096542,0.884280638527489
307,2.3529269120025695,3.235583331052233,-5.588510243054802,1.4492291143119653,1.4519011594231426,0.6331894839554569,4.484477618297414,11.019590611286924,3.2363097461514063,,0.6547956803312163,2.3474662406667623,3.185167977793609,inf,0.8688697850474834
308,2.7030030423454225,-2.7030030423454225,0.0,1.6680689239135895,1.6299704332120437,0.6568317218293277,3.7910638438456528,114.56305322429714,,,0.6309483474627791,2.6939829438907745,inf,,0.9196837949822626
309,0.6798889529863695,0.3213189705287055,0.3096252866613016,1.7324498203092682,1.6898013641379386,0.4879846989367339,2.073616724927451,1.834341118595451,0.4058624045480045,0.47031776211240844,0.6727386042041725,0.6798580951226082,0.327938949329711,0.31612781281484026,0.903049921119882
310,1.5147171810959525,1.2715356856232165,1.4734858097255334,1.6249906461344925,1.5714236990532875,0.51128748356183,2.111421673037624,1.8392237781739493,1.530944371333415,1.7524740901709368,0.6566669596287297,1.5136228096198054,1.276903613306643,1.468692782485886,0.9369628820008378
311,2.012725303549073,2.826470893218049,-4.839196196767122,1.723072224411481,1.7034799824191778,0.4490676984843431,1.7752890563722765,1.7135580655654576,3.2375754030150583,,0.6811855325194978,2.01057904906221,2.772920672450298,inf,0.9215153111399756
312,0.6449541660259328,0.2748860029803224,0.1558655169188261,0.9664337339089516,0.9256793603208676,0.5495408236108972,2.0299607068102596,1.457758080020711,0.3329969479353357,0.24475871528949208,0.648888643467878,0.6448650819418968,0.2811954415280632,0.16253542992266126,0.8750050860768749
313,1.3072268403714191,0.47215295764387055,0.21828245764561394,1.6550737091759726,1.649234212324077,0.750426469430704,2.472572937456689,1.334162927795564,0.5498117176176248,0.2291681675925654,0.6333676938231112,1.30719568865099,0.4783829215019842,0.22533238911975342,0.847623282154386
314,1.6253486511069415,0.9999221732557269,0.5068733046812,1.4749077463105635,1.460686654501541,0.8485791766614266,4.730021102602423,3.302901913332988,1.2067092379439837,0.5624576712980617,0.6403206450210053,1.6253414842693135,1.006365150245563,0.5138154708305845,0.917893144138664
315,0.8002065551760664,0.24875323331029464,0.16381939221071296,1.4011983945165767,1.3579097168221992,0.5665256870735971,1.9092459987175128,1.3654947997745117,0.3957004641725955,0.3324607840695644,0.663668482632973,0.8001881196844266,0.2553966085131651,0.17040648980034828,0.7386960205348894
316,0.8136688338238132,0.4757956903484699,0.393000557415504,1.5684592234777512,1.524351946756742,0.4556077860215579,2.5250913058960305,1.547755889477164,0.5702334176640633,0.5320668024593749,0.6528756675646988,0.8136589357875866,0.48242915744615517,0.39933142355757006,0.8015346270485546
317,1.2820620999923893,0.7979617789963096,0.6090237099634201,1.605448386796924,1.5890888081885002,0.5667757593847986,2.804569344086621,3.2916051660754753,0.9538590610860804,0.782573590067946,0.6125606311107803,1.2818943065571888,0.8046837506919668,0.6154900721755069,0.8115939319955141
318,2.0521369667344938,1.8493293798442525,-3.9014663465787462,1.4560659476196784,1.4224341208854725,0.8555627067072221,3.6927602260839576,19.594671107237254,1.8691101694401813,,0.6547956803312163,2.0519128461761653,1.855675562184115,inf,0.8948794880064926
319,2.0725443254716214,2.353213985141672,-1.1757385364323585,1.5379170969762908,1.5296602036931666,0.8251284458749149,4.019665352196801,11.141473796094443,3.2532737777608536,,0.6547956803312163,2.0722673379318355,2.350581291262301,1.8489178830680035,0.8972449849917935
320,2.031230491523018,1.7588725899309918,1.4162049852589496,1.7036447880260348,1.6918709726939252,0.8120893637288974,3.232837329664099,2.285162472281402,2.0712412826253517,1.5953278024348314,0.6309483474627791,2.0305244014452217,1.758789449990485,1.3858030813261726,0.9274707279501598
321,2.1480454845055594,2.3863251627487387,-0.8262261157396651,1.5276711119343993,1.5481820343095065,0.7487193428269872,3.532302683680554,3.7192038492150945,2.543262069395936,1.0690333325126147,0.663668482632973,2.147101967933009,2.212076572657511,0.9753418746214777,0.902117802355691
322,1.6743418150286546,1.3135899293558662,1.045659613763215,1.3987175166367916,1.4164923210282905,0.5486848494766833,3.1056622062120574,6.967532522767603,1.4852339582452152,2.6216114096710963,0.6333676938231112,1.6742134987064274,1.3177481149513706,1.7111889806904972,0.753777892492641
323,1.806147464164917,1.5386549247874757,1.0680482742958173,1.1552723107450358,1.136016326879595,0.7925150887589694,3.716076728241183,3.990831891958238,1.7545805342053291,1.4071243520919094,0.6684167106117298,1.8059936292558796,1.5403999603656018,1.0599257376214448,0.8488405360394955
324,2.0007204779126457,1.9512527133775275,0.8313427138917029,1.4653778362038674,1.4667435322685525,0.7232189602198068,4.776923855306338,11.695422351311345,2.283256642255417,1.5270090206120814,0.6425374456860184,2.0004250013616116,1.912709732919225,0.9961480655551318,0.8348983073443152
325,1.8954691926625484,1.761784811305601,1.3707177643235333,1.463806269349301,1.407081477279057,0.7719903528351724,4.184468393570634,5.97895697799446,2.144877398125375,4.3095172915642905,0.6740851607140061,1.8952698455977197,1.7612499857428805,2.1788910857940373,0.9288578901270839
326,1.6085824109010176,1.1041477916532847,1.2249917662217324,1.4791702532815414,1.4421991327312746,0.8157450858049441,3.2208884902934116,2.111731188242509,1.3518712017344106,1.852018706589441,0.663668482632973,1.608271925794131,1.1094919674957182,1.1876145694196283,0.7104732854886219
327,1.760811810675456,1.5857168649185596,1.6697926335082691,1.5079694775656312,1.4960177827616565,0.7261474550896239,3.2982551659405384,3.3003094274087346,1.7689920916983612,1.8806747488656521,0.6619902821573977,1.7605838517596053,1.590871438007736,1.665868992479711,0.8910601456124501
328,2.1497871997409743,1.301950607048954,1.703921211278233,0.8364704480185671,0.8039009541517098,0.8737308265488011,3.4592006107870543,4.5446285379155285,1.7319915291353272,5.1167225336303055,0.6811855325194978,2.1475776374468056,1.2979200031119298,2.268335169950967,0.8347460329849755
329,1.581678190957269,1.2641107775792968,1.0874462892684575,1.3408058086457246,1.3166559826679174,0.851334606795048,4.24571059614609,4.038540803710821,1.380535254105934,1.4872641728558156,0.6380535849069913,1.5813364823232257,1.268085289243985,1.0833709953473212,0.8495417706828635
330,1.9931022898982496,1.4946773211929154,1.13276538650158,1.585582638274813,1.566083083848355,0.7673408396363672,3.8095123024544377,2.8332251296013977,1.5416512834551792,1.484613929447883,0.6727386042041725,1.9928969402796501,1.4949482481081775,1.0986122886681098,0.6872323961709523
331,2.3330231432677593,1.276161192557836,0.7016147895599185,1.570963497297514,1.554423458452519,0.8431381441555625,3.551634117681024,2.316848762989464,1.6600330647201795,1.0160297497913093,0.663668482632973,2.3329297595015945,1.28228626569777,0.7089610764877425,0.9434235252892919
332,1.972022215267938,1.6561253090248274,1.4130147376559132,1.1055254344944445,1.0980103469869302,0.7499323080636183,3.5290759844957833,4.197579946402147,1.6557901108306272,1.4349716568182806,0.6528756675646988,1.9719233554682103,1.6624679133616564,1.4101455769420705,0.9335314157962392
333,1.5510935138504094,1.0099368356456957,0.7412229497198259,1.1908982257011123,1.172535733281053,0.6835159955220823,3.5084128547475495,5.756817786998138,1.1586656110034488,1.1234927883440502,0.6528756675646988,1.550906984133072,1.0160777766905351,0.7483407817645843,0.9497463206048605
334,1.3856163414785885,1.009565582796369,1.0848246583141772,1.2699982646648038,1.207371913905853,0.7907625628827207,3.47385109591349,11.810649095994389,1.2794422643967855,1.2761298333369029,0.6509067234006624,1.384473797130442,1.0008892223212968,0.9272131705568882,0.8233189819363809
335,2.1847668987510502,1.7537745135889309,1.1223762505963006,1.4626390884967837,1.4377857970442869,0.8410774273208302,3.6846695785511936,2.885799842347688,2.4751778139369827,,0.6566669596287297,2.182828697052487,1.7454366144770814,1.4295661825508759,0.7807962003139712
336,2.144081544202953,1.9695381632340956,-4.113619707437048,1.447145861715083,1.41604075155426,0.8158750976490472,4.375398474997781,15.938660412707662,2.5098063650368054,,0.62595550513784,2.1434942549152516,1.9730959162541688,inf,0.8093308380173252
337,2.1694762461090424,1.8285438848189721,-1.1877089144303823,1.5938207143304408,1.5589171578564938,0.9022394751957414,3.984597926063079,12.350548959844115,2.0360212121244317,5.802942691585114,0.675384900321601,2.168928708181372,1.8156649900816095,2.4325386642706843,0.9440398560338332
338,2.2401960241587657,1.6745733008116712,1.5835948245160179,1.3101753834703085,1.289378329487615,0.7920488553964745,3.8415279193091814,9.996000419408594,1.854610228567753,2.2329384215483947,0.6822068148872973,2.2377341206744292,1.6632390485671318,1.6066944264883496,0.9361876777733812
339,2.6315826095670785,2.375713783263663,-5.0072963928307415,1.6566585288496025,1.6391713692746308,0.7665498713290639,4.235451368778909,9.871390182936496,2.3762072328646595,,0.684994737851132,2.631089159966082,2.3828850353956885,inf,0.9465195770208864
340,1.6822206206349581,1.716892107192594,0.7242274959908124,1.6129059245274755,1.6053570474129462,0.772829409513413,3.608039655617706,3.7641813190649396,1.8883384643503458,2.906126416926176,0.6309483474627791,1.6797411659061623,1.7042713910018923,1.2771402638309735,0.7940212795733366
341,2.003762610243407,1.6760494691666628,1.496160069361916,1.6446506289033676,1.6299881962035196,0.7814474515525888,3.830743325988957,2.966565503441907,1.8379145738834164,1.4243300811907182,0.6740851607140061,2.002892107876129,1.6744980461900514,1.4130101084989377,0.7536634289041789
342,1.9212702572658904,1.4574511763481992,0.9160707266205415,1.4000739345973066,1.3850435528659282,0.8939217895732157,3.882275414282087,5.406704215008637,1.6424052198130557,1.6921528336024627,0.6528756675646988,1.9197443673690353,1.4541621540572165,0.8868862484335135,0.9366528254492591
343,1.741795486640097,1.622019314887684,1.132714945570903,1.3418631446833431,1.3247343067358182,0.8261904633090243,3.6451143947577966,8.54658853281445,1.8311943005688396,3.3673888891335135,0.6425374456860184,1.741256487054948,1.6252174585488215,2.476570596385939,0.9589670801590312
344,1.921464949821332,1.3196009771637778,2.0881380608467293,1.1016614460780603,1.0829839767876317,0.7558901330054286,3.984087962124233,8.663236727485634,1.4593557761234979,2.944666096828443,0.6309483474627791,1.921260897838637,1.322363096718758,2.5255862854212614,0.8763135220668551
345,1.7098720738055424,1.8665805706775949,1.974582199722811,1.246350332971159,1.2143991416171693,0.768769968959213,2.8318827971725224,2.0728043041426316,2.232111361619003,1.7651553116735645,0.6547956803312163,1.7065608453941812,1.8373528384695694,1.9447574111755048,0.8938884511376607
346,1.9880138130650904,1.716732233078901,1.8362826949685087,1.413167038252416,1.3748645487777726,0.8741992623069217,3.635889611247053,4.001987801605462,1.846435240070463,1.8987186139300125,0.6207552362147116,1.9860726388743877,1.717131142527702,1.9391700651254677,0.8317109570248598
347,2.4794114338805944,1.8867350127851559,-3.1234918271259806,1.613856859432556,1.6247316562420868,0.7765829700361664,4.136333216445804,1.6153183386644168,2.044797131409662,,0.6790044388599258,2.4695583728412007,1.80630806600429,2.9573112405712743,0.955954826888717
348,2.4892928679800237,1.7260413773099597,-4.215334245289983,0.921448813735474,0.8570585750266406,0.7734482485727863,4.3238595317836905,16.362218850646244,1.9531773298089066,,0.675384900321601,2.4835742045542215,1.7065473130616478,inf,0.9009767306737715
349,2.0669708809364518,1.9220488577127375,-3.9316664485165846,1.3320755478136677,1.3072862537170014,0.7069524153432081,4.700606050831015,8.765399251605206,2.0076118017014166,,0.6619902821573977,2.0654948066583247,1.922689559735385,6.320768294250582,0.939179342239627
350,1.6850771090346868,1.3827394839571632,0.8422111050946217,1.566073418412826,1.5361269224539307,0.6807167081165293,3.383931737518148,2.3311702338333653,1.7819716163433306,1.7350925702908864,0.68318204999448,1.6847602969017201,1.3880930305897647,0.8497813385312556,0.9407637771160298
351,2.33497177792286,1.9557204716020893,-1.7881453850592224,1.6068093319555676,1.6060952114717653,0.7976794523550624,4.440082685857744,7.951947576051404,2.0759813930396005,3.4000373882672066,0.6740851607140061,2.3346492532478917,1.950855814435368,1.7104138297741025,0.8929238748551941
352,2.124314250774638,2.0825864459716628,-4.206900696746301,1.739027991947406,1.6754724982817732,0.7538587142671495,4.345853588528621,26.341814054973668,2.1751441184434364,,0.6528756675646988,2.124067056718493,2.0808366960706715,inf,0.8894579921834227
353,1.9656431990169028,1.599069362530522,1.3766451706632177,1.7670156182224521,1.763857713574218,0.6943746841112443,4.145761782978221,13.96336578036713,1.8409484491484231,2.0503468017627164,0.6684167106117298,1.9655574550811328,1.604058578205986,1.3733606123353224,0.9242045054536926
354,2.176769007341973,2.4192893929835795,1.1010350861798521,1.4788410254885078,1.4584583775643005,0.7424366324507845,4.081305741302437,13.45487342617417,2.687459638281164,,0.6447042257417027,2.1767359109089037,2.425106484986513,1.108629066911581,0.7728551035609309
355,2.2844528926380434,2.176927011996157,-4.4613799046342,0.983847358690262,0.9374214091407486,0.640434563338895,3.7608282031647784,9.91257064724609,3.2611514384863964,,0.6652988471865258,2.2818025538115174,2.1559717255992954,inf,0.9294235498928274
356,2.097900435073865,1.5459305243320327,2.053262527099507,1.480208481441792,1.4670767915141876,0.737251198573405,3.882342334784649,2.837173349553764,1.6562239218927062,1.9430377311545137,0.6528756675646988,2.0978318334581845,1.5513996483633068,2.061239980985506,0.8799067118232345
357,1.7932959557274837,1.1526580979389671,1.3181151609596617,1.3042113699852438,1.2501291212766272,0.8220408603736723,3.6337603189213454,3.4107261831860507,1.7300171212629214,2.1058850567218514,0.6740851607140061,1.7930936922411915,1.1587280279711958,1.3066116305426083,0.8254556426850903
358,2.1180716182650423,1.6364618060703315,1.2494128816100862,1.6645760330030281,1.6403075398359157,0.711828184069355,3.8680437940753096,2.460374224146332,1.7411602674374835,1.8378894396061427,0.6668815377411301,2.1180437794617784,1.6431674474046243,1.2561130553806499,0.7348266591372722
359,1.693769462840544,0.9991375434795484,0.6777673085413851,1.3588806303141963,1.310076528843929,0.7827962197895908,3.627381033117043,7.345680297131512,1.3671828458342559,1.2779655548801117,0.6380535849069913,1.6937257289566896,1.0053647307740485,0.6832851676908295,0.6709744919502286
360,1.2455024713994285,1.0972033452170766,0.777983715124464,1.4363871270233601,1.4189318927921544,0.6665001926581245,2.642201418783054,2.166031665784771,1.1941984870727633,0.8414105034995325,0.6233814453054027,1.2454508782167326,1.1037600561173682,0.7839970082220095,0.7838997954136603
361,1.4834591033241464,0.8560830690051593,0.6648673289429765,1.1737783264657506,1.1185505657070434,0.6995612090918394,2.4223441310121925,1.2500510450636657,1.0440262858643015,0.7859114619220802,0.6125606311107803,1.4833928055834413,0.8626798684891939,0.6707697478774785,0.72511392930849
362,1.6113945782314552,1.2156909457304759,0.8299985099608116,1.3455118529230319,1.3567655227930613,0.7576269066991489,3.3310230163251364,2.2554698052461917,1.3283010001721884,0.9998374359513693,0.6547956803312163,1.6113285875232501,1.2220958899311645,0.8352167144185305,0.878629393379712
363,1.413764358116342,0.9017391210164489,0.723856669300452,1.3084215287033119,1.245451689193612,0.8047336947617362,3.2216157297994696,2.790761542916452,1.0581151634142596,1.148743265357683,0.6447042257417027,1.4137340768786724,0.9079205788357241,0.7295903277698533,0.6724154428077181
364,1.3863819979409788,0.9181306732332088,0.9040586428840576,1.1838481529887404,1.1846408471246423,0.6225490866932387,3.1790088215856405,2.5363655317364158,1.1623569504336262,1.4124603125587119,0.6584896970785714,1.3862943611198906,0.9218617769236104,0.9098867005208078,0.656017583806586
365,1.935324140346698,1.7434252962532317,0.9819684505405655,1.5890610861641659,1.590177245896785,0.8513885976020409,3.987182106171817,14.994561394863506,1.8371853780097942,3.6754257573275924,0.6509067234006624,1.9303321190919949,1.730932167988968,1.9262177318790774,0.8831546202099365
366,1.4030246793657748,1.1989932003087664,1.0280428922386786,1.4036498493855472,1.3884956867253786,0.7524311540163389,3.102475371551674,4.244628722579077,1.4811281399786127,1.5244511199851254,0.6357360191111145,1.4029658954078625,1.2053898116631478,1.0323687051558785,0.7504082235190184
367,1.5313902045121568,1.1317307411825193,1.226437686159625,1.2103652042485449,1.1916922129429732,0.7071914687826247,3.843982274959273,7.739986180037969,1.3799762800655428,1.4926597493815583,0.6602640781246099,1.531294443069827,1.1376953141317887,1.2325330135926642,0.8670738110777886
368,1.5599660048175175,1.2896225769831358,0.9319731664732074,1.4675095065933774,1.4461954540859199,0.6519574051492288,3.050301322544461,2.2936517353836208,1.5303291210804724,1.2438588021588222,0.6468212168108125,1.5569508863833421,1.255164373547055,0.7245200926268623,0.7825220919688641
369,1.9052180573616178,1.5305860354471768,0.914621127821249,1.4283541704545213,1.4044439780508038,0.7793007387439175,3.825805723402899,3.0635656956703277,1.7007240504455075,1.3982940881662589,0.6778444222523095,1.9049281673336929,1.5360500843403069,0.8550745811422455,0.787067574939491
370,2.0306155242631663,1.5652585166717272,1.4053510226742696,1.2065601453373804,1.2112121068947044,0.8075843692827162,3.561228303786426,6.3266974781707095,1.709777283632895,1.9601531491299926,0.648888643467878,2.0305244014452217,1.5707512586001475,1.4126985353164014,0.8301262544542723
371,2.1755657451596315,2.569440798501641,-4.7450065436612725,1.2376067597437976,1.213334264293306,0.7288445447560232,3.671701761695535,5.244770482407308,2.8319311498474153,,0.6566669596287297,2.1753652429833257,2.55763831451465,inf,0.8105723892598257
372,1.431616152632146,0.9096793639432126,0.7075485112650863,1.4580325365693536,1.4462212542770736,0.7720320124877843,3.0869377076920257,1.9343078996263285,1.1222906301190005,0.9438194371542026,0.663668482632973,1.4315242040945655,0.916290731874155,0.7140571400898155,0.7619207830090164
373,1.5497417669184195,0.9394047787785378,0.9469585718796516,1.7199876808350192,1.71220125471375,0.631049144765255,3.863345587995967,7.4052185659697365,1.0118797045956198,1.447015251762176,0.675384900321601,1.5494409385278043,0.94322910187803,0.930432176644371,0.6227048913054674
374,1.2424278817458105,0.8269380592723932,0.37853647273730306,1.559847434414914,1.5700013238910109,0.6305891472337385,2.7250006790104546,1.574212676690832,0.9158675344981705,0.7095626295549113,0.6652988471865258,1.242405679756724,0.8303913192044433,0.3798360902765373,0.8445467832128564
375,2.1867881277671675,1.3213159569119854,0.8451331222059402,1.5861589617839784,1.5843093494955807,0.6957657100879613,3.528413575029092,2.676916798026356,1.667760509574801,,0.6566669596287297,2.1866803634605483,1.327685716307245,0.8353009321327521,0.9392822730153808
376,2.193057332007925,0.9270700134411882,0.7852066718282362,1.1200230170105376,1.0982453846879168,0.7328759172942316,3.4318154030446317,3.1661299631908015,0.972526754753695,1.1455376985684513,0.663668482632973,2.1927346720633674,0.9336126159623853,0.7923647055531899,0.8978891468211646
377,1.5761887844641165,1.2196695316750823,1.1012683468091797,0.5339815128331786,0.5338038590754798,0.6191957380101014,3.2829410545368396,4.522607047924378,1.6043197111764687,2.5166094396577607,0.6447042257417027,1.576164335671175,1.2258303116075768,1.1078086014110815,0.8450619945280744
378,1.5503419054906102,1.2138091732956602,1.3228926779803571,0.9790940879526489,0.9549787061847015,0.5677952008163306,3.279379168442528,2.5911232185785824,1.5099140831793132,1.5382886989809936,0.6357360191111145,1.550278415676988,1.2203566606168432,1.3297275582538326,0.7827539184538437
379,1.7037745745812658,1.2092880357897355,1.2052990213369363,1.21605505748624,1.197040053534802,0.83897137886979,3.3261224340579094,1.9642616013333032,1.6726647314679064,1.5978397696879894,0.6425374456860184,1.7036875437077708,1.2122071714194798,1.1911974199173527,0.8879174546437265
380,1.8333534220855643,0.824362669454153,0.5576825745296534,1.6503892207997126,1.5703575543599237,0.7978594436638865,3.514173883510079,2.049601982457724,0.9770978490765584,0.9100553501175361,0.6468212168108125,1.8333456445489844,0.8310067012875061,0.5642932706275151,0.8886137143120032
381,1.9418319593635454,1.523112471930758,1.1335367665429912,1.2738105669460287,1.264045875711683,0.7218857079624376,3.330452574141052,1.9033461371615372,1.8133587627938872,1.9221479500080279,0.648888643467878,1.941652558802672,1.5285376943464346,1.1416689209897812,0.9342847781443915
382,1.7743739307850404,1.437977126837208,1.550765301560979,1.58374297457873,1.582552654985257,0.6292836475672252,3.500185847505018,3.946219675717022,1.6205404124080294,1.9638525724536888,0.6153451465759925,1.7743125556243344,1.4417893423611412,1.5411840027395047,0.8502977921454318
383,1.4949890755084398,0.9081816706055261,0.6891398092864569,1.1051183009101035,1.0957843111606373,0.5847054824970205,2.9865963608977886,4.80915257856024,1.385280044341408,1.2217493769819263,0.6740851607140061,1.4948203755135974,0.9131252331382748,0.6845423333664269,0.6892149627128077
384,1.4289290202009521,0.9675322719862054,1.0207204829279548,1.0837941869290533,1.0608984065052014,0.6646172283769729,2.740420742822279,2.442755948066484,1.1507665542435235,1.179768953620006,0.6468212168108125,1.4288307874017363,0.972592925247755,1.0237248898351774,0.7999405240077695
385,1.4012018617017754,0.9648570291099745,1.0837825777317724,0.735443778450565,0.6963213068221122,0.6359940453549252,3.254543269155241,6.855391944454244,1.0662886302210315,1.2078341640236394,0.6509067234006624,1.4009343378594057,0.9712390419413552,1.0894819708985084,0.7870892526622827
386,1.481599097964622,1.0608688393538197,0.7955091936353318,1.622632330479096,1.5680784924861972,0.6322498954129943,2.6150340481704903,1.899970852049544,1.177356284740613,1.1025095165796133,0.6528756675646988,1.4814356662954495,1.0666237984978195,0.7986497315848167,0.8384940063706273
387,1.9221038214392316,1.571030843368233,-2.562322680307006,0.9485885335764511,0.9419146826512446,0.8531842567545166,3.1441522674648437,2.446495427101018,1.8342285495141024,,0.6357360191111145,1.921260897838637,1.5676753981315252,3.670133411292881,0.9145366646297691
388,2.459020979106835,1.7840985394163247,0.6887837905763288,1.5518449662563363,1.5362050454530563,0.8230320994464001,3.7835023588527124,2.5625998675352446,2.0544854596480446,1.567646418852266,0.6528756675646988,2.458849115468711,1.7694078643396571,0.6211101666917657,0.9355083817365947
389,2.1469779835619907,2.1663261733937027,1.3837893295497112,1.3905843688637807,1.3467973988285118,0.770829405959903,4.289754813930534,4.86582104467002,2.4494559519263754,1.1008208597866553,0.6566669596287297,2.146816674792374,2.172339495844634,1.3913152921699903,0.9524933382942251
390,2.154365937575437,1.8757991424952776,1.432002684164372,1.4405649541235719,1.4290948773299017,0.796142901102298,4.449749468649892,6.516180575458408,2.132048391392618,,0.6284777104787076,2.154069307022292,1.8788666270711654,1.3856675983290816,0.960367716806534
391,2.269795270171055,1.4847381541643188,1.9425600621700307,1.5234479685147466,1.4593335841560628,0.7214918858999799,2.5904491301466006,2.365023611567967,1.4847381541643183,1.9425600621700312,0.6233814453054027,2.2697952701710546,1.4914159566953475,1.9492602359405953,0.9344116122677479
392,2.351123891499564,2.250707393223014,-4.601831284722578,1.5665962506314175,1.586435732102001,0.7205360596904588,3.7036016622610757,3.3421654192834436,2.250872607444315,,0.6528756675646988,2.3509586772782614,2.2575504099753445,inf,0.935857608257805
393,2.3083483567789114,1.631434073124495,1.0641638760420538,1.4576728674005017,1.3803545675804627,0.7894300405234419,3.30338931511499,5.639421278423246,2.699028516701197,,0.6309483474627791,2.308267876129544,1.6359340276628371,1.073122378454671,0.8613826787334825
394,2.039967650446711,2.274181561824085,1.3829442742346085,1.4605106944963158,1.4022616444880938,0.6146322759590874,2.9379437693179487,5.696056216627384,2.9673319416931054,,0.6153451465759925,2.039964451137636,2.280862563664189,1.3896444480051726,0.9071818781969133
395,1.91581551044081,1.2263712395747557,0.9649377245059716,0.920607868068258,0.9183806968250611,0.7677138877693988,2.4872728480337822,1.962361443698006,1.3865076539741894,1.7017020029235037,0.6233814453054027,1.915736649047766,1.2328878372761765,0.9700127684672029,0.9326962773861754
396,1.8227137355092116,1.3338105725252558,2.2205621116303975,0.2303631307044071,0.18292709966598403,0.6447244311143815,2.5328719419899817,2.44282302515759,1.5583830807209083,2.316148027401396,0.6566669596287297,1.8225623783831,1.3356888246686658,2.085998942225995,0.9599665076349433
397,1.792034228058786,2.1184791893827146,1.7865800690639042,0.945196968449699,0.9048034900846417,0.6365771765058393,2.071714929601935,1.8326510924225805,2.119448891816054,1.7856184232327508,0.6509067234006624,1.7920261714565995,2.125009375795091,1.7934359155553072,0.9362363746835759
398,1.3192723777306636,0.960039401697262,0.7086635923667504,0.8935867306030064,0.8741732456608486,0.7540337648319335,2.4970342853108862,2.488762996819032,1.1779488540710414,1.0131559442638822,0.6403206450210053,1.3192589597837323,0.9665782759090907,0.7154660829106234,0.9501493626073779
399,2.02531123604138,1.6292804086655015,1.927795261533313,0.8263593044581269,0.8166998442989515,0.8392395136425984,3.1703508848456545,2.8645515576153273,2.256213973740874,,0.6547956803312163,2.0250375350228627,1.631052096268083,2.074721515753175,0.9484952910609415
400,2.177228699794218,2.8273555518451645,-4.966348724884313,1.0529888752007681,1.0192045958984122,0.7345344293850892,2.985563383241273,6.478787409912157,2.830070502001211,,0.6380535849069913,2.17722589082953,2.8334094032667254,5.703782474656201,0.9513265593520386
401,1.7751864049344552,1.5837153684499203,1.652022524311687,1.0926985403636553,1.0532899428986777,0.8116732106470794,2.5628464543115665,2.691306175382619,2.307379691625253,,0.6528756675646988,1.7749679065882182,1.589254872282576,1.6581477714438828,0.9460186988610294
402,2.6127400212978853,-2.6127400212978853,0.0,1.78756792882589,1.7604875300200502,0.9151176079279023,3.492426835796399,20.063706400420866,,,0.6207552362147116,2.6127400212978853,inf,,0.8839623453526531
403,2.4494772722395357,-2.4494772722395357,0.0,1.7874532031550598,1.7394388052789833,0.9171796352298435,3.9298454063458177,53.45392321555732,,,0.6403206450210053,2.44941081410316,inf,,0.8670609241039265
404,2.4898976837747364,2.4743983731904367,-1.542216412386424,1.1006494284481765,1.0284569804980834,0.7398142222462332,3.4905344891304066,7.466289917092324,2.536481926459925,1.3931079065160494,0.648888643467878,2.4741645532560983,2.4876805766707255,1.2583340135448233,0.9381937739683601
405,2.479693519390342,-2.479693519390342,0.0,1.6008894718998194,1.5355611588184477,0.7611671141954902,5.189198950660501,74.5486833094549,,,0.6180765742263259,2.4779972414870652,inf,,0.9286385639664577
406,2.4860270434480873,-2.4860270434480873,0.0,1.756070845651146,1.7034261602193077,0.7985836164659881,4.401851241324157,80.07068822461416,,,0.6468212168108125,2.48530672980934,inf,,0.9079467578163569
407,2.4749707357891695,-2.4749707357891695,0.0,1.530246177008371,1.5187363951189425,0.7882704794285255,4.4425989757674635,104.34457127011864,,,0.6038851895711802,2.474824314446488,inf,,0.9024555085202826
408,2.9311937524164198,-2.9311937524164198,0.0,1.7015467671982476,1.6634884288599885,0.9181476391003913,4.656145068321157,523.8962911786351,,,0.62595550513784,2.9311937524164198,inf,,0.8516331272817794
409,2.3976414428034576,2.609654950027284,-5.0072963928307415,0.8800224912173746,0.8082594478442496,0.6721844823064768,3.9387877830924674,10.598150290032397,2.609789933323574,,0.6403206450210053,2.397506459507167,2.6164677358546036,inf,0.9034414507883226
410,2.6127400212978853,-2.6127400212978853,0.0,1.5180165873420237,1.5172023095515772,0.926532152334564,3.96022607772331,210.5577027510444,,,0.6566669596287297,2.6127400212978853,inf,,0.8392467720259358
411,2.813410716760036,2.1938856760707055,0.6897970936746631,1.6764598523549796,1.6576692993803288,0.8797377127232877,4.184204898728788,2.0570689632204147,2.1938856760707046,0.6897970936746634,0.6125606311107803,2.8134107167600364,2.200563478601734,0.6964972674452273,0.9064952877955162
412,2.813410716760036,-2.813410716760036,0.0,1.7432328783649838,1.7106129685048903,0.8800336633459847,4.179774151276845,96.52099455185284,,,0.6380535849069913,2.8134107167600364,inf,,0.9057730098051056
413,2.445685936634719,3.254757636755968,-5.700443573390687,1.6929834459241346,1.66539489504694,0.8058889287191736,3.968204700232515,74.41482321959492,3.2547576367559676,,0.6357360191111145,2.445685936634719,3.2614354392869966,inf,0.9226657276780316
414,2.693087884090251,3.007355689300436,-5.700443573390687,1.2446319240451438,1.1777019423638841,0.6250979997463799,4.083565371391233,25.374960002894078,,,0.6566669596287297,2.6928332352973494,3.014288140624366,inf,0.7688123884937171
415,2.449346536529025,2.5579498563017165,-5.0072963928307415,1.0295352367081347,1.0047355934868416,0.6582216569820996,3.894578298046373,29.97882534710923,2.55801425401567,,0.5947193981915972,2.449282138815071,2.564692056546699,inf,0.8999657281048605
416,2.6127400212978853,-2.6127400212978853,0.0,1.6014070221857146,1.568974449243553,0.9169249485963608,3.98705258732926,181.07855554197414,,,0.6566669596287297,2.6127400212978853,inf,,0.9011549629680039
417,2.4079456086518722,-2.4079456086518722,0.0,0.9885231449281959,0.9534608553024163,0.7178008293636252,4.178676702680933,19.71626587801072,,,0.6068309995095971,2.4079456086518722,inf,,0.9210780907120685
418,2.254403234046769,-2.254403234046769,0.0,1.7392720154188082,1.61025264094023,0.6595405781620367,4.213942672742296,64.63295726843597,,,0.6333676938231112,2.25421829885634,inf,,0.9371409869486443
419,2.870569130599985,-2.870569130599985,0.0,1.5970108631754856,1.556476643860013,0.9034705153369913,4.331117285919737,104.145773049338,,,0.663668482632973,2.870569130599985,inf,,0.9001702047669752
420,1.2735523655856298,0.6867613042348291,0.28397239201795443,0.18706239305713757,0.13399519981294364,0.6557130571950005,2.8676672554560527,2.036275751528561,0.8825670524605981,0.7722383415844993,0.6684167106117298,1.2734816819370245,0.6931074783266895,0.28868834852112235,0.8840580606856222
421,2.70805020110221,-2.70805020110221,0.0,1.647936959456213,1.6709201658930175,0.523319359557081,0.3523406088204778,0.3181079458323556,,,0.6233814453054027,2.70805020110221,inf,,0.9023972890585505
422,2.75934349548976,2.9411000779009266,-5.700443573390687,1.6268178121938077,1.5739482298079175,0.7606805395156181,0.48626726157192635,0.5066571406103457,2.9411000779009258,,0.6380535849069913,2.7593434954897607,2.947777880431955,inf,0.9409568518391229
423,3.10481294265783,-3.10481294265783,0.0,1.7256973952584314,1.733434164444364,0.5353839067273043,0.2987251122312968,0.3039976990868507,,,0.6333676938231112,3.103812533748989,inf,,0.9391665234983063
424,2.6721848021118006,-2.6721848021118006,0.0,1.6144260800080144,1.5477477104441548,0.5192719885696714,0.4091893065524192,0.3020453660243814,,,0.6528756675646988,2.671236227979494,inf,,0.9226825736919503
425,2.2398511034531556,2.361980181269422,-4.601831284722578,1.6793328823039841,1.6041560582540535,0.5205874381157933,0.44574840782202774,0.3044263893700935,2.3628467731381257,,0.6566669596287297,2.238984511584451,2.369524575669155,inf,0.9337348380200707
426,1.228502180538711,1.6100532592439458,2.8585380467227477,1.6372354993774756,1.6361608187793824,0.4930616328334992,0.6988367226401524,0.5071126039516135,2.167398548327329,,0.6468212168108125,1.2284552538169338,1.6163696891232606,2.8656465198668033,0.9438374324947605
427,0.6381684020456557,0.23442606482797024,0.122520051724747,0.6158171696304374,0.33779144554116236,0.45339505290389176,1.87193256984514,1.218252753238207,0.3111819186085447,0.20196690146177113,0.6125606311107803,0.6381540722659056,0.24102821846664751,0.12913235995477604,0.6962860633971776
428,2.5682882587270512,-2.5682882587270512,0.0,0.6197552563187627,0.6019339630834112,0.8964462521760761,4.400080827042067,1.709726156591878,,,0.62595550513784,2.5682882587270512,inf,,0.885362070661095
429,2.406733353846177,-2.406733353846177,0.0,1.5926208461128162,1.5814189456938095,0.908984497996459,4.258011060135306,240.336587997169,,,0.6125606311107803,2.4067118022029437,inf,,0.8493127634961745
430,0.9416085398584448,0.15366484754415044,0.027109120599426495,0.7551113696707977,0.7518721552476078,0.7137271077528398,1.6999721903462583,0.9438278374067068,0.15366484754415025,0.047943207502268624,0.5783247308855777,0.941608539858445,0.16034265007517937,0.03380929436999048,0.8680299346467998
431,0.8351494247563325,0.9114351827767462,1.5278506214810388,1.6877386482463634,1.7020977264316441,0.08573361859000159,0.5330348775635925,0.7597502855525027,1.1989611348301303,2.2801044950424614,0.6233814453054027,0.8350948432156267,0.9178286022272302,1.5340527921292757,0.9509242020131008
432,1.5334843386461674,1.968104244281902,-3.5015885829280693,0.040048630190433046,0.0,0.3286368044535275,0.6387235935880624,1.0492899306158971,2.1139410005035644,,0.5748741956352443,1.5188357677518194,1.9996447745250683,inf,0.699188837727845
433,1.7281684518892197,1.2474328298099182,0.7888136152939382,1.336139216602412,1.3393020751524622,0.6719042176837433,4.455620563183381,10.686034254498924,1.5328934943675228,1.8678714823445237,0.6333676938231112,1.7262214477574003,1.2499260871601683,0.7708319526915773,0.8560884330821931
434,2.311879278375229,2.6954171144555126,-5.0072963928307415,0.8265736848066662,0.7809075509055641,0.8412413599573659,4.802761699666622,97.73532400184584,3.388705609265706,,0.6602640781246099,2.3117379641249802,2.7022362312367902,inf,0.9148498974006344
435,2.6127400212978853,-2.6127400212978853,0.0,1.6424683216494218,1.5766929058960983,0.688268407949176,4.56794674407234,129.14892921018244,,,0.648888643467878,2.6127400212978853,inf,,0.8445688891718433
436,1.8647621690391822,3.8356814043515044,-5.700443573390687,1.0803650333227957,1.0072316209039986,0.5261057406639753,4.170237209311168,20.98735543929049,3.8361850933463923,,0.6425374456860184,1.864258480044294,3.842862895877422,inf,0.7388290087166663
437,2.3658059906406947,-2.3658059906406947,0.0,0.08467349851939517,0.034136860477998,0.5310332632801777,3.8590175337488577,28.51381755793281,,,0.6068309995095971,2.365643228961183,inf,,0.9114719050596336
438,2.2512264416694934,0.8373082034451933,-3.0885346451146867,0.8184077678001073,0.7977882462744821,0.5222786813780689,4.105982546069711,42.111913852226344,,,0.6180765742263259,2.251047384033726,4.068921230046292,inf,0.8702742534125223
439,2.5279984904105914,-2.5279984904105914,0.0,1.7783567778193707,1.7448830518905911,0.9010743590393651,3.7281325756092,27.804717964740043,,,0.5978297680564633,2.5279533393303666,inf,,0.8846699265978768
440,1.6960988404966961,3.935558556897429,-5.631657397394125,0.122888179777612,0.029575329955147743,0.3502362367502448,3.9880842410679223,39.46711953731864,7.758891278566288,,0.6309483474627791,1.6960857191597725,3.9977464246432604,inf,0.87304261445306
441,2.015448639561157,1.9512579354121513,1.7303869115320962,1.1974493452472397,1.1553040762346798,0.5985803757078926,5.323497410402271,7.903630417913729,2.58051154157733,1.1019288931410172,0.6153451465759925,2.0146530517870573,1.9551167758534127,1.7407016351665276,0.832350875873766
442,2.6316581609894083,-2.6316581609894083,0.0,0.7982758901373719,0.7366925032664814,0.6549305452215487,3.8201055038007143,8.977849917078533,,,0.6207552362147116,2.6313978495811274,inf,,0.8376373677149107
443,2.7077249333410807,-2.7077249333410807,0.0,1.7722465956257891,1.7439330717677395,0.896175513439478,4.079622665052982,95.7978016381683,,,0.6333676938231112,2.7077169233120895,inf,,0.85558193841596
444,2.17742195004004,-2.17742195004004,0.0,1.2423777969365668,1.2251613547412523,0.8935920422144912,3.875394777859075,107.00762100140035,,,0.6509067234006624,2.17742195004004,inf,,0.8599425210098628
445,2.6066132930142913,-2.6066132930142913,0.0,1.4532335491743333,1.4533605003674084,0.9022595394697509,4.3611599568736485,23.616235153634165,,,0.5783247308855777,2.6063965473757102,inf,,0.8789144287732145
446,2.5894621401253928,-2.5894621401253928,0.0,1.670888288097145,1.640727409340014,0.8851700301401523,3.9997105967105195,58.36281489849293,,,0.5915533975974677,2.569158202235591,inf,,0.8685655644909006
447,2.6986353362653652,-2.6986353362653652,0.0,1.630818785286493,1.6023647680641513,0.5191701400817109,3.5096504264782524,67.79403127942827,,,0.6180765742263259,2.696945421370104,inf,,0.9210788330168048
448,2.053231207079256,2.3187719029059215,-1.944047161038243,1.4802712298189766,1.4389154674518825,0.7355816562852663,3.695561894110199,7.7723491980574355,2.604151160681201,2.2982350965684355,0.6153451465759925,2.049149459270856,2.3005175526296897,2.213710850953265,0.9467515839221731
449,2.4793415553156226,-2.4793415553156226,0.0,1.77125903170778,1.7316496942863366,0.9288095140916727,3.9228178624619874,81.73291936637656,,,0.5451288209179292,2.4786595370275335,inf,,0.8981195981854927
450,2.373158223190565,3.003179862749815,-5.37633808594038,1.655179691735396,1.6099488823066326,0.8606481237795395,4.191680240999554,28.826466298482124,3.4677938705362705,,0.541134803179459,2.3724116452295747,3.3932462331447137,inf,0.9061303274042241
451,2.5020518874865076,-2.5020518874865076,0.0,1.5783606865208233,1.5654384461496014,0.9254071443019376,3.527702654814937,28.348904527836147,,,0.5915533975974677,2.5018493705183125,inf,,0.9018175977970028
452,2.7954345417846564,2.9050090316060304,-5.700443573390687,1.726459166820851,1.6838095196292504,0.8634855059123638,2.8364299211553607,14.745017183365153,2.9053819952988467,,0.6097226960127671,2.7950615780918397,2.9120597978298757,inf,0.8635115651037607
453,2.347407323271915,3.353036250118772,-5.700443573390687,1.03846995788331,1.0235727610563836,0.8622285911087043,3.6137932552072365,10.428474404184325,3.35332590647985,,0.6357360191111145,2.3471176669108362,3.360003709010879,inf,0.8827372009914721
454,2.549625099987849,-2.549625099987849,0.0,1.2340426886674019,1.1980266563467294,0.9234878853923097,3.109488381173278,24.00094831551973,,,0.6125606311107803,2.5493385099473893,inf,,0.8782239648796639
