,hr+bvp_XAp0,hr+bvp_XAp1,hr+bvp_XAp2,hr+bvp_XCond1,hr+bvp_XCond2,hr+bvp_XDist,hr+bvp_XFuzz1,hr+bvp_XFuzz2,hr+bvp_XK2_1,hr+bvp_XK2_2,hr+bvp_XPermEn,hr+bvp_XSamp0,hr+bvp_XSamp1,hr+bvp_XSamp2,hr+bvp_XSpec
0,2.603527887634856,-0.017356852584232373,0.0,0.929922273408805,0.8607184741149442,0.7368055867987956,3.2655992151453797,3.76248262014938,,,0.6602640781246099,7.578923552823307,inf,,0.6072615027307631
1,,0.0,0.0,0.8477269743109409,0.8084221066510274,0.6459364817638767,3.3150774845948785,3.2633606353529157,,,0.6652988471865258,inf,,,0.8759334600882653
2,1.8738563139523863,-0.0312309385658731,0.0,1.0613363503982736,1.0127378591023841,0.6640665568178017,2.798344276811262,1.846997686665341,,,0.6333676938231112,5.6486631754351215,inf,,0.8515225610067104
3,1.2349314840588856,-0.04939725936235542,0.0,1.095921483204284,1.0712224080424229,0.8043598451364395,2.437999180583621,1.0585769084299836,,,0.6309483474627791,4.060909786135864,inf,,0.733564088057408
4,2.287989861479644,-0.05338643010119169,0.0,0.935574531298578,0.8941885750410978,0.723993454173109,2.740121466644601,2.1650956145478677,,,0.6547956803312163,5.584519053829383,inf,,0.6567790790966356
5,1.9233909266061717,-0.025645212354748956,0.0,0.7127730034629697,0.6866094563684997,0.7429835513102456,2.3666821103589664,1.715307418304341,,,0.648888643467878,6.214608098422191,inf,,0.6153007146397018
6,2.5992646530660553,-0.06931372408176148,0.0,0.8866996015941306,0.8584903511981972,0.6957264327363006,3.0759206808340585,2.043398857042541,,,0.663668482632973,5.44914025628262,inf,,0.6933028849816187
7,2.356055689330755,-0.07068167067992266,0.0,1.039588284786677,0.9970855098386653,0.7635006997667643,3.24678881057289,2.057839910047398,,,0.6180765742263259,4.881070089741612,inf,,0.7341429425657003
8,2.0785005102313145,-0.06159356374663402,-0.007689786594409802,0.9390021061110243,0.8675650917312333,0.743716764644773,1.8172118141868798,1.2094073533480718,3.065594548145296,,0.6447042257417027,5.244250145277761,2.762117422372486,inf,0.5260764632949886
9,1.5279707553773816,-0.025466179256289693,0.0,0.7857020549161492,0.7222191912362668,0.6565571717698628,2.509582282628858,1.844941439230141,,,0.6309483474627791,5.58748201896004,inf,,0.8980538824413197
10,3.126544309495128,-0.04168725745993504,0.0,0.5547771167219964,0.5444445466747702,0.5535470550141973,1.0024465132292388,0.8815131959590102,,,0.6447042257417027,5.82783512332618,inf,,0.6187651725086263
11,2.5257286443082556,-0.008419095481027518,0.0,0.569024550103949,0.532213224619767,0.5539149264867883,2.0428661207758005,1.599131843291429,,,0.6778444222523095,8.229511118964457,inf,,0.7590122421162616
12,2.42392493290593,-0.0403987488817655,0.0,0.49300759824685664,0.44546882116729136,0.6992054850884982,2.259117284932652,1.6038555794144478,,,0.648888643467878,6.49491006357635,inf,,0.47239971103243633
13,1.9174708838747556,-0.019174708838747556,0.0,0.7705899849284407,0.6980373993334138,0.6701662692470993,1.9284069248851539,1.7567946548525968,,,0.6207552362147116,6.203558262235607,inf,,0.7332102198787452
14,1.499089855265235,-0.00499696618421745,0.0,0.7219030260783426,0.6876715617168105,0.5413530195450652,1.3720909546096178,1.0353001879036774,,,0.6357360191111145,7.202872329921436,inf,,0.5647393963187035
15,1.0574806230051024,-0.014099741640068032,0.0,0.7849496346915067,0.7672461240137257,0.5461769609739249,1.5891029563683066,1.3645923720927493,,,0.6727386042041725,5.364932115630021,inf,,0.8196718273241304
16,,0.0,0.0,0.29332241239967155,0.2485272183484721,0.4405119234030299,1.0622029894348783,1.0898834459285622,,,0.6528756675646988,inf,,,0.8628466333695485
17,1.268709766202887,-0.012687097662028869,0.0,0.7434101488011869,0.7241368121965908,0.7071807204472607,1.8410759540601773,1.4549399047541967,,,0.648888643467878,5.805446128432701,inf,,0.586516208113889
18,1.9661128563728327,-0.006553709521242776,0.0,0.8055979406027415,0.7702113125666404,0.668050161119902,1.6395910083743641,1.3074016567130577,,,0.648888643467878,7.669895331029034,inf,,0.771002352525377
19,,0.0,0.0,1.1324717829065505,1.1041529598515167,0.671412925591224,2.8077556931293386,1.3402654872100261,,,0.6125606311107803,inf,,,0.7336873890121336
20,1.2413122588597296,-0.02068853764766216,0.0,0.8748464992715558,0.8220565993969118,0.6304126429271952,2.651850688823375,2.3607395524045023,,,0.6668815377411301,5.291672823829368,inf,,0.7751835719529814
21,1.9026515700432565,-0.031710859500720945,0.0,0.4088979922561592,0.38725217009391416,0.5922889603817073,2.3764961502151913,2.0889428314312957,,,0.663668482632973,5.843044541989709,inf,,0.4407607380608053
22,1.118814995985629,-0.0037293833199520967,0.0,0.5739530449389365,0.5184421050348353,0.5654832887506406,2.039006605386502,1.734136380223302,,,0.6233814453054027,6.82259747064183,inf,,0.7687824764018811
23,2.6579471021071517,-0.11517770775797657,0.0,1.407341314590492,1.3778084629246263,0.8201439531261414,4.674742391904064,6.892211832062925,,,0.6425374456860184,5.406150071351252,inf,,0.8604742473461919
24,1.8241751898411587,-0.03756157621112184,-0.00500251155183853,0.760488339071883,0.7486111857670561,0.7482301605019609,3.0624405002963004,2.947820703494984,1.9986557669950848,,0.6403206450210053,5.259096653394756,1.9437756765266807,inf,0.8181752799572608
25,1.742495629468588,-0.05227486888405764,0.0,0.8284792944444486,0.7605177557761875,0.6885223723660069,2.4513785324908626,2.0688883626758416,,,0.6509067234006624,5.155661066146513,inf,,0.8672662354535311
26,2.1174412078621723,-0.03529068679770287,0.0,0.9152207862316832,0.795146987497356,0.7585049895747163,2.572206860645668,2.244809205931668,,,0.6357360191111145,6.0796887805228215,inf,,0.7771099001035603
27,1.629397716993791,-0.059744582956439,0.0,1.0244235078497277,0.9675176656528874,0.7989914928178671,3.8116219548018004,1.7616281427302858,,,0.6584896970785714,4.7117660322539106,inf,,0.7120573191879808
28,1.9831052292487634,-0.03305175382081272,0.0,0.7565723164813883,0.66032308159232,0.7298654714719934,2.132942880903655,1.8296474331255452,,,0.648888643467878,6.023069886523313,inf,,0.8503957459629725
29,1.546359430280603,-0.020618125737074708,0.0,0.8691843242863148,0.8527842710285735,0.59940584012871,1.9944976361943478,2.071111078394295,,,0.6403206450210053,5.697137931937532,inf,,0.6437274729868301
30,2.0721538890238382,-0.020721538890238384,0.0,0.8996351290531199,0.8772340168466154,0.7432643404048307,2.8715673736018723,3.895215668753512,,,0.6447042257417027,6.587283383707366,inf,,0.829050030154509
31,2.8044978901780415,-0.18319917502484237,-0.013115677287620532,1.3217473809983384,1.2325274354698905,0.7573833051947094,3.6443660925835557,3.2677209882733758,2.6641282253988097,,0.6468212168108125,4.204159428229307,2.5982353350950036,inf,0.6571325653980347
32,1.168802455660977,-0.027272057298756133,0.0,1.339964372086478,1.3200004630413178,0.8310228036967318,3.923304456048311,1.4037836669735801,,,0.648888643467878,4.538550498646695,inf,,0.7075216615630078
33,1.4730140531031117,-0.04910046843677039,0.0,1.1689028107561994,1.1252596122918181,0.7725153461509686,4.431370591444563,3.888173870217803,,,0.6547956803312163,4.534401115099884,inf,,0.7607609024286263
34,1.1138789353258542,-0.018564648922097568,0.0,1.2702835924359934,1.2452536322822645,0.8032582393712385,5.38462995728234,50.25398260822318,,,0.6528756675646988,4.935218654811502,inf,,0.7291786053438125
35,1.6030289150270327,-0.03740400801729743,0.0,1.1569207394857606,1.133938406603309,0.7993644925935188,4.884468970269678,12.091379125261398,,,0.676637947632344,5.165341683857237,inf,,0.4354173358498019
36,1.5649614070227116,-0.07303153232772655,0.0,1.1282196424812507,1.0547737896611398,0.691614084772224,3.4556340660610756,4.33687573064257,,,0.6509067234006624,4.470250868088721,inf,,0.494212259895908
37,1.6082264753798947,-0.03216452950759789,0.0,1.1136342557215821,1.098697233668976,0.773062959700695,3.2677735432665833,1.6199136341211107,,,0.6584896970785714,5.110455629378467,inf,,0.7781682765190089
38,1.7870287114524943,-0.07148114845809977,0.0,1.3150730849063366,1.2892558506518295,0.8023440071296521,3.452962717291335,2.94424607326184,,,0.6547956803312163,4.838083528898106,inf,,0.7216861925895177
39,1.3591334114703453,-0.13138289644213338,0.0,1.0495329639464417,1.00551253847845,0.7744975521114664,4.659430568484863,17.585728031265045,,,0.6602640781246099,3.400197881329072,inf,,0.7290507193093525
40,,0.0,0.0,0.9579522015346723,0.9316182218804188,0.7603831939484197,2.4381843074546237,2.7799712660386144,,,0.552929491858785,inf,,,0.8592380679957091
41,2.027976469222548,-0.02703968625630064,0.0,0.7057633803016583,0.6571081228506113,0.6254600584566422,3.5965018403587607,3.8664216920894474,,,0.581717464821069,6.220179143471647,inf,,0.6947522741830288
42,1.9833641623132574,-0.11070229205142927,-0.008299557687366173,1.1174355937404026,1.1035460705503577,0.7623556580824414,4.083888049810084,7.441560981934234,4.651506418742679,,0.581717464821069,4.552156150702475,3.636532973741727,inf,0.7415237475560293
43,1.424599794673114,-0.061732657769168274,0.0,1.0252365243950563,0.9943195896236208,0.6633014555969738,3.3888967137366026,1.7854929938361512,,,0.6357360191111145,4.243618264969855,inf,,0.7339861384018516
44,,0.0,0.0,0.9791711892464791,0.9448786413489897,0.7484311341169575,2.697742161708662,1.7248299352768885,,,0.5783247308855777,inf,,,0.7976387152748685
45,4.31748811353631,-0.014391627045121034,0.0,1.0361454135293793,1.0080360339791803,0.7872378705083065,3.2042823938986817,4.980748372885823,,,0.5202020156036558,10.021270588192511,inf,,0.7738821318019278
46,2.6777378901939928,-0.01785158593462662,0.0,0.8522555664328572,0.8499955491960339,0.6445451033912587,3.0261908903005774,2.846594341410882,,,0.5604843169999094,6.907755278982137,inf,,0.7075149298703463
47,2.291595639634658,-0.015277304264231054,0.0,0.7931884317956575,0.7410930589048909,0.7328170008999602,2.83721697768578,4.308339137320793,,,0.5604843169999094,7.264430222920869,inf,,0.7177415146498713
48,,0.0,0.0,0.744076963818376,0.6954286181788027,0.5933473094039117,2.686849831637146,2.8886294111104096,,,0.552929491858785,inf,,,0.8065892609667887
49,1.9101492522400094,-0.031835820870666824,0.0,0.9691375410429519,0.8914989278641979,0.6735554761084039,3.6111978623583876,4.075081054547536,,,0.6425374456860184,5.737684026331882,inf,,0.6358087136629236
50,1.1212734277523186,-0.056063671387615935,0.0,0.950510171350225,0.9067691441012526,0.7568534680876768,2.882271845519718,1.2943185017465235,,,0.6357360191111145,4.021713871187194,inf,,0.7006998626831262
51,1.3161765808627428,-0.04387255269542476,0.0,1.2426976968635735,1.240698512252626,0.837800845597102,3.77851231564224,10.420803891160137,,,0.6380535849069913,4.446268903402236,inf,,0.5158008497281342
52,1.9277437895824068,-0.0578323136874722,0.0,1.284139810253959,1.251069914817683,0.7794859275061775,4.289577338732113,4.212764137242045,,,0.6713451011121618,4.886943821753706,inf,,0.649712715023953
53,2.067647212353464,-0.17230393436278868,0.0,1.1852729065893806,1.176037177089555,0.8283133551006919,3.494938320800523,3.7572971154489494,,,0.6652988471865258,4.293608839746367,inf,,0.6267857685407822
54,2.18439070396193,-0.014562604693079535,0.0,0.48464858515010584,0.4426925467899335,0.5441717020961618,3.6602733023937404,8.026500361761942,,,0.4732203808476458,7.188057244136296,inf,,0.7553344266649289
55,,0.0,0.0,1.7501256449048317,1.7232076623201593,0.9436962630735237,3.5804938247967555,6.678059324361875,,,0.5158180382284114,inf,,,0.8211588711640658
56,,0.0,0.0,1.7396205610976745,1.7148409100918407,0.950932522119464,3.824056885650118,7.986851189983296,,,0.5370774965580548,inf,,,0.8805734001204576
57,,0.0,0.0,1.5847806715426789,1.5775171396467467,0.9009492827680573,2.8126549071800673,3.665328905480956,,,0.5641709578113449,inf,,,0.8902745122200767
58,,0.0,0.0,1.6623869724397626,1.6128052194973854,0.9228843788964233,2.7656806678388226,2.944385523755532,,,0.5748741956352443,inf,,,0.8777219134084495
59,,0.0,0.0,1.6227284700346623,1.6148362028518246,0.9358497563789633,2.7303428499281686,2.2318656444462524,,,0.5329562494928909,inf,,,0.9024114379080034
60,,0.0,0.0,1.7259995691944152,1.6971337870468366,0.9184090868532567,3.1438126794724943,4.364958226453955,,,0.5713653840954815,inf,,,0.8952830320241734
61,,0.0,0.0,1.6981818798487816,1.6668331580353546,0.9393509885467219,2.8401902631864027,3.22386838182397,,,0.5022576003740722,inf,,,0.8680230262454925
62,,0.0,0.0,1.6868172537027064,1.6456056039276326,0.9304905258667571,3.1841614256956676,3.70993172787921,,,0.48319206230712763,inf,,,0.8657695566516491
63,,0.0,0.0,1.6087184017196396,1.582525886010504,0.8966731375707085,2.4738322418578798,2.382633519084611,,,0.4732203808476458,inf,,,0.8795039901609066
64,,0.0,0.0,1.5245393746653244,1.5136940740934473,0.8876705190632852,2.8370744341961456,3.1996222057433474,,,0.5641709578113449,inf,,,0.9053812818771761
65,,0.0,0.0,1.684071612617945,1.6796416527562523,0.9097044284086685,2.6927681639950154,2.755958734685673,,,0.5068466436745385,inf,,,0.8917775290259886
66,,0.0,0.0,1.678449250145687,1.6493334172857992,0.9266660439011167,2.3257356758588092,2.180274249517554,,,0.5329562494928909,inf,,,0.8564873667050716
67,,0.0,0.0,1.5496760457846086,1.503261375304942,0.9004173163058641,2.216683193870917,1.7380126682505277,,,0.5783247308855777,inf,,,0.8613381783462033
68,,0.0,0.0,1.4916607848139813,1.4847578535972275,0.8715201404676926,2.1446348423480672,2.3683777771783627,,,0.5158180382284114,inf,,,0.8477087317319323
69,,0.0,0.0,1.546708466088844,1.5238720268550343,0.9312709454760089,2.0038509316908804,2.8073026749005745,,,0.5641709578113449,inf,,,0.8336359427475869
70,,0.0,0.0,1.636764461319907,1.6142102408772625,0.9421638421499813,2.0513241484229274,1.8929681546133388,,,0.47824363442641393,inf,,,0.8454428893232687
71,,0.0,0.0,1.6725512047970643,1.6565240338442289,0.9721695374630714,2.1269732159778725,2.4534695049170208,,,0.5677978065141052,inf,,,0.8729553957312544
72,,0.0,0.0,1.356459931334176,1.308528303700013,0.8831244501935425,1.7958527383847194,1.7190958977645239,,,0.5158180382284114,inf,,,0.9102819867263886
73,2.1484344131667874,-0.0071614480438892915,0.0,0.7465703657088044,0.7053440175999444,0.6228906019931583,2.0592761294293296,1.7130767374556015,,,0.5641709578113449,7.852216887822989,inf,,0.6689673834276161
74,,0.0,0.0,1.5355604764465456,1.4867566959220258,0.889466700555997,2.3527764768081423,3.676572413516319,,,0.5490601803369085,inf,,,0.8953738448438888
75,,0.0,0.0,1.1891344741425833,1.1201386858848115,0.8000916369670354,1.7126522909727089,1.8697432921451178,,,0.5783247308855777,inf,,,0.8903420201743504
76,,0.0,0.0,1.0807137483161198,1.0569606970816383,0.7492269709009415,1.845715379382531,2.0346083202437395,,,0.6068309995095971,inf,,,0.8778340525922068
77,,0.0,0.0,0.9138427287681906,0.8926753125779424,0.7439764073131647,1.6437670498517185,2.098456024018465,,,0.5915533975974677,inf,,,0.8937794389136374
78,,0.0,0.0,1.0396518269018045,0.9934321703242178,0.7209461070818187,2.5842322123849053,1.8523546562360904,,,0.5370774965580548,inf,,,0.899628995731768
79,,0.0,0.0,1.6205608462865353,1.5799274128270047,0.9006638868941383,2.745499541193588,4.404183377216851,,,0.41861278947482794,inf,,,0.8664941298618597
80,,0.0,0.0,1.6519468955262284,1.6602423052386848,0.9431553230581744,2.4975962721457816,3.1163199228087577,,,0.49759852643134905,inf,,,0.8623274896214683
81,,0.0,0.0,1.4702030255807936,1.4402558883496017,0.9228472894260431,2.06170740088148,2.573519273462983,,,0.4732203808476458,inf,,,0.8751575983968276
82,,0.0,0.0,1.5529358388136982,1.5387109539837824,0.9455338866300094,2.1942382591680687,2.5814248947311915,,,0.4880666971167561,inf,,,0.8202312160769601
83,,0.0,0.0,1.6041684264369396,1.5833308361920448,0.9369510230160569,2.0048337191951835,2.228439970494105,,,0.5068466436745385,inf,,,0.8032508354964295
84,,0.0,0.0,1.4072645562152937,1.3320628800843115,0.8708005778096874,2.141174783330573,2.4715838744028713,,,0.5202020156036558,inf,,,0.838785278014824
85,,0.0,0.0,1.5516348307636694,1.5488786247038095,0.9158208366915933,2.4015222586443024,3.0347094679563895,,,0.5677978065141052,inf,,,0.7705061228656225
86,,0.0,0.0,0.7127232752503773,0.6654161744244835,0.6878075772996203,2.940152632094752,2.7575958122352504,,,0.5158180382284114,inf,,,0.8428584353214229
87,,0.0,0.0,1.5702192378255027,1.5652151316902962,0.9047421115479835,2.712065424917237,3.4787713675828957,,,0.4880666971167561,inf,,,0.8574018656357225
88,,0.0,0.0,1.6108431898231972,1.5819620645626955,0.8972275910073688,1.9240369307800638,1.7974119608550414,,,0.5113665138247345,inf,,,0.8293092868288312
89,,0.0,0.0,1.3015311478964895,1.2694787989308371,0.8391063734473055,1.9845409948877293,2.250310311809862,,,0.5567373465730988,inf,,,0.8329934041557188
90,,0.0,0.0,1.2851330404440624,1.26263105810763,0.8661312340633593,1.899086554277521,1.827191494673018,,,0.581717464821069,inf,,,0.7959558030098757
91,,0.0,0.0,1.6586395820279163,1.6382379484810392,0.9458410644768936,2.1498271181007604,2.3346405430748374,,,0.5287703885177266,inf,,,0.8043026597518405
92,1.8282599156703,-0.012188399437802,0.0,1.0890176579840356,1.0585261326768975,0.6626894966682317,2.6711645011084113,3.4419109070383955,,,0.5370774965580548,6.214608098422191,inf,,0.7639380561736191
93,,0.0,0.0,0.9228991500119049,0.8540117523163122,0.7833726007958078,2.1286831884756845,2.182675481445656,,,0.5915533975974677,inf,,,0.8884731594093032
94,2.2697952701710546,-0.007565984233903516,0.0,0.6401386559067269,0.609882535073399,0.5851631549754142,2.244964385798511,1.8633701432221979,,,0.5713653840954815,7.973577744827256,inf,,0.7456367454885756
95,1.5269583743504953,-0.015269583743504954,0.0,1.2172690093066525,1.2023661015904847,0.9028312680766353,3.2501913302166257,3.7535128592942284,,,0.5068466436745385,5.566923291939004,inf,,0.7249918278125083
96,,0.0,0.0,1.625627026906664,1.5933717477270628,0.9478530703341357,3.450369016571747,3.091203812960789,,,0.49759852643134905,inf,,,0.8731249533400266
97,1.5152705749640205,-0.015152705749640205,0.0,1.4919691267062722,1.4868229929339607,0.908373963240235,3.2139123561932945,4.493436074991917,,,0.5022576003740722,5.521460917862246,inf,,0.8913584146469073
98,,0.0,0.0,1.5464665227029157,1.4738177758331954,0.9022336306186352,2.4913242361846337,2.1552003550523557,,,0.4629450596409901,inf,,,0.8802584226914715
99,,0.0,0.0,1.3914365571784924,1.3546640504769902,0.8286167121523984,2.1085238351141666,2.4611173875980006,,,0.524519217297268,inf,,,0.8461481098008528
100,,0.0,0.0,0.5937273377652599,0.5810616064957916,0.6689076379977276,1.8113576700152325,1.6227556472287892,,,0.4880666971167561,inf,,,0.8083798795396072
101,,0.0,0.0,1.1707078194115412,1.0590803540165288,0.7738833562961992,2.4871447789755683,2.6297428839845565,,,0.5068466436745385,inf,,,0.7559533092325876
102,1.6849921089430393,-0.04493312290514771,0.0,1.3233466648697594,1.2469319626920632,0.8439391451161934,3.394288623671896,3.152970220097806,,,0.5202020156036558,5.076063099418711,inf,,0.8915744326995539
103,,0.0,0.0,1.60957377327475,1.598661881771687,0.927161267409759,1.829654129661049,2.1301653780645564,,,0.5113665138247345,inf,,,0.7770120611083957
104,,0.0,0.0,1.5396064686784325,1.5010815087684914,0.9173852480842498,1.8194725647955374,2.4775303714338097,,,0.5113665138247345,inf,,,0.8322773996120613
105,,0.0,0.0,1.322848723236643,1.317722257719906,0.790357091112038,1.8387567089571415,2.1735123156223732,,,0.5567373465730988,inf,,,0.8268052553189572
106,,0.0,0.0,1.5684762229601166,1.5393559338302953,0.8980366186726902,1.6870401751656816,1.9112150659216338,,,0.5202020156036558,inf,,,0.8013356264733207
107,,0.0,0.0,1.396702573566876,1.3548568885828713,0.8499614816890633,1.4269691509523557,2.1455711695673916,,,0.5713653840954815,inf,,,0.819992248912593
108,,0.0,0.0,1.643501065384924,1.6048966981919348,0.9267816087630008,1.4781169106727363,2.3744733351805385,,,0.5783247308855777,inf,,,0.792842294769867
109,,0.0,0.0,1.5447585394629773,1.509031728220481,0.9111953580288348,1.3967566365800974,1.5378862229491255,,,0.5451288209179292,inf,,,0.7634621948640166
110,,0.0,0.0,1.5563904381416975,1.5240815721841023,0.911074003522152,1.3873121291330552,1.8889094148731227,,,0.5947193981915972,inf,,,0.8324640344507113
111,,0.0,0.0,1.2972436312162805,1.28069127128104,0.8576595817778316,1.4994742895172912,1.8519427958482992,,,0.6153451465759925,inf,,,0.8133377891041469
112,,0.0,0.0,1.2532697586829642,1.2263804245778611,0.8698312972930985,1.1330002331959879,1.2639715995026368,,,0.6309483474627791,inf,,,0.7846713136546619
113,,0.0,0.0,0.6986076094174025,0.6923297652366479,0.7202358821221186,1.3796966037755811,1.4163239041880127,,,0.5451288209179292,inf,,,0.6218227114151916
114,2.234686068478576,-0.04469372136957152,0.0,0.9122975897221038,0.8447897644380024,0.6018221368604982,1.3461176613980477,1.1057213178202778,,,0.5604843169999094,5.707121375921716,inf,,0.8225590408937586
115,,0.0,0.0,1.5111032370596043,1.4725558604088387,0.8701593726640586,3.386544281484877,5.161048813369615,,,0.5370774965580548,inf,,,0.8585631987964931
116,,0.0,0.0,1.6028411672891685,1.5895130342977188,0.938903257512343,2.9327949255663843,3.1445700288649028,,,0.4732203808476458,inf,,,0.8408677659466297
117,,0.0,0.0,1.5151879952583729,1.471242861026738,0.8955260632090302,3.127106289199023,5.886701072265494,,,0.5370774965580548,inf,,,0.8795893261871508
118,,0.0,0.0,0.8968981681272772,0.8583225232462443,0.8305885847801381,3.0965215389079375,3.6110124229182,,,0.5451288209179292,inf,,,0.7151851170481972
119,,0.0,0.0,1.5488381844279253,1.5062159444624907,0.7956619524774649,1.8999712013282528,1.62553587611987,,,0.45235697871908603,inf,,,0.8798253830413626
120,,0.0,0.0,1.4839258295226114,1.4487458882329054,0.867444521024317,2.6675276692754717,2.04252608022142,,,0.4928685327679205,inf,,,0.9004949662016289
121,1.5041069814224455,-0.015041069814224454,0.0,0.7928916256571424,0.7310792408882967,0.6741483908187803,2.411219074226787,1.9892508765069477,,,0.5677978065141052,6.041588934290551,inf,,0.5995376165664369
122,,0.0,0.0,0.9274481972848386,0.8893086620520556,0.7568663890939343,2.048558670743527,2.1882858962946043,,,0.541134803179459,inf,,,0.6452832104810704
123,,0.0,0.0,1.6532407322885012,1.6504104105982504,0.8731802498777261,2.4479790971324533,2.177585719502723,,,0.49759852643134905,inf,,,0.8398473599286463
124,,0.0,0.0,1.433392443377152,1.4092254279724945,0.8611264660150066,2.6702844902868335,3.160661769544901,,,0.47824363442641393,inf,,,0.8667772397205842
125,,0.0,0.0,1.5318469259593777,1.5277244250523492,0.8988973203155125,2.90423645472256,3.0213286935904144,,,0.5641709578113449,inf,,,0.8617037540068934
126,,0.0,0.0,1.6578039978820722,1.6168452642957483,0.9499439897257299,2.933114837745732,3.7735224793368283,,,0.5451288209179292,inf,,,0.8481232465056716
127,,0.0,0.0,1.6659193932512715,1.61123160712454,0.9322672922129207,2.6020592441241246,2.6458778981958555,,,0.5748741956352443,inf,,,0.8188668511375782
128,,0.0,0.0,1.6650327023027656,1.6390012268994412,0.9382541206223654,3.225254925066721,4.72628952192511,,,0.5113665138247345,inf,,,0.8646499698156657
129,1.499089855265235,-0.00499696618421745,0.0,0.6235345983093438,0.5739898860577805,0.6196868534737643,2.4257708256272714,2.5880628537193546,,,0.5883313578629602,7.202872329921436,inf,,0.8775951206267913
130,2.0928645620119766,-0.0069762152067065885,0.0,0.8241106190812963,0.7722270181330684,0.5574330672456765,2.574177161840033,3.1665656310780474,,,0.5370774965580548,7.796647036668178,inf,,0.8103971509018352
131,1.3329031152580448,-0.01777204153677393,0.0,1.0563218673203667,1.0131378875405992,0.7671763571717511,3.088522872217167,2.8998642764578535,,,0.5947193981915972,5.541096892379105,inf,,0.8431027464371879
132,1.7525622516552273,-0.04673499337747273,0.0,1.1667255808296815,1.1356610436072734,0.7176818153113734,4.144763516549298,5.8489561799223235,,,0.6528756675646988,4.913811109460716,inf,,0.6475378416094811
133,1.277531957265608,-0.01277531957265608,0.0,1.120742976755541,1.0776690392539165,0.7174485590933225,3.3973595850064933,1.9804919989562801,,,0.6584896970785714,5.654992310486769,inf,,0.7676674900660498
134,1.8501407079198564,-0.043169949851463316,0.0,1.077855108044014,1.057227598254438,0.7221776693641649,4.39694924784724,6.792650424414022,,,0.6380535849069913,5.491362886704967,inf,,0.7253005544350098
135,1.6493549938596699,-0.10958862436443607,-0.011364075185273046,1.1512855195586693,1.114098111497315,0.8295648132728057,3.4304022943664516,2.0057640438017397,,,0.6602640781246099,4.033563089962242,5.071416766356115,inf,0.5029901745464652
136,1.0802209413389705,-0.02160441882677941,0.0,1.138967120825624,1.1094849192585206,0.7551815954096445,4.1786122297188415,3.695759077812162,,,0.6380535849069913,4.772931591450717,inf,,0.6227486564314669
137,1.5724941081088215,-0.03144988216217643,0.0,1.2539021320964363,1.2386934854840637,0.7716766105928449,5.7494001731128535,36.43907117683378,,,0.6668815377411301,5.2234160583749185,inf,,0.710491623625326
138,2.093250797014932,-0.07675252922388086,0.0,1.0687095291264945,1.058392331525294,0.8075726796820195,2.5260713183427974,1.3605597497629933,,,0.6309483474627791,5.22754829565983,inf,,0.8767913989334336
139,1.8470004422280901,-0.0430966769853221,0.0,0.7242743071375553,0.615928721565508,0.6698971180285107,2.312232009042232,2.0666367587300756,,,0.6668815377411301,5.3050063546988335,inf,,0.6449457381420844
140,,0.0,0.0,0.9333746019497305,0.9188908050742332,0.6809723392577813,2.6007843848934806,2.8941427749172806,,,0.675384900321601,inf,,,0.8983246706993301
141,1.9425823589626385,-0.006475274529875462,0.0,0.8324988858029716,0.8156973082166427,0.6090561091293821,2.27361902509773,2.1925206529548893,,,0.6509067234006624,7.64636483361884,inf,,0.8627769020511421
142,,0.0,0.0,1.0451661752525339,1.0222804961557932,0.6956687666474322,3.237624119854768,2.823800264458222,,,0.6380535849069913,inf,,,0.793131469129529
143,0.527632742082372,-0.00175877580694124,0.0,0.9871267992692003,0.9885130474272538,0.6500712167840835,2.445351995075669,1.5145699146876912,,,0.6333676938231112,6.231415216738573,inf,,0.8532325640301944
144,2.436043854381481,-0.18120121517006166,-0.01368229318045681,1.2800567703005175,1.2377896271228914,0.8299303707224068,2.850161900572902,1.0442417263305321,,,0.6309483474627791,4.449116556014747,5.349010480863555,inf,0.6197500885398106
145,2.341274350027186,-0.062433982667391634,0.0,1.3321031293531278,1.30519527189154,0.7885831657540116,4.353375066831084,21.706998831729095,,,0.6380535849069913,5.596423956335702,inf,,0.8119531936140931
146,1.4404609217991828,-0.033610754841980936,0.0,1.1383760786048231,1.1200002447836699,0.8148972629489442,4.914087599775204,8.98222645206878,,,0.6584896970785714,4.835282406618394,inf,,0.5681215316787651
147,2.169641987954106,-0.0723213995984702,0.0,1.18710646407685,1.143160570922849,0.7289511006837014,2.200443543489759,0.981096052643073,,,0.6357360191111145,4.624239748708442,inf,,0.6757866307676912
148,1.053005173917191,-0.02457012072473446,0.0,0.9573092114652918,0.9297973982184746,0.6787680360412187,2.197934977668406,0.8785789913262931,,,0.6403206450210053,4.656463480375642,inf,,0.8392516388842953
149,2.546187928430022,-0.07638563785290066,0.0,1.2044957752308791,1.1969806100063383,0.7471362787657475,3.584816453055476,3.115866830569168,,,0.6602640781246099,5.590453789349198,inf,,0.7111224271106055
150,1.4235378219419703,-0.15353580980957446,-0.0030533506040422756,1.3294722441402875,1.3049411619733124,0.8291178866034339,4.597030803711252,101.21888306775548,3.2536786234578905,,0.6509067234006624,3.368085030211953,3.251988176318403,inf,0.7845404432152122
151,1.8145883714123654,-0.02419451161883154,0.0,1.1533268856868086,1.112917288433062,0.7502375565882011,4.19650840492659,11.14999086459843,,,0.6447042257417027,5.886104031450156,inf,,0.6109621330451813
152,5.703782474656201,-0.019012608248854004,0.0,0.8002212404994804,0.7688643769054463,0.5984109546112307,2.619601533188256,2.603536748459161,,,0.663668482632973,11.407564949312402,inf,,0.6540421456265163
153,1.920554804961441,-0.04481294544910029,0.0,0.9584052182358253,0.9590832650459771,0.7192666999984051,3.721280689562743,3.6273742782856035,,,0.6547956803312163,5.42867918441128,inf,,0.7917219288710426
154,2.065850174382935,-0.013772334495886234,0.0,1.0234303336937207,0.9620098523075811,0.7420752559298182,3.0935937523644927,2.398561225573228,,,0.6566669596287297,6.782592136028131,inf,,0.8234628782693664
155,1.8222511014172056,-0.03037085169028676,0.0,1.0518928006462247,1.0288254425133045,0.7838268734164207,2.944161518630218,2.6399811970379488,,,0.6425374456860184,5.423628668625212,inf,,0.5699335711168813
156,,0.0,0.0,0.39547152767488114,0.38264408961917407,0.6310259754301006,1.8553008448915258,1.7932806195126467,,,0.6207552362147116,inf,,,0.7158557372977548
157,1.3989419710432418,-0.01865255961390989,0.0,0.7779944860752595,0.7554275008056416,0.5537164854337895,3.5125963327403547,4.818721692473831,,,0.6547956803312163,5.667772037133168,inf,,0.8339827756845944
158,1.297063227391948,-0.004323544091306493,0.0,0.9126507276258716,0.8466432532206574,0.7206290693518748,3.0873331019466095,3.059259252687868,,,0.6380535849069913,7.000845702048149,inf,,0.5566569504038585
159,3.0476916418324596,-0.060953832836649194,0.0,0.8912687624848048,0.8588658621084778,0.7164585030648438,3.7848327746632284,6.963128336848241,,,0.6357360191111145,6.517215821090648,inf,,0.6223235460527825
160,2.422560427809341,-0.016150402852062273,0.0,0.996640502212225,0.9712938159807376,0.7109532314056558,2.888520542476477,2.1005570183830566,,,0.6333676938231112,6.587283383707366,inf,,0.6359496512164647
161,1.2879912854944777,-0.012879912854944777,0.0,0.8535444767509494,0.8087344133315875,0.6835805357615531,3.0063254495760305,2.3785900069185737,,,0.6153451465759925,5.7763531674910364,inf,,0.5527526385470787
162,1.900714712591852,-0.05702144137775556,0.0,1.1154770119349262,1.08409134842972,0.7829569108114149,3.0856369931528547,1.8163014472978478,,,0.6547956803312163,5.336827221309912,inf,,0.583377099504004
163,1.7010989409978696,-0.011340659606652464,0.0,0.6713217392150508,0.6501218396380113,0.5959253306138175,3.554492143664105,3.1141762539998714,,,0.6528756675646988,6.480311264155198,inf,,0.6831930430251655
164,1.8319917350447372,-0.0820101879919209,-0.009589398760315953,1.1547115461806128,1.1234547255914509,0.7446859822000135,3.2752808859583515,2.0038651579073017,,,0.6619902821573977,4.442484603710995,4.13186700154519,inf,0.5551516479103845
165,1.9198651541086076,-0.0767946061643443,0.0,1.2578939327450958,1.2213181484478397,0.7968371125655244,3.553956603404813,3.345688857032647,,,0.6619902821573977,4.9682145782123035,inf,,0.5460237546457043
166,1.9271317906224434,-0.05139018108326516,0.0,0.9321305396876411,0.9145970835490539,0.6545770691185435,2.595403267400111,1.3735415337420092,,,0.6447042257417027,5.467393696591971,inf,,0.8636864852329061
167,1.766760320026961,-0.0647812117343219,0.0,1.282035437757919,1.239713047004502,0.8103031301284149,3.882972988050711,28.026471247335383,,,0.6357360191111145,4.6729732893394536,inf,,0.6002984394342626
168,2.59029615001794,-0.05180592300035879,0.0,0.8666313889593508,0.831387272755709,0.7043576104720485,2.7270353174847832,3.298204037459581,,,0.6333676938231112,6.144874760407516,inf,,0.5725310655445027
169,1.7043673612726453,-0.045449796300603876,0.0,1.165127249478088,1.1048903985052563,0.7809337443041382,3.3537375522080266,4.310839990848924,,,0.6652988471865258,5.171195359108697,inf,,0.7382166745509271
170,1.743377635011901,-0.011622517566746007,0.0,0.9872527345437262,0.9778486464054766,0.8128857041057278,2.8588688393276818,2.6487915763512877,,,0.6619902821573977,6.54775254495073,inf,,0.8732789209464834
171,2.096428851862927,-0.05590476938301138,0.0,0.780062988525565,0.7710592687763141,0.7476365222456867,3.1912819214710315,3.583702386330266,,,0.6284777104787076,5.593434417487336,inf,,0.5725277986549872
172,4.374121125801443,-0.043741211258014424,0.0,0.831271414694705,0.7861391859709664,0.6920734851816891,2.9662803483288154,1.9376184269364294,,,0.6468212168108125,8.006367567650246,inf,,0.7221245182796041
173,1.7579143858052881,-0.0585971461935096,0.0,0.8882018615146561,0.862064656173811,0.7229028566195076,2.9670720493346194,2.442892832074698,,,0.6380535849069913,4.753412429129184,inf,,0.6542736058402573
174,1.9980286253446014,-0.061895660156335186,-0.018025484857448867,0.906449009142692,0.8266566690794951,0.6917196808943273,2.3513154681407737,1.7684357598534173,2.5687064322230873,,0.6619902821573977,5.047991080640025,2.282036424766658,inf,0.498706052786163
175,2.025642536380827,-0.013504283575872179,0.0,0.8337731458254619,0.8091788280523556,0.5688805484378531,3.054522403856877,3.2474828401268465,,,0.6566669596287297,6.753604599154879,inf,,0.7642388219106586
176,1.9839717138083444,-0.06468070182164817,-0.014678166730685595,1.1943351676417922,1.1498813654939342,0.7077182947366985,3.2617455225758207,2.461765559856976,1.9084211801238864,,0.6468212168108125,4.765078147945146,1.846696255770515,inf,0.6897459403724043
177,2.0106676420946594,-0.04021335284189319,0.0,1.200412692498293,1.1807105425191968,0.7946257578492237,3.3508328222852573,3.182255495406846,,,0.6284777104787076,5.744604469176456,inf,,0.6541894233769481
178,1.855143563325602,-0.03710287126651204,0.0,1.2083618829853586,1.1951448067388892,0.7285026190238482,3.1049133193066383,2.3081003530264583,,,0.6403206450210053,5.4621443407058266,inf,,0.5388308283480616
179,1.3997173814520312,-0.004665724604840104,0.0,0.7303147842745186,0.696268058278605,0.5395436111430648,2.5922444011763384,2.4472143730707896,,,0.6447042257417027,7.1034998561082325,inf,,0.8261974275536829
180,2.8569419141574808,-0.03809255885543308,0.0,0.4548892887295086,0.4213234307963579,0.7552561828966347,2.223074040347458,1.8771415842674286,,,0.6547956803312163,7.013115794639964,inf,,0.5544228517259238
181,1.2009255941238126,-0.060179302173379204,-0.003870062846557467,1.1532358549871857,1.1148239642651308,0.8021305539384448,4.25371490153631,36.8050218281167,2.868482223040944,,0.6357360191111145,4.010616346691388,2.85365382035101,inf,0.7290670532204355
182,1.3359966397554082,-0.05343986559021632,0.0,1.389247239974286,1.3746935030606464,0.8374950706112683,4.033688447994159,55.580622988126855,,,0.6447042257417027,4.3091893107216155,inf,,0.7010155845255744
183,1.597772808856678,-0.04260727490284475,0.0,1.3242022456156348,1.286978536886885,0.7921121530510947,3.8066966392988477,6.97466458282923,,,0.648888643467878,4.910789959126539,inf,,0.6312264501737247
184,2.1002679318266964,-0.07000893106088987,0.0,1.0665787839854979,1.0268873289791025,0.7412674488775809,3.6976972962673793,3.8190919589191155,,,0.6619902821573977,5.171195359108697,inf,,0.6359745439004482
185,2.2668886392294985,-0.09067554556917994,0.0,1.1069858352177973,1.0663442337179418,0.7743924849840091,2.915765007171693,2.582380999578843,,,0.6357360191111145,5.289467751271054,inf,,0.6470910531667076
186,1.7990727169310912,-0.05269790979923752,-0.0072711807651321915,0.9793988723386062,0.94025049551247,0.6727059647529295,2.3770270746974362,2.075208921199975,3.0662960564167867,,0.6068309995095971,4.838083528898106,3.0431208957981344,inf,0.7400376042684235
187,4.31748811353631,-0.014391627045121034,0.0,0.2961992331241894,0.2752646452976713,0.6085860721218354,1.7175552009008261,2.0965227036583443,,,0.541134803179459,10.021270588192511,inf,,0.8431992036426968
188,,0.0,0.0,0.8055910677869998,0.7944790855298768,0.4333185934532757,1.510691875462301,1.5452563819084388,,,0.5604843169999094,inf,,,0.956282351176598
189,3.3058872018578307,-0.011019624006192769,0.0,0.6062058831807746,0.5302336632775482,0.5828077781296701,2.0569449377285385,2.229249123271802,,,0.5915533975974677,9.009669676514031,inf,,0.8405670903669636
190,2.0066069720847013,-0.10701903851118406,0.0,1.099393453458796,0.9983583737110162,0.7867472079308617,3.5093798026307272,10.025306095713155,,,0.6528756675646988,4.693394419402931,inf,,0.5497481026669501
191,1.6765042287519758,-0.09457578133714444,-0.011602819817147366,1.1761079772429477,1.1413110978280498,0.7712514658701085,4.782059021806424,23.0717874890764,2.5538913464379465,,0.6425374456860184,4.36965898586522,2.374466869335115,inf,0.8081842652917809
192,2.5350422927295377,-0.04225070487882563,0.0,0.7948028739544877,0.7362213659800437,0.6863006090374875,2.15065474633342,1.718464253631288,,,0.663668482632973,5.965147238790609,inf,,0.8349496920425323
193,1.844687959860218,-0.04304271906340509,0.0,0.5545396944329517,0.5102588526280822,0.758653105016094,2.135504365655089,1.4311867739619664,,,0.6309483474627791,5.518686990979521,inf,,0.6933565966955539
194,1.5418703389642925,-0.015418703389642924,0.0,0.8298313003951295,0.7726612450255443,0.7579471982004496,3.0850848568881757,2.447323848479081,,,0.6284777104787076,5.820316290912153,inf,,0.7722688051944968
195,1.3936685054065445,-0.06503786358563875,0.0,0.746257252520377,0.7145898683050156,0.5934333468651617,3.6798583293387597,3.367675012186853,,,0.6652988471865258,4.375823690549274,inf,,0.7863981188408602
196,1.8451837536097426,-0.10414656382826577,-0.00656446138831879,0.796290935101134,0.7419974731265889,0.6907739492134192,3.3498865334922794,3.1445488342503483,3.5105130195252796,,0.6790044388599258,4.5230782972696195,3.1468170337594144,inf,0.846861625655829
197,2.3976853691724123,-0.0399614228195402,0.0,0.6264810691138881,0.6133261239565962,0.5259330500728281,3.510474342145818,4.456051961808056,,,0.5329562494928909,5.677465166338828,inf,,0.8379863114836382
198,,0.0,0.0,0.8299806332888096,0.8000970800994998,0.6535389781913571,3.083479609597684,6.580775899651034,,,0.5370774965580548,inf,,,0.7959966403357989
199,2.121687606472775,-0.06365062819418325,0.0,0.6866200010368804,0.6414744196081391,0.6632169416101927,2.6266529172706954,2.349082531402721,,,0.6233814453054027,5.196964872287749,inf,,0.6168087500195673
200,2.870569130599985,-0.009568563768666617,0.0,0.6187769693460927,0.5774355484895601,0.4029698716778855,1.9480647979926664,1.8547138444202542,,,0.6097226960127671,8.574351605256187,inf,,0.8857981488569855
201,1.1499055830556604,-0.0038330186101855346,0.0,0.7430107810821137,0.7240920715841789,0.6253258163182521,2.0907243360692576,2.7221982484856726,,,0.6153451465759925,6.853688057711861,inf,,0.6717831811973799
202,2.4303897692759393,-0.016202598461839596,0.0,0.8353506432784834,0.8206003673229887,0.5996944111492939,1.6916822678216723,1.6382454064343832,,,0.5915533975974677,7.347121938765983,inf,,0.6891967930899726
203,1.5340170698162638,-0.0255669511636044,0.0,0.5621322373217318,0.5542185353703285,0.4938363129045375,2.4049614272094195,2.021250973805217,,,0.6097226960127671,5.341456859208654,inf,,0.7499713566056919
204,2.3575833113684714,-0.0895415349484692,-0.004761797506269669,0.9461884162463678,0.8700177568255174,0.7439299564462358,2.0816484837352407,1.4654358487272496,2.0747459003527977,,0.6309483474627791,5.1830065200370425,1.9478923102593046,inf,0.46007695163837803
205,2.0076542833329185,-0.09658829238222896,-0.010486602728860032,1.2116335421847093,1.1492896292750645,0.7619938316921806,2.884481916208962,2.494632827508109,5.005289936799005,,0.6447042257417027,4.786159297548267,4.056456294302598,inf,0.6716706460308012
206,1.8028310101780307,-0.15645627483798596,-0.023826826179817115,1.3445025635645,1.3111912110134487,0.801058000978363,3.908042200014151,2.794154114131466,3.566483015843996,,0.6547956803312163,3.707269745892285,3.409835762271726,inf,0.596448836750254
207,2.2089271026405486,-0.051541632394946135,0.0,0.9096145276368797,0.8070759186431202,0.6687250413861575,2.6004690837326057,5.882147140098196,,,0.6008849035917525,5.181028280024937,inf,,0.9061712164026916
208,1.0419391547457046,-0.024311913610733107,0.0,0.7147713653764854,0.5815264230080924,0.6114453134636401,2.9365037819853996,3.2878403007254358,,,0.6068309995095971,4.681331546953656,inf,,0.8378868793777633
209,2.0205432713569422,-0.12132268531296406,-0.006645055206308959,0.9507798194989745,0.9246932069792475,0.6971382112405944,4.099959933305985,15.477260277110227,3.0449621029612577,,0.581717464821069,4.667045589706179,3.0269472929019154,inf,0.6245924131935332
210,1.5836903160699747,-0.08974245124396524,0.0,1.0972398985775063,1.067670581104712,0.8201312094677224,3.689621998152609,4.745024885279426,,,0.6207552362147116,4.195270480812061,inf,,0.7279377064349708
211,1.7058942955983656,-0.13078522932920802,0.0,1.131512084616173,1.1330850460457522,0.7654166050092103,3.8058540751348233,5.70013298808671,,,0.6528756675646988,4.133085390538532,inf,,0.7203119922531604
212,2.456474498455918,-0.032752993312745574,0.0,1.0105827358625081,0.9608412380933582,0.750144366233973,3.254497086825111,1.9945574206556236,,,0.6528756675646988,6.509725149361491,inf,,0.7774955782965709
213,1.8136403119204314,-0.11067060414884672,-0.010238749979182034,1.2559242956985055,1.2405413940138414,0.7989496617554476,3.7389509059940083,3.785365043676717,4.324994945997237,,0.6380535849069913,4.436834871168877,4.331672748528267,inf,0.4978642686081616
214,1.7688982700321452,-0.09434124106838107,0.0,1.0482833374383038,1.0121682229590323,0.7176964253704323,4.155375553991746,3.1903866964010463,,,0.62595550513784,4.32669705262162,inf,,0.6503168004349945
215,0.8312351272481884,-0.016624702544963767,0.0,0.8310529878385459,0.8210457583376002,0.6619167095076289,3.3875588328052895,4.192337623759897,,,0.6509067234006624,4.584278826956715,inf,,0.4782738654608962
216,1.613335034823713,-0.059155617943536146,0.0,0.8371820844012322,0.7737702423951673,0.6780728193885371,2.9788615595910217,2.454536147412495,,,0.6447042257417027,4.799564324016315,inf,,0.7417690024720435
217,2.155563711824373,-0.08622254847297492,0.0,0.8410342391074341,0.7027831900570541,0.6743884414074103,2.254988847995396,2.1097224943948025,,,0.6547956803312163,5.104945973567497,inf,,0.8408522463229422
218,2.301546190522785,-0.153436412701519,0.0,1.1453618752225707,1.116227522911568,0.7244820386160643,3.699308256689346,1.9269534741338776,,,0.6602640781246099,4.772931591450717,inf,,0.6351834132301347
219,1.8048338235762265,-0.06244014729461414,-0.015769318393689006,0.8947742036752564,0.8668676177766396,0.734529885800225,4.004868350680609,4.616957188412188,2.2546170215254007,,0.5677978065141052,4.6576337555238325,2.164963715117998,inf,0.7663392985611279
220,,0.0,0.0,1.744545415247808,1.7735691137562535,0.9199162935430207,4.058380884702397,2.2243368217520345,,,0.49759852643134905,inf,,,0.8569327234080895
221,,0.0,0.0,1.5297274445078748,1.5392203761221723,0.8401340019174226,3.764887229751722,23.89192907143906,,,0.5604843169999094,inf,,,0.8153155254221914
222,1.2564586789990613,-0.02931736917664476,0.0,1.034760829613307,1.0228932778454787,0.708405315192856,4.338149227275088,16.78427719344134,,,0.6008849035917525,4.720456341445888,inf,,0.8880017108378891
223,1.5828852396656161,-0.01582885239665616,0.0,0.7810972927203487,0.7455707988057315,0.7055029922458225,3.512379294699495,3.002910143208893,,,0.5978297680564633,6.089444955468186,inf,,0.8400078798808615
224,,0.0,0.0,1.6457744719921497,1.6282204990333937,0.8394187780761496,3.387753842483823,2.7397210003604475,,,0.5604843169999094,inf,,,0.9326775438844337
225,,0.0,0.0,1.5412888918814456,1.5086533679227567,0.8806000051392799,2.8421128520588987,1.8323233984198621,,,0.6447042257417027,inf,,,0.8972241672969968
226,,0.0,0.0,1.3447663842729864,1.3243566267102473,0.833837960631312,2.0222360870656115,1.8772472131973896,,,0.6425374456860184,inf,,,0.8706466723921257
227,,0.0,0.0,1.3047729728300754,1.286879898572379,0.8162358380026101,1.7974079601852857,1.935847813617584,,,0.5915533975974677,inf,,,0.9226632333319101
228,1.529395204760564,-0.005097984015868546,0.0,0.7845527686878976,0.7717013660637084,0.6289425490906007,2.351081145114171,2.3010668538766033,,,0.585052858160615,7.233177679416765,inf,,0.7514312771726517
229,,0.0,0.0,1.5048710985636633,1.4938036158704837,0.8972704022603778,2.579972391826993,1.6174765425777546,,,0.6380535849069913,inf,,,0.8966327120846181
230,1.9752784945225668,-0.14820946082896286,-0.0229813420296596,1.106188625114928,1.0402110826584254,0.8240086738489025,3.53309130862948,7.667515904934718,3.374021057582785,,0.6425374456860184,4.198224692709493,2.6767407634496534,inf,0.631465821998887
231,1.9000220165733432,-0.12635648595382507,-0.006645055206308959,1.2129328080181594,1.197338137031524,0.8348605406406518,3.687293104869374,3.227056972481483,,,0.6668815377411301,4.36965898586522,3.3243338967428744,inf,0.5959934654697808
232,1.4411025976148857,-0.004803675325382953,0.0,0.8704189690849498,0.8175786415537473,0.6550415582454596,3.960013935586723,3.5407370063933574,,,0.5915533975974677,7.144885072271086,inf,,0.7932814122585689
233,,0.0,0.0,1.0627734403233757,0.9595453231202381,0.7053345316815833,3.1914815591794707,2.5925304997023693,,,0.6333676938231112,inf,,,0.7748270765851998
234,1.4513360655504253,-0.03870229508134467,0.0,1.3963476490856612,1.3740029729846726,0.8215190898969406,4.382230737983703,20.846280995644655,,,0.6097226960127671,4.990832666800076,inf,,0.6725190696199402
235,,0.0,0.0,1.3616662048905412,1.3618736102197062,0.9304813595400244,3.3090477091252457,8.944820940108826,,,0.5748741956352443,inf,,,0.7768001369201527
236,,0.0,0.0,1.0229210080530953,0.9979305191727262,0.7483414429832864,4.1391040370905285,8.358609784058425,,,0.62595550513784,inf,,,0.9316396648483116
237,1.6956116715663312,-0.04521631124176883,0.0,1.2279190003009128,1.2053740632785324,0.7957085524015388,2.9168515692224464,3.4176022010095775,,,0.6284777104787076,5.186974779212663,inf,,0.6657053803062799
238,2.878158811760348,-0.08634476435281044,0.0,1.0641192691700254,1.0323836062091938,0.7531502779050788,3.98130895841713,11.58994758512653,,,0.5915533975974677,5.943733144286792,inf,,0.8457589083206062
239,,0.0,0.0,1.6450814865193533,1.6278530315339925,0.9126947667367031,3.7417337588429707,13.55361333720143,,,0.6403206450210053,inf,,,0.9209368441696575
240,1.0097598379624717,-0.020195196759249433,0.0,1.4722476623246963,1.449457758577121,0.9184313390071729,4.779836062998448,73.61461059505875,,,0.6207552362147116,4.736798628466528,inf,,0.8831794649506761
241,1.069882920012163,-0.06062669880068923,0.0,1.5690578631347532,1.5644207374133932,0.9096426676506462,3.912441186873837,8.197019745258117,,,0.6008849035917525,3.642420046376271,inf,,0.9019477074965763
242,1.701244501904658,-0.062378965069837464,0.0,1.492449103594047,1.47684415072894,0.9110876025854693,4.44288602858665,14.274673719925936,,,0.6180765742263259,4.363532052037717,inf,,0.9066780464902302
243,0.9435354233357105,-0.04751162147302983,-0.015390740082684203,1.3719122995064232,1.3582510431148453,0.889431382163931,4.2914970046772085,4.038629630543472,,,0.6125606311107803,3.3147139217740182,6.9942387388702745,inf,0.8284873241430443
244,1.1518166390384779,-0.11125878531337297,-0.007762267387269749,1.4638771958357297,1.4483180871878472,0.8735819798451259,4.953471694513494,54.43195628998268,2.16587381610973,,0.6403206450210053,3.185279875439685,2.151547345870227,inf,0.6874317496484497
245,1.692621192273859,-0.09027313025460582,0.0,1.2516770610675758,1.2409455303490786,0.8003776179920125,3.9151174069601558,8.058311350508909,,,0.6180765742263259,4.276666119016055,inf,,0.6603909122745084
246,1.0204187523410753,-0.02380977088795842,0.0,1.6503481209838,1.606431596740355,0.9380013215647144,4.215539209185814,17.69584874534101,,,0.581717464821069,4.527180867126397,inf,,0.9139130492196574
247,2.1116314214322314,-0.021116314214322314,0.0,0.9012091282759919,0.8217024607888957,0.7874118369463123,4.024075335753426,5.379140553055059,,,0.5677978065141052,5.982614931831,inf,,0.8771289257760572
248,,0.0,0.0,1.7287353865092303,1.6888773622324047,0.9655861406035184,4.165129745758564,20.27870677880457,,,0.5783247308855777,inf,,,0.8997028221893566
249,1.9695258389080328,-0.013130172259386886,0.0,1.5932502104979296,1.5195324766790503,0.8580420551197674,4.14596950505729,9.12476531189844,,,0.5713653840954815,5.982614931831,inf,,0.670596474439838
250,,0.0,0.0,1.7340780577607395,1.7131377002338588,0.9708482002993541,3.592485862655165,10.51427627835188,,,0.585052858160615,inf,,,0.8895022880569867
251,,0.0,0.0,0.9923688292421063,0.9443771893068414,0.6995948164252347,3.4956487090796697,2.898202074728252,,,0.552929491858785,inf,,,0.8803221019584491
252,1.98429667845827,-0.013228644523055133,0.0,1.223916945897986,1.1869158716955934,0.7922319338423928,3.4409853688028353,2.1907205043631075,,,0.5113665138247345,6.782592136028131,inf,,0.8990180275465587
253,0.6039160468320027,-0.0020130534894400092,0.0,0.4017164427223622,0.3368109362033424,0.5655549048450068,2.854080203320264,2.5094985924711763,,,0.5068466436745385,6.307698521488204,inf,,0.7922057242325466
254,1.4614474748008623,-0.009742983165339083,0.0,1.4357641334119433,1.3894911538636434,0.8497933064745604,3.0296747100328956,2.8789514207801754,,,0.5604843169999094,6.444720319052495,inf,,0.879468121916394
255,1.1161150932675175,-0.007440767288450116,0.0,1.6817530155699123,1.6631104421002048,0.9384190314644217,3.6073407328802447,11.09907584105772,,,0.541134803179459,5.645513566532225,inf,,0.8900862622405363
256,1.1106484842863618,-0.01480864645715149,0.0,1.3690301637633182,1.3272696068767562,0.9039594025962082,3.6255803372356077,2.3448813521737732,,,0.5567373465730988,5.313995179267266,inf,,0.7785626569833805
257,1.7227488202793677,-0.011484992135195785,0.0,0.4702349979183709,0.4049268480613013,0.5635232820388856,3.66578576500216,3.9489681315905116,,,0.581717464821069,6.018493219495901,inf,,0.7398459109356396
258,2.495416333400038,-0.016636108889333586,0.0,1.3203645726417303,1.3062880551645346,0.8157999914574667,2.916554740596574,2.238721623076998,,,0.524519217297268,7.264430222920869,inf,,0.8747491270129404
259,1.0991125388349015,-0.00732741692556601,0.0,1.052615060962488,0.9977291820795926,0.8228659689176822,3.242001762567118,2.4376331575708203,,,0.581717464821069,6.104260041253326,inf,,0.6851196639320981
260,,0.0,0.0,1.4242529438270752,1.4105393880828099,0.8788501028938439,3.616752377362595,5.843660910153714,,,0.48319206230712763,inf,,,0.7872566474082863
261,,0.0,0.0,1.7275919893935956,1.7189936409401947,0.9542759440130244,4.010941237974735,4.522885868100549,,,0.4066654671944331,inf,,,0.8898279870324275
262,,0.0,0.0,1.7272453452353687,1.7182223672895964,0.9646452683937705,3.857734923258086,53.05588793844699,,,0.5287703885177266,inf,,,0.8625858994839126
263,,0.0,0.0,1.6584441934033873,1.666573785971641,0.9447586253434972,4.189580103489548,19.166712624292156,,,0.5068466436745385,inf,,,0.8465883990702634
264,,0.0,0.0,1.6325953965855275,1.6233797263864802,0.9674308547068162,3.708082977721461,8.295743395425966,,,0.4732203808476458,inf,,,0.8823229514131198
265,,0.0,0.0,1.6867357017211515,1.6576002807846224,0.9538322278018422,3.1980465090305557,18.076140805217022,,,0.4302020962658841,inf,,,0.874086452025939
266,,0.0,0.0,1.6524796515820221,1.6309472328998862,0.9563915315065562,3.606344931335792,5.975582460414021,,,0.5113665138247345,inf,,,0.8923037418517685
267,,0.0,0.0,1.4724217722319637,1.4444246153332427,0.9107348328628037,3.191867275497589,3.539952177530524,,,0.5287703885177266,inf,,,0.8614519717100163
268,,0.0,0.0,1.671417097309005,1.6939218536145018,0.9437616869486577,3.3002736966776967,5.514172201455169,,,0.49759852643134905,inf,,,0.8719044366178444
269,,0.0,0.0,1.633703980358134,1.5765945446467704,0.9293683623934025,3.0684391746010924,5.317801799678332,,,0.5158180382284114,inf,,,0.8763127786388119
270,,0.0,0.0,1.6700204860208339,1.6660312983299983,0.9171976281362159,3.014502218164768,8.851421426117938,,,0.5158180382284114,inf,,,0.8953409301637423
271,2.17742195004004,-0.007258073166800133,0.0,1.1572533946705086,1.0642702767202754,0.8315692179439939,3.0709104645920604,2.935860684405071,,,0.5567373465730988,7.881204424696241,inf,,0.9122849602881786
272,,0.0,0.0,1.652051333640165,1.5765500357484705,0.8899084826582251,2.1944435654665644,1.7497151663065864,,,0.5202020156036558,inf,,,0.8795494824913682
273,2.923441659148437,-0.0027428003826258963,-0.016746810678363686,0.6922164699253324,0.6528412946961712,0.6450454718127997,2.6858170128621124,3.0450758214062525,3.576841135925081,,0.5567373465730988,7.824046010856292,2.890371757896165,inf,0.8585492913359096
274,,0.0,0.0,1.1328911693212727,1.0919772410434658,0.7655914667112929,2.4882728732851906,3.675158499609646,,,0.5677978065141052,inf,,,0.8114934355712464
275,2.384457228716135,-0.02384457228716135,0.0,0.9348794203587929,0.882370863341027,0.543529387911938,3.118825928717842,2.6142504961124775,,,0.5604843169999094,6.782592136028131,inf,,0.6128337406753969
276,1.186255426145324,-0.11467135786071464,0.0,1.6516017904334839,1.6116941878780682,0.9362135178452968,7.1499307414980615,40.45161288782073,,,0.541134803179459,2.910778567673827,inf,,0.8423566949749618
277,1.1056250525013231,-0.047910418941724,0.0,1.7290784762955158,1.694892564626705,0.9776804586381861,5.112622472942229,124.69430252811759,,,0.49759852643134905,3.696015969683256,inf,,0.8694574221575077
278,1.2120914837189867,-0.020201524728649778,0.0,1.7501800439756536,1.7349371770144923,0.9703080244605656,4.9531990208880785,279.2391581856608,,,0.48319206230712763,4.573456210498564,inf,,0.8684857396153326
279,,0.0,0.0,1.7225280040079722,1.6967878064625277,0.9620947080941917,5.017768883847539,11.472756091465527,,,0.468121228110369,inf,,,0.8362641551748987
280,,0.0,0.0,1.7426030993778951,1.7354143847258068,0.971203661237788,4.543477438545453,41.06342269148715,,,0.45235697871908603,inf,,,0.8265083275154181
281,,0.0,0.0,1.7562615232613714,1.7771300606814193,0.9789824206881838,4.176433216361682,64.32141338292227,,,0.4629450596409901,inf,,,0.8319845385059564
282,,0.0,0.0,1.758094173795709,1.7428266617186539,0.9742841778861582,4.752630250366619,53.210729075964956,,,0.468121228110369,inf,,,0.8039799716998077
283,4.605170185988091,-0.01535056728662697,0.0,1.4678122797817312,1.4417077604645177,0.8971861550967868,4.264787398581087,15.57492462649778,,,0.5604843169999094,10.308952660644293,inf,,0.8086399654585933
284,1.9237422421452874,-0.012824948280968583,0.0,1.0456924358318642,1.0204881572824007,0.7966020062470927,4.211572551070894,10.463711960780088,,,0.552929491858785,6.653974758206037,inf,,0.6680756087644613
285,,0.0,0.0,1.5132651324497706,1.5130791939794563,0.9089372946793841,3.359878698420185,9.513960730947067,,,0.552929491858785,inf,,,0.866715519333828
286,,0.0,0.0,1.5529759904507776,1.556200385439743,0.8800041289719177,3.9118370467355037,4.9205232038655975,,,0.524519217297268,inf,,,0.9072867224207586
287,1.0796221534674735,-0.01439496204623298,0.0,1.096289756471951,1.0792050411321747,0.6879602216998174,4.80591289429622,13.540344772700475,,,0.5329562494928909,5.263379315186756,inf,,0.8203332060714875
288,2.0003138867958303,-0.04000627773591661,0.0,1.1591248159736116,1.1263076833283008,0.8176948282018257,3.5776743939517046,11.050373040514888,,,0.5978297680564633,5.327631754216812,inf,,0.7238351173845654
289,,0.0,0.0,1.5504177843319966,1.539158179556255,0.886150777812556,3.6114919613234995,3.0575802242220402,,,0.5641709578113449,inf,,,0.9228204319353721
290,1.521801545765209,-0.0751901088845804,-0.011045312042114768,1.0383567990371823,1.0309449532507224,0.7415667218670615,3.5374124305765218,5.23601538739457,,,0.6403206450210053,4.216135619276023,4.793534057238008,inf,0.711525619779178
291,1.8280814734197273,-0.048748839291192725,0.0,1.3042967262876162,1.298242785882155,0.8276420974835769,3.9322990247425285,8.721008604201423,,,0.6425374456860184,5.0410945015809645,inf,,0.5942381912111284
292,1.763365132763993,-0.0999240241899596,0.0,1.149852178248464,1.087780386783288,0.7146875843441914,3.9938915232548764,3.093267991268244,,,0.6727386042041725,4.238985052048367,inf,,0.5782220653658184
293,2.0287295659924385,-0.07438675075305606,0.0,0.8797747045910095,0.8281508237343517,0.7297505104415389,3.228687902412395,2.8396814867942766,,,0.6038851895711802,5.017324282247053,inf,,0.7544661073833271
294,1.7439371625340012,-0.02325249550045335,0.0,0.7299988785126992,0.7018307689375786,0.7014461986586524,4.0452105999225285,8.033240313762064,,,0.6153451465759925,5.902233413380039,inf,,0.6032624537949416
295,1.3543825086883314,-0.018058433449177753,0.0,0.9442527968151363,0.9214062928437492,0.6526352416210688,4.183931943492596,267.98393418040064,,,0.5567373465730988,5.140364400771039,inf,,0.7426813413491337
296,,0.0,0.0,0.21764228072993302,0.11699929969668532,0.6069907683667966,0.6726032523825675,0.7191395071436948,,,0.6309483474627791,inf,,,0.9226030692557026
297,,0.0,0.0,0.1804308202057063,0.13146902835099294,0.5871970358802288,0.6652542608349772,0.8026105994556683,,,0.62595550513784,inf,,,0.8055419291600429
298,1.8915074167500654,-0.037830148335001305,0.0,0.9983883091514081,0.9806680001875748,0.6759157083318181,4.2656042621601555,4.0043571329811005,,,0.6602640781246099,5.357831494080444,inf,,0.8191017749911906
299,2.399851449419899,-0.1119930676395953,0.0,1.0229907414581092,0.9860884328876987,0.708393034307908,3.3080496745649435,2.094783974981441,,,0.648888643467878,5.054935552992836,inf,,0.7210149800426701
300,2.6333507346456386,-0.07022268625721703,0.0,1.0030969614619536,0.960075575019412,0.743684614148234,3.1125597406360757,2.777739737745028,,,0.6447042257417027,5.755075769043752,inf,,0.7880081722725325
301,1.8715699352025845,-0.09581687968229775,-0.010238749979182034,1.1572097619372264,1.1101597673427817,0.7338353307455494,3.7354107482233423,2.607011101135227,4.441838573411685,,0.6584896970785714,4.474141923581687,4.294365696115456,inf,0.6383318030990077
302,1.9067680443100083,-0.11000498338083255,-0.017112886239834684,1.1359129876987957,1.0328984721967558,0.740663571322951,1.4257058179100017,0.29246960663807675,2.5442543575161203,,0.6727386042041725,4.202672439107729,2.2776388250474686,inf,0.5579451410659721
303,,0.0,0.0,0.584157957005197,0.5698617858676106,0.8395978146181071,0.21997785502241185,0.3918612135338997,,,0.6380535849069913,inf,,,0.945819465860824
304,2.2602387489145794,-0.037670645815242994,0.0,0.45124352103909277,0.38218559668599156,0.7865418362688783,1.4952609898897171,0.791072540471081,,,0.6547956803312163,6.11426012458791,inf,,0.7938999360582242
305,1.538340928436445,-0.061533637137457804,0.0,0.8892937859530319,0.8218217661118945,0.7598914744320189,3.131489088689671,1.7543655170918222,,,0.6233814453054027,4.636775525403422,inf,,0.7974860556690613
306,1.860261217143308,-0.06820957796192129,0.0,0.9127283262765362,0.8105475935096895,0.7109702553503893,2.2247812880695803,2.255165689939676,,,0.6652988471865258,4.9032767757757565,inf,,0.7097034958208898
307,0.9149594817200297,-0.009149594817200297,0.0,0.8113733444971478,0.7740523453099518,0.6180474796453346,2.3304222862635213,2.186371147728022,,,0.6547956803312163,5.496768305271875,inf,,0.6199105436583661
308,1.6880189425845538,-0.1406682452153795,0.0,1.3621381587067674,1.3419347861350044,0.8116373218578408,4.659863342040142,2.3008238725674985,,,0.6403206450210053,3.9243205332385522,inf,,0.7013424790711151
309,1.7679225990396081,-0.05893075330132027,0.0,0.9097862854339651,0.869309355062766,0.6693437784838122,2.641503249438089,2.1055785988771833,,,0.6233814453054027,4.774246516032026,inf,,0.6743797260170231
310,1.8324628190779741,-0.04886567517541265,0.0,1.4401996716228627,1.4078294198115238,0.8417899933804633,4.0503119426346315,6.466974106848921,,,0.6403206450210053,4.961845129926823,inf,,0.714052171335272
311,1.5647428284278406,-0.057373903709020825,0.0,1.1694970210355564,1.1237600706274418,0.7960892602756903,4.5779614524347245,4.645230372301007,,,0.6727386042041725,4.703150594348295,inf,,0.6938087377599078
312,1.986609217114912,-0.026488122894865494,0.0,0.6751467911731805,0.4613015821195923,0.6034446246501761,0.9294488958671642,0.6369322516939564,,,0.6097226960127671,5.63924395351863,inf,,0.7419158217848293
313,1.529663585993552,-0.041219745438714525,-0.004670162141092029,1.11420075888931,1.0182619248064466,0.7281363054322848,2.156276668451511,0.7746275796500681,2.198341046532009,,0.6602640781246099,4.939866223208049,2.1636336329001837,inf,0.5796878323601758
314,0.9976777872060967,-0.019953555744121932,0.0,1.2520754849268818,1.20773282245015,0.7642198419821761,3.358382027559881,2.4242663542128624,,,0.6425374456860184,4.720456341445888,inf,,0.799809754670887
315,1.752928393657031,-0.07011713574628124,0.0,1.244630093533931,1.2180858976775855,0.8351458654016078,3.470883555882441,2.7178769636270186,,,0.6447042257417027,4.4529260844314145,inf,,0.4934694487716181
316,1.7635867935183833,-0.0529076038055515,0.0,1.2079598479587745,1.1981477210996092,0.7531355181191219,3.8430832797927224,2.227454153279124,,,0.6727386042041725,4.870873351721097,inf,,0.7339734964331914
317,1.7313962855865506,-0.023085283807820673,0.0,1.1390831402856574,1.1163407298457875,0.7695515573114681,4.363396061224445,4.778109737543207,,,0.6357360191111145,5.617604778415148,inf,,0.6509807701764146
318,2.043967424443057,-0.02043967424443057,0.0,0.9644946048060562,0.839825166153651,0.7759001053202115,2.9307802433706103,1.4397874098598296,,,0.6668815377411301,6.403618643366943,inf,,0.6970961459142326
319,1.6588622048616788,-0.055295406828722624,0.0,1.216355645749017,1.1641408633323695,0.7430880222128785,3.325467612227054,1.5666741360689027,,,0.6566669596287297,4.8022670283642,inf,,0.7331821508139682
320,1.2378743560016174,-0.004126247853338725,0.0,0.7102619537592716,0.6718433882732442,0.5969207450612302,2.4710945842131595,1.9233228169627457,,,0.6425374456860184,6.941656830657818,inf,,0.8860586400168982
321,,0.0,0.0,0.7809362195959675,0.7552662248994123,0.6995987611860192,2.254428928719203,2.648452188981173,,,0.6684167106117298,inf,,,0.8938224950849744
322,,0.0,0.0,0.9399591719573752,0.9033250218686663,0.6871753319829307,2.2696094871145536,2.6222922414493324,,,0.6380535849069913,inf,,,0.920989056836313
323,0.8517522107365838,-0.002839174035788613,0.0,0.6163433675378912,0.5933577823625399,0.5076194171475021,2.189525497083572,2.565041157706226,,,0.6357360191111145,6.555534685392785,inf,,0.8302552221354856
324,2.320686617326026,-0.01547124411550684,0.0,0.6378451797132209,0.5921287039985027,0.6337558279790256,3.042742617222737,3.834673438774128,,,0.6403206450210053,7.330027505406683,inf,,0.7733861891308219
325,2.2607151012957667,-0.037678585021596114,0.0,1.018595795041547,0.9519644577695285,0.7922755593685085,3.4747561544745262,2.767282312048977,,,0.62595550513784,6.032286541628237,inf,,0.6134893512868943
326,2.067604561657022,-0.11371530749813169,-0.010340966201289613,1.2989767075779568,1.2280074035244402,0.792640422868899,3.6154142705096577,2.3060505644109366,2.2312222384437996,,0.675384900321601,4.6588054018207234,1.896729283572062,inf,0.7225339900576428
327,3.1838489584426304,-0.05306414930737718,0.0,1.000181291231832,0.9194778941928956,0.6723103773922077,2.9336586597313397,2.249463333540263,,,0.6357360191111145,5.991464547107982,inf,,0.8191816467014458
328,2.138743202854019,-0.07842058410464736,0.0,0.8569875137571411,0.786558166785987,0.7643783202406615,3.3507631238581213,2.9281613188989137,,,0.648888643467878,5.300542061570148,inf,,0.7856704017614322
329,1.766241677470575,-0.06476219484058775,0.0,0.7331683219237964,0.7224638379849855,0.633238609057292,2.6912033648929747,2.4245764017495723,,,0.6233814453054027,4.909282799835968,inf,,0.7530778516597721
330,1.852700562873286,-0.06793235397202049,0.0,1.4252543166759242,1.4140569807495462,0.818186971734075,3.706815168127651,1.912674855602139,,,0.6528756675646988,4.853631545286591,inf,,0.8014228436668654
331,2.3285195156165455,-0.031046926874887273,0.0,1.027436781809971,0.984344189408814,0.7447646932585008,3.3796733203861393,5.064760708111365,,,0.648888643467878,6.370612346898773,inf,,0.9001816456693303
332,,0.0,0.0,1.1559687880350502,1.1490346673376646,0.699901929785466,3.307295733818007,2.061177213944277,,,0.6509067234006624,inf,,,0.6390782206226641
333,1.9054349998850306,-0.019054349998850306,0.0,1.1313198844316072,1.091868327568762,0.7288517757027347,3.6244753235758584,16.35828957624954,,,0.6425374456860184,6.15006957728462,inf,,0.8372843184912783
334,,0.0,0.0,1.368470036274763,1.3278859085945276,0.8050100990517706,4.440754345352627,5.199235699897147,,,0.6602640781246099,inf,,,0.8656939025239604
335,1.6082098785999674,-0.0428855967626658,0.0,0.9688121131579384,0.8532153158354147,0.7727302818939206,1.480131264687159,0.42693835988338713,,,0.6602640781246099,5.0849997093851185,inf,,0.4833045355100927
336,1.5516325124846808,-0.031032650249693615,0.0,1.1869374052816735,1.1543384351188815,0.7141071547827539,3.5513804843868617,3.555100480952204,,,0.675384900321601,5.198974923215773,inf,,0.8360662939834966
337,,0.0,0.0,1.2889227086997477,1.2650242876170141,0.872453842118327,4.192631463450442,29.566679555659924,,,0.6790044388599258,inf,,,0.7906019400332153
338,,0.0,0.0,1.541349357671818,1.5264176650918557,0.8959926505355656,3.739023776366315,34.75650657622988,,,0.6357360191111145,inf,,,0.9129505604054411
339,,0.0,0.0,0.9124795825824913,0.8838478291230694,0.8139244282101171,3.5269325472337574,2.341197637848813,,,0.6652988471865258,inf,,,0.9292704213504317
340,,0.0,0.0,1.0237075616633744,0.993727568426514,0.6990391931609333,3.85936950081864,21.423649306049747,,,0.6447042257417027,inf,,,0.8556893665159302
341,,0.0,0.0,1.0256646827669234,1.0302753440723218,0.7205375506237529,2.9945271846486015,2.988621034978778,,,0.6547956803312163,inf,,,0.9093749748485448
342,,0.0,0.0,1.3608679880497458,1.3328588487305482,0.8353292672821012,3.8494874562499115,4.8247921100004145,,,0.6207552362147116,inf,,,0.9098048465710349
343,1.0622346894179562,-0.014163129192239415,0.0,0.9184609438338185,0.9195608981095785,0.7633638192375916,3.77798186915743,10.034170747357841,,,0.5883313578629602,5.030838001413775,inf,,0.5663700306081806
344,1.4769513008140598,-0.029539026016281198,0.0,1.1710140976156747,1.1580826289570139,0.7585991699878883,3.4666106009714333,6.607416460055234,,,0.6333676938231112,5.159522074803973,inf,,0.8456134733318732
345,2.015356659624554,-0.033589277660409235,0.0,1.2145387474293596,1.168890768006959,0.78339760025401,4.196445187941293,3.19085956344622,,,0.6528756675646988,5.683979847360021,inf,,0.6795469570514698
346,1.8952279673667238,-0.06580111410507539,-0.010008004589593566,1.2768616105157502,1.203846842122591,0.7135434845962483,2.4386115695998014,1.2295553566595854,5.268882576894391,,0.6309483474627791,4.7457102087670915,3.953804539443101,inf,0.743673775335569
347,,0.0,0.0,0.48391426316314307,0.4506217891215092,0.5501076662804845,1.7583420295196277,1.7941817140293506,,,0.6180765742263259,inf,,,0.6574622850826998
348,2.581689491038431,-0.043028158183973854,0.0,0.6213003411922651,0.5690009561308892,0.6639707056017117,2.2109844423449725,2.158372778135435,,,0.6447042257417027,6.3771270279199666,inf,,0.7302403541477467
349,2.356612857845034,-0.02356612857845034,0.0,1.1026663251664892,1.04636499803131,0.7098355551652769,2.7217712985011784,2.731098035545947,,,0.6447042257417027,6.54775254495073,inf,,0.7185588991052467
350,1.4516492372322307,-0.014516492372322306,0.0,0.9014826665494307,0.8557613384310859,0.7112209995605909,2.7866617257179684,1.5844214115370785,,,0.6668815377411301,6.055706815836335,inf,,0.7564686918394106
351,1.0795791882648815,-0.007197194588432544,0.0,1.1572140679336669,1.1042244860715928,0.7456845276098769,2.6547282588635066,2.1471544774482743,,,0.676637947632344,6.089444955468186,inf,,0.8320745710059276
352,2.517502392351567,-0.05035004784703134,0.0,0.9567064885544068,0.9304049699862065,0.6662207568011586,3.3317665485330927,1.805710886277427,,,0.6284777104787076,6.032286541628237,inf,,0.8256029722939646
353,2.6575010178991634,-0.026575010178991634,0.0,0.8913407100118457,0.7936604114330417,0.7345832923648782,2.325856638965594,1.6748217692026466,,,0.6233814453054027,6.089444955468186,inf,,0.6135769162527651
354,,0.0,0.0,0.9620061914375455,0.9616436010786682,0.7570096058037284,2.720606316465011,2.9119442289087294,,,0.5713653840954815,inf,,,0.9391902524012549
355,,0.0,0.0,1.0636708594513062,1.0249966197283356,0.7293560541667862,2.893216846261858,3.8008761814100076,,,0.585052858160615,inf,,,0.8275337997109744
356,1.7999198273099972,-0.05756820040921996,-0.01442859268317992,1.2573039313598182,1.2352709936156956,0.7512043657860557,4.096237267194735,29.59241339540757,6.007037353511772,,0.6180765742263259,4.700702612709655,5.320567975482857,inf,0.6370196895586528
357,0.9803375445253814,-0.009803375445253814,0.0,1.2121329685749018,1.2000194084177809,0.8005971434855201,4.513232747399498,20.038690411284527,,,0.6668815377411301,5.561126174254678,inf,,0.7665757523024234
358,1.1083568075374868,-0.035471827018925296,-0.012556967974365797,1.1887046095238047,1.1857544470189616,0.7405833286165457,4.038685415564586,3.698817696205194,,,0.6309483474627791,3.8500920476976557,5.611562752559433,inf,0.5361681325596402
359,1.7514123869897875,-0.08757061934948937,0.0,1.2479261394981092,1.2006053010885427,0.7814259958195714,4.5997458428104565,6.347232012806827,,,0.6652988471865258,4.349667011900546,inf,,0.6258785943409645
360,1.7435801291058732,-0.06974320516423493,0.0,1.286727435007509,1.2715519696092403,0.7904968060413722,4.81062281744929,33.84673980535416,,,0.6602640781246099,4.843709422780274,inf,,0.6275478974480397
361,1.8888459343374404,-0.13221921540362083,0.0,1.1021528003834882,1.1060712524518872,0.7711874578254468,5.861114708114685,70.44212895241851,,,0.6357360191111145,4.399059767230122,inf,,0.5999519958713906
362,2.294925850628573,-0.03059901134171431,0.0,1.3481509044866464,1.2430366250616198,0.7445141833951574,3.8185263493488733,3.7845386069843427,,,0.6468212168108125,5.926926025970411,inf,,0.8785912845626728
363,0.7496195600680124,-0.00499746373378675,0.0,1.0647724510596677,1.0521005428153367,0.7094456321413005,3.6936185446557066,3.6260695182543397,,,0.6180765742263259,5.645513566532225,inf,,0.7395572762862109
364,1.353146262744108,-0.0451048754248036,0.0,1.1875879838504648,1.1668255786595256,0.7480744332324486,3.961465317349833,5.886161566772828,,,0.6309483474627791,4.583191279269316,inf,,0.8197832425517558
365,2.6997316216425427,-0.044995527027375706,0.0,1.0275626516052363,1.0215684250200674,0.7442964160218453,3.8031499005063756,7.973473062703404,,,0.6547956803312163,6.410352675548287,inf,,0.783854229030456
366,1.1460275465274086,-0.04584110186109635,0.0,1.0429092381840177,1.0287504796998597,0.6751022924803405,4.084089801034529,4.328672374896188,,,0.6668815377411301,4.170505923187664,inf,,0.825289504568051
367,1.4244571195637625,-0.08884593986896835,-0.006117868101949149,1.1778328234531759,1.154829050405843,0.7501228317859515,4.118729049608205,14.753888883529171,3.7961124655567806,,0.6652988471865258,3.7761332847354967,3.7602306536690144,inf,0.6920928362389924
368,1.2271756081613094,-0.04499643896591468,0.0,1.3291021383299728,1.316977993368695,0.7752177836169845,4.260519319333148,5.4669818161602,,,0.6528756675646988,4.347088583312601,inf,,0.8273213585789598
369,2.092831889879728,-0.034880531497995464,0.0,1.2227132901323654,1.2069510422425278,0.7463650478544658,3.994611934766765,4.253283748765954,,,0.6528756675646988,5.717205494988342,inf,,0.6714700844255485
370,0.8392096735104468,-0.02797365578368156,0.0,1.2399013014772158,1.2117735439662056,0.7643138238171567,3.995753443236995,7.080197481141406,,,0.6333676938231112,4.12893600699172,inf,,0.5569029587493861
371,1.9076524931411922,-0.08518911183669997,-0.003834671176555671,1.0561901853709277,1.040038948106583,0.6784896301387823,5.146825740163963,8.674066734496636,2.334896280755801,,0.6652988471865258,4.647150258228974,2.206537799482887,inf,0.5175830684350335
372,1.207380451749794,-0.048295218069991756,0.0,1.0416748775797635,1.0039262104892441,0.7560890958441241,3.7744088739439356,4.3896614825022855,,,0.6447042257417027,4.389163150243202,inf,,0.5827713843919671
373,1.833503045393026,-0.04278173772583727,0.0,1.3674060119035925,1.3290874259584646,0.8216756321381454,4.12839144133976,19.583513534436534,,,0.648888643467878,5.341456859208654,inf,,0.7483836647461719
374,1.9624299174048228,-0.08503862975420899,0.0,1.1216173244222631,1.1024699479629168,0.7369947551598077,3.556875721139767,3.3492642766807355,,,0.6468212168108125,4.643680040749967,inf,,0.6244639926349514
375,,0.0,0.0,0.367688189427652,0.35798934302244684,0.6916331964310416,1.9525890579706215,2.001268702274515,,,0.6509067234006624,inf,,,0.6653022637080607
376,,0.0,0.0,0.619843971305248,0.5901969913707917,0.5331090705010219,1.6500819391018446,1.4755535099939696,,,0.6207552362147116,inf,,,0.9219696660994308
377,,0.0,0.0,0.5500465643075256,0.5265779940088067,0.5776921583135506,1.152338064462948,1.185468710894311,,,0.6233814453054027,inf,,,0.8713982202097054
378,,0.0,0.0,0.5001506855816177,0.47206883290815604,0.4737571526262388,1.5007285811418472,1.1463482553988151,,,0.6284777104787076,inf,,,0.8108504811140637
379,,0.0,0.0,0.6508022100934976,0.6217011124258447,0.5722196834727006,1.9107535248248897,1.434204249690091,,,0.6403206450210053,inf,,,0.9299929219987976
380,2.6372470199071802,-0.035163293598762406,0.0,0.8693545955376183,0.8539894892629358,0.528149883341089,2.4057929777517137,1.7749363680163466,,,0.6547956803312163,6.54775254495073,inf,,0.8019071097994818
381,2.1335867214476743,-0.028447822952635655,0.0,0.634243182258769,0.5827888826360567,0.669674509371587,2.071101789477303,1.7856974561217096,,,0.6403206450210053,6.3902851124974775,inf,,0.7145845850122743
382,1.9260086693479122,-0.08988040456956924,0.0,0.9675198528164659,0.9360142271405614,0.6871597481801157,2.874054176752644,1.9947691182478011,,,0.6333676938231112,4.7982157061450215,inf,,0.5357033984926819
383,1.2525628419513466,-0.01670083789268462,0.0,1.1720202618500768,1.098005932827147,0.7486363589379863,4.173415071568138,6.028415354622782,,,0.6468212168108125,5.535447159836986,inf,,0.7304400150202166
384,1.6603973987739484,-0.06603544377741838,-0.005915110169452712,1.2712779802357626,1.258840162924328,0.7945129321417397,3.875459255232204,9.409515171653048,2.940978337587187,,0.6713451011121618,4.56808851108356,2.9076508055045167,inf,0.7729642422277581
385,1.2595597428392806,-0.04618385723744029,0.0,1.0698577287972584,1.061155915347645,0.7204069474351047,4.836737906495568,14.23729428309112,,,0.6509067234006624,4.168349975532596,inf,,0.8669000601556955
386,1.4554442218366472,-0.06792073035237688,0.0,1.292267751660473,1.271813924738075,0.7889049456272623,3.7920700030202243,4.364674087419374,,,0.6602640781246099,4.442484603710995,inf,,0.6356563769747908
387,1.6911898394037794,-0.04509839571743412,0.0,0.9268452162680898,0.8999878530767239,0.6746269275949033,2.3647923285706005,1.424642311747189,,,0.6584896970785714,4.886943821753706,inf,,0.7038016961414548
388,2.125257344624733,-0.07084191148749111,0.0,0.6130533921095942,0.581036182217712,0.6699838667303315,1.957165605871867,1.5989675034557296,,,0.6425374456860184,4.992467990140807,inf,,0.7683113526374438
389,,0.0,0.0,0.8699329980908257,0.8285327355223903,0.760276102694717,2.708358049913553,4.160209471717129,,,0.585052858160615,inf,,,0.8519867180162127
390,,0.0,0.0,0.7819217834428611,0.7637015843777183,0.7100620588989959,1.995277570648051,2.35813501844281,,,0.5158180382284114,inf,,,0.6719380933684285
391,2.3025850929940455,-0.007675283643313485,0.0,0.536374488267365,0.5043239653859011,0.6269625494088776,2.6304971230856835,2.0356670902365153,,,0.6068309995095971,8.006367567650246,inf,,0.669921886935383
392,1.821381072425891,-0.04249889168993745,0.0,1.0819890795282705,1.053963299797367,0.7001527384302418,2.8781323315132306,3.0632239968409327,,,0.6727386042041725,5.256962180866123,inf,,0.8586208484083643
393,1.5870328651488894,-0.08464175280794077,0.0,1.2382211898606152,1.199448676461199,0.7733254938456114,5.241940080213322,8.118667030401511,,,0.6528756675646988,4.319156170637007,inf,,0.7615444468097583
394,1.57192082129759,-0.05239736070991966,0.0,1.1608360563499969,1.1362964258516155,0.7467626925177109,4.0860783773522975,3.33050737768298,,,0.6528756675646988,4.930592586422719,inf,,0.5916586090929092
395,1.8526567126338245,-0.03705313425267649,0.0,1.0496943626997408,1.0307401701508272,0.7447835087421454,3.6843078040625112,13.13056730752603,,,0.6425374456860184,5.421112944027964,inf,,0.6404510076591283
396,3.0997429241275967,-0.051662382068793276,0.0,1.2463347882275269,1.2334460866351653,0.7731124946625,3.8559814225643465,3.370075706486497,,,0.6509067234006624,5.898176612684425,inf,,0.7213029835496715
397,2.1608301541348673,-0.12244704206764247,0.0,1.3113372208228926,1.2761124273154065,0.7945553412562855,4.3273928668653605,1.922837489338808,,,0.663668482632973,4.683732508491193,inf,,0.7951972393997383
398,1.2409374078661033,-0.033091664209762756,0.0,1.0750691162045536,1.0546152848493613,0.7067237050457695,4.177666757584816,2.0806730759857217,,,0.6153451465759925,4.706833839764592,inf,,0.6041720970702352
399,1.372327265796173,-0.06861636328980865,0.0,1.361836782764866,1.3438823282850065,0.8178175737350167,4.176420638481854,8.123314640868402,,,0.6547956803312163,4.207140056367445,inf,,0.7827732144248014
400,1.4393327143837695,-0.08635996286302618,0.0,1.049971481646368,1.000226934404346,0.7102152280057447,3.427732209458287,2.8810850959853362,,,0.6713451011121618,4.102376733919365,inf,,0.8162418235874047
401,1.4934822465390227,-0.04978274155130075,0.0,0.8318266434526318,0.7929018293562209,0.6459520783356822,2.3011345572812023,1.8456533727816948,,,0.6447042257417027,4.661152820739028,inf,,0.6580142195236622
402,1.4056742146789463,-0.10776835645871922,0.0,1.0599022023410523,1.040316013874017,0.694239778281333,3.9250268730960736,7.764782682834769,,,0.6425374456860184,3.746979487609146,inf,,0.719684710807825
403,0.4598952130474668,-0.012263872347932447,0.0,1.2687796312175097,1.2633947575525093,0.8169069211551498,4.568201010586948,14.280759171617628,,,0.6509067234006624,4.028556821684098,inf,,0.6719273335340985
404,1.458214535253609,-0.038885720940096236,0.0,1.308786937881984,1.3023690989327525,0.7912283481986597,4.059225753176096,10.4600518845749,,,0.6447042257417027,4.924457597855203,inf,,0.6603428083453198
405,1.126992339373786,-0.03756641131245953,0.0,1.0426938017674245,1.0209751554042517,0.712000689671945,3.2702337502301257,2.4294796997286903,,,0.6566669596287297,4.3565755022443575,inf,,0.8628743723330535
406,1.3985993120022262,-0.09323995413348174,0.0,1.5173376780627057,1.4739600970059534,0.8785046799492545,4.7830349777437675,7.792315940708684,,,0.6380535849069913,4.004503858222312,inf,,0.6489641759194853
407,1.5606107183262494,-0.052020357277541646,0.0,1.110235163241063,1.0808833080596252,0.7550267119598466,3.368860341290113,1.3355429470207607,,,0.6333676938231112,4.56808851108356,inf,,0.6629400582695245
408,1.3067955485376608,-0.02177992580896101,0.0,1.3259886374798229,1.2734742557877703,0.8231489180706475,4.271136792492776,9.002537873056248,,,0.6333676938231112,5.225480042595771,inf,,0.7798181635558965
409,3.757872325600888,-0.012526241085336292,0.0,1.2456712056683925,1.2341493819516864,0.7668608995241409,4.037863575161619,7.585353914256009,,,0.6380535849069913,9.461654800257088,inf,,0.8046350920975808
410,1.398026569454384,-0.03262061995393563,0.0,1.14981334737481,1.1192208757875761,0.7411935996217837,3.9003915041255675,4.129919870892522,,,0.6447042257417027,4.88253529146894,inf,,0.8191856131443201
411,,0.0,0.0,1.1395685490090681,1.0435465727971553,0.7379679763262201,3.6043263622127277,5.090331689843666,,,0.6668815377411301,inf,,,0.7098871228793641
412,1.864373127703664,-0.09640763806684666,-0.0030255954106820915,0.9656927685675206,0.8708126477840873,0.6971188400402817,3.074767889564522,1.8367060699235052,2.586492122572759,,0.6333676938231112,4.360047727955107,2.2517266757605547,inf,0.6074723151396508
413,2.806621615818558,-0.02806621615818558,0.0,0.6270177772912681,0.6077218761457982,0.5624245877114674,1.6678924881496189,1.7205833777670976,,,0.6425374456860184,6.089444955468186,inf,,0.7371097320918149
414,,0.0,0.0,0.5052561751803726,0.45613148749412874,0.64041012996317,1.6013287804462548,1.3309161616667842,,,0.6509067234006624,inf,,,0.9450289479614379
415,,0.0,0.0,0.3855730994658358,0.34675461446324757,0.3330423525482414,1.4168107676963024,1.1953255626757329,,,0.6180765742263259,inf,,,0.5923527765423491
416,0.6733445532637656,-0.0022444818442125523,0.0,0.4799733903014044,0.3980815932747603,0.45031695487754875,1.5026410919295918,1.5396754098791359,,,0.648888643467878,6.3771270279199666,inf,,0.8193811003773556
417,1.8545385157382748,-0.07418154062953099,0.0,1.0858220459554182,1.0237050518789441,0.7292561468386077,3.4628107314384264,2.1947759781856124,,,0.6684167106117298,4.9062752787720125,inf,,0.7735255113034658
418,0.6797227010220365,-0.0074765859184915805,-0.006117868101949149,1.0525268425043446,0.9970055603568735,0.7158720209855779,2.465202633658114,1.3835354648862834,,,0.6425374456860184,4.539590540342109,2.9967733980624014,inf,0.8603880285614547
419,1.3378470559516236,-0.048428924401975236,-0.0006254676495842952,1.2446114881121828,1.2115264085586057,0.6834515707449322,2.820837724447577,2.01905712502159,1.914457058558726,,0.6740851607140061,4.111151680538482,1.782984522608938,inf,0.758169772529485
420,1.3172425173408868,-0.06586212586704435,0.0,0.9408877080570557,0.8540552295347167,0.7263518159348075,3.054430946513811,1.5274715334578963,,,0.663668482632973,4.1526801392350645,inf,,0.51488268336411
421,1.1234052210035692,-0.05242557698016656,0.0,1.2849923291430112,1.2696171899874864,0.8247633922407369,5.267145535084771,19.171358529765254,,,0.6380535849069913,4.0943445622221,inf,,0.6948568913324588
422,1.8813308879688777,-0.038452372187349114,-0.01171645149182096,1.050122554134289,1.0291003447854503,0.7485001454665092,4.343010990485306,15.087205838475828,4.320760641858449,,0.6547956803312163,5.000684963243088,4.209655408733095,inf,0.6602930654439157
423,1.9116657725538002,-0.09558328862769001,0.0,1.0861896371770632,1.0273648636265305,0.7408793336445811,2.675347143105942,1.2797960529208527,,,0.6447042257417027,4.585367558691911,inf,,0.7108214549269773
424,2.779320942397319,-0.02779320942397319,0.0,0.9685835720968763,0.8892764148389356,0.6862442129885603,1.9665097707424188,1.212553598256688,,,0.6509067234006624,7.382213258577253,inf,,0.7799089781293482
425,1.7633192636994184,-0.04425226126700564,-0.014525047522974972,1.0465178064645377,1.022340432421446,0.7415841276018714,3.6553558798251284,3.350928873364589,1.939232346524284,,0.6619902821573977,4.995746681602505,1.8371072892065141,inf,0.6394922438421032
426,2.018843987912018,-0.07402427955677399,0.0,0.929378724218895,0.9041246951147756,0.7725867621950445,3.2572529959331957,2.11726480871028,,,0.6547956803312163,5.161458183830839,inf,,0.6160647156291728
427,1.2458620632203303,-0.037375861896609915,0.0,1.1242248450867922,1.1066000105041416,0.7609505140231422,4.685571910699017,5.511370313631987,,,0.6652988471865258,4.619719967002823,inf,,0.621068840655989
428,1.1847022491292651,-0.06713312745065836,0.0,1.216692452712351,1.2103353530695626,0.7306851771776827,3.593702724570527,2.9695534556809076,,,0.648888643467878,3.85795578415787,inf,,0.8104953870252365
429,1.4534983616140555,-0.03391496177099463,0.0,1.1483374722151536,1.0963895556358025,0.7736831743683902,3.190695293069429,2.3500028475730543,,,0.6309483474627791,4.7342669815447485,inf,,0.5168352293154889
430,0.9815859124079351,-0.022903671289518486,0.0,1.2302329790466806,1.2063413974148731,0.7648350173993905,4.623197237129937,14.450619449404353,,,0.6584896970785714,4.468311003270894,inf,,0.6048737586737624
431,1.982388310782633,-0.04625572725159477,0.0,1.2015978655708526,1.212372376824462,0.7493713010751856,4.522320020391643,6.880243542886522,,,0.6468212168108125,5.2785147392518565,inf,,0.6419829357834149
432,1.8971639398704043,-0.06956267779524816,0.0,1.1590945094532181,1.1350119884019882,0.7248742379442062,2.4427600643898972,1.3485409748844348,,,0.648888643467878,4.799564324016315,inf,,0.4854377451463338
433,2.0431500966939615,-0.020431500966939617,0.0,0.6819423983539543,0.5353750257571972,0.5949322384210715,1.279551294969474,0.9554042378379424,,,0.6447042257417027,6.171122986482453,inf,,0.7644395169513101
434,,0.0,0.0,0.9385303852746409,0.874557746330329,0.7176715252592005,0.7446551716317962,0.561483554147104,,,0.6309483474627791,inf,,,0.9343660641575321
435,1.6721164970733404,-0.05016349491220021,0.0,0.8988346658089305,0.8113266080311081,0.7409124993405178,2.4166862805113816,2.0697347465471077,,,0.6447042257417027,5.104945973567497,inf,,0.7368523899764808
436,1.637192200449198,-0.06548768801796792,0.0,1.1272436520823328,1.0898758106607533,0.7137884560850561,3.7914881378671845,3.037788068509957,,,0.675384900321601,4.185729124023953,inf,,0.7800956309166183
437,1.7917682082018183,-0.07764328902207879,0.0,1.3357383913065206,1.2952455507856013,0.8147811479879965,4.726156960934336,3.641729314293757,,,0.6602640781246099,4.733003557497976,inf,,0.6948972648247419
438,1.4335359237568988,-0.02389226539594831,0.0,0.9352558076258345,0.9279928826532617,0.6644267237727639,3.091404733548678,2.003743546812643,,,0.6602640781246099,5.42867918441128,inf,,0.6449654852037083
439,1.8896708112716156,-0.05669012433814847,0.0,1.1691115469279036,1.1499762472026347,0.8203243896227905,4.161024976327926,4.900584919129768,,,0.6547956803312163,5.121566854803538,inf,,0.6501240964930677
440,1.7287342239238228,-0.060103511766863627,-0.009045857190089282,0.9814793555150233,0.9573795061256587,0.7047764304037688,2.9077558792086915,4.014803803270266,3.944565916050398,,0.648888643467878,4.683732508491193,3.7281001672672174,inf,0.6611181283645116
441,1.383724196520993,-0.03228689791882317,0.0,1.2154312216461352,1.1592101065540015,0.7818364150948424,3.5030594086911506,15.304249542540987,,,0.6403206450210053,4.921404160368313,inf,,0.7822205982270989
442,1.4573943872175306,-0.07652814813878214,-0.0157734963849948,1.1713530188957368,1.1549534337280634,0.7552478586428816,4.35358080041567,20.742364284743196,4.353822497894825,,0.6602640781246099,3.751227782882219,3.613285898595633,inf,0.635515740497346
443,1.7073618161749295,-0.07398567870091362,0.0,1.1946179248815862,1.1972571178861375,0.8162631529878001,4.173286186173204,15.106855559676955,,,0.6447042257417027,4.573456210498564,inf,,0.7250848273491911
444,1.8097522764926854,-0.06032507588308951,0.0,1.157760786401226,1.0949429670484516,0.7962732776015109,3.8353332773838145,3.0471504599905304,,,0.6380535849069913,4.817263901115716,inf,,0.6923646709382348
445,1.8627821010903918,-0.03322616571292711,-0.010238749979182034,1.2679677736961597,1.2490962902136076,0.7236843204307728,3.892744131004115,2.905637599379481,4.051607709875369,,0.6684167106117298,5.269837895226168,3.4986697244709752,inf,0.7430847812546542
446,2.277266735347129,-0.07590889117823763,0.0,1.278491427063117,1.2551746623154367,0.8001166601085953,3.5649531210223206,3.668494777556897,,,0.6284777104787076,5.165341683857237,inf,,0.8326295099648213
447,2.1312233287050057,-0.056832622098800155,0.0,1.0499027020328846,1.0169881155935545,0.6972875966375339,2.4291337594580584,1.2292752420593547,,,0.6740851607140061,5.446559609689129,inf,,0.6488030165650595
448,1.581224909364162,-0.07906124546820809,0.0,1.2992955043221255,1.248110291103802,0.8554569964389237,3.2039368331050477,2.099078795605881,,,0.6380535849069913,4.375823690549274,inf,,0.6778821692866641
449,1.5480897143059362,-0.05160299047686454,0.0,1.3502799159684291,1.3651527556279088,0.8220069416113337,3.878256407987463,2.6116942190270183,,,0.6602640781246099,4.562749470104139,inf,,0.6710012021130723
450,1.6508733339249915,-0.08804657780933288,0.0,1.2205299275831007,1.172314752113649,0.7747612402992321,3.816877074393854,3.009507596858959,,,0.6652988471865258,4.216888914980195,inf,,0.7224001572509016
451,1.1234534311209352,-0.026213913392821822,0.0,1.0834151335631177,1.0665076309006853,0.7084017857129135,3.9558848252303584,2.9340669042329726,,,0.6652988471865258,4.75728590072498,inf,,0.7454842955846773
452,1.3380209358916366,-0.049060767649360015,0.0,1.2353811987548167,1.221983300696096,0.7596460395237312,4.173712994454778,4.381598633867381,,,0.6425374456860184,4.462513885586568,inf,,0.56398705790663
453,1.0883719892603465,-0.014511626523471287,0.0,0.8908875569154755,0.8742559712369589,0.6660673306951043,3.5850979507806233,1.820507179664859,,,0.663668482632973,5.348441753730605,inf,,0.6482873694842078
454,1.4074309267541234,-0.06470896978868203,-0.005662576549024132,1.0588417492002051,1.0433551557663825,0.7546900290215928,4.079508277140664,3.1581441594035926,3.132155314663635,,0.6380535849069913,4.31748811353631,3.082743650543621,inf,0.6924221433222454
455,2.791153289894543,-0.046519221498242384,0.0,0.9505303142314682,0.9050070473820832,0.606255077705378,2.7346277759793756,2.1499589082118002,,,0.6509067234006624,6.248509650097873,inf,,0.7127408248791721
456,1.9878816889452444,-0.04638390607538904,0.0,0.8690657287834106,0.8160254119924653,0.7108565152878317,1.6449041345022088,1.2660564871258404,,,0.6566669596287297,5.403677882205863,inf,,0.6904513423730174
457,1.3453507813837986,-0.008969005209225323,0.0,0.4559699010277448,0.4079945358951694,0.49853541176631017,1.7500085759772261,1.6305030635229918,,,0.6357360191111145,6.295577160955859,inf,,0.7846025789905962
458,1.9008374741296403,-0.012672249827530936,0.0,0.9150049344162837,0.8433104897319378,0.7342432051036465,2.406947236892332,1.990757325380597,,,0.62595550513784,6.403618643366943,inf,,0.7412344500332162
459,1.6415657199428964,-0.1367971433285747,0.0,1.2338345265829176,1.1676105070918354,0.7909255498478157,3.281608058054758,1.6771042383721224,,,0.6468212168108125,3.9941976136171617,inf,,0.7041347567431945
460,1.7660612660301986,-0.09931862075550298,-0.006645055206308959,1.2072880817871672,1.1844541294152773,0.7711880310260484,3.5421374382195006,2.1581384814015214,3.3200170518332053,,0.6509067234006624,4.417308448818521,3.276684433789573,inf,0.77255414161156
461,,0.0,0.0,0.6470807493620437,0.5391197821619683,0.662299477934511,2.349353948143186,1.8765030088713797,,,0.4880666971167561,inf,,,0.8318224226447958
462,,0.0,0.0,1.7117890024261553,1.6761634433910504,0.9396950451513584,3.2291425839614694,5.5696727963393595,,,0.4928685327679205,inf,,,0.8390583070882969
463,,0.0,0.0,1.529254497756514,1.4903609594813862,0.890591830446362,2.815427835699873,3.1914079858408932,,,0.5641709578113449,inf,,,0.8791703827723688
464,0.8059705213261095,-0.00537313680884073,0.0,0.8146126958082107,0.7089077019938884,0.588507958304618,2.623812458517467,3.19590922173263,,,0.5915533975974677,5.816577968801545,inf,,0.90510698565804
465,2.850227342281763,-0.019001515615211753,0.0,1.023908709559226,0.9691169216423103,0.7200408611890448,3.4378748533839416,3.886718057190161,,,0.5451288209179292,7.495541943884256,inf,,0.8700382524747389
466,,0.0,0.0,1.7588306321160116,1.7186040296638279,0.9514223806844403,3.9108865267012987,5.264445923386564,,,0.48319206230712763,inf,,,0.8095475922767303
467,,0.0,0.0,1.7589401425547628,1.7247121893152269,0.9525287612748893,3.6780081618732687,5.1984644281282995,,,0.4928685327679205,inf,,,0.8429915203384178
468,,0.0,0.0,1.7337338762664443,1.7425011440842193,0.9518199043987324,4.647027981289225,11.228545331139571,,,0.5287703885177266,inf,,,0.860011802924645
469,,0.0,0.0,1.7600914255562718,1.7629184059234815,0.9630907735431291,4.081050813216172,24.06053119107331,,,0.5202020156036558,inf,,,0.8467499845148609
470,,0.0,0.0,1.4156752578098455,1.4159365770537744,0.8922593779133731,3.8002305571168664,9.358542667464413,,,0.5451288209179292,inf,,,0.8428745595909399
471,,0.0,0.0,1.7045074159996982,1.685969144759164,0.8963185933340534,3.973701503581115,4.644897183258924,,,0.5022576003740722,inf,,,0.853070180929151
472,,0.0,0.0,1.7768547998626854,1.758019832270176,0.9369254529124648,3.8060168296367953,13.409842609954634,,,0.49759852643134905,inf,,,0.8123310099063162
473,,0.0,0.0,1.7247549547656944,1.6848970376231212,0.9489672645783797,3.7636073735948434,19.739052722458226,,,0.5329562494928909,inf,,,0.8545222478161828
474,2.9311937524164198,-0.009770645841388067,0.0,1.194232679717935,1.159796529031191,0.8253932031153306,2.693341222646232,2.4205403436925357,,,0.5287703885177266,8.63497622707262,inf,,0.8907827316208372
475,2.70805020110221,-0.009026834003674034,0.0,1.0107217552578778,0.9770044645428194,0.6925758321775357,3.595140764053385,6.645120572319215,,,0.5202020156036558,8.411832675758411,inf,,0.9213400430442694
476,,0.0,0.0,1.5288968224021424,1.5033738397507714,0.8848303706667436,2.4904081565360485,1.7052243266551206,,,0.552929491858785,inf,,,0.9025142119923688
477,,0.0,0.0,1.5495402215372736,1.5117764463816012,0.8881508081605094,2.9019551708859663,2.264445326637841,,,0.48319206230712763,inf,,,0.8931288473782584
478,1.3997173814520312,-0.004665724604840104,0.0,0.7470189967043244,0.7227273350817959,0.7181102323649702,2.930127007415782,1.474596703354845,,,0.5748741956352443,7.1034998561082325,inf,,0.8992897808116396
479,,0.0,0.0,1.5611467051172265,1.492063994165046,0.8971722992737866,3.216842358422605,3.0810355852829816,,,0.6403206450210053,inf,,,0.8761223777011012
480,,0.0,0.0,1.4539327169279388,1.4183688127092118,0.8769991085346243,3.349801283014133,3.778574087236787,,,0.6207552362147116,inf,,,0.9323818712717562
481,,0.0,0.0,1.4693339831270444,1.4496793086829591,0.8670872717058046,4.171154392551473,2.3611887247181356,,,0.6309483474627791,inf,,,0.9181924973284532
482,,0.0,0.0,1.551963639635577,1.5208138821102715,0.8746749616285446,3.682217072231897,19.832425166489372,,,0.62595550513784,inf,,,0.9087693401773012
483,,0.0,0.0,1.5506852632162467,1.498859310062393,0.8863805376545055,3.2180377369669215,2.87005207256975,,,0.6309483474627791,inf,,,0.8530855498767839
484,,0.0,0.0,1.592609283605495,1.565128672736151,0.9002360916106329,3.1770821005775187,21.61038565224627,,,0.6403206450210053,inf,,,0.9090579840174465
485,,0.0,0.0,1.469708047578623,1.4182205741689249,0.8779374384360094,3.7556270105994685,3.700184771596971,,,0.6284777104787076,inf,,,0.8977277080349906
486,,0.0,0.0,1.654389977489794,1.638107929792262,0.909911384035875,4.679771136910453,82.26725025748422,,,0.62595550513784,inf,,,0.915060267285912
487,,0.0,0.0,1.7124303601702309,1.6852270874338477,0.9259727231576991,4.264489991923573,9.257198844172267,,,0.6380535849069913,inf,,,0.8962549102169385
488,,0.0,0.0,1.5062131929003675,1.492108699151165,0.8634965107889918,4.017515587622278,66.57085791297868,,,0.6357360191111145,inf,,,0.8810192398475111
489,,0.0,0.0,1.2273252947536792,1.1667880105061506,0.765213006728329,2.866267050118131,3.011001616582187,,,0.5677978065141052,inf,,,0.7197659282783682
490,,0.0,0.0,1.6584381636852334,1.6523538534202444,0.9365595416327402,3.1389424718512267,4.787115725714166,,,0.5329562494928909,inf,,,0.7891429953225451
491,,0.0,0.0,1.1437842033982626,1.0999117957322009,0.7270425318872755,3.0341270127041184,3.4141717557721254,,,0.48319206230712763,inf,,,0.8138839371529684
492,,0.0,0.0,1.7199412574278514,1.7100001420857633,0.9506861823920596,3.292330146691648,3.167006907086175,,,0.49759852643134905,inf,,,0.8443425761282572
493,,0.0,0.0,1.668037445707109,1.6661728819453443,0.9270462441432678,3.076119229241294,3.1603742046549597,,,0.4880666971167561,inf,,,0.8629853828315246
494,,0.0,0.0,1.672644859687983,1.667621502034521,0.9506677065229667,3.234179360236878,3.1050899469602498,,,0.44694259446804574,inf,,,0.8444604654186031
495,,0.0,0.0,0.7079314606000917,0.6515895139592108,0.528058871321369,2.828135238863998,3.3372944334767247,,,0.468121228110369,inf,,,0.8910614076487345
496,,0.0,0.0,1.675170806473024,1.6615525555382555,0.9596851972322882,2.4122435328403715,3.1947590449735905,,,0.468121228110369,inf,,,0.816256019110249
497,,0.0,0.0,1.6680021955151192,1.6435255833393465,0.9223617114074089,1.6954774108746857,1.9632196776213782,,,0.5022576003740722,inf,,,0.8619831437775113
498,2.0471421603762003,-0.020471421603762002,0.0,0.6876456849271516,0.6019262293833965,0.692192021076939,1.8006582513070835,1.8039159328819498,,,0.62595550513784,6.417132362533666,inf,,0.840609924070102
499,,0.0,0.0,0.17941758705641944,0.1571873904065071,0.6239337691156879,2.1166253702805133,2.2513783317638256,,,0.6333676938231112,inf,,,0.8243315036005262
500,1.4411025976148857,-0.004803675325382953,0.0,0.8076935411882555,0.7740795260558985,0.5525933021198167,2.479327085679648,2.2112086591334807,,,0.5158180382284114,7.144885072271086,inf,,0.7749386232444744
501,,0.0,0.0,0.4602571101325466,0.4282739063423178,0.5376852392045405,1.4195333934230574,1.4231142022368628,,,0.541134803179459,inf,,,0.7642063256473385
502,2.8134107167600364,-0.009378035722533455,0.0,0.7757277422408344,0.5991940340084546,0.5609407373875683,1.3669668539293944,1.3024574700382336,,,0.5287703885177266,8.517193191416238,inf,,0.9034329070727677
503,,0.0,0.0,1.6891158377862563,1.672410929388154,0.9221930604778187,3.231064771066931,2.7655105953431005,,,0.47824363442641393,inf,,,0.8788091059905055
504,2.6823965207235005,-0.026823965207235005,0.0,1.0547835127386687,1.0320266496058401,0.7236803174366372,2.892666034605544,1.82425338047365,,,0.5287703885177266,7.202872329921436,inf,,0.7511520006970456
505,0.23151180098472637,-0.0007717060032824213,0.0,1.168289533547336,1.1465717506160393,0.7431737593793101,3.34044565150097,3.54724933948466,,,0.5490601803369085,5.935294275640928,inf,,0.8784154476019183
506,,0.0,0.0,1.2322055395787115,1.198825387076841,0.7809559667051209,3.463756030387663,4.752775443213112,,,0.5915533975974677,inf,,,0.9065115935145468
507,0.4155154439616658,-0.0013850514798722192,0.0,1.1194506958557686,1.0812489460837078,0.7450044834532096,2.912944890100134,6.615404603263046,,,0.5783247308855777,6.119297918617867,inf,,0.8890010465614988
508,2.9311937524164198,-0.009770645841388067,0.0,0.7786933278476712,0.7751393466823634,0.7024937474932019,3.5808410406372713,4.872927867247306,,,0.5641709578113449,8.63497622707262,inf,,0.8773839247967776
509,,0.0,0.0,1.3852017058773336,1.3857255851333352,0.8402642574327734,3.070818444138486,9.325223914458016,,,0.45235697871908603,inf,,,0.8382380420183223
510,,0.0,0.0,1.2824733044762469,1.2588667117169268,0.8658197122847552,3.0619142519331097,3.7620761054684473,,,0.5068466436745385,inf,,,0.8456074960976732
511,,0.0,0.0,1.729489539113609,1.7034593657749304,0.9682568735340438,2.6261613825647103,4.247866129310896,,,0.4629450596409901,inf,,,0.799798153139781
512,,0.0,0.0,1.6698914831361313,1.6366521870382083,0.9281824459278609,2.4205541991899615,3.057673675450725,,,0.4629450596409901,inf,,,0.8242117980210393
513,,0.0,0.0,1.6905289655636053,1.6890295926833907,0.9453652052540776,2.2293389768985876,3.3550168442053425,,,0.45235697871908603,inf,,,0.7887876466438042
514,,0.0,0.0,1.7042290088861225,1.684003378969338,0.9709820203578198,2.1561142226590624,2.445593109190046,,,0.49759852643134905,inf,,,0.8400617551844081
515,,0.0,0.0,1.7455821568838936,1.7335364082557916,0.9605976611726832,2.135483930472609,2.9965283219855876,,,0.48319206230712763,inf,,,0.7960773681340838
516,,0.0,0.0,1.718222359317243,1.6968580856394848,0.9594518812125951,2.110548063335935,3.1391692851675383,,,0.48319206230712763,inf,,,0.8141130663222705
517,,0.0,0.0,0.10060391803536385,0.06461372110880946,0.22798466977061824,2.0182686118557465,2.514254106431477,,,0.5370774965580548,inf,,,0.7783413859956434
518,1.9714463034883132,-0.019714463034883133,0.0,0.6410720144480417,0.6087297818736885,0.5671329001045451,2.179922586232092,2.328802470064918,,,0.5604843169999094,6.555534685392785,inf,,0.5207373060924837
519,,0.0,0.0,1.567327156077329,1.5308097120949888,0.9252844549600155,2.3575065845472176,2.992557951771482,,,0.5748741956352443,inf,,,0.8313211647255525
520,1.355945450244074,-0.009039636334960494,0.0,0.8406867247073112,0.7891332757248682,0.6652071984862632,2.2911924853991246,2.108312459863724,,,0.5022576003740722,6.203558262235607,inf,,0.8934256634055928
521,0.9246589815446716,-0.0030821966051489055,0.0,0.21589812025071783,0.19390590448832273,0.5379793478780132,1.9880484767842919,2.2701317994145214,,,0.6038851895711802,6.628441456200873,inf,,0.5995988111231991
522,1.0124345924270572,-0.0033747819747568576,0.0,0.6497409048939022,0.6175293456675433,0.5226915636002009,1.5984146397871872,1.2687639707688625,,,0.5641709578113449,6.716217067083258,inf,,0.7816665831946636
523,,0.0,0.0,0.8180160226686309,0.7789789711525726,0.6008746770051712,2.5435033337950994,3.011694573311771,,,0.6153451465759925,inf,,,0.6956695588054306
524,1.651128716903626,-0.011007524779357507,0.0,1.1250433890255116,1.102298713088389,0.772182009018142,2.7471557708951,2.9681695382727797,,,0.6153451465759925,6.099297251911198,inf,,0.7761644818074395
525,3.0817251157942986,-0.21807264317425026,-0.00792053198399827,1.0601872177224185,0.9709721995526877,0.8009772285420818,3.128411231208577,2.330380739372055,2.5582715549305073,,0.6425374456860184,5.546778725846536,2.528581713290662,inf,0.507015088431397
526,2.6796302531186025,-0.026796302531186023,0.0,0.4243435935128505,0.40750021528722263,0.47914094559921766,2.285889362253572,2.4074690247291324,,,0.5748741956352443,6.636880324846738,inf,,0.8353934257692881
527,0.916290731874155,-0.0030543024395805166,0.0,0.5754480148208454,0.531310333476607,0.5222508153805105,2.659249257823797,3.2551784556337386,,,0.5947193981915972,6.620073206530356,inf,,0.6137957497649011
528,1.7099971472803404,-0.034199942945606805,0.0,0.5487220011773022,0.45746881037610637,0.5591439554677317,2.5723204572140763,2.6877014496277285,,,0.5783247308855777,5.132802928070463,inf,,0.8845756999572434
529,,0.0,0.0,1.66003821084052,1.6407429530670798,0.9069713602176586,2.330868485074881,2.0352243027937043,,,0.4880666971167561,inf,,,0.8815722084083575
530,,0.0,0.0,1.3081918473883718,1.2146979936481994,0.807339857717286,1.902064109057321,1.7833217390260918,,,0.5604843169999094,inf,,,0.8958680021524732
531,1.568047125366895,-0.02613411875611492,0.0,0.6923303466242577,0.5989224745249175,0.5317658874388593,1.891262217212399,1.594154251853493,,,0.5915533975974677,5.4700287442299755,inf,,0.654181766783289
532,1.581684918096427,-0.045771796565886584,-0.0016787509770062226,1.0732044478998826,1.0300371752207598,0.5900811482984714,2.3721987768296966,1.6950523959638941,1.843389638083961,,0.6125606311107803,4.476093143712949,1.7329747743336275,inf,0.6629324291960541
533,0.8868197875166057,-0.02956065958388686,0.0,1.1807547149143287,1.0779388768986429,0.7844154232597369,3.1591141459685983,1.9207568753432032,,,0.6284777104787076,4.171945808245653,inf,,0.6039759786347181
534,1.281717956317431,-0.01281717956317431,0.0,1.032304379938637,0.9660393071298703,0.788942030042906,3.2747320933802384,4.176735513629193,,,0.524519217297268,5.690537247906181,inf,,0.7972240610851064
535,2.411901047528918,-0.15275373301016482,0.0,1.1890227277491014,1.1746208301394998,0.7466896079328622,4.109447246123297,22.498422933394153,,,0.6584896970785714,4.588640884036881,inf,,0.7815102528261254
536,1.7895267513290913,-0.05368580253987274,0.0,1.174051253365499,1.1377059233905853,0.7648433232139003,3.7676254520361354,3.239780114345455,,,0.6357360191111145,5.14607326499136,inf,,0.7693441127201754
537,1.7036784293333074,-0.09985747095681842,-0.008042162900957717,1.2951866952216529,1.2666898252936158,0.7811698461337256,4.162324015520144,8.584447370570107,,,0.6602640781246099,4.35484390008008,3.7568841832279936,inf,0.6304644141962961
538,2.821041990048654,-0.02821041990048654,0.0,0.925660125805071,0.8993831999090612,0.6167242705029021,2.730671979930329,2.4557467641085973,,,0.6284777104787076,6.698034748000068,inf,,0.7550244047502807
539,1.7205508614823188,-0.02867584769137198,0.0,1.0214874829573302,0.9100546796669159,0.6893222055453387,3.0123564552911106,3.2290933185968775,,,0.6180765742263259,5.7515731384925495,inf,,0.7434282715247822
540,1.0692753295605386,-0.010692753295605387,0.0,0.5884089551020205,0.5597192977096458,0.5941677369407502,1.892814678550161,1.537917716353665,,,0.5883313578629602,5.4833091518978705,inf,,0.6592969846206451
541,1.1386211426611252,-0.007590807617740835,0.0,0.3836885409790031,0.34104577770011646,0.4686182493067452,1.719382209306942,1.9619775268386614,,,0.5158180382284114,5.960827577646092,inf,,0.8255185463568611
542,1.2223304106097368,-0.008148869404064911,0.0,0.835859135420791,0.7333013517899545,0.4262715285233541,1.978607507268123,2.1617774243061767,,,0.5068466436745385,5.787164083595252,inf,,0.6339229105546129
543,2.2697952701710546,-0.007565984233903516,0.0,0.8269874398058142,0.7766441148916184,0.5850910361593122,2.7119654369826844,3.2759694780303223,,,0.5713653840954815,7.973577744827256,inf,,0.8049452715924537
544,,0.0,0.0,0.9066905151757614,0.8594922470327098,0.6252740612325709,1.6575661896205738,2.278621287742603,,,0.5604843169999094,inf,,,0.7724398052336245
545,,0.0,0.0,1.4440489906126963,1.3799360978369652,0.861997602001161,2.713148286709429,3.138979063456061,,,0.581717464821069,inf,,,0.824399509306277
546,,0.0,0.0,1.483646781460204,1.4477738738163637,0.8714559210624128,2.4524838860170517,2.7268603465430243,,,0.5915533975974677,inf,,,0.8224848401989895
547,,0.0,0.0,1.598691165715195,1.5460962672316134,0.9176801289123857,2.811670380356666,2.531534440586801,,,0.5287703885177266,inf,,,0.847855668655631
548,1.8119621765455745,-0.006039873921818582,0.0,0.9829642700411539,0.9450026979394602,0.7617076421964402,2.332922169262786,2.5240256857905403,,,0.5490601803369085,7.515744651201776,inf,,0.8641873859058337
549,,0.0,0.0,0.9311363207714525,0.9007881578332527,0.7292643351152862,1.9256118952246746,1.9065892787784868,,,0.5287703885177266,inf,,,0.8124350831164562
550,,0.0,0.0,0.11826719857387902,0.08708773822835066,0.5969778386373105,1.5695037153376956,1.2113113638855344,,,0.5677978065141052,inf,,,0.6634530405742668
551,2.0928645620119766,-0.0069762152067065885,0.0,0.5877262199464809,0.540428843904893,0.5051664988767197,1.7285814066295366,1.4904760631694516,,,0.5158180382284114,7.796647036668178,inf,,0.5682819483319503
552,1.030953640194295,-0.003436512133980983,0.0,0.22490934442804392,0.1968112874264817,0.5177617898506011,2.302082074900182,2.017231509219442,,,0.5022576003740722,6.734736114850496,inf,,0.6759026662229187
553,,0.0,0.0,0.37680460798978205,0.3355037003493704,0.5781191108305862,1.3214512632892477,1.2338191443720057,,,0.5370774965580548,inf,,,0.9174337843049968
554,1.909064294795567,-0.03181773824659278,0.0,0.9170199125964297,0.8929417304425725,0.6736268770617836,2.1354125486926248,2.365212211543499,,,0.6153451465759925,5.866301404153976,inf,,0.8078137068535477
555,,0.0,0.0,0.4536023868437049,0.4191714436922669,0.7479491723637486,2.4296138441470507,2.8220833602491724,,,0.6333676938231112,inf,,,0.6799564553856691
556,1.0690534864265653,-0.003563511621421884,0.0,0.7653319104607502,0.7486370473234019,0.6945729600720112,1.905835159028002,2.33941817450651,,,0.6425374456860184,6.772835961082766,inf,,0.6504044406074746
557,,0.0,0.0,1.4894223850283543,1.4737858765542773,0.8714272017331375,1.9322019259828531,1.8880246165423855,,,0.6233814453054027,inf,,,0.8123725576973289
558,,0.0,0.0,1.379155340541945,1.3521874464056916,0.8264803285063813,1.6926327395536593,1.8129839041158793,,,0.5947193981915972,inf,,,0.8341629777600295
559,,0.0,0.0,1.5721305770060334,1.5303523786706448,0.8881403008964328,1.274398802137843,1.664114574014651,,,0.5883313578629602,inf,,,0.8338504710231186
560,0.9515317693933647,-0.0063435451292890984,0.0,1.1509289345912472,1.119841026227313,0.7679497072794861,2.228232627733954,1.8828122636377014,,,0.6125606311107803,5.960827577646092,inf,,0.8806059268833258
561,,0.0,0.0,1.5347313559985327,1.5280941722509984,0.8664238735341259,3.3117716677977893,2.7267101616197023,,,0.6380535849069913,inf,,,0.8984423288883251
562,1.9364011461374324,-0.01290934097424955,0.0,0.45148381505581386,0.40038615450794973,0.6150704037161818,2.695799627875726,2.9827387506132528,,,0.5978297680564633,6.351319143964094,inf,,0.7299675983120695
563,,0.0,0.0,1.479999252058124,1.4041237232722839,0.8568884438112577,1.1942510898344707,1.1377472241256326,,,0.5022576003740722,inf,,,0.8030106840660687
564,,0.0,0.0,0.7501359429386973,0.6777549776079046,0.6566306125205397,1.518548466011566,1.3618977454856689,,,0.5490601803369085,inf,,,0.7214343803294258
565,1.7968181515196098,-0.047915150707189595,0.0,0.6628755167456343,0.5960829366134279,0.6666062004697627,2.1873883214226386,1.5486122138186995,,,0.6008849035917525,5.155661066146513,inf,,0.7938138274693264
566,1.779287796281452,-0.05337863388844356,0.0,1.127805524415123,1.0383382340228817,0.7546195251405152,2.8232963496128485,2.123767754045935,,,0.6528756675646988,5.207055775269712,inf,,0.7905305300671043
567,,0.0,0.0,1.0296102295499199,1.0200028837523025,0.6058983336917875,1.4313896716655017,1.0710916445657097,,,0.6528756675646988,inf,,,0.8770445735393811
568,,0.0,0.0,0.12463234025682715,0.09673391349092585,0.1743974758417658,1.0116249765803091,0.8677558315881917,,,0.648888643467878,inf,,,0.8488185459987638
569,2.3632328835157184,-0.1260390871208383,0.0,1.2703400986945832,1.2415698509991637,0.8256686026470532,3.4713759233651023,2.547957578023665,,,0.6602640781246099,5.2234160583749185,inf,,0.7992264418378783
570,2.1041665446767075,-0.03506944241127846,0.0,1.1587535798496342,1.1071568846248787,0.806776955820965,3.26503002288013,1.5066609312844075,,,0.648888643467878,5.866301404153976,inf,,0.5552882333458257
571,1.1586019973115809,-0.011586019973115808,0.0,0.9415791449037203,0.8882525160977688,0.700034390970145,3.4632253787090543,2.7933360674208627,,,0.6468212168108125,5.700454684563526,inf,,0.7862699006367286
572,1.849341435458969,-0.05548024306376907,0.0,1.2023953162174865,1.1638593856314858,0.7681761517852687,2.8798185583100486,1.5013356122714483,,,0.6699045166045591,5.165341683857237,inf,,0.7176455156146367
573,1.2401087974039262,-0.016534783965385682,0.0,1.0471396890598055,0.9769036314421834,0.7559765252285499,1.3623410605893918,0.29359417608467697,,,0.6619902821573977,5.316255067234704,inf,,0.685508303009526
574,,0.0,0.0,1.5694201080442114,1.5439403248365793,0.9090922180077203,0.07864994253290304,0.18617365755111148,,,0.6528756675646988,inf,,,0.9250425447246605
575,2.000731876831057,-0.04001463753662115,0.0,1.3130224122506262,1.2432865925003396,0.8102654037108004,2.813539240249064,0.5753249353829721,,,0.6333676938231112,5.336827221309912,inf,,0.7219457784418051
576,1.4903102369266295,-0.014903102369266294,0.0,1.2916479870282456,1.2762078982519844,0.8049040285980325,3.1360673196385096,1.4916732420130971,,,0.6684167106117298,5.181028280024937,inf,,0.607985137178433
577,,0.0,0.0,0.7958447500256305,0.7701737965747059,0.7172176099103561,2.785006278561733,2.9727499832352264,,,0.6468212168108125,inf,,,0.7001365875061569
578,,0.0,0.0,0.9777534557793033,0.9367135714459052,0.6484016309852031,2.135992999830994,1.5936462889575695,,,0.5947193981915972,inf,,,0.9459589806407429
579,1.3297947088618716,-0.013297947088618716,0.0,0.5994761631589101,0.5813074043779788,0.5071314559046968,1.9348631613891252,1.70710967210962,,,0.6284777104787076,5.510411081675661,inf,,0.893450966078482
580,0.3763070696967463,-0.002508713797978309,0.0,0.6269707952063311,0.5829514332128368,0.521643203097615,2.4968005008628236,1.9092750567230006,,,0.6357360191111145,5.38411735635137,inf,,0.6974825465605894
581,1.6267456612026547,-0.02168994214936873,0.0,0.7605398049783361,0.741771002651253,0.7216912326536156,2.60173234781722,2.590673531654451,,,0.6447042257417027,5.831615846166086,inf,,0.8352933142084419
582,1.8971199848858813,-0.006323733282952938,0.0,0.8325434339096347,0.7998512257031999,0.6485884774566238,2.375483633768101,2.2055264700522654,,,0.62595550513784,7.600902459542082,inf,,0.7869183316378692
583,1.4323520055737935,-0.009549013370491957,0.0,0.5326513484721108,0.4349090252619407,0.5613237560533898,1.8176721987397757,1.8201728209770605,,,0.6425374456860184,6.403618643366943,inf,,0.5916269839794924
584,1.0497797991436169,-0.010497797991436167,0.0,0.6075830073336737,0.5366739228810983,0.5998906486728797,2.1862734582567764,1.9207525313455505,,,0.6403206450210053,5.39629777490824,inf,,0.6271959956965555
585,0.9205098719410534,-0.006136732479607022,0.0,0.7349237309347644,0.704756087964973,0.4696703505777505,1.6480670505529023,1.298316144128481,,,0.6684167106117298,5.926926025970411,inf,,0.7889985729073734
586,2.0661963149298153,-0.006887321049766051,0.0,0.6760357363388334,0.6388668224925389,0.6122316305138407,1.9983954840411902,1.6091529500773665,,,0.6740851607140061,7.769978789586016,inf,,0.7912199865059708
587,1.3425363159604708,-0.026850726319209414,0.0,0.8357088815799739,0.7960543506135301,0.7413915935367,2.604054186260784,1.9508123648785372,,,0.6468212168108125,5.025748931906304,inf,,0.8327153880670236
588,1.3864186411898387,-0.02772837282379677,0.0,1.1059418458595085,1.064428785030756,0.785389360930851,2.5525675045750504,1.2072333504298096,,,0.6619902821573977,5.104945973567497,inf,,0.6200558186961636
589,1.3986657949534882,-0.04195997384860464,0.0,1.1567545186177672,1.0256791415646558,0.7395537790471403,2.40698110721936,1.1169102772019595,,,0.6068309995095971,4.79552391447931,inf,,0.7453870508983312
590,2.1196068903051852,-0.021196068903051854,0.0,1.0545779168323903,1.0026031256669827,0.7078099653093803,3.37781572865734,4.505192112012729,,,0.6403206450210053,6.689066078017308,inf,,0.8721860300977705
591,1.802813522922897,-0.05408440568768691,0.0,1.1146136137465812,1.0572177980150947,0.7494243423885163,2.674356430661114,1.9617506654227213,,,0.6509067234006624,5.235864351901487,inf,,0.8780717083658746
592,1.9067999484703724,-0.05720399845411117,0.0,1.004584008096342,0.9841158316348841,0.5503367187689834,2.556184667889987,1.7125535353023746,,,0.6233814453054027,4.88547215114225,inf,,0.782210085213449
593,1.7071413106054054,-0.004206709589427542,-0.00717423248127516,0.8063841762779059,0.7855052814181437,0.5602768576840337,2.3873210991965474,1.804097838043361,1.1384545017719734,,0.6684167106117298,6.707084583519986,1.1451323043030026,inf,0.7218430475344565
594,1.7485749721429553,-0.017485749721429553,0.0,0.5439955717153462,0.5091185528604573,0.623047590340165,2.161849141589957,1.4937285424509845,,,0.6284777104787076,6.260070472498949,inf,,0.7880460910180698
595,1.6125331054757446,-0.03762577246110071,0.0,1.0587444250538556,1.0026431526409763,0.7472127074897353,3.3953582012371997,2.627822532567457,,,0.6403206450210053,5.318520073865556,inf,,0.8378185136515147
596,1.5335711550903832,-0.015335711550903831,0.0,0.7959849683441049,0.7400272045809316,0.73777452709876,2.421141034152803,1.7837750009790705,,,0.6652988471865258,6.129450290081885,inf,,0.7460793983372828
597,2.9311937524164198,-0.009770645841388067,0.0,0.7964467208927344,0.7506049945608938,0.7147433924855199,3.2094300058790024,4.549184219163404,,,0.6699045166045591,8.63497622707262,inf,,0.8614521738602144
598,,0.0,0.0,0.8060410273251929,0.7754080104246219,0.6700736832499407,2.351746513854797,1.6587970068680016,,,0.6668815377411301,inf,,,0.7947043055491891
599,2.8134107167600364,-0.009378035722533455,0.0,0.5476242530257714,0.5014888638863784,0.706152984570567,2.7306175325497417,2.523421894387756,,,0.663668482632973,8.517193191416238,inf,,0.8530509853925101
600,1.9510935464260193,-0.05853280639278058,0.0,0.8923059074975827,0.8592667930553126,0.6110125432679329,2.420564359658243,2.245350001184376,,,0.6468212168108125,5.388971734816168,inf,,0.813059026820998
601,1.9803416501166373,-0.019803416501166373,0.0,0.7849650471687624,0.7135006627099605,0.7057708704497494,2.638725859801584,1.6188934837408486,,,0.6713451011121618,6.417132362533666,inf,,0.7159919897306911
602,1.6328468045632596,-0.05987104950065285,0.0,1.0680961349860674,1.0177753142151114,0.7697180259239171,2.922298863735945,1.5883468349323495,,,0.6403206450210053,4.829703591591356,inf,,0.6915854842592726
603,2.318592556809454,-0.04637185113618907,0.0,0.9754816861368338,0.9352728846771657,0.6658535377820464,2.182759093496607,1.216262471118383,,,0.6684167106117298,5.820316290912153,inf,,0.6569996980795406
604,2.0946048478534935,-0.02792806463804658,0.0,0.7871450219431049,0.7552440841692469,0.7628592365033833,2.6497687363468754,1.7124028452343003,,,0.6740851607140061,6.129450290081885,inf,,0.6102118355824478
605,2.3587362742643307,-0.10366548341392152,-0.006408876051747241,1.2615509111011027,1.2594251260725677,0.7967288653431743,4.137865604633331,3.4474912086993648,2.400741351778597,,0.6652988471865258,5.362559635276391,2.2608156801177506,inf,0.5374247887369767
606,2.166079186852887,-0.0649823756055866,0.0,1.1314664756269954,1.0955800414738177,0.7632439562424082,2.9720527826890866,1.3826949302869314,,,0.6207552362147116,5.235864351901487,inf,,0.7780227033759819
607,1.2330803413157452,-0.028771874630700724,0.0,1.2598872750237136,1.2287228537644934,0.7652923920900417,3.25241610219766,1.6494494939580169,,,0.6528756675646988,4.759876575749073,inf,,0.8656994187887943
608,1.1613849541349799,-0.030970265443599463,0.0,1.4121577644442826,1.3565433801377191,0.8264309333308799,3.719545755692684,5.007574445718367,,,0.6509067234006624,4.560621809727023,inf,,0.6897344848977617
609,1.1577169738843265,-0.04700100181497303,-0.003166733720014454,1.1401043347618032,1.130645370415243,0.7571483966001967,4.041370751382438,9.80864971760363,2.4885916342925176,,0.6403206450210053,4.193796641193761,2.4601781170122767,inf,0.8055870427769594
610,1.0423915694189303,-0.031271747082567906,0.0,1.4748053661436606,1.4371760502232631,0.8478774861073043,4.030372144267024,6.052840508681339,,,0.6357360191111145,4.347088583312601,inf,,0.7170841265886079
611,1.9400893779951218,-0.06466964593317073,0.0,1.2868363771868219,1.2746939396591128,0.8194244581106844,3.7965947591850995,1.9325044052638973,,,0.6602640781246099,4.909282799835968,inf,,0.6344823162512712
612,1.0220516483635842,-0.04151318365786326,-0.009589398760315953,1.3928001036010187,1.3982705228239087,0.7605999292717115,4.141477996697433,4.9638275941555,4.9483204112598305,,0.6180765742263259,3.619353391465326,4.95499821379086,inf,0.791324464710997
613,,0.0,0.0,0.6733665660010987,0.6482672344326779,0.6041811869690591,1.6336509724423847,1.3033753144708704,,,0.6357360191111145,inf,,,0.8703518092701434
614,2.148814201847529,-0.08595256807390117,0.0,1.2197743640449672,1.1734865826818588,0.8135483819335678,3.4338828604472864,1.840320430373831,,,0.6566669596287297,5.029138765660815,inf,,0.6763386649559855
615,1.912780251673332,-0.08121041990048668,-0.01442859268317992,1.1648224629293455,1.097141755893741,0.7731309430471842,3.398298242746079,2.1611513138155725,,,0.6652988471865258,4.710530701645918,5.310739886546594,inf,0.8063915304333041
616,1.5437721490688194,-0.015437721490688195,0.0,0.9836829069576883,0.938965418423564,0.7807310004924796,3.228202169694164,1.8542505519237809,,,0.6357360191111145,6.139706790249074,inf,,0.7842854248862935
617,1.700556268850896,-0.06802225075403584,0.0,0.9103630806516295,0.8818512252966323,0.6458703639203363,3.4299521052340225,1.7911724424700477,,,0.6309483474627791,4.4586677269990895,inf,,0.6394707795805095
618,2.8017272274240295,-0.09339090758080099,0.0,0.8673251432363314,0.8420181311791742,0.6541620214309115,2.5133859735756205,2.024017986174576,,,0.6380535849069913,5.654992310486769,inf,,0.6976162610012635
619,1.2660846076128724,-0.029541974177633688,0.0,1.2785854236280978,1.2493951786128805,0.7830564746000948,3.9008460004105245,6.800225160329891,,,0.6790044388599258,4.731741727677554,inf,,0.8160342333443326
620,1.8588330285614891,-0.07435332114245957,0.0,0.9571337277228706,0.9223665368928823,0.7547505209341163,4.385615746020897,2.586751611284276,,,0.6584896970785714,5.0156478359198005,inf,,0.6248929652407763
621,2.2490392554072933,-0.050724366983855115,-0.016746810678363686,1.1731241892155746,1.1571366096157882,0.7238571100141619,3.9829616369948573,2.930040409700101,,,0.6619902821573977,5.521460917862246,5.19295685089021,inf,0.7234215162246
622,,0.0,0.0,1.3921031655372529,1.3422327109376209,0.8311660675051017,3.4984684356404863,2.7534355194747757,,,0.6468212168108125,inf,,,0.7450017888131814
