,hr+bvp_XAp0,hr+bvp_XAp1,hr+bvp_XAp2,hr+bvp_XCond1,hr+bvp_XCond2,hr+bvp_XDist,hr+bvp_XFuzz1,hr+bvp_XFuzz2,hr+bvp_XK2_1,hr+bvp_XK2_2,hr+bvp_XPermEn,hr+bvp_XSamp0,hr+bvp_XSamp1,hr+bvp_XSamp2,hr+bvp_XSpec
0,,0.0,0.0,1.1933950487167932,1.1660718464476763,0.7750782133968949,1.1881472961626796,1.5197657980144006,,,0.5713653840954815,inf,,,0.8186472115545299
1,,0.0,0.0,1.0595600432436827,0.9956123734599556,0.7201666504142218,1.142807862480435,1.1504000037286837,,,0.524519217297268,inf,,,0.8255333680745338
2,,0.0,0.0,0.4593623789878373,0.28051964670208807,0.48019466127928195,1.4233668140887599,1.7376084802417926,,,0.5783247308855777,inf,,,0.9270554915183638
3,,0.0,0.0,0.7099327184374518,0.6930328499784174,0.6413628111356613,1.7683519928453015,1.9177032106760643,,,0.6038851895711802,inf,,,0.826934682682264
4,,0.0,0.0,0.9653761246650187,0.8974290099680532,0.6848455451250105,1.9395936986532347,2.169912672614603,,,0.6125606311107803,inf,,,0.931827961360345
5,1.6091293463976035,-0.03218258692795207,0.0,1.1348938249258604,1.1147987826447727,0.8211412679633,3.260876707285694,2.194085220985652,,,0.6468212168108125,5.307245997292338,inf,,0.6821283834783988
6,2.5145693828304077,-0.016763795885536052,0.0,0.7783310323787238,0.6813981774513521,0.7004668244322909,2.6902810564861093,2.750936010768795,,,0.6333676938231112,7.495541943884256,inf,,0.7652074288740606
7,,0.0,0.0,1.2449251496250742,1.2398280570759739,0.7815984852874378,2.5397898808522954,2.334419900011303,,,0.6038851895711802,inf,,,0.8991787041903819
8,,0.0,0.0,0.604919043726881,0.5921349678281163,0.6172148507085166,2.5120393666351233,2.4884640073646698,,,0.6038851895711802,inf,,,0.633964570117443
9,2.5053176470481278,-0.016702117646987518,0.0,1.284756968065681,1.2410039449126073,0.7988086007441433,3.4597191406551295,4.23620762688858,,,0.6380535849069913,7.4002317640799316,inf,,0.6939293993124035
10,,0.0,0.0,1.1032743552568725,1.0814999855694878,0.7594778758426902,3.117318811139341,2.313293125784914,,,0.62595550513784,inf,,,0.7621557301968219
11,1.5966315424661186,-0.015966315424661186,0.0,1.1527306711988623,1.1009728160293366,0.7424275741424657,3.404562092227036,5.880662032545368,,,0.6528756675646988,6.089444955468186,inf,,0.6597899210957928
12,3.13588325613107,-0.02090588837420713,0.0,0.9647382142280254,0.9145858766284295,0.6731120262948297,2.806266583252134,2.1250403691909416,,,0.6284777104787076,6.941656830657818,inf,,0.8972527758904707
13,,0.0,0.0,0.8063638282088026,0.7716356090158267,0.6902439543284875,3.3136896457182403,3.137135921125514,,,0.6468212168108125,inf,,,0.9278094102523131
14,,0.0,0.0,1.2301735946296102,1.2184719998444842,0.7524488487798783,3.8798414723644528,15.89038640752684,,,0.6233814453054027,inf,,,0.8942503066632119
15,,0.0,0.0,1.17581640491983,1.1111336629886164,0.7163706326448632,3.6846359277266263,13.549392167715453,,,0.6380535849069913,inf,,,0.8738455765275972
16,,0.0,0.0,0.9763139749489657,0.9285925911070104,0.7497410162077225,3.0015341681476997,2.2247221906418355,,,0.62595550513784,inf,,,0.7311668861449766
17,0.5592034579981446,-0.0037280230533209644,0.0,0.9435135483684933,0.9243360387826052,0.6574592984223235,2.3049181679271196,1.3435614838734367,,,0.6357360191111145,5.569834502146462,inf,,0.8463143433296211
18,1.0690534864265653,-0.003563511621421884,0.0,1.045019425978761,1.037710544023413,0.7559295928204235,2.1029427528335987,1.5549207200539814,,,0.6509067234006624,6.772835961082766,inf,,0.9439032409971543
19,2.9311937524164198,-0.009770645841388067,0.0,0.6539087940507252,0.5714902799549729,0.7442122682110082,2.081640230397922,1.52986686486559,,,0.6097226960127671,8.63497622707262,inf,,0.6999456213281618
20,2.610070568285611,-0.04350117613809352,0.0,1.101636350531871,1.027303324423622,0.6618735312363688,2.0978910372884423,1.7133126629521214,,,0.6357360191111145,5.73081114704412,inf,,0.8397808969658392
21,3.757872325600888,-0.012526241085336292,0.0,0.6493787521305844,0.6335997086043107,0.5079400369571838,1.9080762361978931,2.0381604497751167,,,0.6207552362147116,9.461654800257088,inf,,0.7564228405500574
22,2.2446868059729996,-0.06734060417919,0.0,0.9947307434630518,0.9189248597929275,0.6462815473859174,2.9065514883375707,2.5144664808774215,,,0.648888643467878,4.892852258439873,inf,,0.6496805636454807
23,2.5257286443082556,-0.008419095481027518,0.0,0.8782330446589975,0.8472604956599122,0.700419952549687,2.491662163901244,1.6184004805833978,,,0.6652988471865258,8.229511118964457,inf,,0.701869178194882
24,,0.0,0.0,1.0183761805828488,1.0018521637343045,0.7309452008689994,2.093857220403805,1.7973810135346544,,,0.6528756675646988,inf,,,0.9436907105840968
25,3.674857565685432,-0.03674857565685432,0.0,0.9821639011031257,0.9566487703877506,0.6031729831316098,2.707342071216214,1.7817260692615577,,,0.6207552362147116,8.1886891244442,inf,,0.6182466355000142
26,,0.0,0.0,1.010010666299668,0.9564304452202432,0.6930006482946899,2.2992323947842177,2.7746866422010363,,,0.5748741956352443,inf,,,0.9007513050922961
27,2.2697952701710546,-0.007565984233903516,0.0,1.0905948265508212,1.0441253336501588,0.7259449978444282,2.6920661677044544,2.3009283732428796,,,0.6468212168108125,7.973577744827256,inf,,0.8775603250782715
28,0.7201758529478646,-0.002400586176492882,0.0,0.44615507142472144,0.390117133893352,0.6079682427694515,2.206254950370521,2.2940370804159143,,,0.62595550513784,6.4239583276040655,inf,,0.7799372615206412
29,0.3519243411801345,-0.001173081137267115,0.0,0.6440910916199964,0.44744253507301157,0.5142868156622017,2.2608309781863953,2.0999281936963854,,,0.6380535849069913,6.055706815836335,inf,,0.8139990033044167
30,0.49977578757940566,-0.0016659192919313522,0.0,1.0656259410564357,1.0025970307731789,0.7026940241876282,2.354944025493911,2.0420860066424886,,,0.6207552362147116,6.203558262235607,inf,,0.8523304649752763
31,0.7339691750802004,-0.0024465639169340015,0.0,0.6312374018708281,0.5558302815424615,0.5520194767724209,1.923274763870688,1.943335619320213,,,0.5677978065141052,6.437751649736401,inf,,0.6949088589735705
32,0.293840237152797,-0.0076636014124932695,-0.00017213824491465,1.2071412528634753,1.1572751894948345,0.7520692550017806,3.877845769445464,2.3317375480002536,2.0738270034701367,,0.6528756675646988,3.867474629167077,1.8911160819841188,inf,0.5923091755048998
33,1.4536056654001113,-0.07752563548800594,0.0,1.3314789539263223,1.3108392498292003,0.8285110347157602,4.427803443339316,36.945359666108374,,,0.6380535849069913,3.944201903792381,inf,,0.8238265568739401
34,1.463855018994482,-0.09780029210639703,-0.01442859268317992,1.4237813536803934,1.40007242242061,0.8266600681076188,4.858845540800644,7.434423523758435,,,0.6699045166045591,3.872268246868314,6.149002341324198,inf,0.6488189965249691
35,0.9261151996463055,-0.027783455989389166,0.0,1.0128679153983935,0.994988224886438,0.7947218495319407,5.391233839411756,26.569197384408376,,,0.6468212168108125,4.371416455561866,inf,,0.7305043138246701
36,1.073551065408051,-0.04294204261632204,0.0,1.294277695031745,1.2920564884509629,0.8125584382387976,3.721609617592487,15.880910445348423,,,0.648888643467878,3.843845280898036,inf,,0.6592856688620498
37,1.0843928900590774,-0.04699035856922668,0.0,1.4057667671202128,1.357563629636017,0.8805768258719824,4.182432508523266,22.549148746760892,,,0.6333676938231112,4.0398563769380305,inf,,0.5690323943050083
38,1.60642798852327,-0.06591514464228675,-0.0036967348603882825,1.269228950951701,1.2298593607905781,0.7771729747232817,3.87168532738203,8.32254840529062,2.5762709821071175,,0.6233814453054027,4.5479500456582,2.2644950535196124,inf,0.754457852450213
39,1.4714179439682915,-0.10747468553828128,-0.010238749979182034,1.432058359085127,1.4069377396612288,0.8205958676207697,4.53298149286183,33.25169818131257,5.286627022193463,,0.6619902821573977,3.7163648517895393,5.052142767907604,inf,0.7886424419080649
40,1.9266824706295131,-0.03211137451049189,0.0,1.0602632127578577,1.0073429659736963,0.7203084588364338,3.2474597812841948,3.3024854766388563,,,0.6468212168108125,5.824068640530703,inf,,0.7835974361702495
41,,0.0,0.0,1.0044275334675634,0.9360019718497311,0.7376618559569279,3.0575914175950523,2.26341879149395,,,0.6468212168108125,inf,,,0.8501714309842935
42,1.0382119385952575,-0.006921412923968384,0.0,0.8675765914825785,0.8275885464229962,0.6548813267965599,3.1318964999310994,3.7194903268243316,,,0.6233814453054027,6.036926921184739,inf,,0.9061328603765284
43,,0.0,0.0,1.0476766394679655,1.0111660804715998,0.7717879447816889,3.100415756347937,2.7867405856325225,,,0.6509067234006624,inf,,,0.7148108011609793
44,,0.0,0.0,1.1482972034549992,1.1649339847705533,0.7601145990752955,2.812441341928212,3.1684905428716847,,,0.6403206450210053,inf,,,0.9112319375683485
45,,0.0,0.0,1.1462703290203191,1.089812827498964,0.7590258883843155,2.655479725136226,1.4498795981263366,,,0.6619902821573977,inf,,,0.8514551593706203
46,2.20224974526297,-0.014681664968419801,0.0,0.9399766300633755,0.9058905046023986,0.7405718441830573,2.3429249977083586,2.3198294678918625,,,0.6619902821573977,7.1308988302963465,inf,,0.6978630869930216
47,,0.0,0.0,0.5189161107455827,0.500261642430303,0.6016776685289058,1.6282430718546632,1.7564060610430028,,,0.6357360191111145,inf,,,0.91851954990355
48,,0.0,0.0,1.0840898211316121,1.0361243609937434,0.811514452439316,1.6442039961521364,1.8354093878434383,,,0.5883313578629602,inf,,,0.8810127491420104
49,1.8119621765455745,-0.006039873921818582,0.0,1.0281968931730041,0.9718893267594627,0.7509376144841825,2.978796061371897,2.1264462172549425,,,0.6207552362147116,7.515744651201776,inf,,0.890661857284533
50,2.5682882587270512,-0.008560960862423504,0.0,0.9833575266807234,0.9448432616455539,0.7022984684687849,3.2773955400849695,4.422844115610579,,,0.6684167106117298,8.272070733383252,inf,,0.9541021993086364
51,,0.0,0.0,1.0828931365916974,1.0710914091856503,0.778179962568494,3.0048156659755603,6.86053064490177,,,0.6380535849069913,inf,,,0.9441363954080195
52,1.1086626245216111,-0.003695542081738704,0.0,0.9098413758324565,0.8568413348158811,0.6852767931323467,2.791383445818875,2.5299155939103546,,,0.6790044388599258,6.812445099177812,inf,,0.7264969362336012
53,,0.0,0.0,0.48452274582591054,0.4519222524157111,0.5875113935237029,3.2915115668551573,4.37182831691584,,,0.6008849035917525,inf,,,0.9213840056106939
54,,0.0,0.0,1.1305264106143764,1.0991958684412542,0.7302396423323175,3.690022925105628,4.509769108323199,,,0.676637947632344,inf,,,0.9160356700251774
55,2.870569130599985,-0.009568563768666617,0.0,0.8823377624217535,0.8438620795253605,0.741216031315777,2.9713172178766776,3.050702407100269,,,0.6233814453054027,8.574351605256187,inf,,0.9349882184651398
56,2.8012881687030777,-0.028012881687030776,0.0,1.0300081742250768,0.9934738599510278,0.6948976168165896,2.912948634053634,2.235392341948638,,,0.6380535849069913,6.480311264155198,inf,,0.7887685569266197
57,,0.0,0.0,1.1021805674227618,1.0879233021171968,0.7170314584269999,3.148091682406276,3.3136525743226617,,,0.6547956803312163,inf,,,0.7625525355390002
58,1.9424698434033933,-0.03884939686806787,0.0,1.0334298604638559,0.9741824745715048,0.7377157741292232,3.0980037901759117,2.727730329198385,,,0.6425374456860184,5.790793851645831,inf,,0.8633709283849128
59,,0.0,0.0,0.6919622403597623,0.6750971228298556,0.5895755965012299,2.2332991166448957,1.8531016753437264,,,0.6602640781246099,inf,,,0.847490346946131
60,2.70805020110221,-0.009026834003674034,0.0,0.5564279434318565,0.5049042285467946,0.7596921474987747,1.7809780701146867,1.5154805239000793,,,0.6547956803312163,8.411832675758411,inf,,0.8224721996603737
61,,0.0,0.0,0.897099850826512,0.8602823290019129,0.6815420227230761,1.7667097154251477,1.48529453893123,,,0.6357360191111145,inf,,,0.81318401116887
62,,0.0,0.0,0.9536518817324535,0.8802134310920261,0.7703063875282044,2.0894213144333773,1.8812297744157922,,,0.6425374456860184,inf,,,0.9370505986785476
63,,0.0,0.0,0.8508414133358628,0.7661353137476948,0.6636805680570358,2.2451851717570697,1.6626813984526532,,,0.6740851607140061,inf,,,0.663770880409605
64,,0.0,0.0,1.2156939733356582,1.1839211998704813,0.8137425224420824,3.1941271485708147,7.44853385233021,,,0.6468212168108125,inf,,,0.9535334528877714
65,,0.0,0.0,1.2110149834436692,1.1723111976437706,0.7640241998362257,2.712749200360687,2.2751839687733266,,,0.6447042257417027,inf,,,0.8944814436693901
66,3.757872325600888,-0.012526241085336292,0.0,0.938777565403182,0.8962186091476569,0.7869347288986142,1.8303432045850723,1.4105515045515364,,,0.6233814453054027,9.461654800257088,inf,,0.8835536169917386
67,,0.0,0.0,0.9452267241519132,0.9414195144433615,0.6990469139310718,2.469672768707974,2.8386414819397983,,,0.585052858160615,inf,,,0.9226145752288795
68,,0.0,0.0,1.0411939106284662,1.0304506631671315,0.7650603874462116,2.091962123044317,2.856219220083862,,,0.585052858160615,inf,,,0.9195700626768429
69,,0.0,0.0,1.0183931036275473,0.9786112325634966,0.7882777221044013,2.575319603470111,2.456823210885092,,,0.5451288209179292,inf,,,0.9265154472237089
70,,0.0,0.0,1.0776185185764744,1.0572078843138621,0.6790343918224464,2.659919646044577,2.3834664970452533,,,0.585052858160615,inf,,,0.7957100025854781
71,,0.0,0.0,1.0894259566196132,1.0228762618235492,0.7313932984908779,2.676408925368522,2.7990581438259277,,,0.6180765742263259,inf,,,0.9413588021186691
72,,0.0,0.0,1.0999833989371117,1.044444353164944,0.7408557632589174,2.904643505550088,4.728902232928368,,,0.6125606311107803,inf,,,0.9467301116712714
73,,0.0,0.0,1.1307258083819867,1.120300373614481,0.7775653470789703,3.7482291432561152,9.49795652764377,,,0.5567373465730988,inf,,,0.9234563250874513
74,,0.0,0.0,0.9424576106029959,0.8639853116274021,0.7999266554598297,3.5962988635780624,9.31995003180772,,,0.6207552362147116,inf,,,0.8897073054850017
75,1.6003000538094005,-0.03200600107618801,0.0,0.7324284548324653,0.6811170884991145,0.701907342200385,3.768081376505766,5.728234873074088,,,0.6403206450210053,5.129043525146558,inf,,0.7395223727098612
76,1.808434459068832,-0.012056229727125545,0.0,1.1050813794529903,1.097532155915801,0.7878716137665338,3.666051958879169,3.0181494413053356,,,0.663668482632973,6.11426012458791,inf,,0.8896745039867107
77,,0.0,0.0,0.8037864649350488,0.6769006726902765,0.616665400639465,3.4187280141592113,3.601676869344303,,,0.6357360191111145,inf,,,0.8971719753911359
78,,0.0,0.0,0.7923774202722144,0.7485862576724132,0.6357390912170522,2.9272896951308014,4.933566861364477,,,0.6207552362147116,inf,,,0.9106496542510328
79,,0.0,0.0,0.7560626176350087,0.7174599355015506,0.6391144440750464,2.586315859673083,2.6177656744606983,,,0.5915533975974677,inf,,,0.9447956349576055
80,,0.0,0.0,0.6654616928512856,0.6014352509124387,0.5698883026917686,2.1075370084088556,1.5939718044313254,,,0.6038851895711802,inf,,,0.7063604587037705
81,,0.0,0.0,1.172937600239685,1.1126037754149223,0.7320231141883866,2.759249448303946,1.8950643484763185,,,0.6619902821573977,inf,,,0.7997955620286261
82,,0.0,0.0,1.0752308101380035,0.9937599698627857,0.7673183051996052,2.415573533238366,1.7334298515506572,,,0.6357360191111145,inf,,,0.923857325833462
83,,0.0,0.0,0.6982869765306765,0.6531260111349328,0.4923613487782147,1.7180489102586987,1.8048792058611927,,,0.6468212168108125,inf,,,0.7372097247353834
84,0.48223012767377066,-0.0032148675178251375,0.0,1.021661357546245,0.9773014901882074,0.7297597888303454,2.590069361354136,1.5342473080401935,,,0.6447042257417027,5.488671095039256,inf,,0.7410987480540122
85,,0.0,0.0,0.7630304171878853,0.7413346921076506,0.5688280046406315,1.545249039940729,1.4069888963956345,,,0.6380535849069913,inf,,,0.8867672151873679
86,,0.0,0.0,0.8224942189640959,0.8008822880483428,0.6657685855869335,1.3844205001883314,1.6079593012822517,,,0.5883313578629602,inf,,,0.9444590727814872
87,,0.0,0.0,0.7797854939164041,0.7416009661592279,0.7314684268025697,2.466648830342611,2.0403136375129005,,,0.6068309995095971,inf,,,0.9328949540333882
88,,0.0,0.0,1.1491397369354026,1.116293572956448,0.8136180441580049,2.7127360175387767,4.238372522209241,,,0.5713653840954815,inf,,,0.9212638173269289
89,,0.0,0.0,1.1962473136404113,1.0891384467182643,0.7509966251326683,3.8052285283882696,4.754208952993105,,,0.5883313578629602,inf,,,0.9292334928742229
90,,0.0,0.0,0.9626317916869286,0.9286438114452924,0.744061999811427,2.544326316318787,4.368064529395632,,,0.4928685327679205,inf,,,0.9214067020276481
91,,0.0,0.0,0.922209937657092,0.8844159543812946,0.7477066403385625,2.589831579633505,5.452941214780763,,,0.5567373465730988,inf,,,0.8905474293601634
92,,0.0,0.0,1.010784638164852,0.9614053519090752,0.7715013705641425,3.3812990183299654,10.83838059270397,,,0.5451288209179292,inf,,,0.9257432318895547
93,,0.0,0.0,0.7373873282724619,0.6898820714844167,0.5590815315802297,3.0703257853589,5.589930488754684,,,0.5947193981915972,inf,,,0.7666862092115851
94,0.27006047110196146,-0.0018004031406797431,0.0,0.7209045230576994,0.677241746584641,0.6705718023407742,2.61817051553066,2.62151190485332,,,0.5604843169999094,5.280695765198217,inf,,0.7200260670067475
95,2.9311937524164198,-0.009770645841388067,0.0,0.9501843057622633,0.8833396950199499,0.7044779690870562,3.0221238188803343,2.7949544599868226,,,0.6403206450210053,8.63497622707262,inf,,0.7045409601106578
96,0.7339691750802004,-0.0024465639169340015,0.0,1.2630753489336948,1.2434780774247358,0.7791014418768799,3.7640946770115753,19.45791990562218,,,0.6858323589451731,6.437751649736401,inf,,0.8936757797503158
97,,0.0,0.0,1.3573639538710605,1.3201430665317218,0.7294779519336159,3.897902997146609,13.113055414882187,,,0.6668815377411301,inf,,,0.9072652530279508
98,,0.0,0.0,1.2384657492002429,1.1121199229610796,0.7643767044326748,4.186826788308151,10.487094194038034,,,0.6740851607140061,inf,,,0.7616892483184963
99,0.37106368139083207,-0.0012368789379694402,0.0,0.9511971081528519,0.9327526144390587,0.6479152663899674,3.4927381046543915,5.867765211407319,,,0.6528756675646988,6.074846156047033,inf,,0.648197740746916
100,2.4079456086518722,-0.008026485362172908,0.0,1.0125965406259447,0.9958843257733889,0.7823019449204537,3.537351491583768,2.665971259471409,,,0.6584896970785714,8.111728083308073,inf,,0.7886932765986163
101,1.378620222646491,-0.00919080148430994,0.0,1.2548284390335955,1.21084445514755,0.7072806555844551,3.955381531072494,2.893660045919562,,,0.6447042257417027,6.289571136895647,inf,,0.8222755010254682
102,,0.0,0.0,1.1882992958750898,1.1058012246879312,0.7996049034758126,2.9016100037043286,3.4923614216586647,,,0.6447042257417027,inf,,,0.8611892970518799
103,,0.0,0.0,1.2934653177122202,1.2830795813206533,0.7663324046394752,3.35565293911966,5.74539847470963,,,0.648888643467878,inf,,,0.8222121098589469
104,,0.0,0.0,1.0784892177206185,1.0328948202612884,0.7565757662774901,2.3330118235574844,1.5041440391489473,,,0.6619902821573977,inf,,,0.9435478018565924
105,1.6433394641097818,-0.0054777982136992726,0.0,0.8254709852756138,0.7768543053806853,0.6656830357657367,2.589533554735449,1.6507000610511025,,,0.6403206450210053,7.347121938765983,inf,,0.8605787205938534
106,2.17742195004004,-0.007258073166800133,0.0,0.45942882036789257,0.4062857078815678,0.49512564150026117,2.5889733944941438,3.094084783389578,,,0.6097226960127671,7.881204424696241,inf,,0.8949011129502868
107,,0.0,0.0,0.9284682085691743,0.8358251554654436,0.7348316237609294,4.347561098905111,30.51870607753564,,,0.5748741956352443,inf,,,0.7905803956905371
108,,0.0,0.0,1.170418913630478,1.1542637354640464,0.8618303343268345,2.8593405423180123,4.380785024640357,,,0.5113665138247345,inf,,,0.8892019709382487
109,,0.0,0.0,1.159403289130343,1.1523124388884904,0.7612747608060553,3.5220655408738177,4.100056912541586,,,0.552929491858785,inf,,,0.8805336697730706
110,,0.0,0.0,1.7354605611779346,1.7103028889560352,0.9467442992482088,2.9937644784447173,2.8166589032423652,,,0.4732203808476458,inf,,,0.8456687058496545
111,1.6856468541406604,-0.022475291388542137,0.0,1.076986237108886,0.9979281828693212,0.6195768989081311,2.869658241993683,1.9695233044730407,,,0.5641709578113449,5.812853569710563,inf,,0.6347163605405324
112,,0.0,0.0,1.2655103837903576,1.2389078255781925,0.8307458172163442,2.9265396527428456,4.613940426501072,,,0.524519217297268,inf,,,0.9075245432275657
113,,0.0,0.0,1.686515800788433,1.6609853106848087,0.9559174116363888,2.838618113551896,2.212461737577771,,,0.48319206230712763,inf,,,0.8644209523222559
114,,0.0,0.0,1.662592601503781,1.6443358253394464,0.9608953733913812,2.343939075442913,2.3503525205024953,,,0.48319206230712763,inf,,,0.7868846976274402
115,,0.0,0.0,1.6279134469016587,1.587918973958704,0.9451356068243145,2.080514711182941,2.5495803282238105,,,0.5068466436745385,inf,,,0.7942063743100343
116,,0.0,0.0,1.4247006009248495,1.384271463319342,0.8979491318039008,1.8197746225299307,2.221848062188902,,,0.468121228110369,inf,,,0.7851352457034784
117,,0.0,0.0,1.5233329588603042,1.5031209280575324,0.930422744479215,1.7985021914751045,2.114574555167523,,,0.5641709578113449,inf,,,0.7609284876180279
118,,0.0,0.0,1.6010609907625843,1.5611786576090767,0.9419012266041475,2.1142867605448337,2.672101680133835,,,0.5451288209179292,inf,,,0.7835201144484947
119,,0.0,0.0,1.5774004922866602,1.5382513539118434,0.9449581585624879,1.8567797463124276,1.9769371223783037,,,0.5604843169999094,inf,,,0.8036146948187947
120,1.830485138715918,-0.03660970277431836,0.0,1.2902048504316632,1.1683183954656173,0.8487200569902935,3.299618039707587,4.2937325020949455,,,0.6468212168108125,5.2548322546082975,inf,,0.8378336623123112
121,,0.0,0.0,1.0421309083111505,0.9366221349691464,0.7798049093897713,2.305938628581639,1.74976610831238,,,0.45235697871908603,inf,,,0.7921648871853941
122,,0.0,0.0,1.280105198499898,1.2569557966612472,0.8126300454536057,1.4698978314898716,1.931882167081471,,,0.4880666971167561,inf,,,0.7891219367381552
123,,0.0,0.0,1.1615233520163346,1.1313424947149497,0.7897300120136932,1.4310833073508218,1.8082791722509752,,,0.6153451465759925,inf,,,0.7926100118861307
124,,0.0,0.0,1.487446200899558,1.43947576293746,0.8935762390773552,1.4879692405433507,2.086991941711499,,,0.5287703885177266,inf,,,0.7589300335909044
125,,0.0,0.0,1.4749320397629848,1.4406699133575562,0.8684374381514893,1.3475777216487816,1.7869137583152825,,,0.5113665138247345,inf,,,0.7110524173897647
126,,0.0,0.0,1.5218427027589316,1.47802753683055,0.9394066567834796,1.5316742830977756,1.8493177873600515,,,0.6068309995095971,inf,,,0.7582441616625449
127,,0.0,0.0,1.5158048274696152,1.4713374331718918,0.894450404375842,1.481964961313235,1.7272454459386373,,,0.524519217297268,inf,,,0.7788995874235853
128,,0.0,0.0,1.5702472862682593,1.551203461191246,0.9143791458671762,1.5293349923055257,1.975393650110168,,,0.5451288209179292,inf,,,0.7784313941978048
129,,0.0,0.0,1.3961472801342616,1.3410407358520533,0.9102376404320114,1.6097912617772108,2.065223169918445,,,0.5783247308855777,inf,,,0.7994863669942992
130,,0.0,0.0,1.3060545984395244,1.1821439018904265,0.8311763826568661,1.90428888754295,1.7822577768086514,,,0.541134803179459,inf,,,0.9087371845939367
131,,0.0,0.0,1.7881466426270336,1.7442540804822346,0.9244266163236531,4.62788407169872,46.66489673215545,,,0.6357360191111145,inf,,,0.9024261909907241
132,,0.0,0.0,1.7888892925737987,1.7585787656173664,0.9399059365843372,3.3866736055938262,17.234873388754387,,,0.5641709578113449,inf,,,0.8854885113897507
133,,0.0,0.0,1.7194629105791943,1.7098778397392909,0.9415581997765076,3.4446392863845787,9.049328460511749,,,0.48319206230712763,inf,,,0.8833628481749516
134,,0.0,0.0,1.7216665855294149,1.6607436665139312,0.9339237227693677,2.9822987183155787,4.333370961948111,,,0.5068466436745385,inf,,,0.8627218184506055
135,,0.0,0.0,1.4948876565518914,1.4877785459817707,0.9098468395170636,3.04278664476728,3.2548134919940592,,,0.5113665138247345,inf,,,0.8564792274718986
136,,0.0,0.0,1.382529143412573,1.37760879575914,0.8910799488933862,2.614463198864587,1.9899734760745007,,,0.4066654671944331,inf,,,0.8678227063087516
137,,0.0,0.0,1.7444980696702062,1.6965439953144246,0.9694318139929272,3.937770549367934,9.264924833114803,,,0.5329562494928909,inf,,,0.9032141725202755
138,,0.0,0.0,1.751743405268674,1.7284620782476878,0.9640133906134937,3.620337020313968,3.074976281039948,,,0.5158180382284114,inf,,,0.8754075341618432
139,,0.0,0.0,1.709671420894128,1.6676188933746292,0.9448365344675372,3.4970372648935246,5.188108725822598,,,0.5490601803369085,inf,,,0.8499827349982995
140,,0.0,0.0,1.3944445235294156,1.3748067580800512,0.8964721446428063,3.0527828915325808,1.975999771212622,,,0.47824363442641393,inf,,,0.8776455818875211
141,,0.0,0.0,1.702816957051703,1.6764791672419894,0.9686314698799589,2.969110549609393,3.7102910366136266,,,0.4880666971167561,inf,,,0.8586396081695311
142,,0.0,0.0,1.701944664234457,1.640745599547982,0.9516029540855281,3.295826067826789,3.865826852313666,,,0.48319206230712763,inf,,,0.8746336842280122
143,,0.0,0.0,1.1945116796811692,1.1384724343985,0.899263446564734,2.509237355688036,2.358968361089549,,,0.48319206230712763,inf,,,0.8719366784402592
144,,0.0,0.0,1.5782072542981336,1.562331513675432,0.9394308641664976,2.0549961511625328,2.1629533668861236,,,0.5370774965580548,inf,,,0.7848766544355291
145,,0.0,0.0,1.5386216790274365,1.5396727898688571,0.9248670243052538,2.048743775809868,2.3249824252013287,,,0.581717464821069,inf,,,0.7837682692993536
146,2.3542980337274297,-0.023542980337274297,0.0,0.9920351489264888,0.9001532867378579,0.7539016832440016,3.1295764171325753,5.328449549926458,,,0.6207552362147116,6.671366500917907,inf,,0.9426434183735322
147,1.922174165550919,-0.038443483311018385,0.0,0.5853799335738186,0.34444980176443407,0.6948676678646061,1.135953584993677,0.9395613410966348,,,0.5567373465730988,5.332218918223718,inf,,0.8092352287690602
148,,0.0,0.0,0.8660366256478286,0.7826450406173237,0.8011695411743724,0.8934797001881617,0.9896809553175449,,,0.6097226960127671,inf,,,0.7996261197523773
149,,0.0,0.0,1.4726576037409185,1.4530712458780262,0.909729851574782,2.8817568826116995,3.3972145901865605,,,0.5287703885177266,inf,,,0.7901589350660256
150,1.5929086104828898,-0.005309695368276299,0.0,1.1185043650183044,1.0877643865726214,0.7618576858233637,2.8877698711422193,2.602804914484869,,,0.581717464821069,7.2966910851390905,inf,,0.7272692104003571
151,3.138833117194664,-0.010462777057315548,0.0,1.33726499788786,1.3213941485464147,0.8687920379346328,2.5331413231998714,1.924551621663226,,,0.4880666971167561,8.842615591850866,inf,,0.8254496319711104
152,,0.0,0.0,0.9946161743486615,0.9771996358941548,0.7384459067910011,2.250228614534759,2.351436711238353,,,0.5713653840954815,inf,,,0.8714218692638496
153,1.5929086104828898,-0.005309695368276299,0.0,0.4994690021232517,0.4651366783915513,0.685279403501438,1.6266824041885743,1.7447722205702716,,,0.5370774965580548,7.2966910851390905,inf,,0.9321088875065577
154,,0.0,0.0,1.0907476476157378,1.0514923128146514,0.7244804221243014,1.361204393247607,1.464129786223992,,,0.5915533975974677,inf,,,0.7857895882189144
155,,0.0,0.0,1.045196543031371,1.0017948812753952,0.6740781078207032,1.36591638225998,1.6519832003730572,,,0.6038851895711802,inf,,,0.8472614998363103
156,,0.0,0.0,0.6157549009289381,0.6028852827018735,0.4990628586356863,1.5218366869231101,1.2001486993012975,,,0.5883313578629602,inf,,,0.7791302323911091
157,,0.0,0.0,0.9442827611381353,0.9016045434199087,0.7248578189167737,2.547338482395137,2.331442118837021,,,0.6233814453054027,inf,,,0.8626570879665245
158,,0.0,0.0,1.2707901997125892,1.238422934247686,0.8455230673244627,1.9854127651953668,2.5293416313126285,,,0.6207552362147116,inf,,,0.7628852510480676
159,,0.0,0.0,0.8800828588502314,0.8309701603104639,0.6780551491829891,2.0385139233489866,2.002628951503784,,,0.6180765742263259,inf,,,0.825311757410241
160,,0.0,0.0,1.0874146773547884,1.064125416838011,0.7361271090256948,2.72688542448849,4.11371701929341,,,0.6008849035917525,inf,,,0.8369064035602163
161,1.455287232606842,-0.009701914884045613,0.0,0.9032488155403504,0.841262795154336,0.7288663736554531,2.0704375160736963,1.3434208386843425,,,0.5287703885177266,6.403618643366943,inf,,0.9251394931766269
162,,0.0,0.0,0.9953997904353589,0.9678672109179499,0.7432834423255875,2.187955162496647,2.2114216947733794,,,0.5748741956352443,inf,,,0.8658870956103675
163,,0.0,0.0,1.4612129837445975,1.445125516175878,0.8691538334755565,2.5158066950949274,2.941453559793449,,,0.5370774965580548,inf,,,0.8158556077168588
164,,0.0,0.0,1.461552850554268,1.4101930436038803,0.8595254318172134,2.170192461694432,2.8478502560048318,,,0.5329562494928909,inf,,,0.8077889467257292
165,,0.0,0.0,1.070576425695613,1.0376664912788884,0.7734734338324375,2.0689246130530434,2.3697211150477817,,,0.5713653840954815,inf,,,0.8268563663956634
166,,0.0,0.0,1.1777606178200972,1.1145287464675608,0.7957059549906111,1.751976220598083,2.0139857941537116,,,0.552929491858785,inf,,,0.7608543028917352
167,,0.0,0.0,1.3044215072434429,1.2998134171542128,0.8169150396157857,2.0182209329993244,2.266429307350459,,,0.5329562494928909,inf,,,0.7964236512539868
168,,0.0,0.0,1.5972954617665192,1.562477810497984,0.9159113675559438,2.1692775502565977,2.279108598010741,,,0.4880666971167561,inf,,,0.7605713760425736
169,,0.0,0.0,1.4012535478656343,1.3739473188154059,0.8476414783544081,2.231212298279131,3.475265390036651,,,0.45235697871908603,inf,,,0.82461221458511
170,,0.0,0.0,0.8974909935576085,0.8539874775403508,0.6700569112453468,2.1327244241383454,2.495984612050999,,,0.5490601803369085,inf,,,0.843018617999635
171,0.41047764993170865,-0.0013682588331056956,0.0,0.4470811969481615,0.4174816577469837,0.48526011786030926,2.476148777349992,3.884764639852331,,,0.585052858160615,6.11426012458791,inf,,0.7394902268436852
172,,0.0,0.0,1.0034554768444084,0.9777480017081656,0.6517682752324263,2.573740601992401,4.54495985301288,,,0.6447042257417027,inf,,,0.9277007063356458
173,,0.0,0.0,1.1625961338638453,1.1005058336138416,0.8014801447671699,2.6720967580848614,3.7918343393504275,,,0.6425374456860184,inf,,,0.8775813529854366
174,,0.0,0.0,1.345237142814702,1.3303503462919093,0.8502593497092903,2.4329709797224446,2.716142578112694,,,0.6125606311107803,inf,,,0.8404020316249919
175,,0.0,0.0,0.7748033246096889,0.7157873167842721,0.6143940402917991,2.059979547927427,2.3687536770735154,,,0.5490601803369085,inf,,,0.8776576309340373
176,,0.0,0.0,0.8858852884485894,0.8373692742172046,0.6640631248751876,1.6623462595257226,1.7268999749396923,,,0.5370774965580548,inf,,,0.7979361432966632
177,,0.0,0.0,1.438314828385432,1.3976409886872563,0.8076543878007528,1.6219919071678797,2.1322850422459707,,,0.6097226960127671,inf,,,0.7376415102565614
178,,0.0,0.0,1.4220161863703447,1.4136281637389605,0.7902557992413467,1.7214200430007611,2.065924612059261,,,0.6357360191111145,inf,,,0.8163419151845764
179,0.6411874416292344,-0.002137291472097448,0.0,0.9079011098223067,0.8031476323242299,0.6850545886660045,2.3418255431185697,2.7097373791911865,,,0.5883313578629602,6.344969916285435,inf,,0.8699789202153826
180,,0.0,0.0,1.146626151008575,1.1057687119101969,0.7451236825346105,2.3106914133240135,2.8006995040489944,,,0.5713653840954815,inf,,,0.7350681412657588
181,,0.0,0.0,1.3595091906076138,1.350017015600831,0.8655732102666257,2.501201845675897,4.302325750840199,,,0.5677978065141052,inf,,,0.7288772808030974
182,,0.0,0.0,1.2037919327191486,1.183931537506442,0.7893749789100382,2.585174881487657,5.926481737508315,,,0.6125606311107803,inf,,,0.7347364615966205
183,,0.0,0.0,1.3453047065158292,1.3154390504840856,0.7932604779111507,2.149121315809264,2.904943501391949,,,0.581717464821069,inf,,,0.7211216197491983
184,,0.0,0.0,1.461618050661819,1.4457067140851934,0.8987819760202295,2.7053595711144167,3.9571917672323096,,,0.5947193981915972,inf,,,0.7249802248807216
185,,0.0,0.0,1.068872999756431,1.0372868629009162,0.7662342938234529,2.550755490735767,2.823575038913855,,,0.5883313578629602,inf,,,0.7907182197853885
186,,0.0,0.0,1.533533872039414,1.5241246844607084,0.8798003720774678,1.952206189310903,2.4335185990610935,,,0.5713653840954815,inf,,,0.7897571941268259
187,,0.0,0.0,1.2464208572679092,1.223753483517412,0.7865524799453503,2.367492672623156,2.8414560226505885,,,0.5329562494928909,inf,,,0.8062508768973976
188,,0.0,0.0,0.3075202309649917,0.2840183435992215,0.560818963063288,1.6309400829855163,1.6823650187046664,,,0.5978297680564633,inf,,,0.7889639272244001
189,,0.0,0.0,1.336471493597662,1.298729902109996,0.7840920120396088,1.6958044437259079,2.0309966421229464,,,0.5713653840954815,inf,,,0.7944426516159753
190,,0.0,0.0,1.3196320453175976,1.2712877174523387,0.8298910459749876,1.7181693680415273,2.3914242521831808,,,0.552929491858785,inf,,,0.7646489042245556
191,,0.0,0.0,0.5457831850268248,0.4940030922104473,0.7005818464265098,1.799902861964085,1.7425374429572373,,,0.5451288209179292,inf,,,0.8917519474460521
192,,0.0,0.0,1.3421068552696487,1.321562802753411,0.8220530003909596,1.4912057951341642,1.7350038464837307,,,0.6153451465759925,inf,,,0.7658194233110787
193,,0.0,0.0,1.3218744844761854,1.2906980221406394,0.848786364940942,1.6785932078170152,1.9952048521877754,,,0.5641709578113449,inf,,,0.771704656430474
194,,0.0,0.0,1.2225909610693164,1.1021155994395109,0.7570156458350868,1.6634769001158864,1.9327841169450493,,,0.5604843169999094,inf,,,0.8093871703424491
195,,0.0,0.0,1.2962862193996907,1.269446552353049,0.7984552281008728,1.5455718718670322,1.8814303552392437,,,0.5915533975974677,inf,,,0.7521374835694116
196,,0.0,0.0,1.1793266787388503,1.148785672392319,0.7523016629065278,1.3854139223941746,1.4281235417707865,,,0.6180765742263259,inf,,,0.7184348194356904
197,,0.0,0.0,1.2114215099797037,1.075746397431223,0.755752520301978,1.5272655825600985,1.7449297553248129,,,0.5567373465730988,inf,,,0.8299507824708215
198,,0.0,0.0,1.5260486051378501,1.4339460748649546,0.8838815153802364,1.8880818974074114,1.76847773561975,,,0.5329562494928909,inf,,,0.8103071406385117
199,,0.0,0.0,1.5408290660882733,1.4567457710680043,0.8916379660225177,1.6147561665869592,1.8487687828370885,,,0.4880666971167561,inf,,,0.8017433493362791
200,,0.0,0.0,1.3385854825011556,1.300270727005894,0.7983307428936923,1.5300781048293481,1.7736543973326118,,,0.5883313578629602,inf,,,0.7617966437702364
201,,0.0,0.0,1.4090563695079887,1.3980862210846994,0.848606493659615,1.9024930338506985,2.260026457292917,,,0.45235697871908603,inf,,,0.7930500569553194
202,,0.0,0.0,1.4393815818903761,1.411602365155617,0.8359380458242677,1.6449377843522999,2.2455643270050833,,,0.5158180382284114,inf,,,0.7677899801266345
203,,0.0,0.0,1.5433454765963894,1.4547196102914244,0.8755449956652538,1.8184507060520918,1.7913295309144628,,,0.4732203808476458,inf,,,0.7740421972452322
204,,0.0,0.0,1.471307374941743,1.4138727138468583,0.8725975827258408,1.9043865366170665,1.7715427727480129,,,0.5202020156036558,inf,,,0.7953144171336626
205,,0.0,0.0,1.5612128574146253,1.5140289599722219,0.8959246237530548,2.1133705702269774,2.489643084068091,,,0.47824363442641393,inf,,,0.7916665043196398
206,,0.0,0.0,1.4735269905366528,1.4257653723289767,0.8846767979252134,1.8353698304270625,1.6927299956249453,,,0.5158180382284114,inf,,,0.8047118402255722
207,,0.0,0.0,1.6886547137823285,1.6635779379585687,0.9519508373316358,2.379965910466657,2.3466620044553537,,,0.4576907132971797,inf,,,0.8564231730383899
208,,0.0,0.0,0.9906646357806514,0.961470566081252,0.7938152243850001,2.2489363639926077,1.7264167682058669,,,0.5947193981915972,inf,,,0.9113251173078073
209,2.870569130599985,-0.009568563768666617,0.0,0.7995870306515537,0.5734374219758605,0.7496969066127303,2.186604471625436,1.6713987149523462,,,0.6468212168108125,8.574351605256187,inf,,0.8997980450979249
210,,0.0,0.0,1.3789982108487502,1.3352796511264735,0.8172553398447037,1.8828521972792915,2.291170826028093,,,0.524519217297268,inf,,,0.8679790877918256
211,,0.0,0.0,1.1857821498992418,1.1454380310420953,0.8573994184587784,2.12185125698888,2.5203298597019,,,0.581717464821069,inf,,,0.8675308632274509
212,,0.0,0.0,1.3382809428157183,1.3009941714045599,0.8992203049697027,2.325461633547382,1.5284564197422257,,,0.47824363442641393,inf,,,0.8678529499539345
213,,0.0,0.0,1.3677484366350086,1.3690861252466475,0.8953058688912339,2.5365989951936645,2.181840146760235,,,0.5604843169999094,inf,,,0.8981170730942301
214,,0.0,0.0,0.792037274852911,0.7430058626933324,0.6787718928128684,2.142266772281102,2.4536456820415684,,,0.5490601803369085,inf,,,0.8957879062322682
215,,0.0,0.0,1.559836860927274,1.507650943526907,0.911844381453181,1.9999814273729786,1.852344501256527,,,0.49759852643134905,inf,,,0.8471449957952022
216,,0.0,0.0,1.396067856058221,1.3811451244112218,0.8814760457846428,3.919583795103193,11.503788912460738,,,0.5713653840954815,inf,,,0.8594666030564415
217,,0.0,0.0,1.0010852806816626,0.9599101407061967,0.6228905093578939,3.604559980157385,3.209576415505782,,,0.648888643467878,inf,,,0.7080521350208124
218,1.6433394641097818,-0.0054777982136992726,0.0,0.9215919466411568,0.8862837242867533,0.7578130858577216,1.7069109179976116,1.113913258110778,,,0.6528756675646988,7.347121938765983,inf,,0.8671813639392949
219,2.1110889668659927,-0.014073926445773285,0.0,0.5629871005157768,0.47670047378957114,0.6965439147348883,0.8031050971444433,0.5727442983388037,,,0.6447042257417027,7.117105508164011,inf,,0.9538983007793062
220,,0.0,0.0,0.5002653610906933,0.42672024938429065,0.5459017952803735,0.5485715540937576,0.3264238447704051,,,0.6652988471865258,inf,,,0.9350548684008424
221,,0.0,0.0,1.0119601956860524,0.9764684668297486,0.6704492559071296,2.06242244526691,0.8387922412463191,,,0.6528756675646988,inf,,,0.9557358134331839
222,1.875141078167106,-0.0062504702605570206,0.0,0.683870903340726,0.6335447782259537,0.6627344734207783,0.8923474041771313,0.4719920162394329,,,0.6309483474627791,7.578923552823307,inf,,0.9487905802999947
223,,0.0,0.0,0.7988163533699161,0.7470912090172739,0.8118709027590773,0.9962210860038535,0.7560718449726377,,,0.6602640781246099,inf,,,0.9569978186023644
224,,0.0,0.0,0.5818056221536396,0.5263270052648329,0.6970328045702014,1.0741474767759374,0.7901177270233057,,,0.6668815377411301,inf,,,0.7793971936916415
225,,0.0,0.0,0.6706982900964739,0.6319573234642125,0.6827011642836113,0.7272041604514504,0.5020057437665076,,,0.6403206450210053,inf,,,0.9494141199842271
226,,0.0,0.0,0.5316199732995237,0.48085794501977225,0.7397533261352637,1.2559427831226686,0.9634159800342599,,,0.6866242695638369,inf,,,0.7384540382300315
227,,0.0,0.0,0.6542655759014198,0.6227635918147615,0.7958599146751679,0.9941722060246089,0.7081093915729881,,,0.6528756675646988,inf,,,0.954818735684843
228,3.0647251450409425,-0.010215750483469808,0.0,0.8279336100110244,0.7357024107754028,0.7687117156580321,2.5955051699803455,1.224882901320143,,,0.62595550513784,8.768507619697143,inf,,0.9086661444508912
229,1.2729656758128873,-0.004243218919376291,0.0,1.0709582668167092,1.0330487698850936,0.7673696553905767,3.7868804094326567,22.326603876994557,,,0.6547956803312163,6.9767481504690885,inf,,0.7439834134132842
230,1.3997173814520312,-0.004665724604840104,0.0,1.1534422008076397,1.0972918514912877,0.6703301644944786,3.8046885399496526,4.229546516148853,,,0.6097226960127671,7.1034998561082325,inf,,0.6680194809292519
231,,0.0,0.0,0.8635937520443917,0.8394687310924138,0.6600542067654062,3.8212543378539183,7.418476956765133,,,0.62595550513784,inf,,,0.8751566578514197
232,1.455287232606842,-0.004850957442022807,0.0,1.0380004542251735,0.9986887029980662,0.71459424703065,2.881521955425795,4.349508076978074,,,0.6584896970785714,7.159069707263043,inf,,0.8519327223258284
233,2.0996521193307793,-0.020996521193307794,0.0,1.134511450425364,1.0816197134389525,0.8457075366682507,3.741003732930289,4.253898858958516,,,0.6547956803312163,6.662632820949152,inf,,0.8935350496776407
234,,0.0,0.0,1.3150166111614556,1.2836971388669767,0.8199934900045919,3.669267646133419,4.759168048689548,,,0.6447042257417027,inf,,,0.7053597371964413
235,2.17742195004004,-0.007258073166800133,0.0,1.0834593681144302,1.0758408870128708,0.7467632457478091,3.619062907604668,3.4880647500487423,,,0.6038851895711802,7.881204424696241,inf,,0.8439899395297251
236,,0.0,0.0,1.2058666544782535,1.170296491386498,0.8101099104535507,3.3586926053429513,4.641899594702704,,,0.62595550513784,inf,,,0.9143914339328796
237,,0.0,0.0,1.12377476645707,1.093758484722222,0.8405532548822022,4.234172476056945,11.835113198558286,,,0.675384900321601,inf,,,0.9177742659003184
238,1.284941866859603,-0.004283139556198677,0.0,1.090235491473539,1.0228464466038973,0.8001701074224117,3.5056411942655763,2.7573193101445637,,,0.6468212168108125,6.9887243415158045,inf,,0.8219260238246444
239,,0.0,0.0,1.0196505398413054,0.9860388143445107,0.7741061558670438,3.8774669789517815,93.80119028509414,,,0.6284777104787076,inf,,,0.760352472424239
240,,0.0,0.0,1.2988435851685551,1.2589128084500376,0.8401261236008962,4.062093501826873,36.16523301180734,,,0.581717464821069,inf,,,0.9197416655875682
241,,0.0,0.0,1.0153578887033998,0.9539542996029114,0.6420672678375837,3.4725599331474384,2.9276615270622464,,,0.6447042257417027,inf,,,0.9370140306245358
242,,0.0,0.0,1.3418349123061803,1.340882575088001,0.8219712091199933,3.706108349880703,99.4707108139214,,,0.5713653840954815,inf,,,0.9097420561249776
243,1.2181070358351538,-0.020301783930585893,0.0,1.2274756700453,1.1967196968198348,0.7821076579640759,3.810259759210162,6.101602103252361,,,0.6425374456860184,5.248469560820469,inf,,0.7041932928225095
244,1.3660150777827855,-0.01821353437043714,0.0,1.3635497465152933,1.3248618471031435,0.7992572802793965,4.3856165660516835,12.703021735069541,,,0.6584896970785714,5.403677882205863,inf,,0.74963878063418
245,0.01695077583784067,-0.00011300517225227113,0.0,1.3940829385585254,1.3553107989107716,0.8711655058367774,4.157498974571406,11.612331991284073,,,0.676637947632344,5.027442412412637,inf,,0.8024876172300786
246,3.2188758248682006,-0.010729586082894002,0.0,0.8788184594450499,0.8701120369333383,0.6514298636450707,3.429453243950516,8.983773390205588,,,0.6038851895711802,8.922658299524402,inf,,0.9369447368615552
247,,0.0,0.0,1.1396182755990873,1.1087363361788594,0.8150513103026951,3.5305820924120423,13.91616232382588,,,0.5677978065141052,inf,,,0.9027801663644445
248,4.605170185988091,-0.01535056728662697,0.0,1.125312566015634,1.0530687262988587,0.8065555110202344,3.661605713142615,4.673662263179532,,,0.648888643467878,10.308952660644293,inf,,0.947061502504242
249,,0.0,0.0,1.08933680724455,1.0551974912058326,0.7376020297646227,2.725580723315161,2.6657960906185134,,,0.5748741956352443,inf,,,0.9330929296942937
250,,0.0,0.0,1.479900442727822,1.4596893880036417,0.881159539998282,3.3993624772660596,4.42931415502029,,,0.6509067234006624,inf,,,0.941031477528795
251,,0.0,0.0,1.225113048793271,1.2002340247613883,0.8574106602281555,3.4089063420589802,7.450623100529516,,,0.5677978065141052,inf,,,0.9186198767779292
252,,0.0,0.0,1.3336496588124689,1.331998879650252,0.7478953142723852,4.434381328915669,8.051305404649831,,,0.6509067234006624,inf,,,0.8820248506414393
253,,0.0,0.0,0.8495237308707978,0.7834556031474454,0.7901510393868884,1.9923590440926287,2.0434461387791334,,,0.6619902821573977,inf,,,0.9417880594351511
254,,0.0,0.0,0.9643613772903443,0.8939071653647446,0.6558607988729619,2.1910730992551026,1.569011768026741,,,0.68318204999448,inf,,,0.9556102208713017
255,,0.0,0.0,0.885057573912229,0.836056640254219,0.7213828345453703,1.6890470942291995,1.9439209021479908,,,0.6357360191111145,inf,,,0.9376888904521206
256,,0.0,0.0,0.5048718384602945,0.47123435659759766,0.7075245017041522,2.2705230511507644,2.165989442082337,,,0.6668815377411301,inf,,,0.949697007020047
257,2.336486644669727,-0.007788288815565757,0.0,0.7969989093409942,0.7027249407608873,0.5737306648207006,2.9347104155037176,2.999631617375864,,,0.6652988471865258,8.040269119325927,inf,,0.9030841988849069
258,,0.0,0.0,1.3379651605508707,1.3229624747312623,0.7566560596827128,4.082567701498032,25.944281108641583,,,0.6468212168108125,inf,,,0.8961884523153855
259,1.8224996550968067,-0.018224996550968067,0.0,1.0662385778821357,1.0322782038668163,0.7298596911145127,4.015952851132723,14.162345839923553,,,0.6284777104787076,5.960827577646092,inf,,0.904886281598903
260,2.355265350822959,-0.015701769005486393,0.0,1.1899144210020582,1.1658446109837932,0.7787403146951448,3.6234619892853184,11.613558843266691,,,0.6357360191111145,7.264430222920869,inf,,0.9435673797470975
261,,0.0,0.0,1.2863622644163037,1.2443825566944602,0.7951651207916657,4.2191640029114685,4.734626622204353,,,0.6380535849069913,inf,,,0.8767977214559869
262,,0.0,0.0,1.3081621516561592,1.2960875130881,0.7933563748892456,3.642126572632289,35.130150089568346,,,0.6333676938231112,inf,,,0.9214659061894096
263,,0.0,0.0,1.2003844451877854,1.1625347919390125,0.7837540484938248,3.7330992113275743,46.978702548278626,,,0.6547956803312163,inf,,,0.9425132198877363
264,,0.0,0.0,0.9705058664679865,0.933593058984552,0.819380185882779,2.8762007231179907,2.7077896001899595,,,0.585052858160615,inf,,,0.8299675208136558
265,0.5098154960422717,-0.005098154960422718,0.0,1.3696953322018606,1.3742448309442423,0.8549885795154506,3.6732067538349344,4.50164379479058,,,0.6547956803312163,5.103116146890421,inf,,0.8354103916549619
266,,0.0,0.0,1.298495143304667,1.2681417105687611,0.8616541879298119,4.087562967871262,3.761809686294625,,,0.5713653840954815,inf,,,0.884886727327454
267,,0.0,0.0,1.4270595711335565,1.4083051765995487,0.8522264832846667,3.9086448384804084,21.762750703089797,,,0.541134803179459,inf,,,0.8309452581047213
268,0.18632957819149348,-0.0006210985939716449,0.0,1.0620892062296132,1.031349930237298,0.7572021456968466,4.066969001814794,15.340839093918255,,,0.5641709578113449,5.8901120528476945,inf,,0.9113940220996789
269,,0.0,0.0,1.5279600296034916,1.4580052212999721,0.8748750405318237,4.713649583193372,6.54386993134158,,,0.5713653840954815,inf,,,0.9084061706578217
270,,0.0,0.0,1.1613464759427938,1.155673421381769,0.7409678354836027,3.407102364888848,8.825468127455744,,,0.581717464821069,inf,,,0.8472240039448851
271,,0.0,0.0,1.0991617312304156,1.0880451869447234,0.726431033529624,3.8452320470073578,46.31482621998671,,,0.6180765742263259,inf,,,0.8228804640878417
272,,0.0,0.0,0.8505580214087605,0.8116843091539552,0.7218757817209044,3.540865740201104,24.208309165053375,,,0.5978297680564633,inf,,,0.9367539355500062
273,0.09798040836020379,-0.00032660136120067927,0.0,1.1927177511517453,1.1973186933521343,0.7843914869055347,3.285454496585065,6.2921429643544435,,,0.62595550513784,5.801762883016405,inf,,0.9013061861636656
274,,0.0,0.0,0.8633356444727759,0.8493691619604238,0.7839898768236536,2.994143969062905,1.5644349080173718,,,0.6619902821573977,inf,,,0.7468912160884538
275,,0.0,0.0,1.1972137912749123,1.174462191328786,0.8337942755403086,3.317743612072846,4.940147006937823,,,0.5748741956352443,inf,,,0.9350694604279842
276,,0.0,0.0,1.2217033826156989,1.1758454087517702,0.8245443973795724,3.7341446865322885,23.71324183133944,,,0.6068309995095971,inf,,,0.9191182152389648
277,0.40938039766575873,-0.0027292026511050583,0.0,0.7979655647690194,0.7737190092177564,0.5276218278189888,3.818413148934845,5.747663635037512,,,0.6309483474627791,5.401211789710669,inf,,0.9147386549168524
278,,0.0,0.0,1.0632033496637439,0.9855988403911999,0.6717032975792169,3.5222239023681663,13.834973629437826,,,0.6180765742263259,inf,,,0.9369446974445822
279,,0.0,0.0,1.2593949994323013,1.226673325464374,0.8276670816096641,4.49944307017506,4.802862261584924,,,0.6468212168108125,inf,,,0.8136628871601452
280,2.0920230693145303,-0.027893640924193736,0.0,1.1604167971709836,1.1169963394173474,0.7477840453497543,4.3713762158837115,14.226096372520761,,,0.6528756675646988,5.431214040014468,inf,,0.8338724218828669
281,1.5763220813562515,-0.04203525550283337,0.0,1.13794373908183,1.103942402565906,0.720399137022425,4.1545682289439725,14.500829804924479,,,0.663668482632973,5.0410945015809645,inf,,0.9207574368274499
282,0.9711749139302781,-0.006474499426201854,0.0,0.9690777126967474,0.9331813016064302,0.7618516939519653,4.419238732667923,45.90581836854804,,,0.6547956803312163,5.8623875048328395,inf,,0.7864748911237026
283,1.346170453698515,-0.008974469691323433,0.0,1.139178088123513,1.1160963392658854,0.6496847422368132,3.961473050694567,74.10214703812834,,,0.6309483474627791,6.283600969909143,inf,,0.8024751078741225
284,,0.0,0.0,0.9084407731625848,0.8989909151011212,0.6447479615742112,4.175009250931986,18.74471168340733,,,0.6425374456860184,inf,,,0.9360149115169986
285,,0.0,0.0,1.1024949140340197,1.080756276228346,0.6846506378716141,3.54846189880956,29.4182795144255,,,0.6684167106117298,inf,,,0.8179915404075009
286,0.8059426747052897,-0.0026864755823509654,0.0,1.0013222248876563,0.9883250293462773,0.8219126615413119,3.195011243738799,4.853170478977452,,,0.5713653840954815,6.509725149361491,inf,,0.8344760290336698
287,,0.0,0.0,0.7886024595082134,0.7513319636020682,0.5826614791094742,3.4794246369947093,8.841318865997284,,,0.5947193981915972,inf,,,0.7317172539643465
288,,0.0,0.0,0.8698354400643938,0.8465016462186571,0.7040724114594576,4.0359407902852436,2.4408133011108983,,,0.5641709578113449,inf,,,0.9229789758584714
289,1.4043958854518708,-0.009362639236345805,0.0,1.0973450201457557,1.0779234658702612,0.7682412167168042,4.095964224580938,12.060509302668592,,,0.5883313578629602,6.0796887805228215,inf,,0.9066966987602927
290,0.41047764993170865,-0.0013682588331056956,0.0,1.292354575621147,1.2680682198557793,0.9011127274899039,3.9755236921983186,8.76437577264203,,,0.541134803179459,6.11426012458791,inf,,0.831183738099853
291,0.2231435513142097,-0.0007438118377140324,0.0,1.2916912712720505,1.2524725922671804,0.8819083822409164,4.572559030595351,50.477406638116655,,,0.5287703885177266,5.926926025970411,inf,,0.8868650756325048
292,,0.0,0.0,1.1460553600924506,1.0991580110342645,0.7806728156032758,4.516529794397745,31.614405983883206,,,0.5947193981915972,inf,,,0.7290001363375718
293,,0.0,0.0,1.098951019072421,1.0654896540753294,0.7889019046423481,4.563847191239307,114.1224624574739,,,0.6153451465759925,inf,,,0.9164018623263931
294,,0.0,0.0,1.5061986453224634,1.458177023871596,0.8272754517858492,4.09091809872202,122.23028008311134,,,0.6284777104787076,inf,,,0.8492323479878396
295,,0.0,0.0,1.3942334066203048,1.3841168824093533,0.7789960087013078,5.670677048111208,100.62879522274626,,,0.6447042257417027,inf,,,0.9266155732795723
296,1.4842747694800944,-0.004947582564933648,0.0,1.2865912976604417,1.2297995819846304,0.7342522864288104,4.6627393455521675,6.920295388860057,,,0.6822068148872973,7.188057244136296,inf,,0.8618343321466719
297,,0.0,0.0,1.1753244570652999,1.1539468302849822,0.6980384733131983,4.172512400438231,87.40046272553678,,,0.6468212168108125,inf,,,0.8566853054278171
298,,0.0,0.0,1.3018049873491857,1.285773026636147,0.7192502315677981,4.342076306176787,32.726293131651815,,,0.6233814453054027,inf,,,0.9117566700625437
299,1.9428528485553864,-0.012952352323702575,0.0,1.086366195113695,1.0521536096635742,0.7405013303259824,4.113935864293941,2.404136096192441,,,0.5947193981915972,6.220179143471647,inf,,0.6320080239448396
300,1.6601321072998916,-0.03320264214599783,0.0,1.2516419232778497,1.2260114583746848,0.818021553234243,5.069212018919422,11.861566082145965,,,0.648888643467878,5.293882769480171,inf,,0.9366984059415868
301,2.226865805146582,-0.02969154406862109,0.0,1.254246563015595,1.2235308834773468,0.7834513088311186,3.653565873475944,5.611397199226409,,,0.663668482632973,5.870230682293865,inf,,0.6264364395018625
302,1.1385830432507924,-0.015181107243343898,0.0,1.1840008990564543,1.1381882152858633,0.7545685516424615,4.091851616796013,16.268688872155582,,,0.6309483474627791,5.129043525146558,inf,,0.7653864820129621
303,0.5108256237659907,-0.001702752079219969,0.0,1.1781947408672786,1.0586303614818542,0.8006074495618017,3.780921314670567,12.19612181557361,,,0.6180765742263259,6.214608098422191,inf,,0.859029835354275
304,1.628334409173249,-0.02171112545564332,0.0,1.3862290951570995,1.331869946540037,0.7947671875694373,5.2818699999531065,60.477115172312715,,,0.6447042257417027,5.4994820111434715,inf,,0.5581944264888501
305,0.751837042240413,-0.01002449389653884,0.0,1.3395364612129468,1.3048019022168895,0.8348510246995612,3.7655740766787473,56.06585298338287,,,0.6447042257417027,4.909282799835968,inf,,0.8215694372352079
306,1.53602417742112,-0.020480322365614933,0.0,1.1559415541524605,1.143162891810703,0.7563154098502723,3.0610144379178403,2.392952745767628,,,0.585052858160615,5.477975805922507,inf,,0.9340261959852572
307,2.5682882587270512,-0.017121921724847007,0.0,1.0470095060481517,0.9443687339779296,0.7603422485223774,3.9604251250018754,2.1717099516491545,,,0.6425374456860184,7.578923552823307,inf,,0.8555915980301729
308,2.8134107167600364,-0.009378035722533455,0.0,1.1705819863053972,1.1307762341562966,0.7774554738618162,3.0227016731577026,3.154990053202543,,,0.62595550513784,8.517193191416238,inf,,0.7884956314868484
309,1.5190403456811261,-0.015190403456811262,0.0,0.8359701910629951,0.806142838882318,0.660287367184293,3.0234684096917532,2.8751275645036984,,,0.6333676938231112,6.041588934290551,inf,,0.851813026740089
310,,0.0,0.0,1.0625637556584138,1.0236460064688715,0.7905661841927165,2.9162197602902884,4.984473815334582,,,0.524519217297268,inf,,,0.8796310497716338
311,1.791759469228055,-0.005972531564093516,0.0,0.8894754792566081,0.8404183359086714,0.6624627389379202,3.3527360925625067,4.526352270786415,,,0.524519217297268,7.495541943884256,inf,,0.8938074308542261
312,,0.0,0.0,0.777795636794395,0.7322821084057847,0.6763080235095104,3.1420394034988868,6.843879846747948,,,0.5202020156036558,inf,,,0.8681673103648493
313,1.529395204760564,-0.005097984015868546,0.0,0.9053468120101283,0.8818254301915815,0.7050928996458092,2.9018996269042425,2.3834850375718113,,,0.44694259446804574,7.233177679416765,inf,,0.8740745344321019
314,,0.0,0.0,0.9014471168987872,0.8014487106140167,0.6385084407306211,1.548650295035413,1.6023756186662808,,,0.44694259446804574,inf,,,0.8814851640974253
315,,0.0,0.0,1.3384118965164897,1.3159312842766069,0.8647148789685581,1.4733868769024079,1.5939993610638843,,,0.41268473150466,inf,,,0.7928458260899183
316,,0.0,0.0,1.5613276769579327,1.5564748858026798,0.8975411415664636,1.5618535279332684,1.6135654283182854,,,0.49759852643134905,inf,,,0.8237443253994149
317,,0.0,0.0,1.3956858990135237,1.370057084349748,0.8349150137246306,1.5691510738178007,1.6237932041817977,,,0.5113665138247345,inf,,,0.8379972153893552
318,,0.0,0.0,1.308327254317637,1.269443732046094,0.8025284513867925,1.392090487605072,2.0200041256740207,,,0.5604843169999094,inf,,,0.7994873384720995
319,2.70805020110221,-0.009026834003674034,0.0,0.3203668846205393,0.2846924776965675,0.6123363455156159,1.654145853081135,1.904243638152102,,,0.5641709578113449,8.411832675758411,inf,,0.8845249929542742
320,,0.0,0.0,1.3635706017799087,1.3224999541392326,0.7988866911774224,1.4769101402754392,1.9720949297108228,,,0.5202020156036558,inf,,,0.7608813592104822
321,,0.0,0.0,1.4949352662167414,1.4300204230826488,0.8548955409548529,1.4820172426140923,1.7284997602045173,,,0.585052858160615,inf,,,0.8096989776146977
322,,0.0,0.0,0.5416423079444139,0.5228725894893512,0.5972968884268819,1.6028389423212184,1.8031272346696172,,,0.5783247308855777,inf,,,0.9007474565736172
323,,0.0,0.0,1.1946260444434693,1.1645530790508416,0.7676015896379287,1.4935792116980042,1.7176603981017846,,,0.6309483474627791,inf,,,0.8407212342005703
324,,0.0,0.0,1.501288661023753,1.4972125830737701,0.8517205673910944,1.4210486866883316,1.8781804978627574,,,0.5883313578629602,inf,,,0.8077341317723492
325,,0.0,0.0,0.3522065979966885,0.3371736418914358,0.5783133111050216,1.2259727550140762,1.2454122209276222,,,0.5978297680564633,inf,,,0.7560425011245212
326,,0.0,0.0,0.8780712793336547,0.8498550233935352,0.6707483757556979,1.6521473583726045,1.68694556094516,,,0.6008849035917525,inf,,,0.7494177964995502
327,,0.0,0.0,0.2256559932866077,0.17796905855579503,0.4637773711260987,1.8665818751131236,2.0869451146370865,,,0.6008849035917525,inf,,,0.7890446473624405
328,,0.0,0.0,0.887139644343751,0.8331916148439038,0.6473398140767086,3.0105559652414176,4.661380691419822,,,0.6509067234006624,inf,,,0.6912326549387575
329,,0.0,0.0,0.8950323842187337,0.8436567255961653,0.7090605426012405,2.6828412404074413,3.3075106461657655,,,0.5287703885177266,inf,,,0.6741187157207128
330,,0.0,0.0,1.302385766977413,1.2646940076805722,0.7882857930295796,1.6317596932043799,1.6546767648973515,,,0.5677978065141052,inf,,,0.8324582089823703
331,,0.0,0.0,1.493069421693872,1.4319965554281024,0.8702680934057565,1.8015481930178268,1.7638071499261727,,,0.524519217297268,inf,,,0.8120626911505839
332,,0.0,0.0,1.6198208943898385,1.5283793084164838,0.9131100461322537,2.0280104404956707,2.114787701377321,,,0.524519217297268,inf,,,0.8573344961108325
333,,0.0,0.0,1.4137303511165074,1.3985289181344192,0.8684339304351716,2.2492013883895803,2.2332413422884545,,,0.4928685327679205,inf,,,0.8942580906683936
334,,0.0,0.0,1.168605589307367,1.1614130901209474,0.8510247838706826,1.865927758597935,2.1053830008251673,,,0.552929491858785,inf,,,0.8182322093322153
335,,0.0,0.0,1.4803791388803376,1.4290723017697418,0.8867649875070169,1.9157069137844098,2.067797138166666,,,0.524519217297268,inf,,,0.8102659694357557
336,,0.0,0.0,1.3791796449186298,1.297623164240136,0.8549885915265862,2.140042720940815,2.3331689781992115,,,0.5113665138247345,inf,,,0.8358762526467686
337,,0.0,0.0,1.1855168838110075,1.1506665778884873,0.7519695848976777,1.7835336546522043,1.907876374568624,,,0.585052858160615,inf,,,0.7667597563304109
338,,0.0,0.0,0.42646955582966134,0.3800708321897499,0.5976724516703282,1.789101528177058,2.2204250945028408,,,0.5748741956352443,inf,,,0.8484979944759571
339,,0.0,0.0,1.2317031642255347,1.2031150421086216,0.7642136997681925,1.613282711046822,2.0052436199026324,,,0.6068309995095971,inf,,,0.7549114975757959
340,,0.0,0.0,1.3590569239558536,1.3262236479903644,0.8340463355867924,1.3225341692110184,1.7085063317558844,,,0.552929491858785,inf,,,0.7020115854453981
341,,0.0,0.0,1.0370512761773447,0.9034380960169645,0.790313787883531,1.6130549742932845,1.3689614700329102,,,0.552929491858785,inf,,,0.8695781241640659
342,0.8440001174686012,-0.0056266674497906745,0.0,0.7828488641579059,0.7318665988323592,0.6963456471352131,2.0855664506665006,1.8494747893394123,,,0.5329562494928909,5.8546053643907845,inf,,0.8880334300050416
343,,0.0,0.0,1.3066744851255858,1.289537292861444,0.8445002588204134,2.6162861608822645,3.4875074602302973,,,0.5370774965580548,inf,,,0.8668201669583413
344,,0.0,0.0,1.1675806203024213,1.1076472536877546,0.7518702756338831,2.6544280451787547,1.9162851654341488,,,0.5567373465730988,inf,,,0.7953206709121703
345,,0.0,0.0,0.16921395908888537,0.1233122186968689,0.5118103561112186,1.3866660382302558,1.52122767013115,,,0.6125606311107803,inf,,,0.8266880000367467
346,,0.0,0.0,1.0165802098912766,0.9836826995484862,0.7377949402464175,2.126632201854784,2.0813491784931286,,,0.5978297680564633,inf,,,0.8106854587605621
347,,0.0,0.0,1.1918846716749532,1.1479332085006984,0.8304113742026102,2.2334261879173667,3.1185346326051664,,,0.5677978065141052,inf,,,0.6843160616206294
348,,0.0,0.0,0.8829110605332747,0.8773178558666288,0.6854458355990213,2.3722703276556034,2.407922839373981,,,0.5783247308855777,inf,,,0.7677469141431535
349,,0.0,0.0,1.4037676800220007,1.3554815062459769,0.8429878474126761,2.3129593423363795,2.3329594934589752,,,0.5915533975974677,inf,,,0.7274975420129406
350,0.6223781096717381,-0.002074593698905794,0.0,1.019657514196876,1.0002357156072765,0.7130156066203774,2.7062575938332967,2.897489595454686,,,0.6008849035917525,6.326160584327939,inf,,0.8588023079763565
351,,0.0,0.0,1.1603153992006918,1.1290035319814902,0.7370045996116996,3.8046795719737516,3.230887627307916,,,0.676637947632344,inf,,,0.8756838370769722
352,,0.0,0.0,1.090313701654041,0.9847674524181239,0.7566173332129893,2.5101828760910117,2.4678616679638306,,,0.6566669596287297,inf,,,0.8353243693223501
353,1.9877096915447907,-0.019877096915447905,0.0,1.1644180582217742,0.9720524715418446,0.8775045310047607,2.641004612703407,3.0070833783708135,,,0.552929491858785,6.099297251911198,inf,,0.8527118140117548
354,,0.0,0.0,0.8913805928028156,0.8457812030145445,0.7252487250196294,2.2181969890325752,2.613146540461119,,,0.5370774965580548,inf,,,0.8418187955843536
355,,0.0,0.0,1.155283013750223,1.1055690251569352,0.7666109752324302,2.2817315996677574,3.0810743621019356,,,0.4880666971167561,inf,,,0.8013607160860375
356,,0.0,0.0,1.5967209966344071,1.5515632741983898,0.9116121964497228,1.9607622165935523,1.9928013293923892,,,0.4928685327679205,inf,,,0.7603440170196141
357,,0.0,0.0,1.4844328850865776,1.4630758390098428,0.9125855982331439,2.161586349002042,1.7542558256280274,,,0.4928685327679205,inf,,,0.8128808101974709
358,,0.0,0.0,1.6330307476694252,1.6167198646578533,0.9345039905369507,2.485283784157433,2.703216210231887,,,0.49759852643134905,inf,,,0.8700324040777088
359,,0.0,0.0,1.4126120318997692,1.34729977945677,0.8662000502128,2.535620131510472,2.3237801506026137,,,0.4928685327679205,inf,,,0.8205499394339629
360,,0.0,0.0,1.560218379231992,1.5386791226672796,0.9072997528870193,2.355732377615834,3.3600286974250273,,,0.48319206230712763,inf,,,0.8311841876278456
361,,0.0,0.0,1.4292776623569812,1.3899033497979307,0.8765028955204841,2.24664476373957,2.1342056383246466,,,0.44144624493110796,inf,,,0.8401178802510764
362,,0.0,0.0,1.490497583041477,1.4855288812087935,0.8884016636319845,2.4180822887993094,3.5778342507800613,,,0.4928685327679205,inf,,,0.799002801359349
363,,0.0,0.0,1.0982007050901526,1.0671317889712066,0.7896664301604303,2.227003851316743,2.5602919433135747,,,0.5978297680564633,inf,,,0.7093861232677784
364,,0.0,0.0,1.4822400961383682,1.4397237702424635,0.9056113633950559,3.3042380868642476,4.093853288931675,,,0.6357360191111145,inf,,,0.8023096315574667
365,,0.0,0.0,1.3864415317292962,1.3491655262805182,0.8787880507460295,2.8893858917102815,3.500359515479387,,,0.6528756675646988,inf,,,0.8187837856493698
366,1.160487692386197,-0.00386829230795399,0.0,0.8002789952956343,0.7699114141695012,0.6734652498009589,2.8712477026428833,3.284895546436881,,,0.6233814453054027,6.864270167042398,inf,,0.7056290780841901
367,,0.0,0.0,1.3927425401716242,1.3989024936966028,0.8311128544852946,2.637808571309011,2.5005264075442564,,,0.6284777104787076,inf,,,0.829533514548645
368,4.31748811353631,-0.014391627045121034,0.0,0.5303715214026262,0.3872608898525515,0.6298931809084884,2.4539095425526805,2.9512247517543253,,,0.648888643467878,10.021270588192511,inf,,0.89424222494704
369,2.661619696436066,-0.035488262619147545,0.0,1.236033837739494,1.1696626527794123,0.7199635802429021,3.2555755965166226,2.8588973147482024,,,0.6357360191111145,6.134565390748655,inf,,0.7010240929585972
370,,0.0,0.0,1.1000055315593333,1.0982139606599823,0.7377403419414796,2.282224995220975,2.2268922451572783,,,0.4880666971167561,inf,,,0.81655723036031
371,1.5016582584561495,-0.01001105505637433,0.0,0.9448172387706851,0.8853332606065296,0.7093087737432369,2.381893393855186,1.6818273454879726,,,0.6068309995095971,6.502290170873972,inf,,0.7749790991415497
372,,0.0,0.0,1.2858694912196786,1.273866740965156,0.8283791919286165,2.067310295109378,2.7058237214934295,,,0.5883313578629602,inf,,,0.8318022637295752
373,,0.0,0.0,1.4954971698903183,1.4459801164138284,0.902780747366996,1.770043192426145,2.262791759167804,,,0.5783247308855777,inf,,,0.78519011562826
374,,0.0,0.0,0.9669833200660201,0.9323234178434152,0.6441574410787656,1.9536202887106464,2.1403983285613934,,,0.6008849035917525,inf,,,0.8405988669684353
375,,0.0,0.0,1.3563724512477837,1.3195757087295705,0.8168201598663811,1.749071970133104,1.7568656873113253,,,0.5370774965580548,inf,,,0.7794355934775931
376,,0.0,0.0,1.3327432886344819,1.3128692152773815,0.8199377879100785,1.6509578444606459,2.0130293911675965,,,0.5677978065141052,inf,,,0.741797825583921
377,3.0647251450409425,-0.010215750483469808,0.0,0.5139426457520242,0.3453756350567208,0.5490630193838436,1.518761799817027,1.479875470683213,,,0.5567373465730988,8.768507619697143,inf,,0.8519911219641384
378,,0.0,0.0,1.1715428048318157,1.043402380538155,0.8342479848701708,2.1863003622553165,2.5283536908435575,,,0.5068466436745385,inf,,,0.8465475222147879
379,,0.0,0.0,0.7194386406531681,0.6248210439466318,0.6601416666030531,2.03649039430086,2.007486781215249,,,0.5451288209179292,inf,,,0.8870670362205189
380,,0.0,0.0,1.2431996452328713,1.2539730156130737,0.8298021674499313,1.7725027115650789,2.2580467642751865,,,0.5883313578629602,inf,,,0.8050615519366036
381,,0.0,0.0,1.3364507948462294,1.3033683439749018,0.8270762273267454,1.8762571350074322,2.4887363850641027,,,0.541134803179459,inf,,,0.8086809766012196
382,,0.0,0.0,1.3451940997341119,1.3032641556929105,0.8272631521857565,1.7850421801396392,2.011643775811226,,,0.5604843169999094,inf,,,0.829719842186297
383,,0.0,0.0,1.4079249648937597,1.336190189742763,0.8441977997708249,1.8939137862273485,2.5346558580843324,,,0.5451288209179292,inf,,,0.7991569029233002
384,,0.0,0.0,1.539634250984639,1.4784882659634377,0.8905963362475867,2.128282325400789,3.0029938396246627,,,0.5677978065141052,inf,,,0.8206653175027958
385,,0.0,0.0,0.6161729814871243,0.46984563928135026,0.5918680389385802,2.304821775000848,3.152505039456987,,,0.552929491858785,inf,,,0.9033274194369569
386,,0.0,0.0,1.0025955332802403,0.9338623700893688,0.8247232121897426,2.557591229124359,2.3707581927719215,,,0.4880666971167561,inf,,,0.854893309978598
387,,0.0,0.0,1.5562638362773256,1.5379534238292538,0.9119434595059396,2.452080937858198,1.6330020506984786,,,0.47824363442641393,inf,,,0.802854069345478
388,,0.0,0.0,1.622836948856669,1.518334334125361,0.9274388737855236,2.541817729472187,2.7200009898352966,,,0.5022576003740722,inf,,,0.8513357269851617
389,,0.0,0.0,1.6346788167162758,1.5300131254998541,0.9249233179148502,2.690269426469641,2.061491066599942,,,0.5068466436745385,inf,,,0.8849562115999917
390,,0.0,0.0,1.6925857586942217,1.6494378852632008,0.946600921249251,2.8306926688424094,3.0235993608983227,,,0.44694259446804574,inf,,,0.8518048431992482
391,,0.0,0.0,0.823638049144636,0.7758211806685317,0.6988830390800506,2.373305385497009,2.317145377233655,,,0.524519217297268,inf,,,0.8039783179649912
392,,0.0,0.0,1.6524781076634012,1.602016128386173,0.9446519546220444,2.4441945735967914,2.810837666267105,,,0.5490601803369085,inf,,,0.8506134136635578
393,,0.0,0.0,1.63237473523039,1.5474267969441757,0.9324379004948364,2.624201746546277,2.080926619748938,,,0.5329562494928909,inf,,,0.8678436420395784
394,,0.0,0.0,1.4533982412951447,1.447853056216372,0.920010866257996,2.827550542143567,3.954493894741426,,,0.5202020156036558,inf,,,0.8344241925683838
395,,0.0,0.0,1.3218077187657418,1.2992914990300832,0.8147684232515159,2.49411006433719,4.41633539524984,,,0.524519217297268,inf,,,0.8175488035932826
396,,0.0,0.0,1.493305010097803,1.450773438677536,0.8795337219676153,2.3988264219943587,3.9458193392654146,,,0.5567373465730988,inf,,,0.8041313541356035
397,,0.0,0.0,1.3646635759014631,1.312757780765937,0.8802974844478973,2.2721722452508777,2.56077731725363,,,0.5490601803369085,inf,,,0.7944109870998921
398,,0.0,0.0,1.510381671880398,1.5139622088119573,0.9422348238269149,2.3412057577872623,2.3315006222751076,,,0.524519217297268,inf,,,0.8371483924528462
399,,0.0,0.0,1.5160282114828592,1.4620694681466708,0.8644454578174783,2.4637212052447577,2.6748883729448045,,,0.5113665138247345,inf,,,0.8127854959714929
400,,0.0,0.0,1.3987897763185222,1.3350434835371698,0.8803417773664587,2.3825161854121393,2.8252692540037225,,,0.585052858160615,inf,,,0.8024393000961231
401,,0.0,0.0,1.5165527699361614,1.4593298477096794,0.9237506801654928,2.4441764684930267,2.439763373514312,,,0.5604843169999094,inf,,,0.8527001511072001
402,,0.0,0.0,0.8020591190264722,0.7732906046600578,0.6424710635121866,2.046795901825902,1.688061005965238,,,0.5068466436745385,inf,,,0.8918863763774054
403,,0.0,0.0,1.5160736482278399,1.4427841120360956,0.9005773967923129,2.119922156589498,1.9853228491195885,,,0.5329562494928909,inf,,,0.8864788915374133
404,,0.0,0.0,1.650722116632652,1.5610317667106688,0.9080709384518985,2.3770031896517816,2.7006240510760247,,,0.49759852643134905,inf,,,0.8882460336745602
405,,0.0,0.0,1.5633785440224621,1.562284021273849,0.881077922630538,1.8755761262425787,1.5485341896241167,,,0.5567373465730988,inf,,,0.8284742431327585
406,,0.0,0.0,0.9890719756043435,0.9657750374027868,0.7169140199462894,1.6704025511843599,1.887313463243509,,,0.6125606311107803,inf,,,0.8492050869874136
407,1.791759469228055,-0.005972531564093516,0.0,0.7957727143134594,0.7348229538524215,0.6543885004856751,1.7739996382508638,1.725282790600981,,,0.585052858160615,7.495541943884256,inf,,0.606271401085003
408,0.4888467170472155,-0.0016294890568240516,0.0,0.9089781715799786,0.7965235557425843,0.8038128749882125,2.933287238746966,4.5733200330002735,,,0.5490601803369085,6.192629191703416,inf,,0.8856971289406074
409,,0.0,0.0,1.493958016446463,1.3271761952297987,0.8866783576759999,2.6717484863043297,2.9130046322391934,,,0.5451288209179292,inf,,,0.8781119742734006
410,,0.0,0.0,1.230883113037948,1.1894498152632729,0.8037461401887773,2.546344839367273,3.022275973930333,,,0.5567373465730988,inf,,,0.761503881662566
411,,0.0,0.0,1.4249075963836626,1.4102428037915873,0.8115350831565591,2.560807667520613,2.7777937582382934,,,0.5748741956352443,inf,,,0.8199910607195636
412,2.8932373736380046,-0.028932373736380045,0.0,0.7792249054842719,0.7582335805354402,0.6403891967210718,2.5725350525470634,3.061565218845935,,,0.6180765742263259,7.382213258577253,inf,,0.5877232166641795
413,,0.0,0.0,1.464814601876376,1.3942376453770955,0.8646364884241041,2.48130823531177,2.420052586729695,,,0.6153451465759925,inf,,,0.8232932237888
414,,0.0,0.0,1.2531753952213893,1.1900280153608052,0.841208273746683,2.275988660761597,3.0055884687845844,,,0.5604843169999094,inf,,,0.8392826175949731
415,,0.0,0.0,1.1752096930369715,1.1423359635138655,0.7872254550576072,2.908578707839818,2.975506345370812,,,0.5329562494928909,inf,,,0.8908886978858099
416,,0.0,0.0,1.2271493620065332,1.1841668231282951,0.7981112343843075,1.9216120861046362,2.127118950344207,,,0.5677978065141052,inf,,,0.8255646300615629
417,,0.0,0.0,1.1367908766928334,1.1060989738190439,0.8032504325791903,2.070554502169445,1.824248918423903,,,0.581717464821069,inf,,,0.7989348923594101
418,2.013696872034694,-0.020136968720346943,0.0,0.9632232446059644,0.9026468980057286,0.7160854026954132,2.8455553635999498,2.935784600423408,,,0.5567373465730988,6.517215821090648,inf,,0.8319386048233273
419,,0.0,0.0,1.570118843095586,1.5059102131973683,0.9264640103798976,2.1793792237522136,2.4398590724095603,,,0.49759852643134905,inf,,,0.7964273535620916
420,,0.0,0.0,1.444787748813112,1.3987670511203723,0.8720500724933686,2.0992555543093494,2.199309060808046,,,0.49759852643134905,inf,,,0.8069766506508707
421,,0.0,0.0,1.409825747783342,1.3996212060314408,0.825529511168927,3.415362859169995,2.9665148801329604,,,0.6468212168108125,inf,,,0.7794043606156517
422,,0.0,0.0,1.2255182860506655,1.1730709877643475,0.7872673146182027,3.8460239285582865,10.00160215798544,,,0.663668482632973,inf,,,0.9197196642174579
423,,0.0,0.0,1.0408246299257,0.9859592121450673,0.6270791385641947,3.4924094143746647,16.077269127355365,,,0.6403206450210053,inf,,,0.7036582085058143
424,,0.0,0.0,0.8371818576583044,0.787344184427507,0.7425534033862163,3.263969380818598,3.528214699974686,,,0.5915533975974677,inf,,,0.8318551293263725
425,3.3058872018578307,-0.011019624006192769,0.0,1.1006047660678633,1.0901356417970274,0.7443574588999887,3.944934497211847,8.312961282331631,,,0.6403206450210053,9.009669676514031,inf,,0.8304013942343229
426,1.2652804170462455,-0.012652804170462455,0.0,0.7799959913048731,0.7357400185645795,0.5541547871919043,3.864392029313655,3.575639286151398,,,0.6509067234006624,5.572754212249797,inf,,0.876929994001729
427,1.3921626026049567,-0.013921626026049566,0.0,1.2066344093757904,1.1495682739129471,0.7186956064777995,4.6294890585253095,9.041392005863479,,,0.6447042257417027,5.805446128432701,inf,,0.7434764682847463
428,0.43592431559287304,-0.0014530810519762434,0.0,1.2020524921016433,1.1762490825968608,0.6967060333154987,3.5027759079501943,2.146113977730125,,,0.6668815377411301,6.139706790249074,inf,,0.7357543977186582
429,1.7137712059127905,-0.017137712059127907,0.0,1.3132263712231607,1.2461669240715598,0.8135377919208173,4.500477575114439,24.477446800656196,,,0.6727386042041725,6.129450290081885,inf,,0.8094615942298277
430,2.1873729377566,-0.021873729377566,0.0,1.2972730629051652,1.2426483026325759,0.7527749571016753,4.566668305893085,21.9102541837052,,,0.680118107274185,6.032286541628237,inf,,0.6989541141747224
431,1.1282828614065716,-0.018804714356776192,0.0,1.4195621611817002,1.3936343158906193,0.8611926588491331,4.5136337153601875,15.054183851670848,,,0.663668482632973,5.083205986931091,inf,,0.8559800872139062
432,2.2804784782048726,-0.11402392391024364,0.0,1.3621542688628545,1.3486720095595577,0.7699962709336069,4.596576498718551,10.389688054081914,,,0.6468212168108125,4.766382779571811,inf,,0.882904096839273
433,2.680212186333438,-0.16081273118000627,0.0,1.4140102573657598,1.3696770155777789,0.7869597144122854,4.180714682551118,4.902896586772541,,,0.675384900321601,5.252706855295984,inf,,0.7904303843138422
434,2.0468330528800376,-0.10234165264400187,0.0,0.8967409938142656,0.8798715767135165,0.6481155228695409,4.139997090770947,1.9367163406978225,,,0.6699045166045591,4.708064609150724,inf,,0.8628184298064248
435,1.7588480853825734,-0.06449109646402769,0.0,1.166726763718987,1.1393723285965127,0.7035985547172889,4.441652063367333,8.980683209701063,,,0.6699045166045591,5.0206856299497575,inf,,0.8579016656392481
436,1.6919984672929091,-0.05075995401878727,0.0,1.2124802171281794,1.198229121390538,0.731130013766446,4.71995907414885,10.090638895454891,,,0.6380535849069913,5.005647752585217,inf,,0.6987749179574391
437,1.2828422312896728,-0.012828422312896728,0.0,1.1229693747982892,1.098337077135639,0.7510066279753952,4.210219182753149,41.39498056826761,,,0.6584896970785714,5.4833091518978705,inf,,0.8578687589272569
438,0.8362480242006186,-0.002787493414002062,0.0,1.2553853196103377,1.228208486432824,0.6746523349563648,4.5261203893708375,58.41156310094188,,,0.6713451011121618,6.54003049885682,inf,,0.8453039481934389
439,1.4845182682448594,-0.024741971137414324,0.0,1.1831566339536388,1.1697958041314753,0.7835383596952193,4.377627470870024,3.8320558823164603,,,0.6584896970785714,5.196964872287749,inf,,0.5253862919581632
440,,0.0,0.0,1.2674237436300464,1.2299036995294323,0.8228435368586163,3.1523918461240568,2.7802804804039094,,,0.6233814453054027,inf,,,0.891028412322702
441,0.46910457611465534,-0.004691045761146553,0.0,1.1170447505320675,1.1000652257727515,0.7500083499767938,4.337962238374999,3.8200319204451887,,,0.6547956803312163,5.0139741953617705,inf,,0.6453903083636886
442,2.063630523934959,-0.020636305239349586,0.0,1.1571359388491729,1.0878077796573944,0.7155075142207266,3.459859068062784,2.540599323338104,,,0.6468212168108125,6.2659013928097425,inf,,0.7947808793643919
443,1.1635641962459995,-0.027149831245739987,0.0,1.3305920286228345,1.3035244459341453,0.8156661652071439,3.9334958086635115,7.581378088333473,,,0.6333676938231112,4.766382779571811,inf,,0.7879146977507401
444,,0.0,0.0,0.8980324088247686,0.8181620868683668,0.6554384351488038,3.0859209761075115,4.298781587637961,,,0.5915533975974677,inf,,,0.6727947924422985
445,,0.0,0.0,1.0076000343631184,1.000081669482092,0.6655004186926013,3.2098824607823757,3.4550586452341756,,,0.581717464821069,inf,,,0.9366094037780317
446,5.0106352940962555,-0.016702117646987518,0.0,0.9639470869985783,0.9751153231962525,0.7168944923407858,3.8573803558378024,10.17669912402484,,,0.5748741956352443,10.714417768752456,inf,,0.9119337482016009
447,,0.0,0.0,0.717305792965248,0.6983915448986648,0.8899653178986408,2.8591742277093966,4.3769856302576535,,,0.581717464821069,inf,,,0.6850713396253856
448,1.6607312068216509,-0.005535770689405503,0.0,0.8101407905599333,0.7856223037322779,0.7364027478895192,3.511889552943568,3.517063076229465,,,0.5748741956352443,7.3645136814778525,inf,,0.8141709615912437
449,0.15470638976098125,-0.0005156879658699375,0.0,1.049281975576734,1.0301949667716939,0.756951872049,3.4127770292463517,8.652155914127475,,,0.6038851895711802,5.858488864417183,inf,,0.863317289526749
450,1.4589071193716914,-0.02917814238743383,0.0,1.1457439928270479,1.1473530555326494,0.7406687177197233,4.068297514664853,5.9777113594910976,,,0.6333676938231112,5.246357627617326,inf,,0.7800827779320234
451,0.6039160468320027,-0.0020130534894400092,0.0,0.5112472664613799,0.4167261755188933,0.6014196040100808,2.195687410339811,2.389066948539071,,,0.5978297680564633,6.307698521488204,inf,,0.7750231586215158
452,2.6226805576710555,-0.06993814820456148,0.0,1.0458971152011889,1.0007435368041493,0.7353981169262321,3.052331409868705,1.8299201098599158,,,0.6357360191111145,5.298317366548036,inf,,0.7590265263263413
453,1.51535387060791,-0.02525589784346517,0.0,1.0346661033705216,1.004281892558153,0.6122747215107455,1.858239965209186,1.4761538162454666,,,0.6602640781246099,5.496768305271875,inf,,0.7431432781434688
454,2.2086982574897407,-0.07362327524965803,0.0,1.0387206032929461,1.0119305158813154,0.722847453278599,3.4217697505460762,4.27044188816768,,,0.6403206450210053,5.2548322546082975,inf,,0.7822293956503245
455,1.7334905611040792,-0.00577830187034693,0.0,0.6094249760902907,0.532215803188828,0.613209276304646,2.7115873189772994,4.2546794899487175,,,0.6380535849069913,7.43727303576028,inf,,0.7814682419945889
456,1.3187958687268244,-0.00879197245817883,0.0,1.330631226894638,1.3029330190911255,0.8182865558369213,3.9451911862967455,8.125617514984658,,,0.6468212168108125,6.326160584327939,inf,,0.7998316757613815
457,,0.0,0.0,1.0235530507485286,1.0109290741086259,0.7280811073972249,3.743743859850499,2.1160673789743023,,,0.6425374456860184,inf,,,0.9059235917251063
458,,0.0,0.0,1.2461535173147325,1.1804078070602635,0.8377116752682469,3.055959943682218,9.168180027836469,,,0.6547956803312163,inf,,,0.859385142022048
459,,0.0,0.0,1.1844987605007666,1.1582930838647842,0.8473845943875618,2.512342046536807,2.6236257894809247,,,0.6125606311107803,inf,,,0.9262550952292999
460,,0.0,0.0,1.0143761752455949,0.9580500605087952,0.714757848192371,3.0703646383870358,2.339427356832166,,,0.6125606311107803,inf,,,0.9186700061237993
461,0.886677581406124,-0.01773355162812248,0.0,0.9368466512428443,0.91771077399015,0.6456877183538701,3.113860989514667,2.235422069476178,,,0.6233814453054027,4.466374894244027,inf,,0.8416220726703827
462,,0.0,0.0,0.7332681952257393,0.7027942747831701,0.6668574668748084,2.1855806061258507,1.8056336417681473,,,0.6619902821573977,inf,,,0.9507910073629502
463,,0.0,0.0,1.1737751600803725,1.1508862042437606,0.7080252079553534,2.1107528834337583,1.4603413795426174,,,0.6447042257417027,inf,,,0.9518560092069731
464,,0.0,0.0,0.7388367173081878,0.7124098107253427,0.5708964267770854,1.9692882273856327,1.8462164135527748,,,0.6528756675646988,inf,,,0.7658007443195112
465,1.803086814510458,-0.012020578763403053,0.0,0.9769061822064213,0.9373340374326513,0.6825451927175092,2.707113786387749,2.6714051560345324,,,0.6207552362147116,6.620073206530356,inf,,0.783449672755413
466,,0.0,0.0,1.1207738900611126,0.9908979574139651,0.7776392711127126,4.074202040190381,1.7174153904043425,,,0.5783247308855777,inf,,,0.9305066321253783
467,,0.0,0.0,0.8313445366607916,0.8049165834309621,0.7522295707055239,3.487773628954059,2.5034280250933234,,,0.62595550513784,inf,,,0.9254243090697264
468,1.379602478655258,-0.013796024786552582,0.0,0.9491357803761092,0.9194159073482594,0.6755958019675798,2.6034490694764534,3.5047037621385173,,,0.6097226960127671,5.886104031450156,inf,,0.7506167518367779
469,0.8003425726047129,-0.010671234301396172,0.0,0.7256630363808215,0.6635115810255239,0.6136089623637856,3.1080313518227145,2.632119411478499,,,0.6180765742263259,4.992467990140807,inf,,0.5491251931227684
470,1.3792996390769074,-0.02758599278153815,0.0,0.978616905113142,0.8957448510316139,0.7379711964517885,2.872871566613033,3.3566703384959027,,,0.6333676938231112,5.250585963726847,inf,,0.789609970669902
471,,0.0,0.0,0.6235511206127412,0.5678975383744436,0.6117248704244579,2.855208052052183,2.418777781456941,,,0.62595550513784,inf,,,0.7811054100412481
472,3.3058872018578307,-0.011019624006192769,0.0,1.1721599968518819,1.1496636691151318,0.7612244352128844,2.9111709283971434,1.7655184450955184,,,0.6380535849069913,9.009669676514031,inf,,0.7568393410480975
473,,0.0,0.0,0.5388066347970618,0.4729784388567706,0.5946890601930005,3.09868368314133,5.782896815537922,,,0.5567373465730988,inf,,,0.8223244224946528
474,,0.0,0.0,0.7014312491321346,0.6485088199800553,0.489542562090473,2.282292422289661,3.3230349354723856,,,0.541134803179459,inf,,,0.8802892311234155
475,0.3101549283038396,-0.0010338497610127987,0.0,0.6682924401488594,0.6390821148915785,0.6611463975014404,1.7735459530157516,1.6898954423630996,,,0.6125606311107803,6.013937402960041,inf,,0.7757427225473353
476,,0.0,0.0,0.5635949290021018,0.5380180713155982,0.6274502361145091,2.3088275161211946,2.231559354840828,,,0.6038851895711802,inf,,,0.5504628650105566
477,1.9349485562688489,-0.025799314083584653,0.0,0.8870875872148367,0.8166397113667793,0.7927842666715139,3.1087947694898355,2.9707404923321823,,,0.6547956803312163,6.192629191703416,inf,,0.5788741555446706
478,2.5470084515176534,-0.01698005634345102,0.0,0.8112984791785276,0.7789242177456742,0.628034047059277,3.088172549780794,3.5484169871334967,,,0.6207552362147116,7.557417347602343,inf,,0.796748139190461
479,,0.0,0.0,0.9621958764414458,0.9071371910810583,0.6779116750477994,2.063091149245141,1.2778776298119827,,,0.6309483474627791,inf,,,0.726793285601693
480,1.8536348729461425,-0.006178782909820475,0.0,0.8167328894130713,0.7282799468795561,0.6572946836912384,3.4580967402721483,2.587387843703099,,,0.5883313578629602,7.557417347602343,inf,,0.6919962388224854
481,2.5340192725961836,-0.027805061860089804,-0.01442859268317992,1.0043507381076444,0.9335524206466825,0.6811670172214546,2.796160219585784,2.2801679222011346,5.146613791966749,,0.6380535849069913,6.254273354814623,3.7669972333778885,inf,0.7802726778879936
482,,0.0,0.0,1.1111208783493556,1.0991007149582053,0.7516012397852059,3.025049537774081,3.938827709888919,,,0.5287703885177266,inf,,,0.9282210473839158
483,1.985837299391676,-0.04633620365247244,0.0,1.2345069126548545,1.1490359772396201,0.7867878797685757,4.012192199064077,6.860226112291966,,,0.663668482632973,5.680717201725205,inf,,0.8084901013180392
484,1.291304673709185,-0.01291304673709185,0.0,1.1212077520061405,1.065494479482082,0.762808105545443,3.7299567871729704,4.074131902201419,,,0.6425374456860184,5.787164083595252,inf,,0.8452367969663085
485,,0.0,0.0,1.1776416475511229,1.1228026816685068,0.7633057447345247,3.1879765942626306,3.6703494078551393,,,0.541134803179459,inf,,,0.8921728709552089
486,1.413886466828174,-0.014138864668281742,0.0,1.2536013624368583,1.138831146127118,0.7856204042696465,3.9774953599817615,4.499324413030447,,,0.6357360191111145,5.73424168214091,inf,,0.8052188512697738
487,0.8019488660292424,-0.005346325773528283,0.0,0.9063291364001094,0.8847522387000667,0.708049773560484,3.3072092371179895,3.4737458845765357,,,0.5947193981915972,5.769210279978656,inf,,0.5738043715561777
488,,0.0,0.0,0.9908989217206866,0.9766883257043404,0.817303656169769,2.9667884770574338,4.105361563029437,,,0.5641709578113449,inf,,,0.7310881042977481
489,1.732100076532363,-0.046189335374196346,0.0,1.226489064961103,1.144124832631802,0.7855964843541248,3.6917249815366637,2.7918777676564375,,,0.5915533975974677,5.070739218165961,inf,,0.875362747056965
490,1.8273777909362863,-0.01827377790936286,0.0,0.9128858116889933,0.8938462724664811,0.8409975254654763,3.566836195440629,3.7477642430763876,,,0.6602640781246099,6.403618643366943,inf,,0.6545292678114824
491,2.9390992612888582,-0.029390992612888585,0.0,0.9442615321591126,0.7523301769922768,0.7805189405680042,0.8670539966678243,0.34015872640958056,,,0.6403206450210053,7.313220387090301,inf,,0.7685002653928286
492,,0.0,0.0,1.440603396522841,1.4171728831204045,0.9467825202022138,0.23393025387400052,0.4143774919587518,,,0.6528756675646988,inf,,,0.9263780910771665
493,,0.0,0.0,1.4003624017228669,1.3615338453304715,0.8996011975884617,0.18862095726264527,0.3901485444524039,,,0.6333676938231112,inf,,,0.9375945099590687
494,0.8705845062950145,-0.01160779341726686,0.0,1.3905736249297984,1.3627893570790832,0.8651963875757529,4.7179075746534105,50.5278044719105,,,0.6425374456860184,5.0410945015809645,inf,,0.8364133483134132
495,1.9425823589626385,-0.006475274529875462,0.0,1.376599226295358,1.330767565888733,0.840922519581765,3.223028587172504,3.0062191989636453,,,0.6380535849069913,7.64636483361884,inf,,0.7867371880164338
496,3.4011973816621555,-0.011337324605540518,0.0,0.810369036613934,0.7813725044569498,0.6840609744046435,3.4461931457025754,2.6343771838447667,,,0.6233814453054027,9.104979856318357,inf,,0.7381702721636026
497,,0.0,0.0,0.8704844095452127,0.8440284475991601,0.6331094738531468,2.7349162601342774,2.286163339835002,,,0.6233814453054027,inf,,,0.7018115952699985
498,0.19439413802822383,-0.0006479804600940794,0.0,0.8068857725986287,0.7793220643300536,0.5047030041689512,3.005053596691803,2.8871961970127407,,,0.62595550513784,5.898176612684425,inf,,0.6114035548511065
499,1.1134928822091499,-0.011134928822091498,0.0,0.9892984158141763,0.9566941158357944,0.6708543357834014,3.337281951382095,5.644471456113355,,,0.6602640781246099,5.710471462806998,inf,,0.89027644984122
500,1.4088226321528632,-0.018784301762038175,0.0,1.3534614740366884,1.3036481711863208,0.7536812342499959,4.18654650783609,8.941379251764403,,,0.6447042257417027,5.388971734816168,inf,,0.719152485071284
501,1.1515913275218492,-0.011515913275218493,0.0,1.2049064930850766,1.2017193249056741,0.7727502181841852,3.8173235400271874,3.8767257819307335,,,0.6566669596287297,5.737684026331882,inf,,0.6777998954958991
502,1.9933854601778265,-0.03986770920355653,0.0,1.1119840378700188,1.0865737595186666,0.7727497508712813,4.012443444550382,3.4278300625080638,,,0.6727386042041725,5.707121375921716,inf,,0.6347036315159021
503,1.6871154667161705,-0.01124743644477447,0.0,1.166784696316618,1.1223006482570776,0.7470936467577223,3.5378177505029442,3.876001590011734,,,0.6528756675646988,6.680177130600062,inf,,0.9015921180938041
504,,0.0,0.0,0.9330862611822168,0.9212202880433027,0.7135916267170307,2.5367253411608597,2.3666430412670767,,,0.648888643467878,inf,,,0.9307665015288173
505,0.3378064596343495,-0.0011260215321144984,0.0,1.0844353721014612,1.015855551237619,0.702425108779236,3.1539673824461514,1.865176321955544,,,0.6357360191111145,6.041588934290551,inf,,0.7448644633095094
506,0.8836309988138338,-0.0058908733254255585,0.0,0.8974459493188108,0.8430101667157074,0.5645410527749902,2.519438339273179,2.296683306586409,,,0.6125606311107803,5.820316290912153,inf,,0.5781614895306811
507,,0.0,0.0,0.8992325860441204,0.8541144121043063,0.6673126730418383,3.0823701292331753,2.7561988515891795,,,0.6668815377411301,inf,,,0.779626853069445
508,,0.0,0.0,0.7977143690074602,0.7887772896700682,0.7961995020776329,2.057913747335874,1.7369603559018851,,,0.6713451011121618,inf,,,0.9153445854760686
509,1.5353490902750713,-0.016774586343279337,-0.0036967348603882825,0.8021143787182937,0.7274655031117084,0.5403902328530792,2.9467461744994843,2.287684714068094,1.2896683219259217,,0.6333676938231112,5.578619331702195,1.233825767475617,inf,0.909978596850996
510,,0.0,0.0,0.9530152790688602,0.9088753509404566,0.712952584939886,2.631467021295318,2.0556574786808532,,,0.6380535849069913,inf,,,0.8817454621291044
511,,0.0,0.0,1.0840331191070014,1.0322318036217495,0.7434545545184897,2.7133735815517563,3.204688219067374,,,0.5567373465730988,inf,,,0.9003241024272722
512,,0.0,0.0,0.5078299102772684,0.4782663825736506,0.6524957469029672,3.104081638990239,5.649145827042982,,,0.6309483474627791,inf,,,0.913976751164686
513,,0.0,0.0,0.83481358993396,0.7991279414395216,0.615832519004111,3.2079910810816155,7.447568895048995,,,0.5783247308855777,inf,,,0.7045563754749599
514,,0.0,0.0,0.8864818972147573,0.8386242024678259,0.6830991032169073,3.2014591762051112,4.827454074257544,,,0.5604843169999094,inf,,,0.8545125830284449
515,0.22731892272469043,-0.0007577297424156348,0.0,0.5662825342281799,0.4645163518858346,0.5641290877734105,3.1063379934731463,7.75621200109142,,,0.5641709578113449,5.931101397380892,inf,,0.6256702770901648
516,,0.0,0.0,1.3564970913658914,1.2600528630231058,0.8042691669120087,3.9644615416525637,26.966423373931878,,,0.5748741956352443,inf,,,0.8401649673673522
517,,0.0,0.0,1.2311822412513242,1.2335093960249863,0.7296069893148032,4.010476289233174,77.94874719665168,,,0.6357360191111145,inf,,,0.7604563473707618
518,,0.0,0.0,1.0908652727453978,1.0274372916892687,0.7933719921771087,3.6887972793442563,55.41157002299277,,,0.5947193981915972,inf,,,0.8643458715698217
519,1.1685757854738972,-0.035057273564216916,0.0,1.1902446308178838,1.1746775141081884,0.7616055623907815,4.501228153708113,22.52482936869304,,,0.6403206450210053,4.54063166485052,inf,,0.5700984774285118
520,1.4590823510768154,-0.043772470532304465,0.0,1.1632873446202305,1.1249670187589529,0.7763990822119071,3.722354887235325,5.8150420349880605,,,0.6528756675646988,4.783499721512508,inf,,0.49712561307621655
521,,0.0,0.0,1.1426552381956707,1.1019345025980796,0.7014376098750944,3.2180344841443924,5.291675559873959,,,0.585052858160615,inf,,,0.8016754820371351
522,,0.0,0.0,1.2299245833247956,1.1905668360298427,0.83796218556031,2.9960986951463657,4.688407019225494,,,0.6068309995095971,inf,,,0.8050659069060802
523,,0.0,0.0,1.381886714555826,1.3803142956306114,0.8511864936756547,3.39187998972714,6.8961533420017265,,,0.5451288209179292,inf,,,0.8812555367280039
524,0.585788662239446,-0.0019526288741314867,0.0,0.9088966160486183,0.8379224373373836,0.6764663739527728,3.508937441403721,3.039513064655359,,,0.5451288209179292,6.289571136895647,inf,,0.7485285188272077
525,,0.0,0.0,0.6583773451769364,0.60467833176768,0.6929741519401518,2.722980958454725,2.0975335646698863,,,0.5287703885177266,inf,,,0.6679782260873264
526,,0.0,0.0,0.8966822332934179,0.8606995302239503,0.8241973541195162,3.5292458397627353,11.699552145692731,,,0.5947193981915972,inf,,,0.9217961306393968
527,,0.0,0.0,0.9983421160649236,0.9643046311499173,0.8627793874000997,3.1130936388381296,3.396452406443576,,,0.5748741956352443,inf,,,0.7836009681111996
528,,0.0,0.0,1.0012918585608994,1.000752211525248,0.7593777357918507,3.4145161547295038,3.874491291764998,,,0.5883313578629602,inf,,,0.838926659008016
529,1.4067053583800182,-0.009378035722533455,0.0,1.1265714564778833,1.106426461526015,0.6777479983056359,3.3119455709972248,2.3781606023557966,,,0.648888643467878,6.242778975388888,inf,,0.8611743927359315
530,,0.0,0.0,1.4296041836140194,1.4112400776604201,0.7575809375960748,4.170205944115715,39.26189328724067,,,0.6584896970785714,inf,,,0.9341409013951688
531,,0.0,0.0,1.3999568360308643,1.3878719029319972,0.8981351188640655,4.058399263488963,87.15051537189497,,,0.6566669596287297,inf,,,0.9108064250291048
532,,0.0,0.0,1.3571654641225206,1.318535535932635,0.7864402216003784,3.7430177861642444,11.33591017858253,,,0.676637947632344,inf,,,0.914070358586935
533,2.70805020110221,-0.009026834003674034,0.0,0.8536671490953951,0.7913881509383821,0.5916236786578054,3.162103363762078,4.382101532135236,,,0.5490601803369085,8.411832675758411,inf,,0.9001318332819948
534,,0.0,0.0,1.0468982714211361,0.9798500051616841,0.7483432768104293,2.324551728298236,2.8326785856330106,,,0.524519217297268,inf,,,0.7805437026123022
535,,0.0,0.0,1.0022906913223701,0.9571840151273167,0.7496698342738958,1.962493113156616,1.669495601556923,,,0.5022576003740722,inf,,,0.8557501161019414
536,0.40047756659712525,-0.0013349252219904174,0.0,0.5988902498074129,0.5738658413014136,0.7023548292328262,2.2759192383128117,1.659112636524195,,,0.5883313578629602,6.104260041253326,inf,,0.9433016643028453
537,,0.0,0.0,0.8730968128947281,0.8274058398075267,0.6439533158663843,2.2543099760751595,2.335373422475142,,,0.6207552362147116,inf,,,0.7490269859912609
538,,0.0,0.0,1.0387629627958723,1.0213544977306273,0.796038786056356,2.8852999519074256,4.656738260390949,,,0.5748741956352443,inf,,,0.9270177062117249
539,,0.0,0.0,1.0862033992371196,1.067593044879252,0.7470261794381151,2.0808408845778117,2.3630713632466964,,,0.5202020156036558,inf,,,0.8412814272448969
540,,0.0,0.0,1.3300639016784297,1.3081281544754664,0.9073940146502377,2.4353991598441267,3.4314568718266116,,,0.541134803179459,inf,,,0.8508396873526115
541,1.064740384458996,-0.010647403844589958,0.0,0.9782700380332793,0.9186703703460006,0.6024846366226236,2.6782247107582755,2.5238744515049216,,,0.6357360191111145,5.572754212249797,inf,,0.6432135625310741
542,1.1086626245216111,-0.003695542081738704,0.0,0.5952974453694478,0.5047708138401583,0.6129149017399836,2.2648973695896397,2.8122099107214726,,,0.6008849035917525,6.812445099177812,inf,,0.8247794568471354
543,,0.0,0.0,1.212924949588415,1.1958133433422302,0.9129313303940758,2.5243196930157032,2.4079999858222068,,,0.5451288209179292,inf,,,0.8633893041931041
544,2.4332674750612493,-0.016221783167074996,0.0,0.9385652390497152,0.9114448419693821,0.6608420079273896,3.707845310254446,3.307940283420605,,,0.6180765742263259,7.418580902748128,inf,,0.9282078597468636
545,0.8863707316961464,-0.005909138211307643,0.0,1.0073507045124137,0.9808785933024514,0.7617711321656241,2.3866955916859687,1.4678462581816238,,,0.6309483474627791,5.870230682293865,inf,,0.8175868311610353
546,1.284941866859603,-0.004283139556198677,0.0,0.7057633803016582,0.670663719781122,0.7745383845887279,3.6116678634237753,4.138383590086691,,,0.6652988471865258,6.9887243415158045,inf,,0.6637023683074661
547,,0.0,0.0,1.1656263940880982,1.1409929637247636,0.7780836997217092,3.6016807702058466,2.405261518431455,,,0.675384900321601,inf,,,0.9410558125372973
548,,0.0,0.0,1.5898034214796215,1.573224481642929,0.8153133107611559,3.48453600262667,1.6574551948933784,,,0.675384900321601,inf,,,0.9011424933980173
549,,0.0,0.0,1.40151860359914,1.3418907392369652,0.8299640843958953,3.4843158210066467,5.327225280576009,,,0.6309483474627791,inf,,,0.861842965343656
550,,0.0,0.0,0.9144608710690973,0.8514736195970565,0.6788851212323196,2.2357720757318997,3.001206862346249,,,0.581717464821069,inf,,,0.864211450950019
551,,0.0,0.0,1.0384425103112274,0.9823663166729837,0.7374498044684028,2.6396904572630224,1.9559406295194846,,,0.6509067234006624,inf,,,0.8785993913302029
552,,0.0,0.0,1.367091695707988,1.297263566274307,0.7914930111988865,2.4962088243535923,2.8966440105452405,,,0.6403206450210053,inf,,,0.9163814413018473
553,,0.0,0.0,1.2466501741331424,1.2432955107156944,0.7838252145285036,3.2562644130357934,2.633692886210971,,,0.648888643467878,inf,,,0.9360907710339368
554,2.1484344131667874,-0.0071614480438892915,0.0,1.0961862038068078,1.0964286680400546,0.7988742202212685,3.1068636176746205,2.5802092691956906,,,0.6125606311107803,7.852216887822989,inf,,0.9135809908307793
555,1.3585512212595372,-0.013585512212595373,0.0,1.2449169519624292,1.219620441941471,0.8058622269092813,2.9428420297572915,1.9522634573728337,,,0.6284777104787076,5.8546053643907845,inf,,0.741705011314839
556,,0.0,0.0,0.8262309539269346,0.8214636441698725,0.6573520216603425,3.4857024050282903,6.644846959212025,,,0.4732203808476458,inf,,,0.9081544090389616
557,0.19439413802822383,-0.0006479804600940794,0.0,0.8132186041674947,0.785892427382786,0.5861614270181238,2.3190250208130356,1.705780196473213,,,0.5287703885177266,5.898176612684425,inf,,0.7581448698850419
558,,0.0,0.0,0.37380229785751296,0.3373382693167562,0.4236300496068884,1.8697718210017296,1.9462765750047302,,,0.5783247308855777,inf,,,0.9141405015660189
559,,0.0,0.0,0.7411401721852967,0.6847318122789621,0.7833680255110763,2.0276785003126854,2.16470006462726,,,0.5370774965580548,inf,,,0.846111064209371
560,,0.0,0.0,1.459256893401513,1.4392937728270068,0.8680589574638281,2.665812238218232,2.754527642256425,,,0.5451288209179292,inf,,,0.8193915794328546
561,,0.0,0.0,1.6318519105789981,1.5782020713465899,0.9493249896372136,2.4800706535397046,2.5894922469669264,,,0.5202020156036558,inf,,,0.7909692360350814
562,,0.0,0.0,1.5028204534393685,1.464204679801695,0.9112883498803538,2.9233405645483637,2.5621303127493564,,,0.5068466436745385,inf,,,0.9054870277427457
563,,0.0,0.0,0.4054887846261116,0.34285876515777725,0.6220821571767624,2.3972094479865773,2.3441434687086873,,,0.5783247308855777,inf,,,0.837922490035969
564,,0.0,0.0,1.478989987620128,1.4019400140132163,0.8710546140857198,2.096197002486886,2.4735326835073392,,,0.552929491858785,inf,,,0.7630801140910295
565,,0.0,0.0,1.435150876456269,1.4092948643261132,0.860686231819874,2.1177647331528595,2.9610313563817887,,,0.5604843169999094,inf,,,0.7516703254675257
566,,0.0,0.0,1.4187271338620402,1.4045726317753264,0.8548788096332263,2.29163096541957,3.3831211257920897,,,0.5947193981915972,inf,,,0.7758531561889465
567,,0.0,0.0,1.377176504354444,1.3987968689518322,0.8545220726951657,2.536579936218845,3.144568729129694,,,0.5451288209179292,inf,,,0.7726836365774996
568,,0.0,0.0,1.391558544050777,1.3779886342442307,0.8336841471715277,2.429626709966401,3.1492996122152035,,,0.5748741956352443,inf,,,0.7711204448953236
569,,0.0,0.0,1.4462743338309014,1.4259665854557826,0.8925061230600395,2.6949880182259185,3.890006577710129,,,0.6097226960127671,inf,,,0.7751035127520259
570,,0.0,0.0,1.0289224903607657,0.9879114791759581,0.7270074607096725,2.617553282265591,3.331495056009648,,,0.6038851895711802,inf,,,0.8585621040070992
571,,0.0,0.0,1.3252727602270011,1.3149918888175023,0.8114216790395573,2.287149931209448,4.117776692122009,,,0.5677978065141052,inf,,,0.7738899797797808
572,,0.0,0.0,0.4738218329754899,0.4452695785737167,0.527181301584085,2.741707444520258,3.1649873500057657,,,0.5713653840954815,inf,,,0.7952404135098403
573,,0.0,0.0,1.470776558097651,1.4282169208950188,0.8849197909010337,2.171540866193166,2.2125855664524385,,,0.6068309995095971,inf,,,0.7317857100897897
574,,0.0,0.0,0.4910088889908819,0.4712375715574118,0.8127671564407198,2.7174943698253045,2.7911376780403128,,,0.6038851895711802,inf,,,0.7802237588285299
575,,0.0,0.0,1.7147850995720457,1.6194394232016924,0.9563817858409552,3.235789658905294,2.740052997594243,,,0.5677978065141052,inf,,,0.8992893409373622
576,,0.0,0.0,1.7734528776477978,1.739980881419692,0.966043125605418,4.054448005691013,43.199904030100306,,,0.5329562494928909,inf,,,0.8968485741519915
577,,0.0,0.0,1.7733186988097123,1.732759599820065,0.972928299292436,4.381589668592988,8.260293845524721,,,0.524519217297268,inf,,,0.8771331822505015
578,,0.0,0.0,1.708231267190438,1.6790244672667267,0.9638040227397107,3.461247867423824,2.762366255847249,,,0.4880666971167561,inf,,,0.8435764823071793
579,,0.0,0.0,1.733402479274301,1.6774829344142534,0.9618178304113394,3.690685806610799,6.7695947248959065,,,0.5022576003740722,inf,,,0.8717978974217594
580,,0.0,0.0,1.6741525047540653,1.6350121591520856,0.9641123246718797,3.1988715501038616,4.114617871983981,,,0.4928685327679205,inf,,,0.8177191359380984
581,,0.0,0.0,1.5731510492303489,1.5406929549511645,0.9474471982039,2.457903701931126,2.12747616939699,,,0.5370774965580548,inf,,,0.8474356286500049
582,,0.0,0.0,1.5077474788745124,1.4802570458862587,0.9262259020520592,2.7014780523874116,2.263294381476742,,,0.4928685327679205,inf,,,0.8480745609337101
583,,0.0,0.0,1.601541479589508,1.5377559380115409,0.9351690874448266,2.334048814801691,3.0749131764887134,,,0.5370774965580548,inf,,,0.8478680382630711
584,,0.0,0.0,1.4695927149762869,1.4439060348456525,0.8787601307346663,2.221460235098661,3.0028922386415142,,,0.6038851895711802,inf,,,0.7438955440218542
585,,0.0,0.0,1.2030695605603883,1.1504025255525694,0.7878222731609508,2.01437794639767,2.642742616345532,,,0.5883313578629602,inf,,,0.7748114435319864
586,1.2792407153900316,-0.008528271435933543,0.0,0.5487463784595403,0.41627954693933955,0.5359169859100468,2.086716525683016,2.6637588402606003,,,0.5748741956352443,5.72398518197372,inf,,0.8538549561499987
587,1.5534200507686837,-0.015534200507686838,0.0,1.1095712128864594,1.0668319646927695,0.6698013404277419,3.21526476417688,2.1373365233595805,,,0.648888643467878,5.866301404153976,inf,,0.7135710487394181
588,,0.0,0.0,1.0235148976902386,0.9997301551050388,0.6724145866794394,1.7400895957864626,2.0805157056477563,,,0.581717464821069,inf,,,0.793569933471499
589,,0.0,0.0,1.433593444005284,1.4036446906908953,0.8710580065398223,2.017602099690073,1.7425877783353707,,,0.552929491858785,inf,,,0.7385507380657494
590,,0.0,0.0,1.3915704212576094,1.3249132952615919,0.8167299734771621,1.804800352157104,2.501573084060552,,,0.6068309995095971,inf,,,0.7620572056912592
591,,0.0,0.0,1.2004911007306716,1.155636734925578,0.7628814062147792,1.8822378007825895,2.140982442180082,,,0.5604843169999094,inf,,,0.7318603767616918
592,,0.0,0.0,1.2416827355459146,1.2125108860475429,0.8147779845957079,1.7926603062619297,2.326673982197721,,,0.6125606311107803,inf,,,0.667495805089554
593,,0.0,0.0,0.9203428943306802,0.8121130752745623,0.6438460504861431,2.001870004051537,2.319526343022452,,,0.6125606311107803,inf,,,0.7906854209326253
594,1.037061190101118,-0.006913741267340787,0.0,0.6672670720087026,0.6363126392107065,0.6926462886311373,2.372176810431539,2.2038005713367497,,,0.5915533975974677,6.027667595771942,inf,,0.6529243819737472
595,,0.0,0.0,0.9346355222044082,0.8443821325688255,0.7319012613536741,1.7394925865502908,2.2449999642219494,,,0.5883313578629602,inf,,,0.7683718905103508
596,,0.0,0.0,1.1685346348999648,1.1397837396573478,0.7801589135691944,1.6328684602727501,1.933380302151526,,,0.6008849035917525,inf,,,0.7430915930425688
597,,0.0,0.0,1.0590803936947983,0.9968516320663449,0.7463922239202964,1.5572867483720638,1.7445590998517497,,,0.585052858160615,inf,,,0.7105763260893185
598,,0.0,0.0,1.1436775621412425,1.1267597497842847,0.7490765526333361,1.9222625405443905,2.431685039531767,,,0.5641709578113449,inf,,,0.710387527665287
599,,0.0,0.0,1.402916723191272,1.3653365984690433,0.8560488422132109,1.8854433299651305,2.463612909459198,,,0.552929491858785,inf,,,0.7280082523663352
600,,0.0,0.0,1.243861051914577,1.2130866563983882,0.8220157256782765,1.9809391556312435,1.9748913979690559,,,0.5329562494928909,inf,,,0.7575560839421888
601,,0.0,0.0,0.37929829800541004,0.33090260773623603,0.46549400823615544,1.9323438132513575,2.158842760731428,,,0.6097226960127671,inf,,,0.7381381940370433
602,,0.0,0.0,0.6164370689405089,0.581924379371827,0.589483095997848,1.5995413134785814,1.6572020865824169,,,0.6528756675646988,inf,,,0.7870514106401724
603,,0.0,0.0,0.8128393691264597,0.7645632893940197,0.6018627479525349,1.9394403009302692,2.757731210783642,,,0.6153451465759925,inf,,,0.8342037984411989
604,,0.0,0.0,1.1381353144962254,1.0753820053243097,0.7870882293703927,1.7195548245854626,2.2116765485102663,,,0.5641709578113449,inf,,,0.7382820785998129
605,,0.0,0.0,1.1941166503048772,1.1421853991744966,0.7888146406121089,1.7026548429042347,2.1601259408172586,,,0.585052858160615,inf,,,0.7309683780938442
606,,0.0,0.0,0.6218082024829037,0.5761464789137059,0.4553438586491611,1.4054741238599453,1.467328325265533,,,0.5567373465730988,inf,,,0.8389768076664523
607,,0.0,0.0,1.1917122450694395,1.0984914609977765,0.7638720981517421,1.279074377670903,1.9148363405451259,,,0.6180765742263259,inf,,,0.7799151481316938
608,,0.0,0.0,1.2377703359497447,1.1893937089816011,0.7410238102452645,1.195646449057543,1.4389299349213764,,,0.5915533975974677,inf,,,0.7345249560675109
609,,0.0,0.0,0.8155501755621747,0.7033403875654568,0.7257627822545388,1.9243597053985162,1.6865964804098241,,,0.5287703885177266,inf,,,0.7657692902396387
610,,0.0,0.0,0.767107764917866,0.7387902607079362,0.6437643661277879,1.6083579199134825,1.556986286594508,,,0.5883313578629602,inf,,,0.8249000280638487
611,2.371577964480997,-0.007905259881603323,0.0,0.4160285505509062,0.3903305489752185,0.4970110822383223,1.8757920494629923,1.866841877116665,,,0.5748741956352443,8.075360439137198,inf,,0.8918444497007131
612,,0.0,0.0,1.424029992366344,1.3511630977914133,0.798506346461571,2.1305422577072686,2.238700778556847,,,0.5748741956352443,inf,,,0.8582423522633885
613,,0.0,0.0,1.231118309272784,1.1924283384099248,0.8509258415756509,2.727099516480296,2.666454749222324,,,0.5490601803369085,inf,,,0.8815928494781191
614,,0.0,0.0,1.3307489313849041,1.272967264474187,0.8908819778166739,2.5042642420520242,2.338756981940783,,,0.5370774965580548,inf,,,0.8440254785684654
615,,0.0,0.0,0.8643676076078066,0.816609462084457,0.6216030638698357,2.212130617928005,1.7689238245940984,,,0.5677978065141052,inf,,,0.8903026254083961
616,,0.0,0.0,1.3393393729437193,1.3135127089816698,0.8204076509949199,2.3458041184241467,2.587129294075149,,,0.5490601803369085,inf,,,0.8503908270126728
617,,0.0,0.0,0.9943617420424394,0.9619113459589175,0.7750855227322943,2.083919436538058,2.2051279693506336,,,0.5202020156036558,inf,,,0.8667632245380124
618,,0.0,0.0,0.9965139517794327,0.9417827217331034,0.6975727127315366,2.4585261390221373,3.1891397913905717,,,0.5641709578113449,inf,,,0.9001914057951216
619,2.448653304394626,-0.01632435536263084,0.0,0.9279150926178646,0.9311364883167401,0.685707358925383,2.06095921988085,2.040739109681225,,,0.5202020156036558,6.636880324846738,inf,,0.8923182045013964
620,,0.0,0.0,1.01158580939353,0.9830405166700181,0.8119694697876847,2.0878982485489117,2.0211235370149407,,,0.5451288209179292,inf,,,0.8471159176124292
621,1.0164486419572718,-0.006776324279715145,0.0,0.6272236851344732,0.5328665110045675,0.6179080008127927,2.6444249386264915,3.0001676158116024,,,0.5641709578113449,5.939504808177271,inf,,0.7416732540669165
622,,0.0,0.0,1.4294474182037837,1.4198202517177931,0.8761161695161909,2.9006084307868703,2.97487170693961,,,0.5158180382284114,inf,,,0.7987606060034111
623,,0.0,0.0,1.3810724975864026,1.3732255494674488,0.8962821717870635,2.9276773271841097,4.0418448410182055,,,0.5202020156036558,inf,,,0.8334586053711899
624,,0.0,0.0,1.5704987989127182,1.5370924443248875,0.9117246335869867,2.6736754985845397,3.3182823802884363,,,0.5202020156036558,inf,,,0.7854228820209731
625,,0.0,0.0,1.6029784913608716,1.5847160848063553,0.9437936169143559,3.0061882588095132,3.0235600737020065,,,0.5567373465730988,inf,,,0.8017374681491358
626,,0.0,0.0,1.6271547870608865,1.603685896937902,0.9200613601584616,2.637960126787923,4.103129208291371,,,0.5567373465730988,inf,,,0.8216933772387478
627,0.8209805520698302,-0.0027366018402327674,0.0,0.7465047388321087,0.6998644848243605,0.48637930354469655,2.528502234623663,2.3421601937192733,,,0.6097226960127671,6.524763026726031,inf,,0.8224397037316227
628,,0.0,0.0,1.3449110954241985,1.3123492904641756,0.8285574616102913,2.2507440344622736,2.702460781544428,,,0.552929491858785,inf,,,0.8374989538145645
629,,0.0,0.0,1.4490830883679797,1.383622587819214,0.8567509050801119,2.0073290155898644,2.4928367119424144,,,0.5451288209179292,inf,,,0.807991634131936
630,,0.0,0.0,0.782873468954718,0.7571597768394368,0.6573274986146936,1.8665950429203946,2.037027704909516,,,0.5883313578629602,inf,,,0.8514401730518041
631,,0.0,0.0,1.1546158835511142,1.109900397797916,0.735448341972372,1.9720252323745617,2.3942277457912455,,,0.5370774965580548,inf,,,0.8416255380109793
632,,0.0,0.0,1.2727631741472574,1.2511296375106977,0.8258158908847596,1.9538203255933917,1.9286329082001243,,,0.5604843169999094,inf,,,0.8363960315602277
633,,0.0,0.0,0.46035680524116984,0.4124400345565016,0.6940472543389523,1.5752295464620927,1.7805206862589076,,,0.5677978065141052,inf,,,0.9039380504434382
634,,0.0,0.0,1.4194547982732575,1.2030716909438102,0.837007795382288,1.8607351904223006,1.8417624727987971,,,0.5978297680564633,inf,,,0.8917289962225394
635,,0.0,0.0,1.3065998500700395,1.2153586652557344,0.8472399942305724,2.270508063001037,2.6511898432838144,,,0.5641709578113449,inf,,,0.8953366067816189
636,,0.0,0.0,1.3449007889701625,1.2654572683907472,0.8231136365121805,1.9830576756721157,2.246829213350115,,,0.5641709578113449,inf,,,0.8333072700202029
637,,0.0,0.0,1.3349980012430427,1.339337770666295,0.7749602334666358,1.8061711603773036,2.749042100686881,,,0.6357360191111145,inf,,,0.7954065869387329
638,,0.0,0.0,0.49310306022396455,0.42711727662380977,0.6517455797435492,1.9493804798551684,2.430575379555663,,,0.5947193981915972,inf,,,0.6676847188758845
639,1.4814712253655,-0.00987647483577,0.0,1.0114689715329253,0.9621637588253971,0.7090331237195112,3.2616799927743148,2.0908244782396332,,,0.6008849035917525,6.487584023484278,inf,,0.7796219890033328
640,,0.0,0.0,1.1741668024795076,1.1491150026358703,0.7790135346878108,1.7172101705760523,1.9700928597206595,,,0.5287703885177266,inf,,,0.7707750221157154
641,1.3997173814520312,-0.004665724604840104,0.0,0.9501922610322513,0.9015927550111555,0.6627374395334346,2.2046297972159357,2.4913470327586293,,,0.552929491858785,7.1034998561082325,inf,,0.643273609363236
642,,0.0,0.0,1.584898057988391,1.5565564256803501,0.8504533511433428,2.632982744244323,2.405486062713579,,,0.6447042257417027,inf,,,0.8549768746360725
643,,0.0,0.0,1.4256145749858378,1.3743758831471107,0.8782686958583547,3.3134603523327857,3.562567888069064,,,0.6425374456860184,inf,,,0.8832928050411647
644,0.6100322738494387,-0.0020334409128314624,0.0,0.7049416658941019,0.6690609377020177,0.7165385420420671,2.529222441032474,1.6919518088130872,,,0.5947193981915972,6.3138147485056395,inf,,0.8790878618098512
645,,0.0,0.0,1.3960768878186811,1.398663423062026,0.8905561704391972,2.4322530047230084,3.065062628301344,,,0.5490601803369085,inf,,,0.7807291872143209
646,,0.0,0.0,1.265365747299086,1.2261060486121544,0.8395383250834112,2.3680265604042323,2.458858913850346,,,0.5490601803369085,inf,,,0.8165982982963177
647,,0.0,0.0,1.344190095453502,1.3192663003242433,0.8754476859561007,2.4987794427845476,2.527999236389252,,,0.5287703885177266,inf,,,0.8469114836046756
648,,0.0,0.0,1.3432588275205941,1.3123101311356962,0.8685203741266848,2.612009216279565,2.9724423302015186,,,0.5202020156036558,inf,,,0.795528004435845
649,,0.0,0.0,1.5621316184915524,1.4873204581138215,0.9069174269447937,2.7178419068682325,2.789822521376121,,,0.468121228110369,inf,,,0.805965114258597
650,,0.0,0.0,1.6728001067474996,1.6268069304799777,0.9550634750319689,3.4119927928353677,3.087995256033738,,,0.47824363442641393,inf,,,0.8622206093624928
651,,0.0,0.0,1.4940585401439441,1.3355933577772334,0.8998648496199283,3.19710069683523,4.835393067996238,,,0.5068466436745385,inf,,,0.8477305713444266
652,,0.0,0.0,1.440580067751815,1.3970842797526937,0.8539686674433754,2.6967383279508232,2.573236685270184,,,0.5329562494928909,inf,,,0.7888327990895289
653,,0.0,0.0,0.8561123315641153,0.834122528698704,0.6429865901202507,2.9918523938353285,5.684763869230263,,,0.5641709578113449,inf,,,0.8473035368773355
654,,0.0,0.0,1.4466838025667244,1.449165345191954,0.8114669754654167,2.2302165515687387,2.926905841173185,,,0.5641709578113449,inf,,,0.7585730789060219
655,,0.0,0.0,1.3946605503910203,1.3716132920588433,0.8520908735904547,2.427128829215651,2.7731076615037455,,,0.585052858160615,inf,,,0.7910852041536802
656,,0.0,0.0,0.8961304855754683,0.8525959552091693,0.6685734963263559,2.163928954044209,1.7325880175278905,,,0.5641709578113449,inf,,,0.767578546665009
657,,0.0,0.0,1.188110315000769,1.1807389768917247,0.7667642473830476,1.753038258336904,1.933743405107532,,,0.5978297680564633,inf,,,0.795524815700652
658,,0.0,0.0,1.2388662324236286,1.216317175303639,0.8155132195105461,1.8762512622052785,1.83920978547638,,,0.5978297680564633,inf,,,0.8383016548738432
659,,0.0,0.0,1.3635136967528367,1.3194296426862717,0.8350390074140202,1.6245818123671782,1.7238292571438245,,,0.5287703885177266,inf,,,0.8108964557339006
660,,0.0,0.0,1.2135672108135402,1.2006593942988653,0.8115145068361672,1.775013701084495,1.8788292135074092,,,0.5567373465730988,inf,,,0.8390128160294884
661,,0.0,0.0,1.374347286231723,1.3035804964024134,0.8108656760403488,1.7822824439989091,2.029325341885254,,,0.5641709578113449,inf,,,0.7938787656646025
662,,0.0,0.0,1.180442406859881,1.1521671402745577,0.7841158174184858,1.612369219252946,1.7194311405546914,,,0.552929491858785,inf,,,0.8031161027771774
663,,0.0,0.0,0.5191206199603208,0.5041635421052807,0.5121380585227059,1.4021211962347142,1.486754103634094,,,0.5567373465730988,inf,,,0.8846821561632052
664,,0.0,0.0,1.4485496569510068,1.3925478869949601,0.8092045308407914,1.2090444443467523,1.226985448893053,,,0.5748741956352443,inf,,,0.8291126676746312
665,3.757872325600888,-0.012526241085336292,0.0,0.252677993871798,0.22513596081957368,0.6178582506888113,1.6671816725024036,1.6380640351126148,,,0.581717464821069,9.461654800257088,inf,,0.6671942540893301
666,,0.0,0.0,0.8464207996049191,0.8307667398916219,0.6313918900096427,1.8399838205243808,1.9100241367105264,,,0.5947193981915972,inf,,,0.5305767444761846
667,,0.0,0.0,1.0792316417716818,1.0699216234982736,0.7466413563652963,1.5046618929696274,1.7904155780209814,,,0.552929491858785,inf,,,0.8501233300074043
668,,0.0,0.0,1.213842924878235,1.161949888987464,0.8440914291713342,1.7518412676336936,2.4223837440867664,,,0.5329562494928909,inf,,,0.847000157515254
669,,0.0,0.0,1.2992833753128163,1.261026106253718,0.821584862420574,1.8967292195094319,2.5730238793858318,,,0.581717464821069,inf,,,0.826092644957384
670,,0.0,0.0,1.3787022068289643,1.3848605704204013,0.8408617434803337,1.9440339874726051,1.9358337851545728,,,0.5978297680564633,inf,,,0.8114057109286488
671,1.4224005715956556,-0.014224005715956556,0.0,0.8978655442047311,0.6043876110740539,0.7357259642014627,2.241151187447745,2.852879214326815,,,0.5915533975974677,5.690537247906181,inf,,0.9049815676116736
672,,0.0,0.0,0.6076154700147853,0.48479012720505543,0.7148057375411143,1.7131037093750427,1.3656551217367563,,,0.5202020156036558,inf,,,0.8546176950804973
673,1.09701484321985,-0.007313432288132334,0.0,1.0955087242911223,1.0059651863909451,0.7685335101879057,2.4720160175690196,1.4289798146151935,,,0.6153451465759925,5.956526495746702,inf,,0.8836849122463707
674,1.139784085826887,-0.005923879342947679,-0.013072522087500439,0.9219431186590348,0.8798579329036426,0.6345382701480416,4.051228214617232,5.685790633980079,,,0.6403206450210053,4.88253529146894,4.733270188615407,inf,0.7249651177221417
675,1.839670845315307,-0.04347367386763825,-0.01171645149182096,1.1603970730357305,1.1283671076960011,0.7415511513972683,3.3062853132548224,2.5381875674290133,4.59473533457935,,0.6425374456860184,4.726710270522187,4.483630101453995,inf,0.8666840518781955
676,,0.0,0.0,1.5825278624493773,1.55004125148117,0.8992724432071066,3.0736731558867922,3.381602909025615,,,0.5713653840954815,inf,,,0.9008065632083415
677,,0.0,0.0,1.3742077159799573,1.3692904565445723,0.8343028187711661,2.7494371510458806,3.5171735874661167,,,0.5978297680564633,inf,,,0.8969444197509507
678,,0.0,0.0,1.4849613440159588,1.4820544580599155,0.9023045227366007,3.3934348020358183,13.960629358729108,,,0.6125606311107803,inf,,,0.8994095317507544
679,,0.0,0.0,1.5831779791295282,1.5585490520896754,0.9099420319655718,3.9071231672311204,3.620630434901998,,,0.5567373465730988,inf,,,0.895836460842858
680,,0.0,0.0,1.2983855647763345,1.2696733569992065,0.7981274032490945,3.319047870341677,6.325843623043335,,,0.6403206450210053,inf,,,0.8133437206167566
681,,0.0,0.0,1.6096966397486385,1.4707007778642056,0.8789465349496256,2.9584261568637307,6.030318793007838,,,0.5113665138247345,inf,,,0.8395632619913672
682,,0.0,0.0,1.6056069747584818,1.5558144482644334,0.8934532624469194,2.3387291540948856,3.335104089464618,,,0.5158180382284114,inf,,,0.8039602804150691
683,,0.0,0.0,1.5336498968216672,1.5455169219051939,0.9181893200965398,2.707333117994552,3.179739220680061,,,0.5641709578113449,inf,,,0.835523270966438
684,,0.0,0.0,1.2813084470657334,1.242663510014077,0.79388931576775,2.2959315998120986,3.5162358042378563,,,0.5883313578629602,inf,,,0.8698029750882046
685,,0.0,0.0,1.1493117236533792,1.133162675728215,0.7724698642192503,2.040661841346704,1.8296243985206795,,,0.5748741956352443,inf,,,0.7366007191739569
686,,0.0,0.0,1.4058336214128686,1.376253582533459,0.8413937938718928,2.1649079023084283,2.3804527980930557,,,0.5915533975974677,inf,,,0.7564936879769825
687,,0.0,0.0,0.526944688435048,0.5170239747558046,0.5237079077981753,1.8124075528821992,1.7365772974302924,,,0.6008849035917525,inf,,,0.829669913431996
688,,0.0,0.0,1.2086122596636162,1.1820476326664275,0.7462333880345658,1.4381331407003057,1.4298664277217703,,,0.5947193981915972,inf,,,0.7389329237000926
689,1.8092622738274629,-0.012061748492183085,0.0,0.658513710562251,0.46549177000047354,0.6470951797943287,1.9328131442013272,1.4956217051280098,,,0.6380535849069913,6.753604599154879,inf,,0.7718234534377711
690,3.525428061311405,-0.023502853742076033,0.0,0.9215103764044913,0.8996583715210211,0.6708993673877992,3.9756529910757643,3.88549268296216,,,0.6727386042041725,7.03811709684538,inf,,0.753631472975927
691,4.147929583474202,-0.13826431944914006,0.0,1.080924304767471,1.06725365561102,0.746595096612071,4.1095427872242185,7.781793452776882,,,0.663668482632973,6.487584023484278,inf,,0.7083438295419078
692,,0.0,0.0,1.000613846653042,0.9974959806024147,0.6723318775292418,3.3143357383730088,3.067392094285082,,,0.6233814453054027,inf,,,0.9297744820707238
693,0.8362480242006186,-0.002787493414002062,0.0,1.0028597395831351,0.949968436817236,0.7497269032864164,3.722931800858974,5.72735288857049,,,0.6619902821573977,6.54003049885682,inf,,0.9082734535681473
694,,0.0,0.0,1.285333733761777,1.2663003956674932,0.7444536555896594,4.47229746269074,9.830554950733042,,,0.675384900321601,inf,,,0.8180309381421802
695,0.39057649561441377,-0.001301921652048046,0.0,1.0598195208573427,1.043060730353037,0.7279518544886486,3.7041703515282305,11.155666992449094,,,0.6528756675646988,6.094358970270615,inf,,0.8625911735699296
696,,0.0,0.0,1.2392228498499083,1.2129990088769775,0.73783218436934,3.4212006922781373,4.9680738218696305,,,0.6778444222523095,inf,,,0.8986052322766725
697,1.4271163556401456,-0.00951410903760097,0.0,1.180533188881482,1.169186638833253,0.7108603874242065,4.287647876425302,21.236417079627444,,,0.6584896970785714,6.214608098422191,inf,,0.8884650406793206
698,1.7112105090568908,-0.011408070060379272,0.0,0.9808970524098316,0.9384990596336162,0.6967699478975876,3.7389189831923955,6.812164082765978,,,0.6468212168108125,6.603543904579146,inf,,0.7347618283419797
699,,0.0,0.0,0.966012854725732,0.9117322959985744,0.6772210634236623,3.997885902514172,8.751725548824147,,,0.6468212168108125,inf,,,0.8315180972102861
700,,0.0,0.0,1.2554809407465037,1.2308975559577064,0.7386705566087649,3.4497957022710946,11.43150705062883,,,0.6684167106117298,inf,,,0.8712154507143464
701,3.506557897319982,-0.011688526324399939,0.0,1.1197647744308241,1.070917890176005,0.714706433338645,3.81589548418406,14.634290200107268,,,0.6528756675646988,9.210340371976182,inf,,0.754477054734621
702,1.2412547625941395,-0.008275031750627597,0.0,0.9008469017527196,0.8658568041274888,0.6981388827194924,3.1717926892901507,3.3078039240133346,,,0.6207552362147116,6.009402247794649,inf,,0.6452905136102117
703,1.483302531947877,-0.00988868354631918,0.0,0.9355452038029658,0.9189105477053099,0.790238808101831,3.9976238084653057,3.6171484577248125,,,0.6619902821573977,6.370612346898773,inf,,0.7681454698625098
704,1.61394531660298,-0.021519270888039732,0.0,1.1337227817333995,1.0910461509648062,0.7410460056593877,3.4474463024211883,3.153098739949652,,,0.6528756675646988,5.798093154127442,inf,,0.7179940272931862
