,hr+bvp_XAp0,hr+bvp_XAp1,hr+bvp_XAp2,hr+bvp_XCond1,hr+bvp_XCond2,hr+bvp_XDist,hr+bvp_XFuzz1,hr+bvp_XFuzz2,hr+bvp_XK2_1,hr+bvp_XK2_2,hr+bvp_XPermEn,hr+bvp_XSamp0,hr+bvp_XSamp1,hr+bvp_XSamp2,hr+bvp_XSpec
0,0.7911275889201491,-0.0026370919630671636,0.0,1.380786351504725,1.3653046942651246,0.8139376773317535,3.8756162004936394,2.1637114309530023,,,0.6447042257417027,6.49491006357635,inf,,0.6617344211600641
1,1.0564417144512344,-0.007042944763008229,0.0,1.2279759365726448,1.2144740756017316,0.7692229278531355,3.6718379201997218,3.0700764721808502,,,0.6668815377411301,6.032286541628237,inf,,0.8848826095581434
2,3.044722477734093,-0.02029814985156062,0.0,1.255281960822084,1.2398457001252758,0.7734531949892959,3.8273295928517808,13.42132414096815,,,0.6468212168108125,8.040269119325927,inf,,0.7529700624604712
3,,0.0,0.0,1.2881892493772633,1.2608274341055155,0.7676211110774231,3.410313287375431,2.1524498130325127,,,0.6713451011121618,inf,,,0.8210822729795587
4,,0.0,0.0,1.0475244221619793,1.0176660063055858,0.7513621135922329,4.671396427483297,20.503601592655393,,,0.663668482632973,inf,,,0.6483085423185583
5,2.336486644669727,-0.007788288815565757,0.0,1.1095154757779495,1.0743850698868749,0.7437570904597615,3.6644009467934913,2.623321623435165,,,0.648888643467878,8.040269119325927,inf,,0.9024333373804025
6,1.6607312068216509,-0.005535770689405503,0.0,1.095555337343582,1.0732281833285588,0.786613711514076,3.385040499121501,2.3552338891585594,,,0.6528756675646988,7.3645136814778525,inf,,0.78835243571207
7,5.0106352940962555,-0.016702117646987518,0.0,1.285238619173736,1.2895288148540818,0.7508867515428408,3.9426805601290664,9.83883875572468,,,0.6125606311107803,10.714417768752456,inf,,0.8328000882271688
8,2.616889422705233,-0.017445929484701552,0.0,1.070718441382539,1.0279178061840852,0.8039486948222766,3.4102019536714985,2.057464172846933,,,0.6403206450210053,7.623375315394141,inf,,0.8682828941611713
9,,0.0,0.0,1.2439892122905298,1.2510539823233835,0.7738201772173617,3.722472657236399,2.5322601739439965,,,0.6380535849069913,inf,,,0.8546965292178571
10,,0.0,0.0,1.1051168907798514,1.0536303868575312,0.7003616928037015,3.2773020695192354,6.634201641983895,,,0.6547956803312163,inf,,,0.6129847356071154
11,1.5588887292310538,-0.015588887292310538,0.0,1.1773043482143286,1.151535722614635,0.7467882241603654,4.334533177739797,5.452593669779292,,,0.6333676938231112,6.1092475827643655,inf,,0.6898677913193181
12,1.9488409440787442,-0.01299227296052496,0.0,1.3438843059388303,1.315250242859445,0.8002630008615432,4.075307419331434,3.325468788233305,,,0.6584896970785714,6.753604599154879,inf,,0.7494093249626181
13,,0.0,0.0,0.9475815537803398,0.9264997921115126,0.6645700283561156,3.4703572564723935,4.882042138798447,,,0.6699045166045591,inf,,,0.6927801197731572
14,3.2188758248682006,-0.010729586082894002,0.0,1.0043791091175718,0.9806151292214963,0.8073434907205164,4.0278775990733315,12.073557539544694,,,0.6425374456860184,8.922658299524402,inf,,0.7205643410812135
15,,0.0,0.0,1.239025316154075,1.2014963267203667,0.8499306646463649,3.222440838269461,3.2895872788056835,,,0.6547956803312163,inf,,,0.8515263363309976
16,,0.0,0.0,1.3472490662929044,1.3066315993010182,0.7754508771752265,3.416270513250212,1.2730154599959573,,,0.6357360191111145,inf,,,0.8046943423623912
17,,0.0,0.0,1.2531933338248347,1.2148005132551343,0.7946736762533355,3.890414868846125,2.222804467907618,,,0.6727386042041725,inf,,,0.7677316233033767
18,1.8536348729461425,-0.006178782909820475,0.0,1.1478775170876032,1.1333797631005686,0.7450599062950696,3.5448137167815217,2.652847386636387,,,0.6468212168108125,7.557417347602343,inf,,0.7926938141985802
19,1.8511512372230383,-0.012341008248153588,0.0,1.2155711901417536,1.1773503515415142,0.7743070004116552,4.694807303967165,2.775735489014017,,,0.6468212168108125,6.763174050171029,inf,,0.7303776568922394
20,1.9241728308502015,-0.051311275489338705,0.0,1.14236484727937,1.1039927255170374,0.7715719769361289,4.1988787811156625,8.920103179894502,,,0.6547956803312163,5.3050063546988335,inf,,0.6102487578795025
21,1.8475239825935017,-0.03079206637655836,0.0,1.0006337750577894,0.9411832013802552,0.6758347696612469,3.563303715036011,3.1624663208290236,,,0.6602640781246099,5.578619331702195,inf,,0.6120977934004629
22,,0.0,0.0,0.9168964737259404,0.9006898830654004,0.7208794847697405,2.9138398274721364,1.9285211086687055,,,0.6309483474627791,inf,,,0.7974795606272236
23,2.009099666705733,-0.020090996667057326,0.0,1.0916244305256961,1.0651697748367133,0.7421475103104089,3.568886822050099,4.723491435179669,,,0.675384900321601,6.47309101618171,inf,,0.8392088983482465
24,1.192922968139351,-0.003976409893797836,0.0,1.150001135006402,1.082048572922669,0.7551623970433996,3.44475470415484,4.376762795003563,,,0.6284777104787076,6.896705442795552,inf,,0.8889998840007818
25,,0.0,0.0,1.0036039259711707,0.9603992630280282,0.5599088176069011,3.4920257754797697,6.418866852761625,,,0.6778444222523095,inf,,,0.80094903990029
26,,0.0,0.0,1.0748532446898182,1.0604766784134612,0.6304359367328451,2.568819459734683,1.8064390840470699,,,0.6858323589451731,inf,,,0.9054018614701782
27,1.2494351784026934,-0.004164783928008978,0.0,1.2615224032548655,1.2189191707908094,0.7326003312187364,3.607057660295718,4.417246165636168,,,0.6652988471865258,6.9532176530588945,inf,,0.6752800368686285
28,1.6554756798106451,-0.016554756798106453,0.0,0.8076950901818144,0.7555383852263471,0.6572982059669477,3.7543735762184953,5.9081181268287315,,,0.6713451011121618,6.065230697347591,inf,,0.7834432602436078
29,,0.0,0.0,0.9228689135804117,0.8995200148686457,0.5283956190744944,3.7989328581576705,4.129499024816278,,,0.6822068148872973,inf,,,0.8015343806849493
30,1.003467425446544,-0.006689782836310294,0.0,0.906076801171693,0.8949489050801794,0.6025440171141329,3.5319621050748604,11.258914260206335,,,0.6652988471865258,5.703782474656201,inf,,0.7556338017034153
31,2.3614766108222374,-0.015743177405481583,0.0,0.7438060773635223,0.6337207929537813,0.737623820454664,2.542971734796843,1.5598547484205323,,,0.6699045166045591,7.3645136814778525,inf,,0.5392212105485358
32,,0.0,0.0,0.6081991701319318,0.49515500747208047,0.5777610069871538,2.768449398386571,3.0385539784766546,,,0.6713451011121618,inf,,,0.7962980573499149
33,0.9852836033611064,-0.0032842786778703548,0.0,0.9351108486095147,0.9104731228864493,0.6282591471265587,3.4111130995852075,2.979023836638047,,,0.6684167106117298,6.689066078017308,inf,,0.6916765786808046
34,,0.0,0.0,0.9842232608846749,0.9687053310883325,0.6830395236630153,2.95491049365513,2.3706481621134814,,,0.6584896970785714,inf,,,0.6686554203424241
35,,0.0,0.0,1.2365895496872519,1.1948540325461363,0.7521555863492485,4.087940671569211,5.773898632267355,,,0.6547956803312163,inf,,,0.8843084999898314
36,1.853861270957708,-0.012359075139718054,0.0,1.1782043686438082,1.1451294539440073,0.819970418504015,3.1855635723116276,2.6234330748844106,,,0.6602640781246099,6.864270167042398,inf,,0.6760081712079143
37,,0.0,0.0,0.9943438690386791,0.9797118143738095,0.6921338387431035,3.3786068553098296,3.1859043392844453,,,0.6652988471865258,inf,,,0.7884802802808828
38,2.17742195004004,-0.007258073166800133,0.0,0.8602536371037206,0.814625459053391,0.5513973052312823,2.4436256520814976,1.815566787372482,,,0.676637947632344,7.881204424696241,inf,,0.8912333345166076
39,,0.0,0.0,0.7596632029262712,0.6793889194680955,0.5746577641164559,2.665162682691688,1.6892662546389494,,,0.6668815377411301,inf,,,0.803379183893074
40,1.6335021730891124,-0.03811505070541262,0.0,0.9853208229695387,0.9133589466374569,0.6738124613326855,3.509139642459189,4.746137760221031,,,0.6509067234006624,5.2676803970861465,inf,,0.6398212578277358
41,1.9113959358501018,-0.012742639572334012,0.0,1.09203895671496,1.0562352793577248,0.668381511614854,3.471379363534896,2.441033112516043,,,0.6602640781246099,6.744125855200335,inf,,0.6902202231812706
42,,0.0,0.0,1.266117915284386,1.2310866003596708,0.7122085549936757,3.4737389467925626,2.929676166045697,,,0.648888643467878,inf,,,0.8037646137779789
43,,0.0,0.0,0.9634604481950737,0.949053532703325,0.6147388969319776,3.385523984544859,3.047056841711052,,,0.6566669596287297,inf,,,0.7386073494851534
44,,0.0,0.0,1.0925358322836156,1.0723766664216599,0.7723344607116245,3.2396874950760775,1.6245639892631494,,,0.6584896970785714,inf,,,0.6988515714569175
45,,0.0,0.0,1.199713449627426,1.1609176224092204,0.7742237933792951,4.106770730501892,2.897231969487345,,,0.6811855325194978,inf,,,0.6159036535282434
46,1.8971199848858813,-0.006323733282952938,0.0,1.3099756435753975,1.2666710136545358,0.7948477034315605,4.39406855255584,16.98528034464134,,,0.6668815377411301,7.600902459542082,inf,,0.8694787229676416
47,,0.0,0.0,1.295736303503516,1.2851372518359212,0.8250171604186824,4.114203326651015,73.97682314447667,,,0.6841113288387766,inf,,,0.8663438965948377
48,2.0590803179727444,-0.020590803179727443,0.0,1.0300326711255108,0.9771295846004342,0.7146226518128588,3.9861089145248334,21.598207253391607,,,0.6566669596287297,6.628441456200873,inf,,0.6357143744498872
49,1.8018608228868147,-0.012012405485912097,0.0,1.3276354940666757,1.3156014801274163,0.79255459152642,4.7239110895569345,10.743730509582416,,,0.6509067234006624,6.812445099177812,inf,,0.7934653250719641
50,1.4618608687888595,-0.009745739125259063,0.0,0.9245792741505668,0.8875163703027692,0.6706913011311176,4.407950846765327,21.70014670520022,,,0.6740851607140061,6.3138147485056395,inf,,0.8002678535709951
51,2.338445788603286,-0.031179277181377144,0.0,1.2990719279847722,1.2937831460042988,0.8081863658497479,3.9917402951996435,6.246267730957053,,,0.6652988471865258,6.603543904579146,inf,,0.7476957362553327
52,,0.0,0.0,0.7548751599196819,0.7043206378687538,0.6701208196277262,3.5594749982119045,4.486744683450798,,,0.675384900321601,inf,,,0.8964197943753389
53,,0.0,0.0,0.7486336950879154,0.7197913440730778,0.6862660023761974,3.8426930987308947,3.0093938529706237,,,0.663668482632973,inf,,,0.7677422907968288
54,2.193240492511631,-0.014621603283410873,0.0,0.9157204108004917,0.8816021133412961,0.6357713790954833,3.5783528661736765,4.3806980391267025,,,0.6528756675646988,7.076831609026071,inf,,0.8063021591040457
55,,0.0,0.0,1.09528522132044,1.0721221111583281,0.7039732919715218,3.4808199168494296,3.8503354668187653,,,0.6403206450210053,inf,,,0.7778756386637566
56,,0.0,0.0,1.0031285441536189,0.9921501636792125,0.7193283258840776,2.848896376919861,2.344228824902219,,,0.6619902821573977,inf,,,0.9010987550113675
57,,0.0,0.0,1.160830057626481,1.1396606532528937,0.831062745786353,2.938107583996551,3.628085254501864,,,0.6547956803312163,inf,,,0.9375510692472736
58,,0.0,0.0,0.8593575423243549,0.8099721660924419,0.656977883872442,3.9311110630232404,28.0393246169073,,,0.6652988471865258,inf,,,0.9086194147761324
59,1.4698418345991762,-0.024497363909986268,0.0,1.209759415378899,1.1848399176730589,0.7266131619739318,4.435249688737477,13.201278318068873,,,0.648888643467878,5.175116932761879,inf,,0.7971265314893968
60,,0.0,0.0,1.0333571577876637,1.0042391043870098,0.7776713258003225,3.4193678894907036,3.8276769280051695,,,0.6652988471865258,inf,,,0.7599026440132106
61,,0.0,0.0,1.1638433152892325,1.1279810272956723,0.7225408231929199,3.455400733726518,6.934666817757231,,,0.6403206450210053,inf,,,0.939909836494371
62,1.8112178538173367,-0.018112178538173367,0.0,0.7366444340359295,0.6960007816506643,0.537297088575586,3.5689270199762917,2.5847891035182182,,,0.6509067234006624,6.3771270279199666,inf,,0.5791224611137403
63,4.0943445622221,-0.013647815207407002,0.0,1.2057597373175908,1.148383007630423,0.7494293997134255,4.130475535662308,5.639429110707963,,,0.6468212168108125,9.798127036878302,inf,,0.9243868300910518
64,,0.0,0.0,1.0387262082706472,0.986016417682542,0.7147585393762746,3.6459786923994444,1.3036067962012359,,,0.6727386042041725,inf,,,0.8167965199957702
65,2.336486644669727,-0.007788288815565757,0.0,0.5418108185981025,0.4992505517453355,0.5915731000460581,3.567691597144494,3.3745819925572618,,,0.6584896970785714,8.040269119325927,inf,,0.7398342998812012
66,3.0647251450409425,-0.010215750483469808,0.0,0.8765680546154017,0.8409252786397542,0.6501154003662692,3.4730777693903865,3.9831675389115597,,,0.62595550513784,8.768507619697143,inf,,0.7553249023257332
67,2.06094477269054,-0.027479263635873868,0.0,1.192570487803697,1.1499068394745144,0.7350548620151515,5.547687581587239,11.02906399379453,,,0.6584896970785714,6.271766512262141,inf,,0.6716530064847026
68,0.8915981192837836,-0.0029719937309459453,0.0,1.2136799328352528,1.187908270203432,0.8192645164995316,4.075684587350081,2.099317325330059,,,0.6509067234006624,6.595380593939985,inf,,0.7097977727259854
69,,0.0,0.0,1.3309135658237299,1.3092868286220563,0.8087594884248376,2.9872918225600635,2.9775634695433455,,,0.6509067234006624,inf,,,0.9189130631294586
70,,0.0,0.0,1.1084265623948666,1.0846582670544533,0.6957956820579827,4.0198258341835915,5.315989922699538,,,0.62595550513784,inf,,,0.8398671265188768
71,,0.0,0.0,1.200739758122081,1.1927317557146935,0.776324660549219,3.095335175627032,8.922927323198232,,,0.5883313578629602,inf,,,0.9209558716477787
72,,0.0,0.0,0.9792384319403694,0.9429174459031275,0.7718626553737389,3.1731628709574973,2.44581121203916,,,0.6125606311107803,inf,,,0.7422650192951928
73,1.0682529211507568,-0.007121686141005045,0.0,1.1186113061337402,1.0922477827711026,0.7231166297603555,3.473586155436767,6.589658046053053,,,0.663668482632973,5.7205895929725825,inf,,0.7961496218614261
74,2.1631282348430565,-0.050472992146337985,0.0,0.944922725412312,0.8477094881867808,0.6143190786374089,3.863592781442958,4.492293068408044,,,0.585052858160615,5.485986529668587,inf,,0.8755362263163514
75,,0.0,0.0,1.0718191799994659,1.0295231294950369,0.7308147139380936,2.829080970387594,4.790888960713808,,,0.552929491858785,inf,,,0.8137548294789678
76,2.9311937524164198,-0.009770645841388067,0.0,0.9218440594086721,0.9149524284701391,0.7401411000169402,3.5465370050100566,5.480544508826421,,,0.581717464821069,8.63497622707262,inf,,0.7020750268939486
77,2.0845340542090187,-0.013896893694726792,0.0,0.811706708881157,0.7744778500461357,0.6218139811875152,3.724326677856348,10.45766373341506,,,0.5713653840954815,7.000845702048149,inf,,0.5194310553449533
78,,0.0,0.0,1.7195540247307735,1.7067994676844593,0.9352848822504015,3.978458460295059,27.761337904745687,,,0.5022576003740722,inf,,,0.8976252548772053
79,,0.0,0.0,1.782888960151263,1.7512012243827797,0.9592589864850949,3.842407060433344,80.51599983009903,,,0.5604843169999094,inf,,,0.8733923699338617
80,,0.0,0.0,1.3546799060257984,1.320379828215695,0.8308151588420581,4.335232096891328,37.899144991622165,,,0.6153451465759925,inf,,,0.9208944394680582
81,,0.0,0.0,1.3539832899204067,1.338090983331709,0.7291680330177324,3.7366512325454444,12.40747539879759,,,0.6284777104787076,inf,,,0.7343523698832094
82,0.319287411867112,-0.0010642913728903733,0.0,1.0896154016613442,1.0564718149168586,0.7290281850507668,3.84644307299943,1.8463375667586654,,,0.5370774965580548,6.023069886523313,inf,,0.9169723666747486
83,,0.0,0.0,0.9073853095310416,0.8487936480548717,0.5483695092806001,3.0759145466483826,5.255415642059344,,,0.5567373465730988,inf,,,0.7357991298822066
84,,0.0,0.0,1.7597378025043853,1.7319537787665564,0.9482235042330605,3.1234704876146306,9.59289745061705,,,0.5677978065141052,inf,,,0.8828833161929537
85,,0.0,0.0,1.775587897508887,1.7548859473046152,0.9234203188934776,3.485390388627846,43.134367195895095,,,0.6008849035917525,inf,,,0.8657997053587349
86,,0.0,0.0,1.7727149131709565,1.7425804188738288,0.9402145346550621,3.393398514477859,35.884424146710835,,,0.6233814453054027,inf,,,0.8693142072275976
87,,0.0,0.0,1.7756933698075417,1.7459863122504875,0.9275996082719159,3.528411721842735,53.77191521854727,,,0.5713653840954815,inf,,,0.8495827378829373
88,,0.0,0.0,1.774230426999253,1.75769267952183,0.9364611144182797,3.739897575407023,60.42319947742724,,,0.5677978065141052,inf,,,0.853944172710975
89,,0.0,0.0,1.763773025580249,1.7239726093376226,0.9380449131493124,3.7915135721807203,93.0822061763284,,,0.6233814453054027,inf,,,0.848463668164761
90,,0.0,0.0,1.764552810817348,1.745056239589966,0.9298232038719446,3.8676004857152,152.82232275171572,,,0.6233814453054027,inf,,,0.850318909735854
91,,0.0,0.0,1.7623254893277451,1.708210481166178,0.9261023687771197,4.121157653521269,160.979135568855,,,0.648888643467878,inf,,,0.8295373167614799
92,,0.0,0.0,1.7510544402991493,1.7457403949177717,0.9253126358850615,4.0217882977043935,148.8575384119556,,,0.6284777104787076,inf,,,0.8290460249707362
93,,0.0,0.0,1.7512488398641943,1.6868706540860439,0.9236716484013215,3.9119535843378896,174.71621929820824,,,0.648888643467878,inf,,,0.8239850904864279
94,,0.0,0.0,1.696393681943307,1.6843286397518262,0.8616689779285392,3.1859827010441975,37.29800991578009,,,0.663668482632973,inf,,,0.9181053559740676
95,,0.0,0.0,1.2055447874358225,1.183549172862867,0.7324057057652072,4.2221694071944365,9.400785634380846,,,0.6584896970785714,inf,,,0.926735765921851
96,,0.0,0.0,1.7758397490245028,1.7527474698213288,0.892915567150518,4.115614848538946,23.382821435834583,,,0.6380535849069913,inf,,,0.8749658970518427
97,1.3343346221891796,-0.004447782073963932,0.0,1.261657742978094,1.1784768393181708,0.8551624987300672,4.201281354562194,7.840729610387163,,,0.6425374456860184,7.03811709684538,inf,,0.7781366494616629
98,,0.0,0.0,1.2114234940823623,1.1345909883921834,0.7995324389373257,4.2209105136281515,124.02391650432293,,,0.6403206450210053,inf,,,0.8258291562403774
99,,0.0,0.0,1.6515047749718041,1.6306307545510352,0.9378694748816628,3.869506405694369,59.21707256244343,,,0.5978297680564633,inf,,,0.845666417321918
100,,0.0,0.0,1.562903535426857,1.5915821886152057,0.8522815558092258,4.560728064387686,95.96593152847646,,,0.6309483474627791,inf,,,0.8892083797796636
101,,0.0,0.0,1.2892395393351612,1.245629528844333,0.7544459018291035,3.496424501040616,3.095888398119081,,,0.62595550513784,inf,,,0.8011723850221993
102,2.055236972075992,-0.013701579813839947,0.0,0.9534957220740214,0.815163985859749,0.5844631965645715,3.8860846661279544,10.379553001246173,,,0.6284777104787076,7.063759527458719,inf,,0.7489921431998751
103,,0.0,0.0,1.280804976336673,1.2751561090782046,0.8087614939598478,4.268821817500183,53.181372611687706,,,0.663668482632973,inf,,,0.9357835302017565
104,,0.0,0.0,1.784061417702643,1.7794656389354448,0.9187494162075553,4.225973749635948,34.266194725494856,,,0.5978297680564633,inf,,,0.9083293443277097
105,,0.0,0.0,0.7253032838138614,0.6710095828067977,0.6022621822151094,3.503450997391431,5.507847191945123,,,0.5783247308855777,inf,,,0.7184634305072131
106,,0.0,0.0,1.78788262144508,1.7586673058385198,0.9234186439015573,4.3398514222848386,26.833088411526283,,,0.585052858160615,inf,,,0.8868832711280676
107,,0.0,0.0,1.7858127620081727,1.771191611635661,0.9004091431659698,3.3778073769773886,86.55586101000068,,,0.6566669596287297,inf,,,0.8139352222939743
108,,0.0,0.0,0.8974025951013428,0.872007107440981,0.5574617758764839,3.6132145191864886,40.01702391997719,,,0.6403206450210053,inf,,,0.8090667003786022
109,,0.0,0.0,1.1588351756128743,1.1421643018325798,0.7042903201954435,3.793334409538683,12.366488690820187,,,0.6207552362147116,inf,,,0.9207092120101359
110,,0.0,0.0,1.0526125029794713,0.9845294919828542,0.6472382486517514,3.739533370431409,52.79919898779604,,,0.6207552362147116,inf,,,0.7572488134200779
111,,0.0,0.0,1.7862624266664722,1.7508836407915072,0.9476531055976474,4.422303717835325,390.81305099873566,,,0.6380535849069913,inf,,,0.8425332571671402
112,,0.0,0.0,1.5522668227282548,1.520854397202572,0.9074782418031876,4.276386608026656,199.75803921231096,,,0.6509067234006624,inf,,,0.847281266895007
113,,0.0,0.0,1.772167256621123,1.7337472712862372,0.9330136828360943,4.7200104596214345,150.76334401660137,,,0.6652988471865258,inf,,,0.8641128929585351
114,,0.0,0.0,1.5954358451238577,1.478190279764831,0.881088212898798,4.987420771955784,5.648957997172089,,,0.6841113288387766,inf,,,0.846107636567884
115,,0.0,0.0,1.024120841885096,0.9276012801868431,0.654730354730732,3.871366926558305,36.30080115420476,,,0.6727386042041725,inf,,,0.9296249038850957
116,1.0624519578782965,-0.007083013052521976,0.0,1.3240781960951118,1.2175545660186016,0.7822232146492903,4.637460069168968,26.120880396215444,,,0.6822068148872973,5.727392340295335,inf,,0.8083941760030203
117,,0.0,0.0,1.5397086747176028,1.4965975524411153,0.815508681113472,3.8321038714363898,26.333660479837953,,,0.663668482632973,inf,,,0.9300836094791977
118,,0.0,0.0,0.8650031635810163,0.8202687568314894,0.4868132433661743,3.4545855442280584,8.592242974405846,,,0.6097226960127671,inf,,,0.6563296111572143
119,,0.0,0.0,1.1046036002825685,1.0237549287021748,0.6235254237302239,3.094840299686195,3.0525060510470294,,,0.6740851607140061,inf,,,0.8416509374012171
120,,0.0,0.0,1.6397907769035314,1.5979499483908144,0.8783782153536026,3.9407178940741665,15.85252979606798,,,0.6699045166045591,inf,,,0.8786020615802989
121,,0.0,0.0,0.7965823900619641,0.7660784738053878,0.6072484822035328,4.211957256002139,2.9691128265018403,,,0.68318204999448,inf,,,0.9466833318305659
122,,0.0,0.0,0.7103929611832503,0.6686603976549977,0.5810958053507351,3.2257051947740663,4.571477226804118,,,0.6566669596287297,inf,,,0.8168179579139702
123,,0.0,0.0,1.0237941166414242,0.9494516563109152,0.7085237190231972,3.6762955473814376,52.820068324407934,,,0.663668482632973,inf,,,0.6967752304661339
124,,0.0,0.0,0.5620863146557517,0.5532699420269723,0.6744428170459066,4.722241091803657,81.56506118247417,,,0.6380535849069913,inf,,,0.652001433126264
125,,0.0,0.0,1.781292782915408,1.7643832770092212,0.9205990873434154,3.7619449022112668,312.7874189639705,,,0.6125606311107803,inf,,,0.8984389685185982
126,,0.0,0.0,1.7816017173148395,1.7345623272517319,0.934992642553583,4.1789426168239645,394.50767166164746,,,0.5978297680564633,inf,,,0.860377741042233
127,,0.0,0.0,1.1817627523856975,1.1559533221576244,0.7556189250233919,4.141210242413959,68.54166633914065,,,0.663668482632973,inf,,,0.7595475525870741
128,,0.0,0.0,0.9179200471464253,0.9045951529348722,0.6204802369888639,3.8972975654911566,61.207213535654056,,,0.6284777104787076,inf,,,0.8520496678693648
129,,0.0,0.0,1.4283113988843616,1.386009897316171,0.7955241855699511,3.9400979367767026,1.9519625939977803,,,0.6125606311107803,inf,,,0.9127003155087657
130,,0.0,0.0,1.1066327853467797,1.0820128034660559,0.6785096401827075,3.7385865815815293,21.472249581932243,,,0.6097226960127671,inf,,,0.9073151359252598
131,1.1473084616724345,-0.00764872307781623,0.0,0.6696196226846962,0.5871364965165071,0.6290591549416427,2.5804795934480778,2.754923750090214,,,0.6097226960127671,6.119297918617867,inf,,0.836561292230348
132,,0.0,0.0,0.8844045136153122,0.8634953342270102,0.41412418824492797,3.089379965238366,2.939913885061639,,,0.6509067234006624,inf,,,0.8353871931963983
133,4.605170185988091,-0.01535056728662697,0.0,0.8039958968689079,0.7418496178875672,0.5775104723628692,3.4474446833497163,8.860969434829753,,,0.6333676938231112,10.308952660644293,inf,,0.8131272714861817
134,,0.0,0.0,0.9012432017801484,0.8243743540951194,0.5759020256761711,3.7539198017538684,2.7239501280324308,,,0.6699045166045591,inf,,,0.6022378621962169
135,1.813028970109254,-0.024173719601456718,0.0,0.9905901385455826,0.970119113253728,0.6656768627162969,3.4168520436804,3.0493323328693345,,,0.6357360191111145,5.965147238790609,inf,,0.7582216849242979
136,1.6964492894237302,-0.005654830964745767,0.0,0.8127240774426452,0.7791211592921987,0.669660280570414,3.136399597163452,3.6757433046374506,,,0.6528756675646988,7.4002317640799316,inf,,0.7928239737718075
137,3.4956355490475626,-0.046608473987300836,0.0,1.2222446023341589,1.121599690421077,0.7512385346514003,1.8833626636356948,0.4238168566304976,,,0.6357360191111145,6.242778975388888,inf,,0.693775716173128
138,,0.0,0.0,0.34474166198771145,0.29549448926803046,0.7258225492113408,0.5286355741494912,0.48786824485818614,,,0.6008849035917525,inf,,,0.9673375955000025
139,,0.0,0.0,1.3267229635329882,1.3194129573960616,0.8401990880591422,0.6448258225690375,0.7107886745931657,,,0.6528756675646988,inf,,,0.9488382538749357
140,,0.0,0.0,0.7159488435921157,0.5145833870850431,0.6469165617643462,1.0498124972592817,0.7710657082333126,,,0.6509067234006624,inf,,,0.6520956564400041
141,1.841504482619814,-0.07979852758019194,0.0,1.2582909555139294,1.2131473960366659,0.7887855252016792,4.977462491315185,4.703881044156451,,,0.6357360191111145,4.766382779571811,inf,,0.799192875643119
142,1.941942584159742,-0.11004341310238537,0.0,1.289069691566308,1.243311506141804,0.8340682313840759,3.7282447895399016,4.169667118149544,,,0.6547956803312163,4.537511537514277,inf,,0.47625053451714666
143,1.628497210382259,-0.08770053790904923,-0.00458097067927878,1.437914530948274,1.4122683694579632,0.8047595789935755,3.939824736820811,25.977262013852986,3.2441353820993446,,0.6380535849069913,4.186459851129906,2.890371757896165,inf,0.5743624390674318
144,2.6600167531109573,-0.026600167531109574,0.0,1.2876533783795152,1.2484668646624704,0.7846665986770973,3.895409433129751,28.59838316521652,,,0.6380535849069913,6.698034748000068,inf,,0.6890631305604887
145,1.8900345720254785,-0.07141489539224402,-0.010486602728860032,1.302537877953308,1.2360265350824626,0.8043622727160373,5.007284888631614,27.093622556738385,,,0.6403206450210053,4.88547215114225,3.9571434407086157,inf,0.5665495056989284
146,1.0311704300334177,-0.024060643367446413,0.0,1.2616782676675597,1.2450440519042842,0.7932168505859256,4.105945421368156,10.179838397712164,,,0.6509067234006624,4.700702612709655,inf,,0.7358836805325151
147,1.2769497606374758,-0.00851299840424984,0.0,1.0607351273306351,1.0207724285598225,0.7933656074811432,4.478478185861424,8.818553929982105,,,0.6309483474627791,6.160540877151916,inf,,0.754852400165813
148,1.4672445462557637,-0.054697917620913875,-0.008882679383502554,1.261936133509709,1.2603060535801789,0.7803857816720373,4.7709503015145875,5.139404794904285,4.540477988396434,,0.648888643467878,4.462513885586568,3.900528626002411,inf,0.5585369678391418
149,1.7790595769276494,-0.029650992948794155,0.0,0.8442180082376477,0.7449350212996496,0.6955541610546425,2.600278054929681,2.7447271897857806,,,0.6713451011121618,5.599422459331958,inf,,0.5996890098388082
150,1.3811782688042908,-0.013811782688042907,0.0,0.6967748378919638,0.6528505625175554,0.6008344643902548,3.2146397510403917,4.2941923130421,,,0.648888643467878,5.629912626089745,inf,,0.5922293853385775
151,,0.0,0.0,0.916976606185945,0.8859925935941937,0.5995991649024048,2.865109673436364,3.161559624498985,,,0.6380535849069913,inf,,,0.8313585692969605
152,,0.0,0.0,0.30776431946239113,0.27541836932357955,0.43784220245396227,2.9281228011287563,2.797844720908575,,,0.6309483474627791,inf,,,0.725284625478791
153,,0.0,0.0,1.0261632375791967,0.9596953049412525,0.6707994612971984,3.1009186176028565,6.8927689431537935,,,0.6547956803312163,inf,,,0.7230669858550564
154,0.369178662229717,-0.00369178662229717,0.0,0.9904172456201416,0.981190050177383,0.5068420261903637,2.9346214500432044,14.27228971081836,,,0.6153451465759925,4.971414580942975,inf,,0.6403113643500119
155,1.5766480896111095,-0.005255493632037031,0.0,0.6989508327486179,0.6477479302675248,0.5563523548583006,3.0974714450770024,2.299779967308664,,,0.6425374456860184,7.280430564267311,inf,,0.5860513318180807
156,0.9569968754086096,-0.02686057818006018,-0.0018493280821981052,1.094742266369007,1.0765103808928025,0.7167729219235555,4.872747873472561,10.479095951685245,1.9033003372982207,,0.6727386042041725,4.3617883724328905,1.8982821000660588,inf,0.6087766869103893
157,1.6103017870254785,-0.11272112509178349,0.0,1.3425788321507044,1.3395505905377372,0.7880020187875676,4.233406565070843,12.198274249393299,,,0.6584896970785714,4.185729124023953,inf,,0.6195535050023913
158,1.8948389001036408,-0.0884258153381699,0.0,0.9996942316249324,0.9891893203953172,0.7255955963225078,4.618293933120627,20.456023757399628,,,0.6468212168108125,4.4008697224753615,inf,,0.7100596230044456
159,2.039519951333927,-0.03779664217164591,-0.009792156692812392,1.1392010202268894,1.1248411678984374,0.7990940585503349,3.8247470409378437,3.3120002174850827,3.478948258747917,,0.6528756675646988,5.282881558418198,3.3520946686544235,inf,0.7423152882720148
160,1.5659729476815871,-0.07112441490280419,-0.00717423248127516,1.2940919574928822,1.2666891558960895,0.7621807177062644,3.8804258076065494,4.158019526840448,3.5004681571405065,,0.6566669596287297,4.374058465024705,3.4781584227982836,inf,0.78203146817464
161,1.184089497774895,-0.03946964992582984,0.0,1.2007975412022336,1.2070194063887536,0.7775366673933345,4.0918468606399925,4.05236691445928,,,0.6566669596287297,4.5437615578594475,inf,,0.7602863041665925
162,1.5817612794330715,-0.04745283838299215,0.0,1.2313687620747416,1.2320829313844528,0.8495749272329253,3.9972593099798193,40.118262010491534,,,0.6357360191111145,4.788825965795183,inf,,0.6893073023560982
163,1.6141195785803837,-0.05380398595267946,0.0,1.3595987354323806,1.3309555258355619,0.7834188443582525,4.834141366357451,19.620417437155815,,,0.6740851607140061,4.8694251255447325,inf,,0.5679930204041788
164,1.6632461296730126,-0.03326492259346025,0.0,0.89422321916303,0.8734605393086496,0.7247057083894446,3.3308550191025055,2.790514594118535,,,0.6509067234006624,5.393849793269601,inf,,0.5425734487111098
165,2.1893391663594026,-0.0802757694331781,0.0,0.9906589266952105,0.9081557566753291,0.7676537073518424,3.279449231157927,2.675893874191301,,,0.6309483474627791,5.364932115630021,inf,,0.692984174737563
166,1.4933061315896927,-0.04479918394769078,0.0,1.270401740212201,1.2143022434491413,0.762000263801469,3.9357214677993833,2.831063780864186,,,0.6584896970785714,4.717965680133436,inf,,0.5533504124807769
167,1.8709328043903355,-0.07483731217561342,0.0,0.8824186262761436,0.8701584597788983,0.7140224786799779,3.687512280060924,9.392901636486554,,,0.6447042257417027,4.840892519509161,inf,,0.624667264868455
168,1.2997089498572159,-0.0216618158309536,0.0,1.1511279594985233,1.0986972632434058,0.733904254998971,3.2299323219231533,4.384511786187769,,,0.6619902821573977,5.030838001413775,inf,,0.755258704442346
169,1.5215912574221824,-0.05579167943881335,0.0,1.1785942098181117,1.1267640103731453,0.7529416452905956,4.865074489004592,12.007560661945112,,,0.6509067234006624,4.608509087253606,inf,,0.6794603259364824
170,1.575499077895233,-0.09403344737067727,-0.02675481526795725,1.2269519835579654,1.2003461045208785,0.7822617825370259,3.7955702194984484,10.10913643719651,,,0.6447042257417027,3.9226346660227405,4.919980925828125,inf,0.592934498191735
171,1.794704575503151,-0.04785878868008402,0.0,1.2133792496976064,1.1691013942128519,0.7656841320710442,3.557489363762782,3.0621141844616853,,,0.6509067234006624,5.153736137736929,inf,,0.7610676503976292
172,1.4457327295470024,-0.09611158022462102,-0.009908819942159159,1.3392646875099394,1.294911500383575,0.7858717040236309,3.88699431373526,1.648528074050739,2.801373751951386,,0.6357360191111145,3.8459232037236224,2.648986859852728,inf,0.5073416158894817
173,1.5148308501144043,-0.07233246635981076,-0.013507948480005482,1.1998121553397882,1.172229465156537,0.8180423777282464,4.29549800115794,7.870556654152663,3.2611749104358174,,0.6309483474627791,4.20788660362123,2.722341531212966,inf,0.7583393275731657
174,1.7322587266380076,-0.04041937028822017,0.0,1.1677766168342198,1.1510704764301558,0.7604616805765869,4.606445683009594,15.267433703779474,,,0.6333676938231112,5.112298947872756,inf,,0.7398685436096769
175,1.4154708282313997,-0.04246412484694199,0.0,1.2323146858727134,1.2297006369816579,0.7920235848705584,4.667147153192551,32.46137228645402,,,0.6528756675646988,4.5200123776477845,inf,,0.7819296260487548
176,1.7434850935308461,-0.03486970187061692,0.0,0.9864685738666491,0.9330495143335371,0.6929701389398295,3.1615754966769476,3.469665091300133,,,0.6509067234006624,5.074285321172711,inf,,0.5218437132481263
177,0.5571856015683196,-0.011143712031366392,0.0,1.0421049786217562,1.0163548599586156,0.690690050217083,3.2941425865982117,5.00360670119044,,,0.6207552362147116,4.368781407923861,inf,,0.5935529864763649
178,1.726060110253872,-0.09781007291438608,0.0,1.2660449632686355,1.2283727364729444,0.8092624049302435,4.202458907710196,9.928406720752347,,,0.6403206450210053,4.281477676013277,inf,,0.7702617756296858
179,1.2973607578976034,-0.008649071719317357,0.0,1.2037437103087352,1.1761323588558097,0.8008684974019965,3.6432816132772143,4.018114895919586,,,0.6380535849069913,6.307698521488204,inf,,0.8550850009602562
180,1.9879405521492353,-0.053011748057312943,0.0,1.0969708189235738,1.0649385680575534,0.6657668590256554,3.538258627356077,1.9907728703614214,,,0.6509067234006624,5.196964872287749,inf,,0.6997834839986895
181,1.6142264581425663,-0.042441492786863745,-0.016746810678363686,1.1435526515368637,1.0692106783962243,0.7093426787436415,2.844892285315341,1.9553510399802283,,,0.663668482632973,4.434021929792262,6.280395838960195,inf,0.7444149916604937
182,1.3411601234731587,-0.0312937362143737,0.0,1.0985118084537044,1.05621035046587,0.7353453332765282,4.644630595773694,1.6991754729665551,,,0.6153451465759925,4.688551794927142,inf,,0.8289178683956903
183,1.7955118815795568,-0.03717961124273493,-0.0047156659941213885,1.0571531983195912,0.9695718928464139,0.7812231487228449,3.5315741021386775,4.9836353353416625,1.674124596111042,,0.6566669596287297,5.43630310952194,1.6808023986420713,inf,0.6184521450754578
184,2.418080110668565,-0.056421869248933186,0.0,0.789772716663192,0.7705108262401738,0.6229298069029838,3.092320124089625,2.6059532163566557,,,0.6699045166045591,5.748082733552781,inf,,0.6103318554452221
185,0.9901871170301197,-0.03300623723433732,0.0,1.139481009759426,1.0927806789700532,0.7994160115558367,4.219002557230978,2.090485232807132,,,0.663668482632973,4.260792769859766,inf,,0.7588259190419582
186,1.1016635447325958,-0.011016635447325958,0.0,0.8844371492769784,0.8467415708149352,0.6298489766849157,2.519390744215943,2.176805596812535,,,0.6547956803312163,5.6486631754351215,inf,,0.8362403979263558
187,1.1744770144297516,-0.05872385072148758,0.0,1.2347178795938987,1.235575108349509,0.7323084664638921,3.5357098803208706,6.67740175941134,,,0.6584896970785714,3.8982296832958103,inf,,0.7991522299709223
188,1.1942517163702921,-0.04777006865481168,0.0,1.1289490079916702,1.0685342228911578,0.7822282927136439,3.7085660481286915,5.813858984963544,,,0.6619902821573977,4.1449363483381605,inf,,0.6375028245906853
189,2.178161659150154,-0.05082377204683692,0.0,1.0634744256666737,1.0437434516056046,0.7582456499010422,3.9122958021521845,3.546984028907507,,,0.6602640781246099,5.645513566532225,inf,,0.6112392522125722
190,1.1635853655624004,-0.027150325196456007,0.0,1.3650742777506748,1.3657478465455226,0.8197627495277705,4.23522211005373,3.305254640003125,,,0.6619902821573977,4.88547215114225,inf,,0.6688336819230294
191,1.5774845765379832,-0.02629140960896639,0.0,1.1462383055978598,1.129916823012768,0.7530194421586582,3.629462068553238,4.884690614001768,,,0.6357360191111145,5.658171963404149,inf,,0.7397023990165038
192,1.1984449849662624,-0.0479377993986505,0.0,1.3428246032252067,1.3296125354661608,0.8080672796325655,4.427085124996824,7.631090360023576,,,0.6652988471865258,4.323338527214486,inf,,0.5664316933801639
193,1.5030772380770852,-0.0300615447615417,0.0,0.901072611808627,0.8895384305208589,0.765607380798894,3.880537069615021,3.707713427688427,,,0.6584896970785714,5.077844043789706,inf,,0.7245745512638777
194,1.582833248035573,-0.07120612416712632,-0.00265942740786708,0.9996379243594561,0.8993505170332733,0.6975304631632,3.3443792123968517,5.126448013046533,2.1649699330155405,,0.648888643467878,4.353115291179462,2.149174879694511,inf,0.8073091172969972
195,2.3092169553894966,-0.06157911881038657,0.0,1.2543282756182528,1.2288579828115826,0.7613564050852905,4.273476608264824,14.282096351843975,,,0.62595550513784,5.327631754216812,inf,,0.7114956964714737
196,1.9218715385321785,-0.0448436692324175,0.0,0.9434908779899047,0.8492242817734781,0.7190195770951735,3.2710599139432888,2.3621564408149895,,,0.6357360191111145,5.555362469537927,inf,,0.6975002964330426
197,1.6582976151064333,-0.01658297615106433,0.0,1.2195206451410838,1.2005813701055423,0.7616364206084463,3.397348318792743,3.1392769419363993,,,0.6668815377411301,6.203558262235607,inf,,0.7486626590661334
198,1.2696970259664746,-0.06072879458193619,-0.0069883801362757925,1.4541424072600846,1.4135925888211602,0.8230107435772341,4.576564303898777,62.30132723072522,,,0.6380535849069913,4.109796666781023,3.6868503698871553,inf,0.6600494195720443
199,1.3948493561376876,-0.041845480684130625,0.0,1.053858451776381,1.0163320428759148,0.7876082252316681,3.7166792511307096,5.2322388268772615,,,0.6652988471865258,4.586457477055937,inf,,0.44086669525320316
200,0.49101038055569635,-0.013093610148151903,0.0,0.9907584423831626,0.9606350578923906,0.676758824862057,4.123039097565858,7.569266318272918,,,0.6713451011121618,4.017383521085972,inf,,0.7956509765216548
201,0.8117547311107286,-0.010823396414809715,0.0,1.1738572296968504,1.1368113885940172,0.7638038835954695,3.6579411787314275,2.7691846406949927,,,0.6333676938231112,5.074285321172711,inf,,0.5423945268318988
202,1.3549964296503283,-0.04064989288950985,0.0,1.3221438547303326,1.2925859698246598,0.7753000935747889,3.967612092521225,3.289025703207126,,,0.6357360191111145,4.720456341445888,inf,,0.7646948778636635
203,1.3299137271166361,-0.031031320299388175,0.0,1.1727142424122623,1.1101468651019768,0.764729176943447,4.2483324011339665,4.054656642681082,,,0.6509067234006624,4.876687321586517,inf,,0.8238959210088488
204,1.7595278221865074,-0.06257794317707832,-0.007803169710381981,1.1022073524538243,1.0465481585543235,0.7355732589072262,4.837776459916605,6.74352771144077,3.2737147410458265,,0.6584896970785714,4.759876575749073,3.2803925435768555,inf,0.7075054538697901
205,2.0746600496975596,-0.06223980149092679,0.0,1.2917697428913784,1.2773357982796292,0.8026781106907444,3.904316741706625,5.402348232447146,,,0.6509067234006624,5.401211789710669,inf,,0.8683392058341232
206,1.2471168988100145,-0.04988467595240058,0.0,1.3742089703488725,1.3695409509021248,0.8388491031997599,4.778880922518206,48.41190274652467,,,0.648888643467878,4.189388110908995,inf,,0.5951496896288901
207,1.1924111225093805,-0.01589881496679174,0.0,1.055222105025786,1.011379253142936,0.7146250344210949,3.2063974905414696,3.630324776794534,,,0.6468212168108125,5.318520073865556,inf,,0.548023927235655
208,1.1924656777745473,-0.044198683220569975,-0.0034999438904119167,1.448860551565238,1.4262754354741911,0.8274118307610993,3.7883525400516027,15.498045396580117,2.4980628968850045,,0.6447042257417027,4.258433350754996,2.4951712483998834,inf,0.6342257072949937
209,1.5649753205231451,-0.026082922008719086,0.0,1.0856824850045697,1.0603040093336782,0.7316419071515984,4.110835548446318,2.547568678074988,,,0.6333676938231112,5.42867918441128,inf,,0.6614044526047622
210,1.5712156461292437,-0.03142431292258487,0.0,1.1381144050740717,1.0930029121687719,0.7511739982973282,3.820917188592772,5.789628124990328,,,0.6528756675646988,5.282881558418198,inf,,0.7851614709071328
211,1.244190500097078,-0.04976762000388312,0.0,1.1251162780847093,1.097771639242099,0.750019314754947,3.287273928614485,5.563628717498322,,,0.6403206450210053,4.269491915268055,inf,,0.70590882445983
212,1.3184780947064365,-0.04394926982354788,0.0,1.2776846545801825,1.240279858476803,0.7781863771947939,3.648980272663713,4.919398586940467,,,0.6333676938231112,4.595219855134923,inf,,0.6327918212065862
213,1.0365309673578984,-0.006910206449052656,0.0,1.1300201411069957,1.1373384655320675,0.6793080611871307,3.8100975831425763,2.5861245076906063,,,0.680118107274185,5.798093154127442,inf,,0.7467859947991738
214,1.3863043286137149,-0.055452173144548596,0.0,1.121058767567839,1.092154294845159,0.7376424135517876,4.626229095916613,3.452845707480682,,,0.6684167106117298,4.266319826961911,inf,,0.6665412090888874
215,2.4079456086518722,-0.008026485362172908,0.0,1.0493353250518243,1.0245575266544773,0.658606643713921,3.586860565216728,14.925477839808302,,,0.6566669596287297,8.111728083308073,inf,,0.6284706065112974
216,1.5111456979455216,-0.03022291395891043,0.0,1.2944070334426856,1.2584845946100822,0.7662243480161353,4.260188353398154,3.405444807162815,,,0.675384900321601,5.276338459829262,inf,,0.7375205607627123
217,2.1107623065112566,-0.05628699484030018,0.0,1.2214820642038244,1.2158590916685665,0.7686045144846271,3.496235064493583,3.133092056241653,,,0.6528756675646988,5.332218918223718,inf,,0.7375372362521937
218,1.1374400181638622,-0.03033173381770299,0.0,0.8640893722161157,0.8297391728028467,0.6225505248926801,4.242072129731888,4.148315936932473,,,0.675384900321601,4.593022052052444,inf,,0.8286606107103122
219,1.7791734148894742,-0.06523635854594739,0.0,1.2772053173864615,1.2483557649404047,0.7628337551059654,4.209594989195775,2.667260477725568,,,0.6509067234006624,4.949226665967612,inf,,0.773506176094313
220,1.8558043421593402,-0.05567413026478021,0.0,1.1098064824033047,1.0646130751026803,0.6880906782351776,4.1582026573210324,1.5901684463219778,,,0.6309483474627791,5.094016903035307,inf,,0.7545225579256708
221,1.446781364423216,-0.05787125457692864,0.0,1.0274836527591247,0.9931947437419419,0.7171458533514838,3.7773829743053855,2.8556421507084626,,,0.6207552362147116,4.505827742655828,inf,,0.6284156056119534
222,1.908550372083873,-0.09542751860419366,0.0,1.3009233228969543,1.2865640251174006,0.8228339563252631,4.347040677408931,2.1576131826915077,,,0.663668482632973,4.668228321955228,inf,,0.7429221365725701
223,1.296881758633231,-0.034583513563552826,0.0,1.126673765555916,1.0968918954970677,0.6996664335619643,4.143192655155639,21.40857217234494,,,0.6403206450210053,4.5118822515645345,inf,,0.6139984585967383
224,2.0413202394674768,-0.09608467228119144,-0.00598133969218241,1.2886131367120413,1.2442135851965157,0.7712798296306169,3.7645965955698593,2.8451447148940185,2.7869382869008277,,0.6528756675646988,4.701925854452399,2.7936160894318567,inf,0.7332379675484756
225,,0.0,0.0,1.107863070818461,1.0527917557604358,0.7463676945201976,3.806558743175062,13.101321324918779,,,0.648888643467878,inf,,,0.8698320563489078
226,0.23995066963059103,-0.0007998355654353034,0.0,0.9402485830949918,0.9181638815712592,0.599672618649146,4.521868913279883,42.25254777625307,,,0.6468212168108125,5.943733144286792,inf,,0.7067047545326454
227,1.446484128604896,-0.06750259266822849,0.0,1.0932016518181784,1.0516036398283581,0.7417880937058798,3.802031670780229,6.008447238909287,,,0.648888643467878,4.160484364726646,inf,,0.6210259598755474
228,1.1471825170853878,-0.015295766894471837,0.0,0.4116299703287301,0.3515194197949052,0.45551702002165384,3.7744045791214385,12.997048060055405,,,0.6447042257417027,4.813151489562624,inf,,0.6835798734618478
229,,0.0,0.0,1.2626659891018854,1.2405269394987093,0.8293872015274772,3.1617551100395542,2.8509184720750453,,,0.6284777104787076,inf,,,0.9264674633783418
230,1.303841043462165,-0.013038410434621651,0.0,0.8827779780213908,0.8190045947373783,0.6501266304466371,2.5405092110500895,1.3230594078534574,,,0.6233814453054027,5.626821433520073,inf,,0.6397777935119127
231,0.7270487322356266,-0.0024234957741187555,0.0,0.41231833750780195,0.36775112049152703,0.5379384755923075,2.1952569994911797,2.1722789192195813,,,0.5978297680564633,6.430831206891828,inf,,0.8022843092246331
232,,0.0,0.0,0.61199855832373,0.5906010428122243,0.514578914215341,1.420852889127912,1.1126441309256103,,,0.5915533975974677,inf,,,0.927205336174531
233,,0.0,0.0,0.6616548761309371,0.6530826951961555,0.6298555611804879,1.0055370716913656,1.0346060185269228,,,0.6207552362147116,inf,,,0.9384764353328348
234,,0.0,0.0,0.32511558403202034,0.26467268028861207,0.5017950122610043,1.142942274372344,1.0162150175531532,,,0.5641709578113449,inf,,,0.7251246714289278
235,1.2164734554286447,-0.008109823036190966,0.0,0.43536355997535636,0.26991450477549556,0.5396019810901068,1.3695777838280663,1.3188671611833478,,,0.5947193981915972,6.070026869611084,inf,,0.8829620270898374
236,1.7147984280919266,-0.005715994760306422,0.0,0.33204187911027483,0.24360361857044344,0.46826306840352416,1.096807118575303,1.231591593542577,,,0.5677978065141052,7.418580902748128,inf,,0.5759254304480417
237,,0.0,0.0,1.2606296955083198,1.2093511331692846,0.7495589468665362,0.788499504177002,1.0450877486442605,,,0.5748741956352443,inf,,,0.8314099660019746
238,,0.0,0.0,1.3881862357362482,1.3229035694429465,0.8351320053552251,0.7536649019642743,0.9841705315685102,,,0.541134803179459,inf,,,0.7918130729561293
239,,0.0,0.0,1.6177869076988645,1.5891750586085818,0.8622355827041088,0.8904701571447781,1.2568378055927474,,,0.47824363442641393,inf,,,0.7976788998013875
240,,0.0,0.0,1.638410081781967,1.6029030504819417,0.9148837103979928,1.4994833380608992,2.151269334929684,,,0.4302020962658841,inf,,,0.8591057174016121
241,,0.0,0.0,1.7254878401723115,1.7063632864811402,0.9353547253064733,1.6364329876157822,2.7617828613547983,,,0.4928685327679205,inf,,,0.8323021352994225
242,,0.0,0.0,1.7779802655743229,1.7539838014331133,0.9214033915939777,2.1806251925227107,3.0821445078057774,,,0.4880666971167561,inf,,,0.8422474399790564
243,,0.0,0.0,1.775104928514156,1.7550919381975207,0.9507786052650514,2.0950716163793395,3.6974321251781914,,,0.5451288209179292,inf,,,0.8549943789014031
244,,0.0,0.0,1.769364094875142,1.7184536790342892,0.9260809984499445,2.4610021258492796,5.0533742339322245,,,0.5604843169999094,inf,,,0.8596517736658316
245,,0.0,0.0,1.5194202156356111,1.5093604802939131,0.8718266910213642,1.9894257577757317,3.1128577997352336,,,0.5329562494928909,inf,,,0.8822914776556106
246,2.445685936634719,-0.008152286455449062,0.0,0.840565092917521,0.7840914325188871,0.5389345242855299,2.74694716619256,3.566321132406926,,,0.581717464821069,8.14946841129092,inf,,0.6214550450369126
247,2.8134107167600364,-0.009378035722533455,0.0,0.7749357410433971,0.7519562289887404,0.5975834495702702,2.704732740609214,6.00528789249821,,,0.6008849035917525,8.517193191416238,inf,,0.8948690256843048
248,0.8675005677047232,-0.005783337118031488,0.0,0.5748597356324998,0.523100286837437,0.6502539489903839,2.6827540115077144,3.0050343996111497,,,0.524519217297268,5.866301404153976,inf,,0.5592775804696356
249,,0.0,0.0,1.6317390155660123,1.5981838907524728,0.9290322496900554,3.12471817075246,2.4547799179095424,,,0.5641709578113449,inf,,,0.8861033138940592
250,,0.0,0.0,0.6411515071313701,0.5571635260293047,0.5841229031063859,2.335959125689485,2.0876252210107724,,,0.5490601803369085,inf,,,0.915887976954409
251,1.6463209875539049,-0.010975473250359366,0.0,0.8607491363138897,0.8148074476629148,0.5681416215383601,2.463024153022258,2.8052379710912945,,,0.648888643467878,5.991464547107982,inf,,0.7000076661595968
252,,0.0,0.0,1.5201551235777715,1.5033527572336338,0.8966858555232936,2.5379535255213583,2.9564065439075713,,,0.585052858160615,inf,,,0.897843703736723
253,,0.0,0.0,0.8534596863530034,0.8098434860732308,0.734921081324973,2.91245667365512,3.5793073820918537,,,0.5604843169999094,inf,,,0.6361190724586228
254,,0.0,0.0,1.7354617512195092,1.7041787585332853,0.9064786533279383,2.895237013938527,3.002587092712294,,,0.5113665138247345,inf,,,0.9092527597230646
255,0.7663560139722263,-0.01021808018629635,0.0,0.9729275637560233,0.957188670130437,0.6203881677629963,3.6696481076193606,4.510878924317452,,,0.6403206450210053,4.965024782844203,inf,,0.6947553153901643
256,1.2418857388791598,-0.02897733390718039,0.0,1.2062114610726782,1.1878998986369873,0.7733676626224241,3.84636590105688,4.663886650053378,,,0.6509067234006624,4.985942681505884,inf,,0.5698629068227273
257,1.7334905611040792,-0.00577830187034693,0.0,1.090495095024981,1.0773160559244779,0.6397454750698861,3.69857436670754,8.607431377114569,,,0.62595550513784,7.43727303576028,inf,,0.6768416315181902
258,1.3220684376792786,-0.008813789584528523,0.0,1.1900774351422736,1.1834269785086369,0.7350144242729622,3.662448751775923,6.25553357124371,,,0.6468212168108125,6.332391134078575,inf,,0.7060749973018733
259,1.5333952512796432,-0.035779222529858344,0.0,1.0865645524056844,1.0422115297808399,0.7326770958353528,4.328426902378296,2.498920758259634,,,0.6233814453054027,5.127169110352208,inf,,0.5310998634342464
260,1.2950339512810578,-0.05180135805124231,0.0,1.1583306039285157,1.1253112839478454,0.8105382744414901,4.411809333791345,22.191196433188694,,,0.6528756675646988,4.262368814315231,inf,,0.5891565360029364
261,1.45414873398691,-0.024235812233115165,0.0,1.0294718839351191,0.9652785951540935,0.745418963850283,3.8790574313203794,3.053799557093488,,,0.6509067234006624,5.320790222400095,inf,,0.627583269414254
262,1.4587940673144792,-0.03890117512838611,0.0,1.2481146207347296,1.2464276509801946,0.7502368852835556,4.408086910483503,3.5895747140253977,,,0.6357360191111145,4.780847200063377,inf,,0.7231629454243553
263,2.917000966723954,-0.07778669244597211,0.0,1.1624935536018124,1.1430713427343275,0.7347333648964551,3.7979094024230937,10.176220871909175,,,0.6153451465759925,5.5640205322810425,inf,,0.7127371709848032
264,1.3239178157435334,-0.03912808230627925,-0.00500251155183853,1.0938992887959362,1.0204728508622698,0.7365794108897297,3.9781143560931813,13.557015393545443,2.6818278024982107,,0.6309483474627791,4.591924959238071,2.6109473706833652,inf,0.8573562791550229
265,1.8946148061155403,-0.07578459224462161,0.0,1.1527618209851647,1.12541692731436,0.7303272185646743,3.9915449580271845,3.794221624702483,,,0.6699045166045591,4.831095380264178,inf,,0.61215809940898
266,1.7945747310971296,-0.18971343382627445,-0.007689786594409802,1.1587975543831364,1.1033461734666854,0.792127455434056,3.83330158278848,40.97557785159353,4.446774639076635,,0.6547956803312163,3.696015969683256,4.31035159796699,inf,0.6432065979520906
267,2.58782799514417,-0.08626093317147233,0.0,1.0659681187881433,1.0365121641639556,0.7329493735501221,3.9388272378826032,16.13984947279019,,,0.648888643467878,5.063684515186071,inf,,0.6422725604209316
268,1.2356985849309783,-0.06590392452965217,0.0,1.260529788180816,1.2133535609002994,0.7702001510377884,3.8435352029756285,12.725648359020516,,,0.6509067234006624,3.885164717925277,inf,,0.582502489890072
269,1.9666990361432184,-0.03277831726905364,0.0,0.9502335913178944,0.8659909535873483,0.7475440049622528,3.884809842909069,5.934512839483702,,,0.6668815377411301,6.023069886523313,inf,,0.7631962175452123
270,0.83570867745965,-0.016714173549193002,0.0,1.1367968050284953,1.116428964164217,0.7293737500961344,3.513247981574568,3.5040961578620173,,,0.6652988471865258,4.593022052052444,inf,,0.6413777313497122
271,1.5621743752836474,-0.09373046251701886,0.0,1.3413914190039893,1.32674494111453,0.8291174509499509,4.774379083008393,25.13646313596169,,,0.6668815377411301,3.944775791899954,inf,,0.5532702021475148
272,1.1491821124970978,-0.05024440062439711,-0.011045312042114768,1.18185779009355,1.1217510536003943,0.7646045686963823,4.458725409111083,11.828473298801661,5.681749284041977,,0.6566669596287297,3.7732277136840824,5.236441962829949,inf,0.8133236541092902
273,1.7316865746581496,-0.10390119447948898,0.0,1.3502874164694678,1.3237148617121186,0.8109144492568401,3.656624010477807,6.508584835458145,,,0.6652988471865258,4.11182987656312,inf,,0.7035661166964676
274,1.9412406224442469,-0.07764962489776987,0.0,1.3685917073723075,1.3493361118184246,0.791788047950392,5.177008783103764,7.7900653342581645,,,0.6403206450210053,4.750838425134011,inf,,0.6753436655975932
275,1.819501890154537,-0.05458505670463611,0.0,1.2688822546078358,1.235553380184834,0.8027513620166051,3.6637506043343313,2.438321086201246,,,0.6333676938231112,5.169240324272894,inf,,0.8948891354598949
276,2.659260036932778,-0.00886420012310926,0.0,1.2493454404530244,1.2455017002624647,0.7450033616055878,4.373453332095522,7.638994099576953,,,0.6447042257417027,8.36304251158898,inf,,0.7775226942331872
277,1.5847471750427795,-0.04754241525128339,0.0,1.2463301352499252,1.2197259147763415,0.7524724382975195,4.214216161413575,14.882580550559336,,,0.6684167106117298,4.921404160368313,inf,,0.7193884775955784
278,1.4860594135114737,-0.05448884516208737,0.0,1.0548974330164864,1.031375409634111,0.7076760830387613,5.975749217675351,44.31047521675723,,,0.6528756675646988,4.390058806371146,inf,,0.5000237423656855
279,1.4320633971768388,-0.07160316985884194,0.0,1.2564994111782992,1.1790938544112533,0.7553024403764548,3.8586655401593233,6.597057370026874,,,0.6528756675646988,4.299320809580862,inf,,0.579048308265733
280,0.916290731874155,-0.0030543024395805166,0.0,0.9755425972305658,0.9579288995377968,0.7572121255258933,3.8679911849499127,2.876925476201464,,,0.6566669596287297,6.620073206530356,inf,,0.5930683964836855
281,1.529395204760564,-0.005097984015868546,0.0,0.9527841572828065,0.8781237608712135,0.6093421568076194,3.2726567201108026,2.940673701837932,,,0.6584896970785714,7.233177679416765,inf,,0.7235331988345469
282,,0.0,0.0,1.3589447543342974,1.3006366821809492,0.7954387207079753,3.0307352426813194,3.407923080524415,,,0.648888643467878,inf,,,0.9217729090733032
283,2.333669438965081,-0.02333669438965081,0.0,0.8808291265614964,0.8650445824329436,0.6093354560956341,3.132145500198429,3.64380906861774,,,0.6425374456860184,6.896705442795552,inf,,0.6470472746777474
284,1.0316621913303758,-0.017194369855506264,0.0,1.1156987941461864,1.0723877314305466,0.7130151116895553,3.244374984959059,2.7593324682915705,,,0.6547956803312163,4.784828625362563,inf,,0.5640532938499448
285,1.729586061554925,-0.13260159805254423,0.0,1.4611505802540676,1.4365361104943544,0.8577352436125468,3.607241697500978,4.449974241229803,,,0.6468212168108125,3.9356328710672797,inf,,0.712146131759469
286,0.6627284126311428,-0.02872993978074171,-0.0021973861420449495,1.2563655793080593,1.2307368735733466,0.7620918688345008,4.228223975801439,3.2721089399735384,3.2382201277003717,,0.6180765742263259,3.6853302046027947,2.678809627790361,inf,0.49557682105983714
287,0.7682574592920954,-0.023047723778762862,0.0,1.0946914370686085,1.0542457981639022,0.7172777203526395,4.521698263728843,9.983217477030554,2.015064521661477,,0.663668482632973,3.7800205588238986,1.9271008170978172,inf,0.46183604825395197
288,2.1766926617199576,-0.05804513764586554,0.0,0.8885737811690142,0.8648518700988715,0.6881243986312394,3.9816849390693956,5.858089139293089,,,0.6447042257417027,4.907777908656548,inf,,0.569984316693894
289,0.7247946057461021,-0.004831964038307347,0.0,1.0329611993617889,0.9828498650798904,0.7751508539475161,3.9451390169099376,2.931797924019011,,,0.6528756675646988,5.727392340295335,inf,,0.8174054189689767
290,1.3042281559756101,-0.017389708746341468,0.0,1.0866222820464457,1.0481049403093692,0.7230952474230657,3.7015757910113987,6.870974353542245,,,0.6566669596287297,5.581564841931952,inf,,0.829353752169675
291,2.1188245073958725,-0.058070515605496614,-0.012556967974365797,0.9739156314605837,0.9442577017691287,0.7144050431950361,3.901769199253582,4.344362204141646,,,0.6584896970785714,5.287267530361452,4.174387269895637,inf,0.5636704158885874
292,2.042157549828246,-0.0340359591638041,0.0,1.110736687811289,1.0507851037195275,0.8127072240834338,3.458812312449672,2.5704852709334025,,,0.6447042257417027,6.065230697347591,inf,,0.6470049676626198
293,1.310557841533639,-0.02184263069222732,0.0,0.8597753529764195,0.7883732926585207,0.6806407329546601,3.1510019104623677,2.658074156986112,,,0.6284777104787076,5.357831494080444,inf,,0.5988337137724393
294,,0.0,0.0,1.112574104079763,1.0860140617848228,0.6859129547508331,3.077059150677605,4.606796585946402,,,0.62595550513784,inf,,,0.6489617893364054
295,0.6812340315945193,-0.006812340315945194,0.0,0.6337724925522882,0.6133823289206388,0.6148146251522442,3.2773079059393,2.624895366817089,,,0.6584896970785714,5.237954216820946,inf,,0.7097547093101074
296,0.875708784535318,-0.01751417569070636,0.0,0.759170159697775,0.7120050052113864,0.6674939464614779,3.7362704312950443,4.051657991151381,,,0.6468212168108125,4.699480865459333,inf,,0.47072069654845866
297,1.3283369321536127,-0.022138948869226877,0.0,0.9943270416907039,0.9463528959483744,0.6447439468095154,4.276763522939819,7.985689673377344,,,0.6528756675646988,5.022370550314677,inf,,0.502007695002265
298,2.0011256602601835,-0.02668167547013578,0.0,1.207338199378957,1.1796870004539637,0.7735509678079466,3.4332379071931975,2.6176804933298508,,,0.6509067234006624,6.242778975388888,inf,,0.5093178012809849
299,2.0738632410866376,-0.03456438735144396,0.0,1.1785164530425425,1.1062572642046866,0.7953315759438868,3.9343940651886453,2.8349547252694087,,,0.6153451465759925,5.995918897457362,inf,,0.6742297319936276
300,1.0904147599641694,-0.018173579332736153,0.0,1.0137701802381391,0.9905228056232659,0.6106380392571341,3.3444120258411174,5.346265353703924,,,0.6403206450210053,5.079628165583207,inf,,0.7236185485046687
301,1.677444879252791,-0.03914038051589846,0.0,1.0702034651455639,1.032403823515797,0.7469414258178124,3.8627743485161132,4.187099290381712,,,0.6097226960127671,5.221356325411908,inf,,0.5477995385498983
302,2.2252736170890954,-0.022252736170890956,0.0,1.291290694893685,1.2307296886523014,0.8216995587727114,3.9735961747845905,15.107885306570225,,,0.6602640781246099,5.824068640530703,inf,,0.8788566247348808
303,,0.0,0.0,0.8867491063278925,0.8713546873903644,0.6880013236139982,3.094337514792175,3.1624616375628074,,,0.6566669596287297,inf,,,0.9428773109591015
304,,0.0,0.0,1.0264227294024089,0.9776973849078909,0.7295484481514981,2.492823376303479,3.232872866688502,,,0.5783247308855777,inf,,,0.9213631355335894
305,,0.0,0.0,1.280751526502082,1.2651727999172837,0.7793388364168132,2.288286597932429,2.387090036033898,,,0.585052858160615,inf,,,0.9264224198633513
306,,0.0,0.0,0.8777697693324411,0.8560889916469614,0.8114296816237714,2.4766865624904955,3.857913035281882,,,0.6038851895711802,inf,,,0.9450335800498375
307,,0.0,0.0,1.4001758416312995,1.3618983370502846,0.8592379785449329,2.418780116529445,2.481558310082066,,,0.6068309995095971,inf,,,0.9433087341681208
308,,0.0,0.0,1.1234570579318337,1.1089475578961798,0.7367429983724809,2.604922312696713,3.0184365029524085,,,0.6284777104787076,inf,,,0.9397614436453404
309,,0.0,0.0,1.1306043637516736,1.1177140128232137,0.7244152027172389,2.7713476078182393,3.807191136668158,,,0.6584896970785714,inf,,,0.9173338826565358
310,,0.0,0.0,1.3909058877681344,1.350699263386138,0.7746701365365078,3.344092994128974,8.406599853824664,,,0.6547956803312163,inf,,,0.9269749578734084
311,,0.0,0.0,0.3818940750647751,0.3603774468962739,0.575322845625847,3.1301147593388996,2.7554965578715747,,,0.62595550513784,inf,,,0.8435655529722781
312,,0.0,0.0,1.409266816358027,1.3805780217317745,0.7870895011150975,2.9976113989570017,4.961276597242955,,,0.6233814453054027,inf,,,0.9296394741201
313,,0.0,0.0,1.0210159087138067,0.9901285746023805,0.6252957121511994,3.1712034116073182,3.574508616669757,,,0.6233814453054027,inf,,,0.706865994187026
314,,0.0,0.0,0.9828307906709186,0.9751771135340306,0.629884868119941,3.989363366520432,6.777007607508095,,,0.6509067234006624,inf,,,0.5968204078025743
315,2.995732273553991,-0.00998577424517997,0.0,0.9839446229134952,0.9460223379436914,0.7641905873534353,3.094753114058209,3.272071995022049,,,0.6207552362147116,8.699514748210191,inf,,0.790057540166174
316,,0.0,0.0,0.9830784543991494,0.9448934061817466,0.6171346565340048,3.2776095363944435,2.8590806084424116,,,0.6528756675646988,inf,,,0.8199118474511493
317,,0.0,0.0,1.0379981992355538,1.0158085671277446,0.7177800655893113,2.5694774242048193,2.4115097929300666,,,0.5783247308855777,inf,,,0.8611045075809272
318,,0.0,0.0,1.0863572169857112,1.0246071139852602,0.6846269118027004,3.7509908993584737,4.287846007096326,,,0.6309483474627791,inf,,,0.786998067418199
319,,0.0,0.0,0.9649049169375007,0.9360388941988356,0.6976159296767148,3.244904941665959,3.568962440242198,,,0.5713653840954815,inf,,,0.8415246787403732
320,,0.0,0.0,1.5043739321574634,1.4683615160569934,0.8200253327784967,4.281324803091284,18.359740981007196,,,0.6468212168108125,inf,,,0.8751141388016944
321,1.331857193641079,-0.008879047957607194,0.0,1.094324815964147,1.0634616927686693,0.6946244081875557,3.9278589492785,2.347577749917595,,,0.6380535849069913,6.283600969909143,inf,,0.7750807953364629
322,,0.0,0.0,0.8843893083947387,0.8765938429524225,0.7796183746219223,2.9998000268265335,3.3873611780942063,,,0.6357360191111145,inf,,,0.6258468042557275
323,4.0943445622221,-0.013647815207407002,0.0,1.244152907522801,1.195717994995515,0.7274812686296891,2.995067456045427,2.896435747613047,,,0.6333676938231112,9.798127036878302,inf,,0.9203237504946966
324,,0.0,0.0,1.1428854166530842,1.1118110022271603,0.6963839748972186,3.5540960035925107,6.3971091154631115,,,0.6699045166045591,inf,,,0.9065941784993159
325,,0.0,0.0,0.9191917345062923,0.8961092506740272,0.719324963207647,4.386874599164704,13.069115213952308,,,0.675384900321601,inf,,,0.8972287005699527
326,,0.0,0.0,1.0262340785082371,0.9385634437875077,0.7634648958445445,4.098185008659836,3.9344089535204914,,,0.6684167106117298,inf,,,0.7759053673895915
327,,0.0,0.0,1.0631457479254622,1.0243527421878313,0.7325777120501521,3.4484819586589355,8.631187766277778,,,0.6920432203634352,inf,,,0.8037111109084896
328,,0.0,0.0,1.1284034441999513,1.0614740024218603,0.808516527037101,4.547440616050051,22.302910937629154,,,0.6180765742263259,inf,,,0.9029686253611509
329,,0.0,0.0,1.3133386409409675,1.2934089287198285,0.7582859661912632,3.9599723187813796,1.939401382014489,,,0.6584896970785714,inf,,,0.9042213402633208
330,2.492158992889441,-0.016614393285929608,0.0,0.7604297189858547,0.7418334609416126,0.759709135673205,3.450272604779175,7.0870321711864745,,,0.5978297680564633,7.495541943884256,inf,,0.718344818366537
331,,0.0,0.0,0.8565738778586196,0.8443792537530408,0.607475332004181,3.9851017491924776,8.083573093766114,,,0.581717464821069,inf,,,0.9139905947498169
332,,0.0,0.0,1.2611180953914078,1.2042002857796021,0.8122514666540027,3.5586584072806215,5.692262761237076,,,0.6125606311107803,inf,,,0.9275344362868186
333,,0.0,0.0,0.7587063290335707,0.7297232386457979,0.5969754612297719,2.5644506774295333,2.7285468655519436,,,0.6668815377411301,inf,,,0.9321588100045209
334,,0.0,0.0,0.9385680890769751,0.9227932541423229,0.6759022296013132,3.1848618546819547,3.6221243210986986,,,0.663668482632973,inf,,,0.8603169456511096
335,,0.0,0.0,1.2196879529128206,1.1914585295045286,0.7224051632505392,3.2513737920608925,2.0710450562132823,,,0.6357360191111145,inf,,,0.7371143793596234
336,,0.0,0.0,1.339682421238853,1.3129660652563169,0.7809124694493567,3.4501404665165367,10.030156574905927,,,0.6652988471865258,inf,,,0.8112996848492223
337,,0.0,0.0,0.9758367526070618,0.9623004321583046,0.6719208252168012,3.331001323152572,8.110238190965836,,,0.6233814453054027,inf,,,0.858951529667289
338,1.1287182586983393,-0.033861547760950184,0.0,1.133579397163841,1.121301026909123,0.7425865195331663,3.855420140123565,38.875916546874286,,,0.6528756675646988,4.599630005612476,inf,,0.7367618812022372
339,0.941608539858445,-0.003138695132861483,0.0,1.133340743911267,1.132650909603755,0.6952461494960005,3.969351397782877,8.716759938182562,,,0.6509067234006624,6.645391014514646,inf,,0.8016583153636736
340,5.703782474656201,-0.019012608248854004,0.0,0.8187014873964683,0.7751161857870092,0.5289544325402612,3.463154791209756,2.6468168369519396,,,0.6652988471865258,11.407564949312402,inf,,0.8508656175178445
341,,0.0,0.0,1.1611100437244581,1.1516454731636725,0.7728354477332242,3.354063755888645,2.8891442981130115,,,0.6652988471865258,inf,,,0.9397138009569075
342,,0.0,0.0,0.6861887179678554,0.5965777839770576,0.5002449315098155,3.5411341657223523,5.749963126367769,,,0.6619902821573977,inf,,,0.7735967501539417
343,,0.0,0.0,1.193465756482628,1.1677669897866747,0.8087449475082302,2.91959201900625,2.575433340408095,,,0.663668482632973,inf,,,0.9069032288459072
344,2.371577964480997,-0.007905259881603323,0.0,0.9254873367184904,0.9191158981442843,0.7712341841038481,3.878660398655637,12.77208299061342,,,0.6468212168108125,8.075360439137198,inf,,0.7870505758794145
345,,0.0,0.0,0.8798787402294946,0.8338289797304431,0.5685235600328846,3.1499104462462277,2.851730172855963,,,0.6357360191111145,inf,,,0.8980005667100432
346,1.437643060239062,-0.009584287068260413,0.0,1.1632674608127602,1.1116759544809292,0.7253676383384413,4.278671524518491,32.59301301439027,,,0.6425374456860184,6.231415216738573,inf,,0.7246357626879073
347,0.13543797089510426,-0.00045145990298368086,0.0,0.9866664436474137,0.9388848338342394,0.6905131726998162,4.9273252260196925,112.09114410012698,,,0.6038851895711802,5.839220445551305,inf,,0.6969292774924452
348,,0.0,0.0,0.8647484257672975,0.8299532097256451,0.6586127624832779,3.355095861599354,2.5472974859916935,,,0.552929491858785,inf,,,0.9160847997244193
349,,0.0,0.0,0.742277122515021,0.5777717070537234,0.5999369636308927,3.8166561093913267,11.875273217805475,,,0.5713653840954815,inf,,,0.9494258750299716
350,,0.0,0.0,0.5504784600425079,0.44799788909215726,0.6402880546155116,3.418101888674588,22.48958766706978,,,0.5978297680564633,inf,,,0.8149179661287079
351,,0.0,0.0,1.7671266613947116,1.7384313686790533,0.939490571512953,3.3290265936156547,21.257762414132895,,,0.552929491858785,inf,,,0.8702452959738778
352,,0.0,0.0,0.8888229946499202,0.8002924348052787,0.6151965544928754,3.202972636157368,18.253141150155837,,,0.5978297680564633,inf,,,0.8479434559301438
353,,0.0,0.0,1.306715690202673,1.2821200378556445,0.7785069157887803,4.08454682070122,8.730574002919047,,,0.6447042257417027,inf,,,0.820936172111898
354,,0.0,0.0,1.2295528647615264,1.1341099256256573,0.8518382417492633,3.0073444320910725,2.18435184546709,,,0.5641709578113449,inf,,,0.9226280759668373
355,1.8417801463181682,-0.012278534308787788,0.0,1.0092354741924918,1.0090219219319538,0.7659378030840652,4.481570107245885,12.328213802772115,,,0.5567373465730988,6.832853970809019,inf,,0.9284677640338613
356,0.16251892949777494,-0.0005417297649925831,0.0,1.1761916063949895,1.16974215264365,0.7272859700028487,3.2068046928151714,3.096578865267284,,,0.5641709578113449,5.866301404153976,inf,,0.760867835803316
357,,0.0,0.0,1.7810112914711895,1.7551852574540143,0.952245735656124,4.713188126569989,29.548348769095945,,,0.541134803179459,inf,,,0.8412780005199141
358,,0.0,0.0,1.5509619445858607,1.5317172855624894,0.9302311107846667,4.365616377594615,9.298533700781261,,,0.5329562494928909,inf,,,0.8657487664494494
359,,0.0,0.0,1.7889511408782985,1.777094599498647,0.9461840050912699,5.248731896016963,326.4070712088457,,,0.5490601803369085,inf,,,0.8809747267732736
360,,0.0,0.0,1.7618271967295618,1.7144074633525241,0.9254058152422368,5.045931614778891,701.8965919897802,,,0.5783247308855777,inf,,,0.848348644732043
361,,0.0,0.0,1.768702457113403,1.7765298668735245,0.9161736575143975,4.725700230604282,399.5308806565314,,,0.6008849035917525,inf,,,0.8890691403245549
362,,0.0,0.0,1.2600380457650033,1.2563311247013738,0.7235960830517892,4.773211410706479,5.30276068835465,,,0.6309483474627791,inf,,,0.8959263863712509
363,,0.0,0.0,1.3988450086446442,1.3679139882409774,0.7620706073433621,3.152299805369547,11.436380202709762,,,0.6893362020498699,inf,,,0.9009310175487233
364,,0.0,0.0,1.268981263964149,1.2081301029020846,0.8659424503528547,3.46362492154036,4.592531986780813,,,0.6740851607140061,inf,,,0.7608302540989972
365,,0.0,0.0,1.7708966314214991,1.7490972785373637,0.8819185391207761,4.574866682842849,4.119598458731398,,,0.684994737851132,inf,,,0.8992355419507864
366,3.5127691573192603,-0.02341846104879507,0.0,1.2318720468439546,1.1944435797644564,0.6669871072737497,4.747540690257185,50.38551155170985,,,0.6713451011121618,8.229511118964457,inf,,0.778875648066832
367,,0.0,0.0,1.7819176544569026,1.7538441102616917,0.9005964808814307,5.028723593594934,255.92817462639104,,,0.6125606311107803,inf,,,0.8881465283376933
368,,0.0,0.0,1.7674570270532075,1.7328065543185034,0.9247457250875966,4.276078691511614,385.32972286141097,,,0.6357360191111145,inf,,,0.8484920415315307
369,,0.0,0.0,1.7797756754216472,1.7382578277949023,0.9403986821098702,4.445730906218093,219.7637208329955,,,0.6468212168108125,inf,,,0.8659659502869691
370,,0.0,0.0,1.7713568131389947,1.7227093455416072,0.9418744738268807,4.069476612544053,142.73995866337887,,,0.6447042257417027,inf,,,0.8796337910714408
371,,0.0,0.0,1.442912260236964,1.4093594752768168,0.7903670223168539,4.748734246116412,73.43763373914153,,,0.648888643467878,inf,,,0.846091414707962
372,,0.0,0.0,1.7892393087547303,1.7975115237082815,0.9190543706528101,5.908106177797091,401.59545666244065,,,0.5978297680564633,inf,,,0.8560876252947087
373,,0.0,0.0,1.7719045459712732,1.7330564981052041,0.9460983478821379,4.578426325703873,220.00039853595945,,,0.5370774965580548,inf,,,0.8251292628182341
374,,0.0,0.0,1.3785221279074844,1.3652782620220427,0.8979067064484129,3.640825438574869,29.87663768915051,,,0.5287703885177266,inf,,,0.8709709004982426
375,,0.0,0.0,1.7381973988444543,1.7255339821658153,0.9365159178044626,3.6009147543580093,11.371291779465263,,,0.4928685327679205,inf,,,0.8857736204072808
376,,0.0,0.0,1.7849179395375525,1.7638770686475895,0.9707120591752225,4.434966349503424,20.576894865277552,,,0.5370774965580548,inf,,,0.8529520175372348
377,,0.0,0.0,1.7493924952198534,1.72309841850706,0.9676554166242985,3.7748152049176205,9.91916758962354,,,0.468121228110369,inf,,,0.8851687719804517
378,,0.0,0.0,1.2157110552177763,1.1832586000203178,0.7898069846739799,2.896661828579655,2.100743926295433,,,0.524519217297268,inf,,,0.8923625929779407
379,,0.0,0.0,1.6894811186888847,1.6829422534224936,0.939600836471425,2.7965519446705858,5.543939958187177,,,0.4928685327679205,inf,,,0.8312217117852869
380,,0.0,0.0,1.7409599266610276,1.7142511186602056,0.9555497063311167,2.656010239634268,3.3985921927720453,,,0.4629450596409901,inf,,,0.8307864934659809
381,,0.0,0.0,1.7038868310850828,1.6783828766005426,0.947020288580375,2.622789407076564,2.354762726272687,,,0.4576907132971797,inf,,,0.8461435361981348
382,0.7133498878774648,-0.0023778329595915493,0.0,0.8313965574150286,0.7850120906504466,0.7091633606145519,2.6106214992188677,2.6277396513657805,,,0.552929491858785,6.417132362533666,inf,,0.7919020027431628
383,,0.0,0.0,1.325243470768734,1.2898195129894312,0.8346891888404897,2.241164680363589,1.6448291135776314,,,0.4880666971167561,inf,,,0.921314951699351
384,,0.0,0.0,1.5759584464332752,1.547731619037156,0.9090490447419877,2.6798503262441074,2.4753593094319655,,,0.4629450596409901,inf,,,0.8865734572166089
385,1.0593915755148284,-0.003531305251716095,0.0,0.579972604152922,0.5466495742023558,0.541243864241044,3.1614981193104117,4.623297367279529,,,0.5748741956352443,6.763174050171029,inf,,0.6949770639105816
386,,0.0,0.0,0.8857469332505404,0.8571848065151562,0.7277683275990022,2.016022851714504,1.7741557843448823,,,0.5329562494928909,inf,,,0.9028556315508653
387,,0.0,0.0,1.437256424980016,1.4164247047868215,0.8666819467401948,2.221208075542671,2.5575831727562517,,,0.524519217297268,inf,,,0.8325518067297124
388,,0.0,0.0,1.1641105178742406,1.1376937979822699,0.7840768706881861,1.8602257148985923,1.8254080312225556,,,0.5947193981915972,inf,,,0.8315023069343019
389,,0.0,0.0,0.5402695212277719,0.4854686296944674,0.6486436752165299,1.4232904357534666,1.6834059168279087,,,0.552929491858785,inf,,,0.6504408980085046
390,,0.0,0.0,0.8787474917782687,0.8497671597121876,0.6924343907648001,1.7449888157347715,1.8570963516376506,,,0.5713653840954815,inf,,,0.6889314079658084
391,,0.0,0.0,0.9317607328632095,0.8943403477482563,0.6919395618021003,2.275643730653985,2.49698743060606,,,0.5158180382284114,inf,,,0.8831259747226728
392,,0.0,0.0,1.6471981799217172,1.6197011530856666,0.8975728733806891,1.4553616056549545,1.7332696666918288,,,0.524519217297268,inf,,,0.7940951938024705
393,,0.0,0.0,1.7320272663538467,1.7088488024309791,0.9689738431879714,1.6390791286863593,1.630534764249118,,,0.45235697871908603,inf,,,0.8270166620418288
394,1.0498221244986778,-0.0034994070816622594,0.0,0.5345946023014435,0.48272573161440085,0.6221819232102948,1.859670351078739,1.5333353738243705,,,0.5641709578113449,6.753604599154879,inf,,0.8069786645775499
395,,0.0,0.0,0.9468116621806308,0.9114195781386056,0.4466521082086709,1.5705792795364915,1.7206901244017638,,,0.5883313578629602,inf,,,0.6953159425143923
396,,0.0,0.0,1.528763179285004,1.495115380763909,0.9057939539155331,1.4896746890385468,2.223922438815082,,,0.5641709578113449,inf,,,0.8218870909132601
397,,0.0,0.0,0.751176168244778,0.741019979297054,0.6057008357873384,2.0471572673512815,2.1900431717827833,,,0.5604843169999094,inf,,,0.9075809756356603
398,,0.0,0.0,0.5958159979032343,0.5714786728869503,0.5665514227242555,2.1136059824140316,2.8653322731562274,,,0.5490601803369085,inf,,,0.7648968972957034
399,,0.0,0.0,0.4999769164997472,0.47451628690164704,0.6809463462041513,1.7199622695707137,2.0919986279929406,,,0.5641709578113449,inf,,,0.8676521928636253
400,,0.0,0.0,0.6899131251594858,0.6409298590525799,0.7238261418648013,1.8278651293534411,2.266547112700962,,,0.5883313578629602,inf,,,0.633914524979204
401,,0.0,0.0,1.1636252291207605,1.1045438692471483,0.8169079716581198,2.0058686927013443,2.212037396329217,,,0.5641709578113449,inf,,,0.8876327499257908
402,,0.0,0.0,0.38352603174820593,0.3168465491724639,0.46748392413529744,1.505126014241586,1.6425518380600062,,,0.585052858160615,inf,,,0.6485483539274235
403,,0.0,0.0,1.1570127700597854,1.0882826904830922,0.7915975811889177,1.3809724375108996,1.508571009219152,,,0.5978297680564633,inf,,,0.8455352313010216
404,1.904582809994219,-0.012697218733294794,0.0,0.5139426457520241,0.4579554375389346,0.38081499079926406,1.5440615432576759,1.8667862295200304,,,0.6008849035917525,6.410352675548287,inf,,0.717436808344508
405,0.6924365746488987,-0.004616243830992658,0.0,0.8383206377063688,0.7979487573671694,0.5565159902484399,2.611552675803641,3.094107972503171,,,0.6447042257417027,5.693832143803033,inf,,0.8390313252141983
406,,0.0,0.0,0.9972464576168458,0.9526746140105148,0.7335420744583305,1.8151569532157175,1.7333330866911838,,,0.6233814453054027,inf,,,0.818035600941469
407,,0.0,0.0,0.2933224123996716,0.2567819949072707,0.4219241769721793,1.5786134616418295,1.9498953376596455,,,0.6403206450210053,inf,,,0.8762361597117556
408,,0.0,0.0,0.5165637402004642,0.4997008046784704,0.5100254891579634,1.3586022025574738,1.7605398259039904,,,0.6153451465759925,inf,,,0.8462249990388321
409,,0.0,0.0,0.7017375132803364,0.6952090034311537,0.5460359536302531,1.5128322469616227,2.4705328342584423,,,0.5370774965580548,inf,,,0.8669633206026706
410,,0.0,0.0,1.2715502320219376,1.2380245918759012,0.9490193293147986,1.7029011092414972,2.3678111957042827,,,0.5068466436745385,inf,,,0.7997551732271339
411,,0.0,0.0,0.7483103501907462,0.7416909503633576,0.6294515242309946,1.7955429922201187,2.1343584287038055,,,0.48319206230712763,inf,,,0.9152355836367846
412,0.8059426747052897,-0.0026864755823509654,0.0,0.9780418887433644,0.9395689937771688,0.7010350587535528,2.558796369710864,1.94533669193499,,,0.585052858160615,6.509725149361491,inf,,0.9137481996236543
413,1.499089855265235,-0.00499696618421745,0.0,0.9048697114992917,0.8883137807388224,0.6014694940884693,2.167680878420342,2.6942314361632755,,,0.5978297680564633,7.202872329921436,inf,,0.8148494027431906
414,2.893582041797626,-0.019290546945317507,0.0,0.6555150217670012,0.5651205694748082,0.511838479468493,1.530037891705269,1.3963413001449667,,,0.5783247308855777,7.456321230730975,inf,,0.8901312061576552
415,,0.0,0.0,0.665616161533873,0.6329258944154194,0.6119732247179465,1.2299314452223928,1.4948024466182368,,,0.6207552362147116,inf,,,0.8663625408810874
416,,0.0,0.0,0.6934772907311113,0.6729267525822247,0.4604491515823482,1.4286194429878347,1.3989320499922644,,,0.6068309995095971,inf,,,0.7094341444314413
417,,0.0,0.0,0.6958069048582053,0.5679818898005105,0.5103785336628222,1.7269930726681892,1.8683785797531152,,,0.6284777104787076,inf,,,0.6357462323129045
418,0.9675840262617056,-0.0032252800875390186,0.0,0.6336228850276753,0.5415249306621285,0.5644276981180566,2.012075171610766,1.9217103081992302,,,0.6357360191111145,6.671366500917907,inf,,0.6530178513201266
419,,0.0,0.0,0.3986402894099303,0.37508660657733917,0.6579378593911918,1.4620056055678237,1.2757941294259947,,,0.6309483474627791,inf,,,0.6374879674957483
420,,0.0,0.0,1.254516944591827,1.2124722806384598,0.8082884384303478,2.5017298666992533,2.225604500541971,,,0.5978297680564633,inf,,,0.8431771292078502
421,,0.0,0.0,1.5300719755780514,1.5250508395829871,0.8612103342663266,2.0736647167545708,2.5966176041654867,,,0.541134803179459,inf,,,0.7442666458295372
422,,0.0,0.0,1.578561013041886,1.5731383309300504,0.8973828778835837,2.5278348152816035,2.0475974509791888,,,0.5370774965580548,inf,,,0.7697095109141558
423,,0.0,0.0,1.2781300579269237,1.2453485464056553,0.8138696358195543,2.6477122727790396,4.086926291549983,,,0.5713653840954815,inf,,,0.7739002658696025
424,,0.0,0.0,1.5858292053223306,1.5483391806909883,0.9214309479215627,2.8392835320902545,2.737576981614705,,,0.552929491858785,inf,,,0.8188217311833738
425,,0.0,0.0,0.4033001583853135,0.3111377839012241,0.5870020187800339,1.7750495071557775,1.9525872891309553,,,0.5915533975974677,inf,,,0.7225219396909736
426,,0.0,0.0,0.7903492610202196,0.7636736491822838,0.7227735745541214,2.046784210912728,2.0923194628016772,,,0.5370774965580548,inf,,,0.8527342096335856
427,,0.0,0.0,0.7108051685845607,0.5851615341184434,0.6114262120362318,1.9613854972013007,1.8068054998601657,,,0.5451288209179292,inf,,,0.7989925748854176
428,,0.0,0.0,0.8814599214415809,0.8291796934260963,0.6984735376471245,1.9239726842986704,1.426266252707745,,,0.5883313578629602,inf,,,0.8137180476750461
429,1.9010090681296843,-0.019010090681296842,0.0,0.7152050292008323,0.6468515324020804,0.5889929084269764,1.98496437301496,2.044218654900379,,,0.581717464821069,6.15006957728462,inf,,0.8784049527412396
430,1.7334905611040792,-0.00577830187034693,0.0,0.7821929958576425,0.7609765208152237,0.4191092842628027,1.912770207515372,2.0840325945594316,,,0.6309483474627791,7.43727303576028,inf,,0.8179951268529135
431,,0.0,0.0,0.7485966797198648,0.7333118548195591,0.6279923168304197,2.028140434032716,1.9091585438202183,,,0.585052858160615,inf,,,0.9275734509735641
432,,0.0,0.0,0.7662420915010743,0.7417526424807864,0.5643508464191124,1.734204876019184,2.2073355898154787,,,0.6233814453054027,inf,,,0.8768116733545784
433,1.0216512475319814,-0.003405504158439938,0.0,0.7766805684947222,0.7259169295030026,0.6087716593632045,1.807554788452504,1.740991587095405,,,0.6097226960127671,6.725433722188183,inf,,0.6480198478339382
434,3.912023005428146,-0.013040076684760487,0.0,0.14228428290499973,0.11625301576528456,0.3909213108776685,1.257486099484436,1.611298325544131,,,0.5748741956352443,9.615805480084347,inf,,0.8612179452461272
435,,0.0,0.0,0.9750780938242077,0.9695434518525384,0.7390524091847454,1.3802410134798784,1.6320169793355068,,,0.581717464821069,inf,,,0.8444422484761116
436,,0.0,0.0,0.6675789352197956,0.6147094497970323,0.4508780008327439,1.856901546282014,2.154986801458973,,,0.585052858160615,inf,,,0.7490240598819026
437,1.930942668177638,-0.04505532892414489,0.0,0.9726719677451104,0.893570778879007,0.7363684728944329,2.478629432515757,1.3514638416594988,,,0.6008849035917525,5.44141821018871,inf,,0.6990002491821781
438,2.019125871440602,-0.06057377614321807,0.0,1.0159240734672441,0.954841591206164,0.7512642956636972,1.6068022861538478,0.5966020472030686,,,0.6425374456860184,5.2234160583749185,inf,,0.8451814891514395
439,1.6523731538670607,-0.07711074718046283,0.0,1.3894918339726323,1.3744118120579978,0.8372625946782484,4.748175247781536,30.739042232076272,,,0.6403206450210053,4.387374241000477,inf,,0.7301806083839877
440,2.236687861887029,-0.06710063585661087,0.0,1.0022015315645993,0.9855623564056185,0.6748734897099885,3.393942888934374,1.8761346821155414,,,0.6652988471865258,5.200989022587475,inf,,0.5117844868825431
441,1.3267868034563677,-0.03538098142550314,0.0,0.9903146858717956,0.9707285193064461,0.6497077299253379,3.428815251193441,3.036250066856935,,,0.648888643467878,4.585367558691911,inf,,0.8373169050896486
442,1.9212345589272415,-0.05123292157139311,0.0,0.9382405213499975,0.9138451954470515,0.6747861652075602,3.9886116266805,1.9830441124826357,,,0.6468212168108125,5.242147095080982,inf,,0.7142574822875993
443,1.3348875115066574,-0.04894587542191078,0.0,1.1441314913921412,1.131662614260144,0.7000689358002846,4.654437668610735,6.3658258909095915,,,0.6447042257417027,4.365278777372659,inf,,0.616036917625181
444,2.013378302085304,-0.06477801388637187,-0.009045857190089282,1.09638686035663,1.0589066396337627,0.6946767479664814,3.862331237398924,2.2348623653690796,3.516216514108646,,0.6778444222523095,5.051457288616511,3.3603753871419,inf,0.7470269212898334
445,0.8045834690881306,-0.03486528366048566,0.0,1.2265742757544242,1.225956184753701,0.7787363716139202,4.721647695201342,31.224850715759285,,,0.6468212168108125,3.809666998790618,inf,,0.7742674715121093
446,1.191472940703282,-0.08340310584922975,0.0,1.1507172149525284,1.107169520539512,0.7654576490467758,6.363490729320809,32.070673853565246,,,0.6425374456860184,3.767922661454389,inf,,0.6410275689164163
447,0.9037970699798821,-0.01205062759973176,0.0,0.9777850825102575,0.9392344303597325,0.6854559496674105,2.908124843318172,2.3067050252023575,,,0.6380535849069913,5.21520245983753,inf,,0.5001612305163257
448,1.458164432799115,-0.08262931785861652,0.0,1.2474665600612702,1.228729702000357,0.8159319266926034,3.702854215547699,5.084533414360976,,,0.6447042257417027,4.28550506768326,inf,,0.4652020798593355
449,1.8641034226670443,-0.049709424604454516,0.0,0.888547734174293,0.8568619978504683,0.7616027747219799,3.8377367637885937,5.261598061185891,,,0.648888643467878,5.307245997292338,inf,,0.7957664271629635
450,1.7338624329508263,-0.03467724865901652,0.0,1.1966674734512075,1.1763398018616151,0.806585934421436,3.7270101133981766,3.9534804084060178,,,0.6380535849069913,5.602429980395914,inf,,0.678104636104526
451,1.782629649513078,-0.03565259299026156,0.0,1.1645916179329592,1.1403152653321926,0.7458558049596586,4.183929871997172,2.663093797671995,,,0.6602640781246099,5.596423956335702,inf,,0.5915420163644469
452,1.2386069421394017,-0.02890082864991937,0.0,1.2226953896640431,1.218021417699482,0.7823186894066533,3.513948955265661,2.4955747081610995,,,0.648888643467878,4.84794971181916,inf,,0.5353572053028963
453,2.336486644669727,-0.007788288815565757,0.0,1.103865604593182,1.079982010227125,0.7084508812762327,3.1206503502431655,2.9324605169727773,,,0.62595550513784,8.040269119325927,inf,,0.49064901138890266
454,1.6235158783230654,-0.03247031756646131,0.0,1.2989367582723221,1.2974300216671673,0.8065062956796102,3.7286153122075936,2.669780856877372,,,0.6468212168108125,5.276338459829262,inf,,0.7296358234071249
455,0.8712574542114423,-0.011616766056152564,0.0,0.8611849364688842,0.7938516098417834,0.6040095930320885,3.2549276769403392,3.0235761122459586,,,0.6447042257417027,5.1384686656061405,inf,,0.8009391336221366
456,1.286730401947426,-0.04718011473807228,0.0,1.2963748361663188,1.2385445359448461,0.7321065032043039,4.204605780806186,4.708230755233255,,,0.6713451011121618,4.390058806371146,inf,,0.5666664566323614
457,1.678032287068834,-0.08390161435344169,0.0,1.275261251246785,1.2503919044573824,0.7804444804404623,5.137019930929709,23.474709063778352,,,0.663668482632973,4.173387769562553,inf,,0.7172759250586408
458,1.4488650516349908,-0.05795460206539963,0.0,1.3821187951851561,1.3585961264651938,0.8414370025070059,4.719456696391597,48.094048485325565,,,0.6403206450210053,4.0877000195034325,inf,,0.5895611024795753
459,1.7260217912071336,-0.08054768358966624,0.0,1.0808588860397064,1.0652839670024212,0.672198000000144,5.0101325978340805,14.162442721866947,,,0.6602640781246099,4.534401115099884,inf,,0.5609648503618189
460,0.4850457339283359,-0.009700914678566718,0.0,1.230153342332613,1.2167414692781986,0.7374712717074049,4.21848545028474,16.36135063316212,,,0.6528756675646988,4.330911133868451,inf,,0.6117843345786206
461,1.5279625472073781,-0.02037283396276504,0.0,0.9200885403841107,0.7691411455490115,0.7360520418617248,1.7572040932593218,1.1351453193790528,,,0.6468212168108125,5.6423738465275575,inf,,0.5373084763920096
462,,0.0,0.0,1.3153441266416925,1.2587720951316506,0.7930236320566887,1.4739993444472976,1.1696676689160446,,,0.6008849035917525,inf,,,0.9286433856605901
463,,0.0,0.0,1.3635832887158201,1.3155353332120887,0.810177624934209,1.4991099838654283,1.1682526944919975,,,0.6509067234006624,inf,,,0.9348204129948492
464,2.03356501622557,-0.03389275027042617,0.0,0.8811190228304886,0.7626481499829042,0.7616068395306151,2.9156303946040842,1.6214392890336926,,,0.6425374456860184,6.094358970270615,inf,,0.7695757627491758
465,1.4181717294582088,-0.018908956392776118,0.0,1.3104429811914622,1.310842969566157,0.7781271171151266,4.004264838714797,8.339278264473377,,,0.6309483474627791,5.5582401693655425,inf,,0.7898276659614761
466,,0.0,0.0,0.9353713741072562,0.8656880240086128,0.7034581519805201,4.113328293790696,4.709673280778853,,,0.6699045166045591,inf,,,0.7285260153790325
467,0.7985076962177716,-0.0026616923207259053,0.0,1.3528998691592444,1.3370604228633975,0.8143785094136198,4.24617896575528,10.177103416543176,,,0.6740851607140061,6.502290170873972,inf,,0.6453283908753661
468,1.3843712281070395,-0.013843712281070394,0.0,0.9501208581351953,0.9307663557594343,0.6230604396765913,4.037407864506405,4.722335947240802,,,0.6468212168108125,5.8623875048328395,inf,,0.7914939517818226
469,1.7877753844034667,-0.011918502562689778,0.0,1.1773935885074809,1.1788135593328295,0.7123163720196264,3.7101000514411204,5.244885365270602,,,0.6727386042041725,6.636880324846738,inf,,0.7653026566211976
470,2.1035181810974195,-0.030017062218725677,-0.019065028673547448,1.026610843698141,0.985507133396157,0.6953483625694928,3.4379143062183326,3.6257757754001414,,,0.6584896970785714,5.5270319629117015,5.8805329864007,inf,0.5575128763904582
471,2.0149030205422647,-0.006716343401807549,0.0,0.6936040347790821,0.6296677301490426,0.5356884000382647,3.3520508143985515,3.8235516923239192,,,0.6584896970785714,7.718685495198466,inf,,0.814666111958316
472,2.3349919960450234,-0.03891653326741706,0.0,1.313901293251292,1.2764980588137236,0.8177596808978421,3.7395667593482567,3.3740535452955536,,,0.663668482632973,6.225781399020317,inf,,0.8535472059654174
473,1.7700655465661568,-0.07670284035120012,0.0,1.2917452164166616,1.262245759964279,0.801768171901741,4.195472397104706,2.2365321055023966,,,0.6425374456860184,4.713002890791307,inf,,0.8126542367309002
474,1.676175595596017,-0.061459771838520624,0.0,1.0322292101216457,0.9986083500263219,0.6916291428749496,4.181557904859498,3.991817341227203,,,0.6727386042041725,4.8422999792770405,inf,,0.5067277741071692
475,1.4215538074580156,-0.03790810153221375,0.0,1.165320802748714,1.1489666163959498,0.7964373151361721,4.133186061531024,21.15280945267333,,,0.6207552362147116,4.6344845736568665,inf,,0.6440862991705721
476,2.1490992146225842,-0.09312763263364532,0.0,1.2438804406562316,1.1966788968249653,0.749893940660774,4.212824658701299,13.143907792213435,,,0.648888643467878,4.779523573132869,inf,,0.7096833220363302
477,1.4978661367769956,-0.009985774245179971,0.0,0.5323817178759054,0.47765128620151803,0.5920510556533016,3.5367751501243023,5.230778563131308,,,0.6822068148872973,6.430831206891828,inf,,0.7245638868396826
478,1.8426518280974027,-0.04913738208259741,0.0,1.0282131804716366,0.9060151914884995,0.7591855644633939,4.145663251759702,4.1585204137347676,,,0.6403206450210053,5.246357627617326,inf,,0.644529423600878
479,1.3370982596605063,-0.05794092458528861,0.0,1.4121410499636804,1.3698108306873975,0.841251934452024,4.568418881910655,6.392066016387193,,,0.6684167106117298,4.330066895743171,inf,,0.6921705993934262
480,1.3551671219445762,-0.031620566178706774,0.0,1.1826364387447554,1.1685586133387906,0.747636009052653,4.056914989457334,17.814330763942586,,,0.6468212168108125,4.971414580942975,inf,,0.7626840881034339
481,0.8209805520698302,-0.0027366018402327674,0.0,1.2152835121014791,1.2007827826640887,0.7060545679446687,4.167605745953875,39.29220417464201,,,0.6652988471865258,6.524763026726031,inf,,0.7859154173622713
482,3.4011973816621555,-0.011337324605540518,0.0,1.1788354781549721,1.1416980829210885,0.7557745870224342,4.311859778593745,2.1651955247876096,,,0.6357360191111145,9.104979856318357,inf,,0.6958254700469857
483,0.4888467170472155,-0.0016294890568240516,0.0,0.9857187212458501,0.9231876478349613,0.7170736421819284,4.168672457403577,18.41950986579072,,,0.6566669596287297,6.192629191703416,inf,,0.8184497987907895
484,,0.0,0.0,0.9450338775977488,0.9269927747164614,0.5560569229707237,2.887045828335321,2.9082923309317845,,,0.6528756675646988,inf,,,0.7210388527114985
485,,0.0,0.0,1.0136272136052744,0.9990192050090134,0.6053220119006171,3.345590022937147,4.3539504327312235,,,0.6425374456860184,inf,,,0.7801604151259776
486,2.3701822186938992,-0.05530425176952432,0.0,1.1117029310847604,1.0889105677972972,0.6663291910047078,3.5263692879237136,4.011547485251356,,,0.6727386042041725,5.816577968801545,inf,,0.6258940137146106
487,3.0647251450409425,-0.020431500966939617,0.0,0.9248286887966201,0.906139974799328,0.5922504074715526,3.453835442804577,5.327891554752181,,,0.6468212168108125,8.075360439137198,inf,,0.737147832653556
488,1.3647650241611389,-0.018196866988815185,0.0,1.1463062967585549,1.1122688995151297,0.7441536677171869,3.8968391732806587,5.730993691028672,,,0.6602640781246099,5.504931615911036,inf,,0.4526515452231644
489,2.051157205617049,-0.027348762741560655,0.0,0.9453048863122236,0.8865779855237108,0.6861916622725321,3.8504622086120275,8.418928291777071,,,0.62595550513784,5.835410917134637,inf,,0.49862069235851275
490,,0.0,0.0,1.397444666665453,1.3784073546748612,0.7863382092178244,4.025447844403805,6.485569759678841,,,0.6333676938231112,inf,,,0.6146737392515536
491,0.9542003203169361,-0.009542003203169362,0.0,1.285282879716039,1.2712810999615907,0.7644672479138825,4.128549351513177,21.265157296636552,,,0.62595550513784,5.336827221309912,inf,,0.5786556575894131
492,2.1688216090183743,-0.07952345899734038,0.0,1.0863191348718426,1.0319191409856736,0.7841097601672533,4.213805002889393,9.814352786679184,,,0.6584896970785714,5.263379315186756,inf,,0.6384874609641156
493,1.040343380544134,-0.0034678112684804465,0.0,1.177072683438621,1.1099144316745237,0.774329466520515,3.734657141331642,2.5621798313481534,,,0.6652988471865258,6.744125855200335,inf,,0.8838498770261428
494,,0.0,0.0,1.2079749278856047,1.1804061191261914,0.7865074168675761,3.4668228967161028,3.955739914307784,,,0.6652988471865258,inf,,,0.8488056781797114
495,1.8536348729461425,-0.006178782909820475,0.0,1.120636856625999,1.084101393112746,0.7929495448856043,3.1209783155702304,3.201277700991697,,,0.6284777104787076,7.557417347602343,inf,,0.7774759723372223
496,,0.0,0.0,0.8547998657231616,0.8203382494553826,0.5954406339634923,3.0497865000278876,3.297740091878543,,,0.6333676938231112,inf,,,0.799813810943517
497,,0.0,0.0,1.0543834433562438,1.0236711062945392,0.6360854147449262,3.307876234354384,5.154202218224255,,,0.6652988471865258,inf,,,0.7677759710402176
498,1.7334905611040792,-0.00577830187034693,0.0,1.0101335748994515,0.9613388363188099,0.7823535435570134,3.550347429612044,4.414678261851984,,,0.6528756675646988,7.43727303576028,inf,,0.8458960550366118
499,,0.0,0.0,1.1591080347050644,1.0759999640612585,0.7708928086890195,3.3035496203713164,9.154462534510564,,,0.6357360191111145,inf,,,0.8844648987197936
500,1.499089855265235,-0.00499696618421745,0.0,1.1121806647020205,1.0995617398988649,0.7080950951826629,3.7340030850798565,2.861346912686517,,,0.6509067234006624,7.202872329921436,inf,,0.7778024076354716
501,1.3093333199837622,-0.0043644443999458745,0.0,0.6512323328598562,0.5901760293513773,0.5864205915956318,3.059559571534637,2.9509648033973677,,,0.6699045166045591,7.013115794639964,inf,,0.7532044293552389
502,1.8325814637483102,-0.006108604879161034,0.0,1.2581990436076456,1.2150565466389607,0.7378889566805249,3.5858725432923033,5.329646354099234,,,0.6684167106117298,7.536363938404511,inf,,0.8369683276204534
503,0.4942963218147801,-0.001647654406049267,0.0,0.8565838958071386,0.77328220392506,0.5900095047646751,3.4116054646060063,3.1722864165686024,,,0.6233814453054027,6.198078796470981,inf,,0.8260589153285978
504,1.5141277326297755,-0.005047092442099252,0.0,1.232395349585171,1.1776438430771952,0.78981322672781,3.9987849756928355,11.755106720608527,,,0.6584896970785714,7.217910207285977,inf,,0.6441432854029608
505,,0.0,0.0,1.2958837937400574,1.284003940280361,0.8015679499085203,3.772994920772198,7.338192104089816,,,0.6893362020498699,inf,,,0.9498922256666609
506,,0.0,0.0,0.996136561581884,0.9947912902880581,0.726045004856542,3.401902642895818,3.279640958079021,,,0.6822068148872973,inf,,,0.7561256729061492
507,1.89223207801448,-0.04415208182033786,0.0,1.1140038141213948,1.1261929102996318,0.7491357071321746,4.236659893131294,2.3824706973859433,,,0.6425374456860184,5.413603522005833,inf,,0.7761300081683346
508,0.6865026378412769,-0.0022883421261375896,0.0,0.9475776226872469,0.9239715886916996,0.6278421096490073,3.7137597567212506,7.293986626804122,,,0.6790044388599258,6.3902851124974775,inf,,0.7570223573725311
509,0.40546510810816444,-0.0013515503603605482,0.0,0.9607507305886449,0.9446384101203246,0.6514290177471181,3.5896991689187687,5.497732299919494,,,0.6619902821573977,6.1092475827643655,inf,,0.7454414125903162
510,0.7550225842780328,-0.002516741947593443,0.0,0.8267125175006151,0.773494361150737,0.7330747660903846,3.953455650228451,8.217120602960117,,,0.5451288209179292,6.458805058934233,inf,,0.9137041263341685
511,,0.0,0.0,1.167765955838966,1.1718375705950805,0.8330162426218882,3.7985904096981247,3.182873657738538,,,0.5490601803369085,inf,,,0.8921437062856372
512,1.9099250884420382,-0.05729775265326115,0.0,0.9684993417403148,0.9402967634848431,0.6543733018808694,3.475783861974779,3.0039787411498233,,,0.585052858160615,4.95236638597228,inf,,0.6183694488281717
513,,0.0,0.0,0.5925247636926131,0.5479573823393763,0.67968053169258,3.0144598901985877,3.186413557629708,,,0.524519217297268,inf,,,0.789749687434068
514,0.15470638976098125,-0.0005156879658699375,0.0,0.8156271547070011,0.766104765201392,0.7312823446664414,3.0185304026883255,3.2606231126129246,,,0.4880666971167561,5.858488864417183,inf,,0.7429064655751441
515,,0.0,0.0,0.2730027592884021,0.24553519987624917,0.4600307720220243,1.7866705718012796,2.1818888031653314,,,0.5677978065141052,inf,,,0.6707568539524251
516,1.3015169968631484,-0.013015169968631484,0.0,0.6073066852751005,0.5676977116673302,0.6223778459484806,2.796346905366806,2.3902459817083805,,,0.5748741956352443,5.765657878374289,inf,,0.6974436419486314
517,1.1394342831883648,-0.0037981142772945493,0.0,0.7394701109027153,0.7133600428921478,0.6540184722937574,2.2080100630331105,2.9050973975217236,,,0.581717464821069,6.843216757844566,inf,,0.6215049596799701
518,1.171182981502945,-0.003903943271676484,0.0,0.8618647692618918,0.8334089013552315,0.6638445924819254,2.1416859252647598,2.0832600095450187,,,0.6097226960127671,6.8749654561591464,inf,,0.7380322363736774
519,1.328596385222585,-0.01328596385222585,0.0,1.186453519060988,1.1763806422994032,0.781150692712778,3.0998062504686104,2.8713194140043328,,,0.6309483474627791,5.398751763869807,inf,,0.7173972024802672
520,,0.0,0.0,0.4403381126089187,0.4096937221464617,0.5065882536579296,1.900976232135377,1.685318278502944,,,0.6153451465759925,inf,,,0.8344891251928838
521,,0.0,0.0,0.6783606466644517,0.6315508297605003,0.4791316544217034,1.634895226349326,1.6628938334102872,,,0.524519217297268,inf,,,0.8630221369746434
522,0.5108256237659907,-0.001702752079219969,0.0,0.6462546659786865,0.6257075463885772,0.6779141287082829,1.54056550569861,1.4256863979602787,,,0.5490601803369085,6.214608098422191,inf,,0.9295075637037066
523,,0.0,0.0,0.3836621751678099,0.3439153015338321,0.46522437671339323,1.2620798415028744,1.491933922311086,,,0.5287703885177266,inf,,,0.7908791585098963
524,,0.0,0.0,1.066970460777452,1.043542290228481,0.7517685948875826,1.4019677486216608,1.2901396856432628,,,0.6284777104787076,inf,,,0.8178110364475483
525,2.371577964480997,-0.007905259881603323,0.0,0.6772161197312677,0.6222487082720897,0.5452426213326004,1.4851248044456031,1.2017542250886668,,,0.5978297680564633,8.075360439137198,inf,,0.5889363938221566
526,2.095060758807935,-0.013967071725386233,0.0,0.8729746221893387,0.8391390322830854,0.6231990895330631,1.8044283422838914,1.4797247729932506,,,0.6097226960127671,7.076831609026071,inf,,0.5241862114022815
527,,0.0,0.0,0.6135730942174217,0.5933668647926024,0.6738996373600499,2.1688327432987444,1.8100427464257534,,,0.6333676938231112,inf,,,0.6286658044078213
528,,0.0,0.0,0.34626398084081667,0.3078006466213692,0.6677226698866537,2.162459451603831,2.3904598761408113,,,0.6425374456860184,inf,,,0.8665552055787306
529,,0.0,0.0,0.9812603955345313,0.952740652526171,0.6865057211138648,2.138638099966196,2.1172759084861945,,,0.5978297680564633,inf,,,0.8952819813329507
530,,0.0,0.0,1.431954186617999,1.3887633563072297,0.8591808949307943,1.9402654410700133,2.5291422599459055,,,0.5567373465730988,inf,,,0.8459923455324909
531,,0.0,0.0,1.4017275532038371,1.390415021533039,0.8320285845128201,1.7943997855298033,2.4297995829177097,,,0.6125606311107803,inf,,,0.7964882654106887
532,,0.0,0.0,1.3136556710552325,1.2882313330971937,0.8079649238774151,1.691356031397327,2.4684363684305737,,,0.6333676938231112,inf,,,0.7687457818008531
533,2.445685936634719,-0.008152286455449062,0.0,0.4280065177462624,0.3576142984562358,0.5368386809764149,1.601625432679106,1.5471578405839763,,,0.5947193981915972,8.14946841129092,inf,,0.8038642668378919
534,,0.0,0.0,1.4643069305929057,1.4695491187834708,0.8389253740169617,1.2202847920445983,1.4241228441449776,,,0.585052858160615,inf,,,0.8166620906535496
535,,0.0,0.0,1.39585128471741,1.3617008164595168,0.788500400160239,0.8907341520563471,1.3774367327736527,,,0.5978297680564633,inf,,,0.7528823764873014
536,0.8020593754782502,-0.005347062503188335,0.0,0.5622728660870293,0.4925651912142864,0.5313434317445761,2.0536323232896687,1.7657587473914624,,,0.6125606311107803,5.7205895929725825,inf,,0.8067429393516184
537,,0.0,0.0,0.482495319652585,0.46300850592541737,0.6096468741678152,1.9020897215286412,1.8406322358599552,,,0.6547956803312163,inf,,,0.7850101870204798
538,,0.0,0.0,0.5294528425001993,0.5316353757240491,0.5426325828135778,1.2039203357922768,0.9380268341320366,,,0.581717464821069,inf,,,0.745366515894083
539,0.9900604975699951,-0.009900604975699952,0.0,0.4316978444379619,0.35906409294295816,0.5562462357420347,1.3193204745271032,0.9822430283570132,,,0.648888643467878,5.549631794828943,inf,,0.8307487899091716
540,,0.0,0.0,0.3762878005870885,0.34477319010487195,0.4957733423402835,1.2276679803148296,1.0510692237105057,,,0.6403206450210053,inf,,,0.7921539334560831
541,3.624340932976365,-0.01208113644325455,0.0,0.650392342023296,0.6292351435795852,0.7456826682159399,1.4472173481963924,1.3277206805535129,,,0.6233814453054027,9.328123407632566,inf,,0.643010421234096
542,2.2697952701710546,-0.007565984233903516,0.0,0.7320021945891267,0.7054735120872759,0.46652050172533144,2.0300261732762266,1.9439271484607916,,,0.663668482632973,7.973577744827256,inf,,0.6016805319691824
543,,0.0,0.0,0.6909448898646868,0.6033472207274957,0.6153392327198071,2.5646634373170922,1.880822061348113,,,0.6468212168108125,inf,,,0.6131276648701259
544,0.9613898658332294,-0.006409265772221529,0.0,0.8955574983598136,0.854600410712428,0.6906452265873296,2.130556818369721,1.8490468032950953,,,0.6180765742263259,5.965147238790609,inf,,0.6629397109934206
545,1.1275181382560926,-0.018791968970934877,0.0,1.0394074786187124,0.9805135071130922,0.6343484544364959,2.4330051419948546,1.520079869532906,,,0.6125606311107803,5.077844043789706,inf,,0.8780941322317496
546,,0.0,0.0,0.9236132246184776,0.8249711649753724,0.6909801186498574,1.8071055356794063,1.5185323708708842,,,0.5748741956352443,inf,,,0.8827385757151038
547,,0.0,0.0,0.8723315756046227,0.8390143365388882,0.634981365661149,2.3897404867918612,2.6224807834389883,,,0.5883313578629602,inf,,,0.5213191786848786
548,1.1891934032051639,-0.00792795602136776,0.0,1.0538439049173223,1.0172723705210787,0.6234502569711727,2.1570853646595793,1.92291514462856,,,0.6068309995095971,6.192629191703416,inf,,0.7668156348528717
549,2.4079456086518722,-0.008026485362172908,0.0,0.6573481798971657,0.598981760546329,0.5824229338553611,1.8776744114971888,1.9436097866286948,,,0.5947193981915972,8.111728083308073,inf,,0.9363658564622167
550,,0.0,0.0,0.767600715230462,0.748752339339113,0.6080299109220829,2.066665942858437,2.181154638907608,,,0.5883313578629602,inf,,,0.6879786090968663
551,2.0928645620119766,-0.0069762152067065885,0.0,0.47006200210652305,0.4201146090245738,0.49661100996908664,1.9914646146432886,1.7977505637352358,,,0.6284777104787076,7.796647036668178,inf,,0.8351431217055306
552,,0.0,0.0,1.2007918746275796,1.1807795155038625,0.7367182360466753,1.7641482322903925,1.705365367115559,,,0.5978297680564633,inf,,,0.8839662128551731
553,,0.0,0.0,0.17868665972649114,0.13019267151500807,0.35156693993626503,1.8411879150560226,3.202925578228174,,,0.5978297680564633,inf,,,0.9110943093572085
554,1.629270540630316,-0.010861803604202106,0.0,0.3726057379698649,0.2970099160587424,0.5221091176059931,2.0162733668898793,1.960568666187143,,,0.5947193981915972,6.144874760407516,inf,,0.6552628135314937
555,,0.0,0.0,1.3972057947425462,1.3827720150724443,0.817859145323142,2.1369513826096598,2.8108316098069834,,,0.6207552362147116,inf,,,0.8754013034933738
556,,0.0,0.0,0.6026804022360248,0.5030993848238656,0.5662861188484463,2.1666100530784096,3.123270201591687,,,0.6125606311107803,inf,,,0.8973458537018266
557,,0.0,0.0,1.5075361491256625,1.4802437245359295,0.8550733405938931,1.719582420610083,2.644652899796773,,,0.5978297680564633,inf,,,0.8444804839255192
558,,0.0,0.0,1.3609702010855125,1.3611361081769777,0.8189337777256489,1.432178794438629,2.2029795798450267,,,0.6038851895711802,inf,,,0.8577543103864884
559,2.7593434954897607,-0.009197811651632536,0.0,0.9234208555149621,0.8547241576636663,0.5973231539852435,1.9239079389784886,2.1369860228651216,,,0.62595550513784,8.463125970145962,inf,,0.8785262360474303
560,0.4462871026284195,-0.0014876236754280648,0.0,0.44833709430341884,0.35569520184398135,0.4979483723459213,1.4410706301762266,2.0808770795820433,,,0.6207552362147116,6.15006957728462,inf,,0.8279101704273637
561,2.295414534358717,-0.015302763562391446,0.0,0.8284725170071344,0.7502113412705492,0.5161255305860126,2.097711714005242,2.3886124463113134,,,0.5883313578629602,6.864270167042398,inf,,0.7989564485536289
562,2.4178109786180593,-0.06447495942981492,0.0,1.0241950741080736,0.9884380251061048,0.71036815235074,2.887272577500235,2.596497186847151,,,0.6233814453054027,5.973842945758163,inf,,0.5566104310842759
563,2.25436976477941,-0.0450873952955882,0.0,0.9813912504173485,0.9282364617871167,0.7492278088529699,3.2099863598379828,4.287706977422497,,,0.6699045166045591,6.036926921184739,inf,,0.5823770160487638
564,2.0524046147752726,-0.04788944101142303,0.0,0.9581053367845551,0.8761289807301416,0.7392703545018038,2.586636523574917,2.1775869506091445,,,0.6528756675646988,5.769210279978656,inf,,0.7828249891016231
565,,0.0,0.0,0.14516110362951753,0.1088897329379161,0.3633199008760829,2.054754510595939,2.453994484225455,,,0.6447042257417027,inf,,,0.6753535322801625
566,,0.0,0.0,0.8010417909270707,0.7516535996364953,0.6229046094295702,1.8358481019264739,2.2645755027334022,,,0.6180765742263259,inf,,,0.7309120808824603
567,1.1902500469899877,-0.011902500469899878,0.0,0.940255512545402,0.9048151313682966,0.6354145757255671,2.487872468585793,2.5837930599895222,,,0.5883313578629602,5.6709926518332106,inf,,0.8853392430826194
568,,0.0,0.0,1.5060562984962733,1.4393076026909175,0.8956757184718219,1.3938128134467496,1.4335525619897151,,,0.5883313578629602,inf,,,0.849043651930863
569,,0.0,0.0,1.2809755228488187,1.257087838063752,0.812680243631795,1.1992170300528264,1.8338358631976206,,,0.581717464821069,inf,,,0.8251344560421088
570,2.4464261292199363,-0.01630950752813291,0.0,0.7118095636501367,0.6828997843482372,0.5625244693569544,2.093520750271165,1.9177434397730928,,,0.5947193981915972,6.9767481504690885,inf,,0.8295037396136336
571,,0.0,0.0,0.8912537054218366,0.8680828264608556,0.6238212400115766,1.629314273234624,1.9914168801380185,,,0.6180765742263259,inf,,,0.7798175406578721
572,,0.0,0.0,1.1423980002425533,1.100481898542898,0.724795419450847,1.815865347448279,1.891981351960258,,,0.6153451465759925,inf,,,0.8522814332639886
573,1.2222023532393353,-0.008148015688262235,0.0,1.0502690511102002,1.0156240295674301,0.7367132565351101,2.900041388484018,2.3309850489269066,,,0.5604843169999094,6.209067918046577,inf,,0.7795871683084215
574,1.8617917442873924,-0.04344180736670582,0.0,0.8300496469097606,0.7668533609249086,0.7331766594705031,2.8751551605185144,2.576536225336603,,,0.5947193981915972,5.2785147392518565,inf,,0.6200595671091625
575,1.5331245761895154,-0.09827286314317679,-0.009045857190089282,1.072196075758629,1.0425995380628763,0.7958352187519867,3.8711547456448985,4.219108073249431,4.4101527543375445,,0.6333676938231112,4.100362634547664,4.311470041210748,inf,0.5420629620397653
576,1.4717770214438073,-0.024529617024063453,0.0,0.9737498676963771,0.9270459286550455,0.7145197440979376,3.8221559159254115,3.0419825152732303,,,0.6468212168108125,5.451727579847571,inf,,0.821169725438267
577,3.0672826953743275,-0.020448551302495517,0.0,0.6628634612219974,0.5575955111060202,0.5442198993550095,2.7870702514796863,3.4097271182973556,,,0.6284777104787076,8.075360439137198,inf,,0.7923301464250524
578,,0.0,0.0,0.9434785378234203,0.9361746389627942,0.6787953865949157,2.001787116734434,1.522672526794325,,,0.6233814453054027,inf,,,0.934049414165771
579,1.834114104375382,-0.030568568406256366,0.0,0.5841740811774008,0.5401459093502471,0.5484738475569936,2.3478614521178187,1.754612561547531,,,0.6619902821573977,5.6709926518332106,inf,,0.6407061579981411
580,1.1395344713378692,-0.022790689426757382,0.0,1.0337689938133487,1.0253082101956894,0.7071934124305842,3.498686162753114,3.1639482634914167,,,0.6547956803312163,4.859345846550029,inf,,0.8291806766386023
581,1.4644844186465775,-0.024408073644109626,0.0,0.9915650077514478,0.9517405456214483,0.7622182781950495,3.6273076614470154,4.36287276629438,,,0.6509067234006624,5.142263736574693,inf,,0.6202415158156012
582,2.3853858545375357,-0.08746414799970964,0.0,1.1203580162345814,1.0460541358581257,0.7501981797027938,2.8399026476057236,2.4289042231489146,,,0.6509067234006624,4.744432253321599,inf,,0.653956657209157
583,2.52577747839469,-0.04209629130657817,0.0,0.945201061648245,0.8363166702485592,0.6821331314153636,2.664030057501342,1.2266774136431682,,,0.648888643467878,5.66456176150292,inf,,0.8114170088203629
584,0.36624439495488303,-0.00122081464984961,0.0,0.7438746129527174,0.656497683712435,0.6530382702392804,1.8033642989047982,1.4849820339435094,,,0.6068309995095971,6.070026869611084,inf,,0.8786049666438172
585,,0.0,0.0,0.6456604105537451,0.5838157872870926,0.47302818667389696,1.938497145624082,2.0991497565807515,,,0.6097226960127671,inf,,,0.803579149133883
586,1.7032713934207944,-0.03406542786841588,0.0,0.9472902340711639,0.7825607987511858,0.7225474861290012,2.1704312680304096,1.6052188609832863,,,0.6380535849069913,5.4700287442299755,inf,,0.5445028613208894
587,1.6499457595535816,-0.10449656477172684,0.0,1.123618437441691,1.0543863804258258,0.7417018235286338,3.8812067990038437,5.987718833559803,,,0.6740851607140061,4.289548744847069,inf,,0.4613734497396483
588,2.006361178021579,-0.03343935296702631,0.0,0.9300725439426282,0.9326427125098221,0.6470340990378809,4.313671708168329,9.976809261183949,,,0.648888643467878,6.013937402960041,inf,,0.7658537535410482
589,1.6328047652535842,-0.07488775923812105,-0.023080526677094006,1.4105447142096943,1.3628512201704932,0.8170509160253113,3.741707151850482,2.276347920851006,3.4464793180618374,,0.6333676938231112,4.399059767230122,3.1583575803722215,inf,0.6740051407796017
590,1.42055595018408,-0.07213314101132455,-0.0036298429984930668,1.1677664762220685,1.1654438413066597,0.7432579484590509,4.645798927068446,12.576825972680915,2.6431904431884448,,0.6619902821573977,4.235908126543888,2.556536305927255,inf,0.834346944453806
591,1.8447766694922534,-0.03689553338984507,0.0,1.2361318118015423,1.2267258077843624,0.7678000942421714,3.4770097991665785,2.8227985310214847,,,0.6566669596287297,5.584519053829383,inf,,0.7269393989936932
592,1.5780160285346,-0.047340480856038,0.0,1.180763208429178,1.153164101716981,0.7405743746172448,3.3427583520478548,1.6983858686960023,,,0.6602640781246099,4.7914997641795845,inf,,0.802556136032472
593,2.0055184317497226,-0.07353567583082317,0.0,1.1222295101355624,1.0840595113558753,0.8113633750609256,3.4871542712612564,3.124395610446672,,,0.6403206450210053,4.969813299576001,inf,,0.7607412806175292
594,0.2979749551685559,-0.004966249252809265,0.0,0.8600495328175948,0.8088401852150362,0.5916387848356933,3.0128706156764404,2.892180262322183,,,0.62595550513784,4.3661532855175915,inf,,0.6530341574448172
595,1.666616694858568,-0.11110777965723787,0.0,1.0866442406402967,1.0631574489353015,0.7625716242772141,3.7075658387821044,2.647152040290729,,,0.6207552362147116,4.091681444802617,inf,,0.7345477415328869
596,2.0615863518607633,-0.09620736308683563,0.0,0.8664318559588076,0.8228327213844395,0.7393428354292185,3.0111705574721985,2.2023845011735173,,,0.6528756675646988,4.664684313520499,inf,,0.6861304370089989
597,2.1147608478556976,-0.049344419783299606,0.0,1.0496902937397008,1.0166825004213198,0.6561773016556123,2.9092038048142435,2.9369366919844744,,,0.6125606311107803,5.443985605693956,inf,,0.5752715691296375
598,2.0246450175015864,-0.04049290035003173,0.0,0.8981337750665073,0.873332904535863,0.6754590633492094,3.144560138589281,2.7243533034645693,,,0.6309483474627791,5.902233413380039,inf,,0.6755611740542175
599,1.3180411624296922,-0.048328175955755386,0.0,1.0074722180681626,0.9907855661533435,0.7730314145597151,3.0456446186685247,3.387006559374957,,,0.648888643467878,4.375823690549274,inf,,0.60286379714558
600,1.4824484875284136,-0.06423943445956459,0.0,1.2328475163896058,1.2023332501857122,0.7402345983470269,3.463671411896831,3.8183159610933894,,,0.648888643467878,4.146339857340481,inf,,0.7700698829403999
601,2.0277966458472045,-0.06083389937541613,0.0,0.8839685423832783,0.7818854502416354,0.7603771035283375,3.0529716164518867,1.7813709960442003,,,0.6357360191111145,5.17708350173392,inf,,0.7602447301851363
602,1.595742191924895,-0.017486251155317982,-0.01442859268317992,1.0711575686918466,1.0451006088499533,0.720200219965612,3.5778501231240454,2.0165334666994346,,,0.6566669596287297,5.0206856299497575,5.000584958242754,inf,0.7920915128485702
603,2.8863876730715763,-0.019242584487143843,0.0,0.8486707322292842,0.7022865665469447,0.7111107531621919,1.0553626636196238,0.499745368526215,,,0.62595550513784,7.1034998561082325,inf,,0.6819297074356209
604,,0.0,0.0,0.10060391803536385,0.07654955123435034,0.7907200992326489,0.7895314675106357,0.7241883647711613,,,0.6357360191111145,inf,,,0.9762853251300445
605,,0.0,0.0,1.5293338896259112,1.5136126604686904,0.8864572107941263,0.591258752557786,0.6912397537246515,,,0.62595550513784,inf,,,0.9317521807886044
606,1.66676936659417,-0.011111795777294467,0.0,0.9946704866010483,0.9292654139457114,0.7444148999786916,2.018634080356048,0.6346864004396711,,,0.6097226960127671,6.487584023484278,inf,,0.9093127586931098
607,2.3307011795174275,-0.023307011795174273,0.0,1.0458993115671715,1.0213992366482643,0.7496893185568777,2.9120395012215408,3.1415468103478648,,,0.6509067234006624,6.772835961082766,inf,,0.7015847533627707
608,,0.0,0.0,1.3987688996953196,1.3798563726432664,0.8589470501560946,3.7006880825208133,4.4407745966591,,,0.6403206450210053,inf,,,0.9316704535142383
609,,0.0,0.0,1.0749632414006693,1.0066999853277787,0.7876736320393137,2.7458388657582997,2.7945973756932037,,,0.6547956803312163,inf,,,0.9512943367047966
610,,0.0,0.0,1.116299638265758,1.056247866345528,0.7347831811326233,3.168922157087917,3.082325268941296,,,0.648888643467878,inf,,,0.7541968366702733
611,3.757872325600888,-0.012526241085336292,0.0,1.0899421193232175,1.083601820843424,0.7686565897698737,3.9590722160509264,10.29563864686123,,,0.6684167106117298,9.461654800257088,inf,,0.892423685288935
612,1.6333332443522746,-0.01088888829568183,0.0,1.0589720303373473,1.0352901781928792,0.7709872302971912,3.3540613067390943,3.838177789004967,,,0.6528756675646988,6.344969916285435,inf,,0.7584481715180701
613,0.6348782724359695,-0.0021162609081198983,0.0,0.6844789524779405,0.6553801380892025,0.7248131561910324,3.281832237390457,3.8987322890802862,,,0.6425374456860184,6.33866074709217,inf,,0.8315945543990353
614,,0.0,0.0,1.2406882803355375,1.2167173935109317,0.8050202751533727,3.335492109043905,4.500913131006414,,,0.6584896970785714,inf,,,0.9530904097992847
615,1.2039728043259361,-0.004013242681086454,0.0,1.180663215847079,1.1610433435620229,0.747843740924154,3.789564041138405,2.4553066992767265,,,0.6403206450210053,6.907755278982137,inf,,0.686227090989666
616,0.516396668815446,-0.00172132222938482,0.0,0.9079651460951261,0.8848845925777407,0.5993878354490166,3.3919005826810844,3.8940315570293045,,,0.648888643467878,6.220179143471647,inf,,0.7979950091205211
617,,0.0,0.0,1.0567805722628532,1.0269337552667719,0.7444827302873948,5.073808936091622,20.235378772851423,,,0.6547956803312163,inf,,,0.778728965082247
618,,0.0,0.0,1.2654553086521267,1.2326253356335424,0.7885775631318326,4.129214926924948,14.70928849183063,,,0.6309483474627791,inf,,,0.6851127257227719
619,0.11786116676053492,-0.0007857411117368994,0.0,1.2107728071247528,1.171843444956331,0.7527869118342793,3.653216128286551,13.237171084770527,,,0.6528756675646988,5.121566854803538,inf,,0.8418912862694404
620,3.0422774850869967,-0.020281849900579976,0.0,1.184014786118088,1.1662678111942504,0.8131187976818253,3.4462775817474545,3.9993173099821218,,,0.6207552362147116,6.0796887805228215,inf,,0.8820217116137626
621,1.6094379124341003,-0.005364793041447001,0.0,1.3879996826604966,1.3556519209535545,0.8612888422140781,4.258573558014645,23.438808510974585,,,0.6727386042041725,7.313220387090301,inf,,0.8107871906378142
622,1.2611312181658847,-0.004203770727219616,0.0,1.035326500808523,1.036520368895426,0.7277866551580321,3.812320383257239,2.6089309780873986,,,0.6447042257417027,6.964913692822086,inf,,0.7258110914025964
623,,0.0,0.0,1.3081621570450377,1.284644948349779,0.8441788236045792,3.949466807019368,9.211660958175948,,,0.6068309995095971,inf,,,0.8993117695113119
624,1.7106973577282214,-0.02851162262880369,0.0,1.2280003235773893,1.2099419267703624,0.8029884088920738,3.9462157281246903,13.249667527683687,,,0.6309483474627791,5.280695765198217,inf,,0.8090040259132778
625,2.6993724754199384,-0.026993724754199384,0.0,1.1228527917282907,1.1420254392461837,0.7381434075623005,3.2703930755943094,8.88723827828457,,,0.6509067234006624,7.2966910851390905,inf,,0.7865121037161066
626,1.3589676658394305,-0.018119568877859073,0.0,1.224728142281844,1.170486966995666,0.7646361288788228,4.4602034944910685,6.962199568946165,,,0.6468212168108125,5.4994820111434715,inf,,0.7531420998899424
627,,0.0,0.0,0.8954028212910216,0.8885060414878508,0.7207800075924895,3.2452899787960066,9.713872895952127,,,0.6425374456860184,inf,,,0.8138771238348955
628,,0.0,0.0,0.983686152171022,0.9684484083518444,0.6718623393772103,3.5252752942025443,3.917985202760065,,,0.6468212168108125,inf,,,0.7497995429618524
629,1.4275023070294366,-0.009516682046862911,0.0,0.665175969140998,0.6183432842258973,0.6460970822329741,3.1307073711897546,6.099540547135581,,,0.6425374456860184,6.046272783602977,inf,,0.557842861687597
630,1.9425823589626385,-0.006475274529875462,0.0,0.9871577093723509,0.957636925754593,0.7216567361469264,3.105467388981668,14.334486130038284,,,0.6309483474627791,7.64636483361884,inf,,0.6807655318149375
631,0.9570839054832954,-0.009570839054832954,0.0,0.8538418043291544,0.795987230306512,0.593620235075886,3.5324319551775116,3.9683811921489083,,,0.6668815377411301,5.42867918441128,inf,,0.6727969556908736
632,1.181766241878804,-0.01181766241878804,0.0,1.0992478524817153,1.0216783799550602,0.7546433619585983,3.7687740195657846,12.349881764492284,,,0.6284777104787076,5.7585907111511965,inf,,0.5989709954474649
633,,0.0,0.0,1.0365711030531681,0.9725829212575651,0.6568646952795522,3.385607281604567,3.9200327008803786,,,0.6778444222523095,inf,,,0.9291736759851279
634,1.4134168685460886,-0.00942277912364059,0.0,1.1273493950015672,1.0545091333460856,0.7847051204490203,3.6833408555891998,2.259095870496687,,,0.6668815377411301,6.33866074709217,inf,,0.5794904546432718
635,2.4723413793281432,-0.020407583750009443,-0.012556967974365797,0.8386023636685916,0.8239290889711749,0.5712204547748164,3.447255157371576,3.614409144908733,3.9960995661655807,,0.6713451011121618,6.018493219495901,3.4431615807611875,inf,0.6310499689098127
636,1.5112159028302332,-0.045336477084907,0.0,1.1376530790429384,1.08505517976392,0.6324636507989615,3.74932798723427,4.224788821055239,,,0.6447042257417027,4.811784435351091,inf,,0.542477763484342
637,1.369186048342784,-0.01369186048342784,0.0,0.8803594728528417,0.855482809187726,0.6361422238860077,3.288578810588957,2.779445569966462,,,0.6602640781246099,5.459529960131756,inf,,0.5434469127590983
638,1.5882094380525635,-0.037058220221226484,0.0,0.8893955488920147,0.8348667043368072,0.6989442134116611,3.780754472659816,2.603495459393587,,,0.6668815377411301,5.042814192460491,inf,,0.7474255807546425
639,1.0986122886681098,-0.0036620409622270325,0.0,0.8479046976075361,0.8123100901024731,0.6922329572051072,4.1197319354072315,6.876401192075577,,,0.663668482632973,6.802394763324311,inf,,0.6691395783670298
640,4.605170185988091,-0.01535056728662697,0.0,0.9269924926626749,0.8878274003194521,0.6411863805740785,3.336839429381321,2.6871511328212763,,,0.6380535849069913,10.308952660644293,inf,,0.7333107806906757
641,1.769655341895895,-0.011797702279305966,0.0,0.9279591882988566,0.8683249719007595,0.6965486083838068,3.9707310527576793,3.356864900161983,,,0.6652988471865258,6.744125855200335,inf,,0.7092662205599886
642,1.6042014811990404,-0.016042014811990402,0.0,1.1192082955036067,1.0403707788329275,0.7051879036751253,3.871658046787061,1.84179365247364,,,0.6547956803312163,6.16581793425276,inf,,0.8149609175498951
643,1.5766480896111095,-0.005255493632037031,0.0,0.5401651037432345,0.48850415789436347,0.7212355547773066,1.260265587199291,0.881663745373044,,,0.6380535849069913,7.280430564267311,inf,,0.8301312481448946
644,,0.0,0.0,0.3003820617489418,0.2109783435485491,0.6706015382993517,0.41978706683402933,0.40844669066509637,,,0.6333676938231112,inf,,,0.6116542403576654
645,,0.0,0.0,0.04466961139416602,0.03876894843907638,0.7218028839531451,0.1556152888865846,0.25095518834563646,,,0.648888643467878,inf,,,0.9759944244860381
646,,0.0,0.0,1.559151633911646,1.5566117289411794,0.8947283430821069,0.09471287738838961,0.23261446083667953,,,0.6547956803312163,inf,,,0.8720506867108323
647,,0.0,0.0,1.3687451223472626,1.3757700241900421,0.6589698150417335,0.22454527017509923,0.2889708095024306,,,0.6309483474627791,inf,,,0.9466933832116646
648,,0.0,0.0,1.4450681265646774,1.4055721510196981,0.8571943666980538,0.13843225395938594,0.2700244592615998,,,0.6380535849069913,inf,,,0.9369895149713231
