,hr+bvp_XAp0,hr+bvp_XAp1,hr+bvp_XAp2,hr+bvp_XCond1,hr+bvp_XCond2,hr+bvp_XDist,hr+bvp_XFuzz1,hr+bvp_XFuzz2,hr+bvp_XK2_1,hr+bvp_XK2_2,hr+bvp_XPermEn,hr+bvp_XSamp0,hr+bvp_XSamp1,hr+bvp_XSamp2,hr+bvp_XSpec
0,1.215146104924061,-0.0040504870164135365,0.0,1.045146314836143,1.0195990230007963,0.698075189063025,3.965276499272998,12.664820002558152,,,0.6917051107235048,6.918928579580262,inf,,0.9073862326992528
1,,0.0,0.0,1.3647166754257385,1.3467948998523809,0.7501033477539197,4.588477578352842,6.7392049025353415,,,0.6811855325194978,inf,,,0.8967276354948401
2,1.5099602325574835,-0.020132803100766445,0.0,1.0570397261066835,1.014528426572998,0.6924357079074634,3.8776309460041984,2.9576417777866655,,,0.6727386042041725,5.364932115630021,inf,,0.8292718117195379
3,1.4406069100556995,-0.009604046067037996,0.0,0.6610285846388092,0.5982141712271654,0.8192380512936779,4.038785822108348,2.2711534523773933,,,0.6778444222523095,6.430831206891828,inf,,0.6821697531457014
4,,0.0,0.0,1.2362095878203228,1.1999396873356807,0.7409509803416214,3.8947827489669797,6.48353034003293,,,0.6713451011121618,inf,,,0.9125673544493402
5,,0.0,0.0,1.210043942105647,1.1783368843784434,0.6680869952379793,4.218539139561494,8.26112460271467,,,0.675384900321601,inf,,,0.888518558057301
6,0.8285247313832079,-0.01657049462766416,0.0,1.2711687464436965,1.2337096046331484,0.759049877570578,4.287175354168705,51.494075824217056,,,0.6602640781246099,4.411798793007552,inf,,0.8417095314008177
7,1.87693592576883,-0.050051624687168804,0.0,1.3056980370338538,1.318501226215798,0.7967488805827027,5.440952599130464,20.86717524091435,,,0.6713451011121618,4.661152820739028,inf,,0.5934252352238425
8,0.5743354916014859,-0.019144516386716194,0.0,1.2928744509857113,1.2626547515747963,0.7890092569540312,3.9175092851497255,3.9358402084447897,,,0.6509067234006624,3.8637620818108926,inf,,0.8615534394991519
9,0.9438467597090713,-0.012584623462787617,0.0,1.3335355349704232,1.2883627513106315,0.7622390559722065,4.2458972994559545,12.708278553537191,,,0.6699045166045591,4.90028723692739,inf,,0.6788846890612369
10,0.9511066576644327,-0.04348994430705038,-0.016746810678363686,1.3161523883285484,1.2989838227608634,0.8089666379745429,4.453952260152351,33.06609588085797,,,0.6547956803312163,3.527895034708113,7.186522734044344,inf,0.6775929755062362
11,0.9944931959788142,-0.07624447835837576,0.0,1.3903628418541187,1.3968367701791544,0.844438641121193,4.560533376134124,18.13486789260643,,,0.6468212168108125,3.397205360392618,inf,,0.7811613437687044
12,0.9521694650882464,-0.060304066122255605,0.0,1.3837257823466604,1.3563144352286824,0.8124405252644102,6.145392887074995,143.42380306733733,,,0.6584896970785714,3.398201872682357,inf,,0.6337456819832452
13,1.004380806366526,-0.016739680106108767,0.0,1.2844841647697922,1.184210086689649,0.796226974525276,4.627414838298715,13.62636679519241,,,0.6822068148872973,4.803621124711929,inf,,0.5864971838511585
14,1.6625705474841537,-0.11613537974804006,-0.005786460400797875,1.140389197746929,1.088108307416942,0.7383120400110801,3.690466656781147,3.3232387641997843,3.277236418516394,,0.6547956803312163,4.211627722836833,3.2256453129234472,inf,0.41945671461578055
15,1.537478133310721,-0.1691225946641793,0.0,1.3484364384268037,1.3122563565738532,0.7892212526710606,4.521018339290117,30.892146589798212,,,0.6684167106117298,3.3508211743370886,inf,,0.5176545242135686
16,1.4302577077848952,-0.09535051385232635,0.0,1.2759083969544482,1.2641301839427728,0.8033159679288736,5.338663177051649,173.60068566931525,,,0.663668482632973,3.9804208159037864,inf,,0.6792213674648228
17,1.3585773031303685,-0.0951004112191258,0.0,1.5118208266258524,1.4888703520621265,0.8808477228524838,4.757189117467982,73.36402331714896,,,0.6584896970785714,3.909249078545421,inf,,0.4824670179313249
18,1.1319586687896317,-0.0657630125419519,-0.0021545075854260145,1.3460106869153723,1.3256544530730805,0.7920327388202394,3.9006104761680924,33.285497988919836,2.8229795306659677,,0.6566669596287297,3.8243174250090406,2.5270017189550535,inf,0.49905807495617976
19,1.8242429229761348,-0.08513133640555295,0.0,1.2900609580261946,1.273629167811812,0.7716854256224144,4.099472162762901,6.514926049981891,,,0.6447042257417027,4.327538449389812,inf,,0.6482889476272402
20,0.8485086975415302,-0.016970173950830607,0.0,1.0287112149516313,0.989551114767979,0.7533495987241512,4.181935464768833,5.903264172925714,,,0.6468212168108125,4.717965680133436,inf,,0.6798369808253998
21,2.426104028750869,-0.016174026858339127,0.0,1.0475378044191195,1.0114304378924825,0.7022004888994481,3.498718601259965,3.9855546608862493,,,0.6684167106117298,7.382213258577253,inf,,0.7385058789202826
22,1.974146373685939,-0.13160975824572926,0.0,1.4720176841884807,1.4169786844158891,0.8398204197242466,4.652321870519163,12.64274914627487,,,0.62595550513784,4.518992489747039,inf,,0.5495699841698946
23,2.6193158541773243,-0.026193158541773245,0.0,0.9690239153684149,0.905882635001691,0.7361280361122318,3.6635406992173754,3.8812048597905946,,,0.6602640781246099,6.653974758206037,inf,,0.7591018195408252
24,2.0327065915452476,-0.04065413183090495,0.0,1.0918226267395794,1.0180656853846997,0.7252367354024576,4.0480335939267835,2.871751363990337,,,0.6699045166045591,5.8901120528476945,inf,,0.6208579542614177
25,1.0670634798772392,-0.01778439133128732,0.0,1.334291594313249,1.318752625333238,0.8069556778692448,3.7982299784218516,9.674980129934317,,,0.6727386042041725,4.771618393625756,inf,,0.6956105954372237
26,1.2374383220030685,-0.057747121693476525,0.0,1.377587667808761,1.3462413908264108,0.7963486145649957,3.547164446374337,2.005009486626435,,,0.6668815377411301,4.166915255056936,inf,,0.840490662133037
27,1.3728022122108285,-0.08236813273264972,0.0,1.3905100214004784,1.3424713892387838,0.8490710728456311,4.100954552981746,61.94002678706183,,,0.6699045166045591,4.027932796702849,inf,,0.7287147384172645
28,1.0613833332091047,-0.007075888888060698,0.0,1.2671056027306988,1.2138630198239728,0.8640163619106573,4.25667564615576,28.19695223358882,,,0.6566669596287297,6.041588934290551,inf,,0.5393310092076222
29,0.9002297319419801,-0.015003828865699669,0.0,1.121691063454101,1.034115583316068,0.8049140313264569,3.1077183657392267,2.6221907186477553,,,0.6425374456860184,4.990832666800076,inf,,0.74053639654065
30,,0.0,0.0,0.27825589959769326,0.2369696095303078,0.4715329718276611,2.5074022390846573,2.3477126147608476,,,0.6468212168108125,inf,,,0.955996458558421
31,,0.0,0.0,0.9154674287363588,0.8659630871316101,0.6278843530540209,3.469232838929628,4.498799230498754,,,0.6699045166045591,inf,,,0.8973648692279738
32,1.3582498433846355,-0.05566180276173743,-0.003195690451596777,1.2962586991414837,1.2678234705880151,0.8304008265669881,5.024339355143157,33.54727238469039,2.4022238706845633,,0.648888643467878,4.25373114773356,2.408901673215593,inf,0.5384892512162054
33,2.0805434425062734,-0.0624163032751882,0.0,1.1593050903698876,1.07243421369078,0.7628558754093762,3.9628641978703625,5.989837248445005,,,0.675384900321601,5.467393696591971,inf,,0.8341414261842075
34,1.1290714961528183,-0.0037635716538427276,0.0,1.197113041193817,1.1716926318622745,0.7593661492897164,4.344072816990177,7.903368830777671,,,0.6566669596287297,6.832853970809019,inf,,0.7520709543913131
35,1.7339532591936417,-0.028899220986560697,0.0,1.1626484408481947,1.1162453488817012,0.7546341523980418,3.2764398009001483,4.763205349386817,,,0.6652988471865258,5.73081114704412,inf,,0.6301010159595616
36,1.4411025976148857,-0.004803675325382953,0.0,0.9169025147984445,0.8785765155225589,0.6252607878377302,3.252678480102438,2.801834349884335,,,0.663668482632973,7.144885072271086,inf,,0.8503068756429527
37,1.5501912783508103,-0.04133843408935494,0.0,0.7266103348734964,0.7162996910866682,0.6403070843667801,3.2187541191591773,7.172427031728758,,,0.6668815377411301,5.044536845771937,inf,,0.5250471089936442
38,0.8152354832218743,-0.008152354832218742,0.0,1.284081685757162,1.2649496086283145,0.7845193539222032,4.144042009802047,5.607517680866743,,,0.675384900321601,5.367310238034988,inf,,0.8333246424790878
39,1.6069432476398127,-0.026782387460663547,0.0,1.0474055943032325,0.9549375986379156,0.749274658078515,4.013969974637067,4.355412346086804,,,0.6668815377411301,5.451727579847571,inf,,0.5871773191721024
40,1.9291310844224472,-0.06430436948074825,0.0,1.2539454826090117,1.2478769682316082,0.7531595480961641,4.479712371145607,11.062135420948396,,,0.6447042257417027,4.784828625362563,inf,,0.7645366541147748
41,,0.0,0.0,0.9357463899753561,0.9218666530332302,0.759084481511853,4.57071157277646,10.056713644201487,,,0.648888643467878,inf,,,0.6380452518105934
42,1.6684712932377084,-0.04810475866454887,-0.013072522087500439,1.0859892346171007,1.075486143129304,0.7630747364776225,3.4276676413059564,2.44781984798675,,,0.6584896970785714,4.852208057501738,4.76359742258261,inf,0.7553639356458247
43,1.5502611608708066,-0.07234552084063764,0.0,1.378792560348838,1.3394398955823053,0.8051705109136346,3.7163442428152464,2.9866841868783602,,,0.6333676938231112,4.135861242425034,inf,,0.8481025342785105
44,1.9714129550624455,-0.05257101213499855,0.0,1.306849117431288,1.2756620376091043,0.7835925160276569,4.5505060510550965,12.365971475652644,,,0.6566669596287297,4.85078659315436,inf,,0.595047838295266
45,0.925195267197061,-0.00925195267197061,0.0,1.2569059514958552,1.2213105002764746,0.8530657580417917,4.727626423127145,29.706994324144382,,,0.6566669596287297,5.3720835167876455,inf,,0.7978649246453299
46,1.4955671394984495,-0.04486701418495349,0.0,1.3461898843054905,1.3276554840627368,0.8499019350802868,3.937239264524842,3.703021813859821,,,0.6547956803312163,4.878146111050177,inf,,0.5852727784426878
47,,0.0,0.0,0.6215988826004961,0.5694020725719724,0.4888455585983588,1.7492675090373706,1.707733056138793,,,0.675384900321601,inf,,,0.7067985584236096
48,0.9330978501905364,-0.003110326167301788,0.0,1.2052946692211113,1.1135382872963862,0.7607495908757261,2.933407510246782,1.8432198224282228,,,0.6652988471865258,6.636880324846738,inf,,0.7657487602753675
49,1.469685062150798,-0.08818110372904787,0.0,1.3888079550969692,1.3853638121708007,0.817846019977849,4.43532312907057,21.36295972361577,,,0.6602640781246099,4.025440583574889,inf,,0.6334083487762506
50,1.5601018197214693,-0.06460634353021319,-0.0029980686577171568,1.2829444668580725,1.2617352481203548,0.7688439336301126,4.372869813242891,64.85517494767522,2.327890336316067,,0.6602640781246099,4.28550506768326,2.318038836895886,inf,0.6339098755661343
51,,0.0,0.0,1.0677021659892696,1.0205464735881122,0.6355518925127651,3.8107144515973106,47.02346822917784,,,0.6602640781246099,inf,,,0.8421430725475136
52,0.07257069283483537,-0.00024190230944945125,0.0,1.3256505643949195,1.3262802975814376,0.7361989403766345,4.151868637325955,20.701050628146305,,,0.6652988471865258,5.7763531674910364,inf,,0.5855547794367459
53,0.2441969605120421,-0.0008139898683734736,0.0,0.9756663704798796,0.9559450587264118,0.6496591735347402,4.143620676897056,10.329393881013335,,,0.6528756675646988,5.947979435168243,inf,,0.7423537666401355
54,,0.0,0.0,0.9696834993980017,0.9313242191185557,0.663233717265889,4.339284357614458,41.678469231364815,,,0.6584896970785714,inf,,,0.8261452363172191
55,0.08868303976261442,-0.0008868303976261442,0.0,1.130560828657169,1.0922265337079378,0.6482079579428566,3.8839791612814754,1.9705199871640757,,,0.6778444222523095,4.693394419402931,inf,,0.5566371367568138
56,4.5101184285167,-0.41300725303879454,-0.022970861717819792,1.1718719651285807,1.1461811912930302,0.7704923896219619,4.110799603665442,9.834188147054967,1.7507695217082468,,0.6403206450210053,5.219300826229812,1.6449693408125858,inf,0.6642050221261934
57,2.080334415176632,-0.05547558440471018,0.0,1.4545091225251288,1.4208666686699303,0.785464751164487,5.377447698684227,7.667795005804773,,,0.6668815377411301,4.814520415169965,inf,,0.7324621405075957
58,0.9578967718124087,-0.015964946196873477,0.0,1.4087109481789561,1.3691097835259034,0.8222483537564884,4.155038366016388,82.86873256113148,,,0.6619902821573977,4.966618408679482,inf,,0.6760328552770726
59,,0.0,0.0,1.4147799643972425,1.3760263078359567,0.8911741575038502,3.9451059499377368,26.650470333074967,,,0.6097226960127671,inf,,,0.8857403450146919
60,0.0,0.0,0.0,1.3084403432440024,1.2731234662243345,0.8152432511417307,3.987891682459642,37.323784027170056,,,0.62595550513784,5.703782474656201,inf,,0.7285052387732533
61,0.8914530395771049,-0.019681950326914492,-0.0011186205965512876,1.3579553090003353,1.3203482624622374,0.7744590252868333,4.031792817183506,38.9060989549054,1.7048316406854398,,0.648888643467878,4.392750598036858,1.6488383362536934,inf,0.5942260860154781
62,1.6716200346819885,-0.02228826712909318,0.0,1.2156845966093615,1.1795974109845084,0.6914918109023993,4.354221503927242,49.106951380261926,,,0.6528756675646988,5.0849997093851185,inf,,0.7201578995273491
63,1.1651633010728941,-0.04272265437267278,0.0,1.284812297383717,1.2542432478450678,0.7799480909703573,4.477809698049507,6.300438379061922,,,0.6447042257417027,4.282281857801691,inf,,0.7026626102841901
64,1.7189891083617905,-0.03437978216723581,0.0,1.0078123858081416,0.9862817634896742,0.7473004599070866,4.016596825206564,5.737684282578309,,,0.6509067234006624,5.1252982024163956,inf,,0.6884923051709251
65,0.3416016728233357,-0.005693361213722262,0.0,1.2220996641635269,1.2131023868935484,0.8180641669904317,4.220157661850655,11.619270301970651,,,0.6357360191111145,4.371416455561866,inf,,0.853028565205667
66,1.208569047865001,-0.012085690478650012,0.0,1.3556920999853268,1.3432452754235833,0.8538274165232883,3.781448339282942,31.81144516781525,,,0.6284777104787076,5.524242560824123,inf,,0.8945422712389344
67,0.11653381625595151,-0.00038844605418650503,0.0,1.3862507542977736,1.3980010277688166,0.903055818531138,4.1749919873858055,6.088642387332139,,,0.62595550513784,5.820316290912153,inf,,0.8102072029215965
68,0.0,0.0,0.0,1.417424854474514,1.4050528082223277,0.849437549174927,4.436980925688443,18.341340973749375,,,0.6038851895711802,5.703782474656201,inf,,0.7944039345439404
69,0.7080000261827722,-0.011800000436379536,0.0,1.377523529861659,1.345680871656066,0.8203671685534691,4.002535464324517,3.730135524758669,,,0.6713451011121618,4.75728590072498,inf,,0.7995875238941235
70,1.4690082516457381,-0.05386363589367706,0.0,1.2651164084809727,1.1802885184730727,0.775066441472413,3.925220659956232,15.2988557905124,,,0.6528756675646988,4.433086038287357,inf,,0.8538784768015099
71,1.2772740564376193,-0.0849997627509116,-0.004409421199721755,1.4493325473339873,1.4232083589776836,0.8376629859287665,4.521438678599276,29.542169814282918,3.297835907498989,,0.6425374456860184,3.8835435341062774,3.1419947805322432,inf,0.563218659573315
72,1.7821405721543178,-0.08910702860771588,0.0,1.2661561552731173,1.2194017517623172,0.7417286542477712,3.8254040509355893,2.4649230642103888,,,0.6602640781246099,4.367028559096447,inf,,0.716390510721497
73,1.933199592995527,-0.06443998643318423,0.0,1.311982655503943,1.2930788970410163,0.7396675506991462,4.579360271895255,19.2398090166724,,,0.6566669596287297,4.820014934487606,inf,,0.8115482530461232
74,1.4588426701735548,-0.07780494240925626,0.0,1.3343498713813735,1.3081363346105235,0.8191186067736013,4.283310200198131,13.451115034492599,,,0.6652988471865258,4.314991233337723,inf,,0.6894690494523025
75,0.94676975728026,-0.037870790291210404,0.0,1.1998581167388473,1.1531063269284239,0.7172313782709656,4.280653370523134,2.111494303807289,,,0.6684167106117298,4.023575491333894,inf,,0.6284116907920543
76,1.7842315049373783,-0.1070538902962427,0.0,1.2683626629507785,1.2636219520701655,0.8042916806028093,4.040165197196292,2.6319718148401536,,,0.663668482632973,4.392750598036858,inf,,0.6173401526783991
77,1.3923327139236,-0.05105219951053199,0.0,1.2965177046872498,1.2695207121903713,0.8106907373896021,4.283182211642905,21.684806498939793,,,0.6403206450210053,4.56594947283481,inf,,0.8468375518207839
78,2.4485596891171033,-0.04080932815195172,0.0,1.3146826690379347,1.2968281853221408,0.7977987748227119,4.233527219193084,40.54018466120816,,,0.6068309995095971,5.693832143803033,inf,,0.7240525780394131
79,1.363871417223973,-0.009092476114826487,0.0,1.2350812290797244,1.234827640341697,0.8261696939748199,3.6417647955665853,3.6303279503257286,,,0.6425374456860184,6.307698521488204,inf,,0.8005434020880483
80,,0.0,0.0,1.0853822880922375,1.0680070979067622,0.7323054189223697,3.9142493979016484,32.90046825649207,,,0.6447042257417027,inf,,,0.7505810570579221
81,0.8632477788271757,-0.014387462980452929,0.0,1.0054753729612877,0.9259688148190219,0.6795456221574432,3.9457422316298594,4.0425795779564115,,,0.6547956803312163,4.615220521841593,inf,,0.6475488437596869
82,0.7820147646690538,-0.010426863528920718,0.0,1.1946642521257924,1.1801053747393178,0.7654374257992252,5.076533360676092,13.155673472796032,,,0.6652988471865258,5.061928588483807,inf,,0.5782797749122386
83,,0.0,0.0,1.4977829394918818,1.4819072835303593,0.8754763535263841,4.813939797580025,22.492483218089244,,,0.5567373465730988,inf,,,0.9134725308677831
84,,0.0,0.0,0.9194928678789539,0.9056486563819158,0.750070271981523,3.444232251246439,27.634229007764493,,,0.585052858160615,inf,,,0.8316854635817382
85,0.7178526581000017,-0.01196421096833336,0.0,1.2474095630191968,1.1996192781054142,0.7930895483757524,3.6668432385400243,23.23933330609479,,,0.6509067234006624,4.730481488065267,inf,,0.8812948668163838
86,1.222447497119926,-0.032598599923198024,0.0,1.2670076726132555,1.2732381874797483,0.7708034406831347,5.058620249084603,6.80810965230245,,,0.676637947632344,4.513908594709767,inf,,0.8075355990177455
87,1.6931908525642374,-0.045151756068379664,0.0,1.3697353410970095,1.3453620203928816,0.7771825524092091,4.290137221839694,4.1041739249465286,,,0.6727386042041725,5.144166686720778,inf,,0.7695851917386297
88,1.3107665891226417,-0.03932299767367925,0.0,1.086448902621562,1.0834507969922114,0.7857074229779988,4.877369518572334,4.87811888744437,,,0.6425374456860184,4.515939052260149,inf,,0.6870656133716785
89,2.056776773272274,-0.06855922577574246,0.0,1.1760249968911196,1.132086203493458,0.7408984367304664,4.040742354353044,9.578986769537744,,,0.6684167106117298,5.179053945721219,inf,,0.7074764632392901
90,1.414559064272272,-0.023575984404537866,0.0,1.270286018845511,1.257629204751397,0.821490645443723,3.5437428569695713,5.157999697859999,,,0.663668482632973,5.32306553623723,inf,,0.8225553614750811
91,,0.0,0.0,1.3910296772796016,1.37102519448967,0.8329802215600648,3.617244075042222,6.2944843131637,,,0.6309483474627791,inf,,,0.9522670190292856
92,,0.0,0.0,1.416923736454019,1.3931424964094938,0.7520146368117502,4.1473519030836865,10.586885589759099,,,0.6380535849069913,inf,,,0.8813080022565485
93,,0.0,0.0,1.0638037733186154,1.02997183849652,0.8593539354786484,3.1885725838649006,4.652172931522255,,,0.6357360191111145,inf,,,0.9085520946168897
94,1.3388041083337034,-0.02677608216667407,0.0,1.0452575355674247,1.0140647061788384,0.7693711472915076,3.8616903875579482,10.040768614975887,,,0.6380535849069913,5.077844043789706,inf,,0.6432328139826247
95,1.3874261324466395,-0.03699803019857705,0.0,1.2605921390247645,1.2337445546248078,0.7608462831739562,3.0176174186094307,0.7164132774321685,,,0.6447042257417027,4.573456210498564,inf,,0.6628001883025901
96,,0.0,0.0,1.3590097854524965,1.193809477493444,0.8233485984884119,0.8302818624114157,0.8977848647088144,,,0.6528756675646988,inf,,,0.9025896210188489
97,,0.0,0.0,0.7621789885756135,0.5518796162310723,0.7028534832198953,1.0384463963700092,0.6334076654756335,,,0.6425374456860184,inf,,,0.6914142786887286
98,0.8285716237114529,-0.030380959536086608,0.0,1.4517615309329979,1.4297829975758956,0.8364078435461006,4.281178523909503,6.710306086858769,,,0.6727386042041725,3.923758261646567,inf,,0.7493536342956106
99,1.6725665755189407,-0.04460177534717175,0.0,1.2092027892440593,1.2068693901882934,0.748957128219016,4.5312893311214415,4.4388608702794885,,,0.6380535849069913,4.669412454716445,inf,,0.6740382735201492
100,1.7946125215571034,-0.05982041738523678,0.0,1.1667243641688207,1.0715701618948192,0.7766733297198727,3.6772735769116425,3.183634806111498,,,0.62595550513784,4.748271029628765,inf,,0.5164554829055561
101,1.2001460426419621,-0.02946609797954469,-0.0025377964909076324,1.2871692399009345,1.2353054268420862,0.7176058347668453,3.4471248532326104,3.148353269875391,1.9535353317146154,,0.6425374456860184,4.668228321955228,1.7976942047478695,inf,0.7571497531542648
102,1.5716017734186103,-0.016975956220663863,-0.009217406669646308,1.342864419938198,1.2827055477428222,0.7595847807143341,3.997584132316891,3.7072584557703436,4.2814959233365055,,0.6309483474627791,5.327631754216812,3.1354942159291497,inf,0.8770575601985856
103,2.3025850929940455,-0.007675283643313485,0.0,1.210654639421823,1.2065172772738595,0.7600537864044149,3.1749922288542436,5.5454600968107055,,,0.6309483474627791,8.006367567650246,inf,,0.7762488444732267
104,,0.0,0.0,0.9479939769900656,0.9228738211929154,0.7562563329491785,2.755960864143004,2.8783463343747306,,,0.6153451465759925,inf,,,0.680002129852711
105,,0.0,0.0,1.1364405960044957,1.1248271232819174,0.7736831143582401,3.1699118310161305,4.353566146394864,,,0.5978297680564633,inf,,,0.8557020387305706
106,,0.0,0.0,0.8721183262151713,0.8460918957923013,0.6216099366314726,2.689603466212709,3.0224145876254003,,,0.5883313578629602,inf,,,0.8527787643727958
107,,0.0,0.0,0.7172102840058197,0.6724022657552752,0.6916948288494266,3.337278386642236,5.3200785133969735,,,0.6207552362147116,inf,,,0.7028182295385396
108,,0.0,0.0,0.8881778793693044,0.8586469275871992,0.785960584092908,3.0274204940795153,4.383665443940702,,,0.552929491858785,inf,,,0.8786299733984732
109,,0.0,0.0,0.7142608710367454,0.7116552729831593,0.6330186905788068,2.5720438275151363,3.0582344770091874,,,0.5451288209179292,inf,,,0.9005883302102323
110,,0.0,0.0,1.5263674000373533,1.513185166340424,0.9069588015510319,2.8926048895518113,3.2785049715788563,,,0.5567373465730988,inf,,,0.8674529534032105
111,,0.0,0.0,1.5056113774719029,1.5030174235930946,0.8364715813850712,2.867797067596436,6.393567404814427,,,0.5567373465730988,inf,,,0.9146750002669177
112,,0.0,0.0,1.616058093241993,1.6028319958175616,0.9028621013752641,3.1787926893884064,3.801414384239103,,,0.524519217297268,inf,,,0.884412250043728
113,,0.0,0.0,1.052242717919286,1.028713971473265,0.8632637761286016,3.3026556477195426,5.392048389077404,,,0.5202020156036558,inf,,,0.8956661179548784
114,,0.0,0.0,1.5442554326570725,1.537006894094232,0.906325708082489,2.966678440896326,5.6323090373453955,,,0.5329562494928909,inf,,,0.8367189009645888
115,1.109625573360843,-0.01109625573360843,0.0,0.9264030486632505,0.8529752991482975,0.8380382628368669,3.345898459082735,3.5187686371231246,,,0.5641709578113449,5.276338459829262,inf,,0.7364011426532547
116,2.338969662646822,-0.023389696626468223,0.0,1.3126845502024194,1.277016616275157,0.8053721778575458,3.721250384033334,5.015757650155178,,,0.6528756675646988,6.603543904579146,inf,,0.6497293880864905
117,3.2188758248682006,-0.010729586082894002,0.0,0.8037919185010799,0.797801583328259,0.7011703585108656,2.086728863015056,2.4520400034118723,,,0.581717464821069,8.922658299524402,inf,,0.7398583416508825
118,,0.0,0.0,1.511283924712399,1.485457079864229,0.88890726307599,2.0397770787036507,1.9538890507095545,,,0.6619902821573977,inf,,,0.7774074364865882
119,,0.0,0.0,1.5718406146390402,1.5710721062248825,0.8770029990082738,2.1898553350363863,2.763588934580615,,,0.6284777104787076,inf,,,0.7964641644747996
120,,0.0,0.0,0.8978551153968886,0.8654241567733756,0.7263067744886146,2.264327949175477,2.29915559767655,,,0.5748741956352443,inf,,,0.8496333252270899
121,,0.0,0.0,0.8329876364875706,0.8307324748624162,0.634796889557634,2.425750671230658,2.846237437162556,,,0.5641709578113449,inf,,,0.7247369850594849
122,,0.0,0.0,1.6422615286614999,1.6168362246221006,0.9434824331153697,2.150000216197345,3.467718726508814,,,0.5068466436745385,inf,,,0.7631213253270049
123,,0.0,0.0,1.756561545621442,1.739164306801285,0.9737540910206683,2.250825182866675,3.6244428889819837,,,0.5068466436745385,inf,,,0.7653147941026643
124,,0.0,0.0,1.6293162499409086,1.6301494453028287,0.9707502997841062,2.446919434766409,2.6745812908563793,,,0.4732203808476458,inf,,,0.7506929568515728
125,1.127228076811038,-0.015029707690813842,0.0,1.0537438381227988,0.98604190374516,0.7996110808116759,3.182496637176347,6.277207139547285,,,0.5370774965580548,5.090400262565118,inf,,0.8304598046769228
126,,0.0,0.0,1.1598303571152326,1.1142754855990544,0.7793980693930459,4.580973027790736,17.90412185954655,,,0.5158180382284114,inf,,,0.8645857090020201
127,,0.0,0.0,1.7852788108556092,1.7593854153983703,0.9658427595147097,4.822221131523937,118.56697373117436,,,0.4629450596409901,inf,,,0.7972165372362815
128,,0.0,0.0,1.7621697443876556,1.7402272968282742,0.957483537313111,4.215362477650707,76.51136108703703,,,0.4732203808476458,inf,,,0.8181262523174802
129,,0.0,0.0,1.2993364602158688,1.2729670266938844,0.8842233903751918,3.6401911946119987,2.7986675612474836,,,0.49759852643134905,inf,,,0.8581810959364633
130,,0.0,0.0,0.8994693178899202,0.8519731024704723,0.7392499319714017,3.528926725023607,10.676981954829149,,,0.4629450596409901,inf,,,0.8703373277935157
131,,0.0,0.0,1.411802040564679,1.358631178379329,0.8635352027680445,3.46784978514213,9.17378866735577,,,0.44144624493110796,inf,,,0.8634488888166882
132,,0.0,0.0,1.6211004009572245,1.6042271605488894,0.9541684957002572,4.260256843185695,37.10965883286803,,,0.41268473150466,inf,,,0.8380104835254345
133,0.7133498878774648,-0.0023778329595915493,0.0,0.9417243420100869,0.9187420063209697,0.7331914342760177,3.0376945668118602,3.336774071674141,,,0.48319206230712763,6.417132362533666,inf,,0.9154786018202765
134,,0.0,0.0,1.7173267252407727,1.6916445021743138,0.954228947266392,2.5492756179185876,4.74176567380299,,,0.48319206230712763,inf,,,0.7990203345584078
135,,0.0,0.0,1.7561680735348113,1.7346176628558523,0.9522345563135249,2.471344520909188,2.3727970175541415,,,0.40055318934786044,inf,,,0.7646529358268492
136,,0.0,0.0,1.1280766649606262,1.1181213248805066,0.8562654621031073,3.0546481284065377,4.3382376370253475,,,0.468121228110369,inf,,,0.7857464355548616
137,,0.0,0.0,1.652629668534076,1.624475987452861,0.9558007727028348,3.258125812029907,3.589694867145103,,,0.42445136339222655,inf,,,0.7854291455301358
138,1.3291231169624245,-0.013291231169624244,0.0,1.2120608865966394,1.0543645309005711,0.7569321375704964,4.230709936289673,4.002717658009719,,,0.5287703885177266,5.3744787275136,inf,,0.75849679020704
139,,0.0,0.0,1.7369262973441584,1.7347226514555638,0.9549555830620728,4.648131982269399,52.0367383906108,,,0.5158180382284114,inf,,,0.8481707966199803
140,,0.0,0.0,1.7324494467598135,1.7168014492396022,0.9735398527025584,3.8968716127083405,17.789780849470763,,,0.5158180382284114,inf,,,0.8250634563505695
141,,0.0,0.0,1.731442008865745,1.7120257657267521,0.9729084218170081,3.5783575103915304,20.71971808320984,,,0.5490601803369085,inf,,,0.8431986931773819
142,,0.0,0.0,1.5253833963179262,1.5300530976747642,0.8763841282304297,4.191437903320979,47.457550483051094,,,0.47824363442641393,inf,,,0.8721123753257441
143,,0.0,0.0,1.7890680235922927,1.7489138402476956,0.9694146555126553,4.355254880096789,23.588936009110686,,,0.524519217297268,inf,,,0.8079602925374041
144,,0.0,0.0,1.7877461173058382,1.7709178488873678,0.9668402955443992,4.582268276915091,31.518427109863296,,,0.552929491858785,inf,,,0.8315186794652798
145,,0.0,0.0,1.7890557591654113,1.7679815005493194,0.9574599043654005,4.6207089254093034,215.469920364992,,,0.48319206230712763,inf,,,0.8551715707793052
146,,0.0,0.0,1.786294240447555,1.7775335673930253,0.9684366278796949,5.231566739096632,117.77095606039614,,,0.5370774965580548,inf,,,0.8227570452532668
147,,0.0,0.0,1.5059908039030612,1.4657616228267945,0.8960507387834911,3.896446035011362,4.417078382180437,,,0.585052858160615,inf,,,0.9250824199336322
148,,0.0,0.0,1.7535696432074386,1.7369924686516545,0.9600246391822822,4.168149306393647,10.296271194705763,,,0.4576907132971797,inf,,,0.8327974957071443
149,,0.0,0.0,1.786498886832673,1.7635196598099365,0.9659790344844948,4.954691494172313,26.21098710118833,,,0.49759852643134905,inf,,,0.8027198115563137
150,,0.0,0.0,1.7527268731389802,1.7305746369009507,0.9626039095151123,3.3286977005225626,50.064898517914635,,,0.468121228110369,inf,,,0.7971188686199511
151,,0.0,0.0,1.7662368361100085,1.7378190828907565,0.9653687670278822,4.84204882662383,57.91269147012387,,,0.5113665138247345,inf,,,0.8511418859283538
152,,0.0,0.0,0.7870363317271123,0.7508477780661497,0.7104752794660135,3.7569293544314526,35.95330463539849,,,0.5567373465730988,inf,,,0.9214714490560879
153,,0.0,0.0,1.7246945942152294,1.650696341146567,0.9097639930486987,2.598945519887742,3.8015716685952414,,,0.4928685327679205,inf,,,0.8465225454373786
154,,0.0,0.0,1.7796677212480125,1.7478345946763076,0.9540164638244997,3.5692804164569307,18.0140284179185,,,0.5370774965580548,inf,,,0.8272565657905043
155,,0.0,0.0,1.0144480417947215,0.9776474151264978,0.8222541851587384,2.9160510779126394,5.116902901394541,,,0.4880666971167561,inf,,,0.7929972046891025
156,,0.0,0.0,1.372832834832438,1.3578704447196153,0.827992781898651,2.8254186718007857,3.1661784340482173,,,0.524519217297268,inf,,,0.8882923973395119
157,,0.0,0.0,0.6822219435071537,0.6691037525800178,0.6804552883531109,3.4633304636423707,5.7937809835746155,,,0.5329562494928909,inf,,,0.8582984835238182
158,,0.0,0.0,1.7624655714169228,1.7396775771334123,0.9505097087217121,3.5964928002169954,8.398613085347042,,,0.5490601803369085,inf,,,0.8940146097826278
159,,0.0,0.0,1.0155126852774274,0.9314572708201694,0.7296098208969645,3.4536659704116666,3.710576130946019,,,0.5451288209179292,inf,,,0.9345669363321658
160,,0.0,0.0,1.5099895931597183,1.5137575353129373,0.9047528147555998,2.887001275746953,4.093417430418406,,,0.4928685327679205,inf,,,0.8911772510334096
161,,0.0,0.0,0.7282760153355885,0.6877009235206125,0.5769147479532298,2.9308110488393346,3.0806884615140535,,,0.5567373465730988,inf,,,0.8881971596377386
162,,0.0,0.0,1.7022547981237048,1.6817803463709071,0.9307212837616298,2.861356943255839,3.3506822341955096,,,0.47824363442641393,inf,,,0.8673912551023603
163,,0.0,0.0,0.9302814210413206,0.8637276375001299,0.6854407538006425,3.020638034492613,3.779885041828774,,,0.5978297680564633,inf,,,0.8057712601794471
164,,0.0,0.0,0.9453242993789992,0.9062348742467271,0.8131008335568244,3.85811454768559,8.736529042364818,,,0.6153451465759925,inf,,,0.5801641577090666
165,,0.0,0.0,0.8404759922722786,0.8184135260140217,0.6539266706627848,2.7742742793656756,2.915109534814993,,,0.581717464821069,inf,,,0.719998022199163
166,,0.0,0.0,1.5931901834588367,1.5780359264471533,0.9360983449070828,2.2318738542821337,3.0460052739152874,,,0.524519217297268,inf,,,0.8077426953532064
167,,0.0,0.0,1.3757276963566487,1.3631145632486112,0.9052361035694169,3.203302024845164,2.8658943528626275,,,0.581717464821069,inf,,,0.8495249598804666
168,2.2755514823589076,-0.015170343215726051,0.0,0.6552582924882883,0.648482661927484,0.6081929862155644,3.1500232583090235,3.297334398228645,,,0.5490601803369085,7.173458444715143,inf,,0.8676662207784842
169,,0.0,0.0,1.2216687653714646,1.226201443091329,0.9443372583997324,2.6680480573215615,2.972719511218154,,,0.5451288209179292,inf,,,0.8271812474413517
170,,0.0,0.0,1.734527647979905,1.6922880156770497,0.9477074803705773,2.757297283900975,3.6679134498398778,,,0.468121228110369,inf,,,0.7908040290081977
171,,0.0,0.0,1.6887021053356044,1.66851543184516,0.9639386799750187,3.0958032769630774,6.582581248044159,,,0.48319206230712763,inf,,,0.8717144679839997
172,,0.0,0.0,1.7342901408513112,1.7062506887754252,0.9593787505370316,3.418137303510584,3.9081903546195744,,,0.4302020962658841,inf,,,0.8174092073834595
173,,0.0,0.0,1.5978713440038654,1.584121159782281,0.903023194150075,3.3762908733798573,8.460227196769262,,,0.4629450596409901,inf,,,0.8470222498725448
174,,0.0,0.0,0.8242054582322098,0.8051256463222277,0.6381260845803837,2.7156832272486753,3.809443390707911,,,0.5641709578113449,inf,,,0.9138029956341132
175,0.7765287894989963,-0.0025884292983299876,0.0,1.2135192484648263,1.1781133645401276,0.7991334391145655,2.8977354531552137,3.4791716191027295,,,0.5604843169999094,6.480311264155198,inf,,0.6723597856567655
176,,0.0,0.0,0.7518913538440106,0.744733162618052,0.4823024055353592,2.1684837586304386,2.0999209287064957,,,0.6125606311107803,inf,,,0.8011463188057932
177,,0.0,0.0,0.8379264246936412,0.7944759927832057,0.7407161551183317,2.40915958155362,2.277018811763536,,,0.5158180382284114,inf,,,0.9187140619567122
178,,0.0,0.0,0.6638951803975326,0.6555878983168687,0.8342402467107523,2.27432311192445,2.0166695600811497,,,0.5022576003740722,inf,,,0.6202192727763199
179,,0.0,0.0,1.6547332183736296,1.6099766766497887,0.9559990753349719,2.578704603664331,3.6964185403579477,,,0.4576907132971797,inf,,,0.8351348784171597
180,0.4780358009429998,-0.0015934526698099993,0.0,1.3188398790455187,1.3004763629493687,0.8473540915152229,3.1108380592113076,4.106008063506697,,,0.4880666971167561,6.181818275599201,inf,,0.8724090545054378
181,,0.0,0.0,1.066819249965613,1.04578864199474,0.8252042626477762,6.297617379525494,7.580590557998487,,,0.49759852643134905,inf,,,0.900751478049274
182,,0.0,0.0,1.4091039916936654,1.3999249098710906,0.8294014834725665,3.7551989793963045,4.367301630191615,,,0.5068466436745385,inf,,,0.8335818133635772
183,,0.0,0.0,0.9800735958841649,0.9576411735619318,0.8416918095904953,2.918022593111562,2.051377014574378,,,0.5202020156036558,inf,,,0.6463758155765371
184,2.870569130599985,-0.009568563768666617,0.0,1.103186808003599,1.0101690583053635,0.6765675406740942,3.712204127067766,5.74476899640287,,,0.5490601803369085,8.574351605256187,inf,,0.6964358409199057
185,0.7788527608731838,-0.014130281256502612,-0.0014467739609610644,1.408979517996499,1.3740047269570412,0.7761417071550963,3.316492716485519,2.7426714468547053,1.7132879746782825,,0.6008849035917525,4.575611383746547,1.564095406502527,inf,0.7324521360118551
186,2.6829418517718926,-0.03577255802362524,0.0,1.2564837117564986,1.2306863809362323,0.7840814758995884,3.829408386091535,3.7358735899476416,,,0.6566669596287297,6.271766512262141,inf,,0.6357186311939084
187,1.104990684004734,-0.029466418240126243,0.0,0.9078787050990869,0.8984157912563556,0.6427100609136539,4.442817083430423,1.947579765203752,,,0.6309483474627791,4.502814179350564,inf,,0.8753439853391833
188,2.9311937524164198,-0.009770645841388067,0.0,1.1107313733036246,1.0602154210589838,0.7177584427322455,3.7873270158992023,10.591995373638895,,,0.6380535849069913,8.63497622707262,inf,,0.7023667870267946
189,0.7550225842780328,-0.002516741947593443,0.0,1.132781037985076,1.1051774454723367,0.7393265641849022,3.6259772472551894,3.6262478156645273,,,0.6380535849069913,6.458805058934233,inf,,0.8642468142482986
190,1.9408553368820562,-0.019408553368820563,0.0,1.1262931687043019,1.0616139235921294,0.7501982462071404,3.943295305651338,3.6369037998755758,,,0.6403206450210053,6.54003049885682,inf,,0.6379785625569947
191,1.0788096613719298,-0.0035960322045730992,0.0,1.104911517539921,1.0749921130720603,0.7795775781171531,3.3577192189690384,4.542434383786862,,,0.6566669596287297,6.782592136028131,inf,,0.6319906349699013
192,1.6433394641097818,-0.0054777982136992726,0.0,0.9889951307105121,0.9697379548732517,0.7593982875578311,4.061206327249297,6.2458398445142285,,,0.6740851607140061,7.347121938765983,inf,,0.7385053537480375
193,1.8971199848858813,-0.006323733282952938,0.0,0.8128742487053803,0.7818687928320109,0.7423565662933456,2.9889177886171097,2.580955453655843,,,0.6584896970785714,7.600902459542082,inf,,0.7070917119177244
194,,0.0,0.0,0.8321938746525183,0.7355780667824705,0.7793790109673606,3.088749868318889,3.486866802203523,,,0.6566669596287297,inf,,,0.8484687210105338
195,,0.0,0.0,1.0153673573198243,0.9832208417198801,0.7727089766313123,2.616025541094184,2.812037129579272,,,0.6038851895711802,inf,,,0.813126808733391
196,1.2133188708320122,-0.008088792472213415,0.0,0.751813879178217,0.7113718791560633,0.6220617213646167,3.143505830541435,5.528772681290679,,,0.6447042257417027,6.065230697347591,inf,,0.729907065841981
197,1.0167435662968298,-0.010167435662968299,0.0,1.1703122038517724,1.141444823388644,0.7712347123224321,4.414247542269579,2.862500550280621,,,0.6668815377411301,5.608472294851876,inf,,0.6741917653443108
198,,0.0,0.0,1.1043970444355762,1.0976978189957973,0.7759282949867398,3.559222470784686,6.222556035711326,,,0.6713451011121618,inf,,,0.9094725856987684
199,1.2861022409742195,-0.012861022409742195,0.0,0.896855207775928,0.8669861871496175,0.6254358872708683,3.3533616390554957,2.2195903122864347,,,0.6403206450210053,5.464765574185701,inf,,0.7238296055689538
200,,0.0,0.0,1.131588125054006,1.1285945801642037,0.7522052969405966,3.339290286583981,4.102150093069381,,,0.6547956803312163,inf,,,0.7137853166010799
201,1.8777746703358797,-0.018777746703358796,0.0,1.0899661251077908,1.0695529428258628,0.7139946783045512,3.519514359053718,2.998802777364061,,,0.6619902821573977,6.370612346898773,inf,,0.6597581103844301
202,,0.0,0.0,0.9455070859141066,0.9389031594865564,0.6306448479279461,3.7852239075878042,5.275173214843013,,,0.6309483474627791,inf,,,0.6747544104234489
203,1.9582854321771088,-0.03263809053628514,0.0,1.1073779945136122,1.084679734674804,0.7313617866952995,4.480040513539702,4.9216195916022185,,,0.6380535849069913,5.667772037133168,inf,,0.8104190613455614
204,2.139542379708214,-0.02852723172944285,0.0,1.2974703831636543,1.2639379879148447,0.8050703400166624,5.057507065634369,8.594831888645283,,,0.6652988471865258,6.364139832393156,inf,,0.7567134321879837
205,1.0805194491758694,-0.014406925989011592,0.0,1.2598422937623595,1.2436887259173637,0.8176214957418589,3.509092297012374,2.5929235959807646,,,0.6619902821573977,5.265527543725046,inf,,0.5436867563734687
206,1.9939326495470893,-0.026585768660627857,0.0,1.1645349472590998,1.1442958464136899,0.6647648136199572,3.1728401590426856,2.8154084671204336,,,0.6584896970785714,5.965147238790609,inf,,0.7932937202809632
207,1.5525845752515388,-0.041402255340041036,0.0,1.2812786919546908,1.2244643783126765,0.7682561029121864,4.905833991473098,28.35211255252521,,,0.6233814453054027,5.094016903035307,inf,,0.7833510536953507
208,,0.0,0.0,1.079149973791421,1.015235583793294,0.7639005572411954,2.626370688806867,2.475720155390542,,,0.5748741956352443,inf,,,0.9138284696337686
209,2.588467155864914,-0.05176934311729828,0.0,1.306117134992157,1.3104383892080986,0.8102255775060633,4.392720660741123,11.514417624018925,,,0.6284777104787076,6.220179143471647,inf,,0.8297929626539943
210,3.3058872018578307,-0.011019624006192769,0.0,1.0355467789825445,0.9771475217016283,0.7218597474861225,3.4150346268444247,2.8258119445481342,,,0.6619902821573977,9.009669676514031,inf,,0.6927624951474575
211,1.8047261602413072,-0.012031507734942049,0.0,1.1007599668003478,1.055194216811241,0.6737284506763651,3.2389984386429043,2.9853059501988453,,,0.6468212168108125,6.036926921184739,inf,,0.5501739009924554
212,1.192922968139351,-0.003976409893797836,0.0,1.3135992544015247,1.274578407770242,0.7844109709683014,4.865618570285228,18.384412097260935,,,0.6602640781246099,6.896705442795552,inf,,0.8507269730861765
213,1.1107477863733808,-0.018512463106223013,0.0,0.8673832612190264,0.828873878606789,0.6515044251323339,3.5140977799290356,6.644579915353082,,,0.6447042257417027,5.027442412412637,inf,,0.7965042468298674
214,1.1292841037886356,-0.007528560691924238,0.0,0.7861277957948244,0.7055550025377434,0.6034875994862099,2.6604879891901017,3.309095643814085,,,0.6547956803312163,6.139706790249074,inf,,0.7126320393117492
215,,0.0,0.0,1.0622135956851055,0.9840596796335798,0.7481357747525336,3.0729329986023095,5.037646783676656,,,0.6097226960127671,inf,,,0.8078482901823604
216,,0.0,0.0,1.3265784701514927,1.3055313496151018,0.9021886810353941,4.172300027085265,13.668184233082608,,,0.6068309995095971,inf,,,0.9116997857133633
217,0.699836168710742,-0.0023327872290358066,0.0,1.1591493105807524,1.1557469020575526,0.701602850358963,3.883790298526323,9.74667415851139,,,0.6684167106117298,6.403618643366943,inf,,0.8293151767574795
218,,0.0,0.0,0.9016022430842435,0.8872976173388238,0.6255560993323491,3.474002591599026,16.034653198930204,,,0.6333676938231112,inf,,,0.7371986914529545
219,0.42057874591821265,-0.0014019291530607087,0.0,1.0263657307139664,0.9543016132655318,0.8142382008757234,2.983408467839807,2.778532454475122,,,0.6380535849069913,6.124361220574413,inf,,0.9329258414699341
220,,0.0,0.0,1.1162499360127989,1.0970932138082867,0.8085529439659378,3.6616986687360646,7.25850245011415,,,0.6097226960127671,inf,,,0.9042912089518119
221,1.791759469228055,-0.005972531564093516,0.0,0.40831514728970875,0.336245419324599,0.5233270799204404,2.9021555799465526,3.7259690485224026,,,0.6233814453054027,7.495541943884256,inf,,0.845442367685697
222,2.001249903708899,-0.026683332049451985,0.0,1.0560400665263232,1.0318267281715598,0.7981436395992304,3.767285144459116,2.3164472548377977,,,0.6284777104787076,5.816577968801545,inf,,0.6153900477010426
223,0.699836168710742,-0.0023327872290358066,0.0,1.1479462394508562,1.1239876568824914,0.6687853592135127,4.406483065018497,23.16267106712111,,,0.6699045166045591,6.403618643366943,inf,,0.8562020680515667
224,1.875141078167106,-0.0062504702605570206,0.0,1.0932329060539763,1.0897739482716087,0.7978096392882098,3.5242337747847063,17.371581831801016,,,0.6153451465759925,7.578923552823307,inf,,0.7784846364559871
225,0.2613647641344075,-0.0008712158804480251,0.0,1.0126277187795862,0.987037181177424,0.6812423006241765,4.261095484003424,3.0561853203345963,,,0.6547956803312163,5.965147238790609,inf,,0.7140542550724903
226,,0.0,0.0,1.3011803618605613,1.277639487841197,0.8029031185836164,3.932503126735728,2.218557114767863,,,0.6509067234006624,inf,,,0.9317012745852002
227,2.461779094509711,-0.049235581890194224,0.0,1.3573326580673883,1.2970828437358919,0.766334647679653,4.903711016546244,4.6923297723353485,,,0.6584896970785714,6.351319143964094,inf,,0.7405558715694028
228,0.647536669307893,-0.0021584555643596433,0.0,1.3179170229924166,1.2897251707789181,0.7516425526734638,4.296552159338678,5.494821887999063,,,0.6403206450210053,6.351319143964094,inf,,0.550779212362063
229,,0.0,0.0,1.436339981693959,1.390944870362042,0.8549783825366838,4.425860937744917,8.794147464135898,,,0.6652988471865258,inf,,,0.7988812812732171
230,0.8835009090511642,-0.0029450030301705473,0.0,1.2077638898181418,1.1687243286983617,0.8303093521017891,3.9318123401697616,23.637887598428062,,,0.6425374456860184,6.587283383707366,inf,,0.852507683178204
231,,0.0,0.0,1.0089721085507766,0.9574758721884651,0.783794435551133,3.714412352930285,4.2797956586194115,,,0.62595550513784,inf,,,0.8758567420804484
232,1.155476671332281,-0.007703177808881873,0.0,1.1569234758881626,1.109993120949329,0.6876829403031621,3.765433437420893,46.758239838848375,,,0.6602640781246099,5.9870299500401165,inf,,0.819661400123562
233,0.6286086594223742,-0.0020953621980745805,0.0,1.0342021727586228,1.013452018693394,0.7578047358293971,4.288226029606988,18.092715373247685,,,0.5604843169999094,6.332391134078575,inf,,0.8165683350918949
234,0.4515090466095711,-0.001505030155365237,0.0,0.8356128772291184,0.8250408376494848,0.7270624933711466,3.6121399150247018,4.731970503793543,,,0.5915533975974677,6.155291521265772,inf,,0.729638279251029
235,,0.0,0.0,1.185073745291737,1.1439900203607185,0.7573855082145262,3.7063331119791543,7.676064935235767,,,0.6425374456860184,inf,,,0.8244020812191492
236,1.3358264803663138,-0.026716529607326275,0.0,1.044035906324738,1.048223274503186,0.7151854819856698,4.417794683843519,14.3981813100535,,,0.6425374456860184,4.924457597855203,inf,,0.7380696223195736
237,0.36624439495488303,-0.00122081464984961,0.0,1.274213879858744,1.2542780640578672,0.7844930558015265,4.012439308048154,4.9998152559321,,,0.6008849035917525,6.070026869611084,inf,,0.6915540492676578
238,0.7201758529478646,-0.002400586176492882,0.0,1.2193020016510618,1.206587563352531,0.7622313838602153,3.575002555019309,5.267202036453793,,,0.6068309995095971,6.4239583276040655,inf,,0.9092090690150513
239,0.9298944918269343,-0.012398593224359124,0.0,1.1723132162720091,1.1453402740234544,0.7738044366472202,3.6442238589290845,2.321643560319425,,,0.6125606311107803,5.179053945721219,inf,,0.8242061269720268
240,,0.0,0.0,1.201048062192781,1.1744371192799015,0.7593366501823524,3.285496020159462,4.3556317958725845,,,0.5883313578629602,inf,,,0.7276285057129864
241,1.8836845306536638,-0.0502315874840977,0.0,1.2447467669038166,1.212931730808649,0.7575909304309535,3.5311299241411174,8.327950022303984,,,0.6233814453054027,5.357831494080444,inf,,0.6938847616255771
242,0.09798040836020379,-0.00032660136120067927,0.0,1.0196284735916112,1.0105527290078573,0.7225209458334775,3.382613926125252,4.789928408955452,,,0.5783247308855777,5.801762883016405,inf,,0.7974940714015146
243,1.1685882688818323,-0.007790588459212215,0.0,1.065033388908443,1.0387632252787966,0.7390047229621082,3.5009032541407548,3.2265031095629113,,,0.5915533975974677,5.947979435168243,inf,,0.7064938221617776
244,2.302585092994046,-0.015350567286626973,0.0,0.9268012137584013,0.8883079835225282,0.684026869819422,3.0085094893042874,3.8509731536048024,,,0.6584896970785714,6.716217067083258,inf,,0.7427118027217889
245,2.2004348612376807,-0.014669565741584538,0.0,1.0149688297831467,0.9963148397336944,0.7238806136011446,3.1001164414672986,9.713492294143673,,,0.648888643467878,6.160540877151916,inf,,0.671885798503655
246,0.956099179507785,-0.01593498632512975,0.0,1.232506208474264,1.2029899227897607,0.7610383893581506,3.8784037808211336,2.084362041829804,,,0.6566669596287297,5.019003543766773,inf,,0.6113365174522971
247,1.4128111226364157,-0.07534992654060883,0.0,1.4539965040311376,1.4440918453986342,0.8325742755145806,4.253448371329825,30.03272634055342,,,0.648888643467878,4.044285362349363,inf,,0.6145090940187472
248,1.3699728769950381,-0.019357294638943045,-0.008042162900957717,1.208175800869583,1.1814922890115607,0.7270905489097232,3.962976367070594,1.5284481216779384,2.860800135499283,,0.6602640781246099,5.244250145277761,2.867477938030312,inf,0.5134129583376823
249,1.9661128563728327,-0.006553709521242776,0.0,0.7848695513048208,0.6990144324376875,0.7094581501908528,3.2111041210715183,2.43336495915599,,,0.6713451011121618,7.669895331029034,inf,,0.6416777547637414
250,1.040343380544134,-0.0034678112684804465,0.0,0.9429640910102449,0.9057289500154326,0.6963802086875702,3.4004651527188283,3.050569756754057,,,0.6380535849069913,6.744125855200335,inf,,0.7757273599390484
251,,0.0,0.0,1.2448694539335994,1.2394360444730292,0.819676411457228,3.181094599525584,5.083484244851093,,,0.6380535849069913,inf,,,0.7653600908164179
252,,0.0,0.0,1.2637779295215674,1.2553588315939581,0.7490409765974115,2.9645366801854203,3.600141772870508,,,0.6380535849069913,inf,,,0.6551043844352247
253,,0.0,0.0,1.221446099081003,1.1612231228481023,0.7192061477584792,2.9901106426966577,2.4193819469654536,,,0.6619902821573977,inf,,,0.6422506476875912
254,1.6334789744642415,-0.02177971965952322,0.0,1.0535057724790329,1.0354973766308513,0.717360806202273,4.0162385914376255,11.201752922986321,,,0.6699045166045591,5.7585907111511965,inf,,0.6297845940224874
255,1.479584456295568,-0.019727792750607574,0.0,1.3151115789835879,1.2838562910575988,0.7568635972584027,4.154410314490547,5.875924002422727,,,0.62595550513784,5.346108030384385,inf,,0.7770722705167665
256,2.2226607425230975,-0.014817738283487317,0.0,1.2452587740294743,1.206022367110436,0.8112251143249022,3.1434581997029944,2.671544966115607,,,0.6668815377411301,7.188057244136296,inf,,0.830853085542241
257,2.061323709653434,-0.02061323709653434,0.0,1.145276645444037,1.094639600990536,0.7240704548468799,3.8397225687515566,4.999034522813451,,,0.6668815377411301,6.509725149361491,inf,,0.6895045327755517
258,1.6784307839210517,-0.005594769279736839,0.0,0.9801085890863496,0.9336446113075687,0.6784699172178086,4.32213120313418,5.1334709554978435,,,0.6619902821573977,7.382213258577253,inf,,0.5812608478815918
259,1.6295622910604965,-0.038023120124744916,0.0,1.1716453940300684,1.1426200064068472,0.7262244513289439,4.484273033721171,7.199516584509971,,,0.6547956803312163,5.090400262565118,inf,,0.5816290662052134
260,2.1484344131667874,-0.0071614480438892915,0.0,1.1674620156216853,1.1572361402397393,0.7892066826825506,3.5207310024404137,2.2641361658830483,,,0.6602640781246099,7.852216887822989,inf,,0.6761777600039185
261,2.5075851939187483,-0.08358617313062494,0.0,1.320863679828625,1.3001741087970293,0.8118448373437936,4.764553894136612,19.69389968712918,,,0.6309483474627791,5.5270319629117015,inf,,0.49781065029755095
262,2.336486644669727,-0.007788288815565757,0.0,1.0487438567635166,0.9981087174296266,0.7245768425005085,3.5853017602344854,12.047385044969072,,,0.6284777104787076,8.040269119325927,inf,,0.8717264734459219
263,,0.0,0.0,1.4588802750205867,1.4561247037555984,0.7926236552373309,4.383381668959124,9.240619722798556,,,0.675384900321601,inf,,,0.7647003333367953
264,,0.0,0.0,1.07749834901457,1.0751418393571657,0.7291280666946718,3.49745762492052,13.304091650490253,,,0.6528756675646988,inf,,,0.8191045117064047
265,1.726245338024853,-0.01150830225349902,0.0,1.2019526553980509,1.183496610102148,0.7903761207253225,3.8653485046777427,9.565825157761768,,,0.648888643467878,6.579251212010101,inf,,0.9227047372131296
266,1.486117368572294,-0.024768622809538232,0.0,1.2703102551956194,1.2654458046679367,0.7688360821226022,3.6622743001839035,3.8193570352235304,,,0.6425374456860184,5.443985605693956,inf,,0.82937193193201
267,1.1375537274969687,-0.022751074549939375,0.0,1.3123248391798161,1.2816844512705137,0.826068402491446,4.789062089446759,5.626125360778043,,,0.6566669596287297,5.024058314428396,inf,,0.8212938186401558
268,1.6345873624155736,-0.04358899633108196,0.0,1.131958122964181,1.0963660232559167,0.7206976965707226,3.537253634197613,2.9054621968341445,,,0.6509067234006624,4.9810764918547115,inf,,0.7491964969750456
269,2.021042549050271,-0.02021042549050271,0.0,1.2099562195085525,1.1740888064728219,0.7535169191630642,4.357311849402028,6.871085469238887,,,0.6380535849069913,6.595380593939985,inf,,0.7457276145299346
270,,0.0,0.0,1.0654864178677197,1.049751230514262,0.7308123290502139,3.725187812193685,7.411773282387939,,,0.6233814453054027,inf,,,0.9032437970850948
271,1.5391402707564243,-0.061565610830256974,0.0,1.2049250747247278,1.1712943274216707,0.7491288840967627,4.611196863824783,7.829487380355283,,,0.6468212168108125,4.6529608498244395,inf,,0.7810538423130251
272,1.424017378878258,-0.06906859494972914,-0.011625723186705478,1.4740806849809602,1.4821001719039004,0.7956909529714647,4.212748233484354,22.3801039489971,2.7846299688099982,,0.6740851607140061,4.161909881717866,2.50945661920004,inf,0.8429219905750615
273,2.067583278371178,-0.01378388852247452,0.0,1.1631581689604065,1.1459473245178646,0.7686358102664042,3.7626358471440997,4.10549960012773,,,0.6468212168108125,6.82259747064183,inf,,0.7069775791040928
274,,0.0,0.0,1.0387619040950857,1.0301592954421575,0.7198476666948327,2.979180542111672,2.101419121686084,,,0.6566669596287297,inf,,,0.7857420727727207
275,2.0298638707438807,-0.03777409155704126,-0.009589398760315953,1.1098403572554074,1.0576145162238177,0.7516954436819733,4.437499940372719,2.230932239340108,3.0873903717438234,,0.6619902821573977,5.605446573935339,2.9689050313208467,inf,0.6758643057242187
276,1.6954598695424155,-0.022606131593898873,0.0,1.0772713128038078,1.0336860586480816,0.7712538297544883,4.698152975061374,8.434155255538002,,,0.6652988471865258,5.910396724019201,inf,,0.6011928745199786
277,1.7016722394879769,-0.02836120399146628,0.0,1.1351579044516313,1.079508690093638,0.6994641440969691,4.854104621930621,24.95427666216579,,,0.6584896970785714,5.343779740624794,inf,,0.6845110947249013
278,1.1639069126462689,-0.023278138252925375,0.0,1.1722246745226022,1.109461449745841,0.7516549542559812,5.688519039893434,12.914565775692141,,,0.6403206450210053,5.005647752585217,inf,,0.5983982558261902
279,1.5724671594912378,-0.02620778599152063,0.0,1.1817114993481768,1.1526912101417142,0.7801874379550989,3.925475974143916,3.051499185090502,,,0.6566669596287297,5.502203101257832,inf,,0.8858608747083025
280,1.357165007445217,-0.03254656548968024,-0.008168384733676268,1.2652758088505938,1.2596903048669665,0.8249125345173526,4.570520904908809,5.89559525238985,4.211603660921833,,0.6528756675646988,4.704376836071539,3.4450915752193807,inf,0.7321710150738043
281,1.5273423283493768,-0.03563798766148546,0.0,1.259239801418998,1.2317173187707686,0.761054789756481,3.9295774763354268,3.3807381421665355,,,0.6284777104787076,5.217249543459255,inf,,0.7634549618602102
282,2.107377589124326,-0.05619673570998202,0.0,1.1118654129483556,1.0622190726915586,0.6916941378929732,3.6895428680591706,4.855486478077173,,,0.6425374456860184,5.413603522005833,inf,,0.5875446144392211
283,1.455287232606842,-0.004850957442022807,0.0,1.0564432840511373,0.9869908322685302,0.807037221186677,2.591942586291174,1.394128112517842,,,0.62595550513784,7.159069707263043,inf,,0.8949978536732321
284,1.7515485834631181,-0.03503097166926236,0.0,1.0388281991582815,1.00659602719779,0.7086081745078837,4.317094629426859,7.238588345992466,,,0.6509067234006624,5.596423956335702,inf,,0.7150718899987049
285,1.2499129419013884,-0.012499129419013884,0.0,1.2556654216160488,1.2251984427529503,0.760535774053035,4.2612065207590435,54.2075087785335,,,0.6619902821573977,5.418603532422539,inf,,0.6056062166923206
286,2.6600167531109578,-0.026600167531109577,0.0,1.1665554320263067,1.1524861157220443,0.7132347841742946,3.6458420008920456,2.521356289000121,,,0.6652988471865258,6.620073206530356,inf,,0.574378992025108
287,1.281452360268503,-0.051258094410740127,0.0,1.3162483503797244,1.2711296984246223,0.78852669837939,3.953542164174911,15.630374536179405,,,0.6566669596287297,4.419151767312811,inf,,0.818951347348188
288,2.5576278085844324,-0.0341017041144591,0.0,1.0489836750723416,1.0462931081600477,0.8454647919053317,3.2316779858823734,4.040486081529329,,,0.6468212168108125,6.707084583519986,inf,,0.815340984967725
289,1.355193130449879,-0.00903462086966586,0.0,1.0686521545784922,1.0234565934392679,0.7147633057594454,3.928217728666399,10.273327134945287,,,0.6528756675646988,6.364139832393156,inf,,0.598890623701955
290,1.8997752513130866,-0.018997752513130864,0.0,1.1100362418709255,1.0785530816661553,0.7874616985665421,3.6288422472827957,3.189928434047209,,,0.6547956803312163,6.480311264155198,inf,,0.575792383091904
291,1.7909378040522146,-0.03581875608104429,0.0,1.0987521460871685,1.0808276148599107,0.808822630684947,4.554802304565822,14.25229791203316,,,0.6584896970785714,5.661361758772249,inf,,0.5735917281005535
292,1.5326579730391654,-0.015326579730391655,0.0,1.0989247080154652,1.0749749704689464,0.7883421765355467,4.040662011494449,20.40285898507353,,,0.6403206450210053,5.952243833954701,inf,,0.8317646149241061
293,1.276450010470934,-0.008509666736472894,0.0,1.3442090919742236,1.3010903159567404,0.8390913466015406,3.5385478609177428,1.9136211639168152,,,0.6403206450210053,6.283600969909143,inf,,0.8336371087222103
294,,0.0,0.0,1.3875372616552746,1.3513414781156559,0.7838405976707853,4.575406726361069,12.57519389220202,,,0.6566669596287297,inf,,,0.8880758312182052
295,,0.0,0.0,1.1061935782670813,1.0785234559552794,0.7130292277687625,4.04900948524184,12.029575266076364,,,0.6602640781246099,inf,,,0.8637291126654867
296,,0.0,0.0,1.1558999737386946,1.1229977825436135,0.7701266858113165,3.7869308120151293,5.304513148284716,,,0.6509067234006624,inf,,,0.9434600944289926
297,,0.0,0.0,0.8057665182676299,0.7589482158869895,0.6362621351885014,3.5946381220955486,4.2183399187973905,,,0.6233814453054027,inf,,,0.9369281326168617
298,2.2697952701710546,-0.007565984233903516,0.0,1.180070930749522,1.1051976083330428,0.784517702623312,3.996424686223239,4.834256305065615,,,0.6380535849069913,7.973577744827256,inf,,0.6826858483833708
299,2.1484344131667874,-0.0071614480438892915,0.0,1.2502919979117688,1.189578687688299,0.8323487069729222,3.891373979757552,9.950786306204247,,,0.6180765742263259,7.852216887822989,inf,,0.6986298627689913
300,0.937336344044541,-0.01249781792059388,0.0,1.0619717516449545,1.0436190960443672,0.7497935788495109,4.435768370838248,11.838073768934594,,,0.6602640781246099,5.237954216820946,inf,,0.8358037655043941
301,1.161649412216484,-0.027105152951717962,0.0,1.4228878093325485,1.416889646276553,0.8145445197141744,4.138534213387272,71.93836440891275,,,0.6822068148872973,4.7821725813044464,inf,,0.7513623204513797
302,2.1160447890326552,-0.028213930520435405,0.0,1.0162625868959514,0.9666501319196756,0.7639064041235782,3.2464960672836707,2.161221007584535,,,0.6528756675646988,5.8507368876128645,inf,,0.6829052577877461
303,,0.0,0.0,0.5768835385196787,0.4902310159470204,0.6009873926417273,0.9181494327349311,0.6817255621613404,,,0.648888643467878,inf,,,0.8742830872168181
304,,0.0,0.0,0.9161505893986351,0.8850249141205309,0.7584595673781053,2.458349525223454,1.0584130764776747,,,0.684994737851132,inf,,,0.6530034575189926
305,,0.0,0.0,1.4986817039764482,1.5032613310823424,0.8808756185517722,4.0549446165945735,12.098929808967833,,,0.6619902821573977,inf,,,0.9492137075706721
306,0.7619360120522267,-0.005079573413681511,0.0,1.2535957030902232,1.2029803921125788,0.7498256880260342,3.7199702360325624,7.560625065179385,,,0.6284777104787076,5.769210279978656,inf,,0.6504995744965122
307,,0.0,0.0,1.238315833885747,1.212482355161064,0.7690060649916596,3.790989756149802,2.1575485539542782,,,0.6233814453054027,inf,,,0.7947352348552804
308,,0.0,0.0,0.8279026214191081,0.769685891750079,0.6342898538161227,3.2102604250329665,2.594947941402367,,,0.6619902821573977,inf,,,0.7013626836331683
309,,0.0,0.0,1.4605379158976337,1.4533437406356484,0.8249304764804429,3.938579643702901,1.8510744020874017,,,0.6509067234006624,inf,,,0.9113421925130207
310,,0.0,0.0,1.2239163913243023,1.1860362188866085,0.7887744130619885,3.5801883812429587,28.69524679956838,,,0.6584896970785714,inf,,,0.9162515596926883
311,0.96462989804764,-0.012861731973968534,0.0,0.977107364679689,0.958276605796624,0.6351705555777067,4.067368037405784,12.448955017993233,,,0.6602640781246099,4.98920001337619,inf,,0.737774986507852
312,1.6219314945315917,-0.016219314945315918,0.0,0.9127590023945746,0.7786489352361162,0.6863701149726532,4.804902923455455,9.408648815625087,,,0.6403206450210053,5.831615846166086,inf,,0.8959331834987952
313,2.08306651439727,-0.020830665143972703,0.0,0.9434785378234202,0.923232898049456,0.750532402473268,4.136021603735306,5.683866868083689,,,0.6284777104787076,5.801762883016405,inf,,0.6721816350133325
314,2.0712028660297026,-0.020712028660297026,0.0,1.0099215080560815,0.97116911337227,0.732308242663934,4.0929450887568795,7.943394025827556,,,0.6403206450210053,6.54003049885682,inf,,0.7227009484024225
315,2.773389362923268,-0.018489262419488454,0.0,1.0621061273799426,1.0341174420759445,0.714812108207589,3.4781402144709377,5.744226507874359,,,0.6447042257417027,7.536363938404511,inf,,0.8712254150773753
316,,0.0,0.0,1.0801290691321395,1.056267141060894,0.8161157596391843,3.1262234320297013,2.113954713892823,,,0.6668815377411301,inf,,,0.9557838897029686
317,1.5761280687634023,-0.010507520458422681,0.0,0.9593474911028472,0.9051949069143321,0.7558417043164858,3.3394140242329597,2.9909846378884053,,,0.6333676938231112,6.248509650097873,inf,,0.7396765206559082
318,3.2188758248682006,-0.010729586082894002,0.0,1.3046828925789136,1.2808837138482891,0.8220989975133081,4.933355867326848,15.976220250303317,,,0.6528756675646988,8.922658299524402,inf,,0.8392384760052406
319,,0.0,0.0,1.1088518121954054,1.0910518507560703,0.7475719271087268,3.1249460221171206,1.4168869664679442,,,0.6528756675646988,inf,,,0.7407892934589969
320,,0.0,0.0,1.2368848284584266,1.21928117415358,0.7366859137664081,3.9038038694253974,7.5309715771950225,,,0.68318204999448,inf,,,0.902158516954961
321,1.91959284073794,-0.0063986428024597995,0.0,1.0297661853151525,1.0085394155069867,0.6845426858372334,4.314923044318924,14.342853420021154,,,0.6652988471865258,7.623375315394141,inf,,0.6557669797196733
322,,0.0,0.0,0.8253414273958487,0.750212601338033,0.6351684747788546,2.4856916853525695,1.1946445933760415,,,0.6822068148872973,inf,,,0.8895931259062373
323,,0.0,0.0,1.0933603186880028,1.0363880292245566,0.7578441776086208,3.0415796968931583,1.678747570930068,,,0.6619902821573977,inf,,,0.7152341145362667
324,,0.0,0.0,0.59884192017289,0.5173110724488368,0.579520832693414,1.564140790818057,0.7986875354934553,,,0.6790044388599258,inf,,,0.7823249638671689
325,1.529395204760564,-0.005097984015868546,0.0,0.9375208311098995,0.9230700989385717,0.8263523719795968,3.027822914148746,1.4191725620695634,,,0.6425374456860184,7.233177679416765,inf,,0.7534895266556485
326,2.70805020110221,-0.009026834003674034,0.0,1.0880635878856513,1.0521622876906684,0.7338672673865857,3.3090788434443996,2.844957495266371,,,0.6566669596287297,8.411832675758411,inf,,0.8519496969659345
327,,0.0,0.0,1.297297599328188,1.2697400940657892,0.8180755506309373,3.885824145285438,4.866731489394482,,,0.6153451465759925,inf,,,0.8687766292597034
328,1.5089095865605096,-0.015089095865605095,0.0,0.9420104469369514,0.8944372353290283,0.6752770709042545,3.901433569859854,8.66329869523679,,,0.6403206450210053,5.914503505971854,inf,,0.8271251754518892
329,1.8008853025721148,-0.024011804034294863,0.0,1.265661804679625,1.2476457756677113,0.7353054632005283,4.08782469764346,6.17786182289108,,,0.6619902821573977,5.8901120528476945,inf,,0.738604446740592
330,,0.0,0.0,1.2791024547718273,1.25836583812542,0.7849935969013091,3.7897771425969204,3.509158571626006,,,0.6447042257417027,inf,,,0.7933048473569472
331,2.2013414797997712,-0.014675609865331809,0.0,1.0304772594179346,1.0175022985481719,0.6687066093114427,4.1238853390111325,4.155536838179999,,,0.6684167106117298,7.202872329921436,inf,,0.7017290343654102
332,1.3590502684778558,-0.009060335123185706,0.0,0.902438755116771,0.86970932543197,0.7424769895111152,4.4906931835394355,10.086921302428328,,,0.6619902821573977,6.33866074709217,inf,,0.8900487665559846
333,,0.0,0.0,0.6001742456668351,0.5130817910619941,0.7002802604724475,4.049447501566627,9.469132359652146,,,0.6425374456860184,inf,,,0.6442659068557332
334,,0.0,0.0,1.5527028912671792,1.5483719027749325,0.8424697605210394,4.685673150721782,12.370544326897331,,,0.648888643467878,inf,,,0.8788641370308977
335,,0.0,0.0,1.3331127022136018,1.3094374273136813,0.7770621890152901,3.9636875015028474,7.848365034893172,,,0.6180765742263259,inf,,,0.9035480651438661
336,,0.0,0.0,0.9481140447039254,0.9303781964330731,0.7034545505696113,3.8518383158519653,4.056109159215413,,,0.6668815377411301,inf,,,0.7908957978049295
337,,0.0,0.0,1.6256911628593242,1.5811853429452833,0.8066631368925917,3.590339223100222,14.38857945786835,,,0.6790044388599258,inf,,,0.9017705619078119
338,,0.0,0.0,1.0746680457577942,1.049930654075394,0.7400323983246887,3.820473304834448,13.489125012817412,,,0.6668815377411301,inf,,,0.9198293785237301
339,,0.0,0.0,1.2032878571361767,1.1511507839971167,0.8106554499276191,3.901334671755648,4.807840281523255,,,0.6528756675646988,inf,,,0.9362710630431422
340,,0.0,0.0,1.1105287582738685,1.0283094651830826,0.6221993693323644,4.189582850771054,181.3342352016414,,,0.6509067234006624,inf,,,0.9361516216295622
341,,0.0,0.0,1.214092761591354,1.185561003276497,0.7986635847301782,5.098086313014215,7.995785638207011,,,0.6380535849069913,inf,,,0.9106997425086476
342,,0.0,0.0,1.2545885208468457,1.2346787046149958,0.7482952817549986,3.8409960332291178,17.44513908458326,,,0.6528756675646988,inf,,,0.8554261244913858
343,2.1525327967688765,-0.014350218645125843,0.0,1.2668967570863916,1.243346229919438,0.7447745549057914,3.9844568893879675,5.762148069706949,,,0.6727386042041725,6.843216757844566,inf,,0.7521073144143593
344,2.316308266209767,-0.054047192878227894,0.0,1.1814771189246742,1.1319674738215697,0.7377795837428539,3.362514073972807,3.11571562493404,,,0.6509067234006624,5.762118051669164,inf,,0.7168949316443427
345,1.1555326968799897,-0.007703551312533265,0.0,1.293145716157337,1.2692995896164563,0.8823261931997313,3.728793331349106,3.5116750600936784,,,0.6547956803312163,6.16581793425276,inf,,0.6271643368255516
346,0.9948208937652533,-0.009948208937652534,0.0,1.2454272880996968,1.2134560992799703,0.793600086445971,4.1994202152376845,3.901504735767234,,,0.6284777104787076,5.549631794828943,inf,,0.644295537843454
347,1.8572696004472569,-0.012381797336315045,0.0,1.2168281962768372,1.181299660558686,0.6638246023237814,4.444997703841218,10.548260534282557,,,0.680118107274185,6.864270167042398,inf,,0.6682061363295259
348,,0.0,0.0,0.9369825327973661,0.8826521445589809,0.7688609154105432,4.079111622547633,18.61833927637741,,,0.6380535849069913,inf,,,0.9173324878663436
349,0.7240069586206098,-0.0072400695862060984,0.0,0.9350143476103866,0.8811488075231036,0.7286899441328796,3.5134735888569786,7.824740100930997,,,0.6097226960127671,5.327631754216812,inf,,0.6457574908520134
350,1.351866828812079,-0.02703733657624158,0.0,1.1183340329340845,0.9983201458514621,0.6680242579106135,1.958986733061786,1.7282775773777628,,,0.6403206450210053,4.770306918027945,inf,,0.7193282464481324
351,1.8343705930646834,-0.018343705930646836,0.0,0.9084497478273328,0.825037330876953,0.6266955518285399,2.2139413087487463,1.3728027027773013,,,0.6509067234006624,5.82783512332618,inf,,0.6721842179886236
352,1.7165852908570451,-0.0743853626038053,0.0,1.3117167470523239,1.1978380906482118,0.794402235933724,4.029986947498302,1.9736648323226875,,,0.6403206450210053,4.394549159672772,inf,,0.7740077111914256
353,1.1527319361002462,-0.011527319361002462,0.0,1.2625279740849396,1.2635480074526155,0.7870853862132003,4.140359413149085,6.036036853109044,,,0.6207552362147116,5.65182273572549,inf,,0.806963995278077
354,,0.0,0.0,1.6345322960545567,1.6242527397291289,0.9394907914933506,6.17637184244888,121.41834021594617,,,0.585052858160615,inf,,,0.9131779239507731
355,0.0,0.0,0.0,1.2326491901552736,1.1964602659413668,0.8379657459193457,3.8969945407920927,4.374021046690258,,,0.5604843169999094,5.703782474656201,inf,,0.7454930016664345
356,1.3599770528025172,-0.004533256842675058,0.0,0.9817238192999812,0.9398913657274638,0.8255655558938187,3.746996613741556,3.715008009177466,,,0.5677978065141052,7.063759527458719,inf,,0.8805777309287445
357,,0.0,0.0,1.1356972224953998,1.1017698619948104,0.8236895933787326,3.5365205733175373,6.804114741626421,,,0.6207552362147116,inf,,,0.9147263015544344
358,0.37106368139083207,-0.0012368789379694402,0.0,0.8553469824652911,0.8134152633506483,0.5610291428728473,3.4210163809207272,4.3014447791575074,,,0.62595550513784,6.074846156047033,inf,,0.6202292978262718
359,,0.0,0.0,0.6913807495738656,0.6629285704674044,0.6044187404922764,3.032346231312759,6.626207473115519,,,0.585052858160615,inf,,,0.8467681583501744
360,1.8268903081220114,-0.03653780616244023,0.0,1.0957091866790651,1.0580295877377408,0.7596904931845524,3.8174284404116325,4.363752303525283,,,0.663668482632973,4.938314632516629,inf,,0.7834602286067142
361,0.44109228575131554,-0.0014703076191710518,0.0,0.9547131026783556,0.8793680883184681,0.6764535679676046,3.216703496757091,2.6771206839501396,,,0.6038851895711802,6.144874760407516,inf,,0.7990538545982065
362,0.9675840262617056,-0.0032252800875390186,0.0,1.197371508923089,1.167309223842954,0.8751915500620099,3.0755635492961564,2.888135521710762,,,0.5915533975974677,6.671366500917907,inf,,0.915206167142489
363,,0.0,0.0,1.114561468926468,1.0805783981086785,0.8134297572759998,2.949372442534139,2.688054809627246,,,0.5158180382284114,inf,,,0.9085973951886557
364,,0.0,0.0,1.713493260205471,1.6826457738562126,0.9599285212003196,3.0211091681509648,3.2847647704142013,,,0.4732203808476458,inf,,,0.7841336343132058
365,,0.0,0.0,1.7405856750775506,1.7263138276376075,0.9732866596510878,3.347810282636107,2.8213575780742843,,,0.4302020962658841,inf,,,0.824191752194137
366,,0.0,0.0,1.7406656294091272,1.7125682353560692,0.9735853425710336,3.9875196768654315,16.200587016217394,,,0.4576907132971797,inf,,,0.8095454619107136
367,,0.0,0.0,1.716495160465933,1.6803503101655517,0.9602965007400687,3.281555126959364,2.5450267717345016,,,0.48319206230712763,inf,,,0.8349579176240451
368,,0.0,0.0,1.4039891063852254,1.4116320590152929,0.8794500070291459,3.1749993157429275,3.6036222019529,,,0.5287703885177266,inf,,,0.8708145119684644
369,,0.0,0.0,1.613503872817367,1.54695561127547,0.9013885187714696,2.488675536746102,2.31614164135277,,,0.5158180382284114,inf,,,0.8108992081585417
370,,0.0,0.0,1.7165686183612296,1.6889389485735151,0.9551876222393313,3.0537519201515293,5.213827770172239,,,0.5202020156036558,inf,,,0.8315497242555671
371,,0.0,0.0,1.649512155121638,1.6486369712086517,0.9286236723164029,2.5097452030064424,2.6126429249933274,,,0.5287703885177266,inf,,,0.8582604339021026
372,1.0336008219069266,-0.017226680365115443,0.0,1.026868730072804,0.9104119338653086,0.6011521422225207,3.2342044732610424,3.477833596701424,,,0.5713653840954815,4.675354242845196,inf,,0.7158285926168185
373,2.0445134251111363,-0.020445134251111365,0.0,0.6293252536747513,0.5319721078493815,0.6356304624241617,2.015094042390673,1.7138865427299126,,,0.62595550513784,5.991464547107982,inf,,0.7214437211121845
374,,0.0,0.0,1.5121716658879112,1.435589608102223,0.886484545822977,1.815855825692938,2.3146830094244937,,,0.5783247308855777,inf,,,0.8158638797684358
375,,0.0,0.0,1.0142517323179463,0.9946862573349812,0.8779557080462145,1.7726709933199354,2.1209708849320625,,,0.5202020156036558,inf,,,0.8820487685281719
376,,0.0,0.0,1.1790371180662582,1.1523828560742782,0.7697813717366856,1.8483564294202928,2.229591138295402,,,0.5567373465730988,inf,,,0.8540329011934857
377,,0.0,0.0,1.0377030648298466,1.0093743910115576,0.7397716524736083,2.0901166464318894,3.211099861338119,,,0.5202020156036558,inf,,,0.8685762295847504
378,,0.0,0.0,0.630611199347999,0.5799836716284901,0.6960213909150517,1.7656152252362904,1.717642911778954,,,0.6008849035917525,inf,,,0.8826188577156371
379,,0.0,0.0,1.3072200416677595,1.2878265708098446,0.9048910082904923,1.8944218092457097,1.9328748941267913,,,0.5329562494928909,inf,,,0.8255667984216679
380,,0.0,0.0,1.6475945579522695,1.590840601461634,0.9446403293419279,1.7591903558872373,2.499160944926708,,,0.4880666971167561,inf,,,0.7882739663334358
381,,0.0,0.0,1.656932651627278,1.6371076223422034,0.9354999014707438,1.7607219041076485,2.3730515746305656,,,0.49759852643134905,inf,,,0.7958761068932698
382,2.931254795024463,-0.03908339726699284,0.0,1.029300932399793,0.9751329430503319,0.6524117655164833,1.8206397643224508,1.7635265796003683,,,0.552929491858785,7.217910207285977,inf,,0.8925439931133718
383,3.0997913314488605,-0.030997913314488604,0.0,0.8155687936425945,0.7375616318341502,0.6061550203317994,2.179985260771963,2.303569085485478,,,0.5113665138247345,7.669895331029034,inf,,0.7591234780030223
384,,0.0,0.0,1.7284311391160103,1.7063706447524032,0.9697343151205955,2.31398081967444,3.6933570671100298,,,0.5113665138247345,inf,,,0.8309989082226517
385,,0.0,0.0,1.705986322673217,1.6855747898794033,0.9531259534962288,2.5407258222631763,3.151828654220842,,,0.4576907132971797,inf,,,0.823635979007698
386,,0.0,0.0,1.7430027310292031,1.7311202535127692,0.967269793041971,2.4842565556475216,2.93185442735423,,,0.47824363442641393,inf,,,0.8429435403012248
387,,0.0,0.0,0.7469296741063702,0.7287579506396171,0.5210982230755076,3.233251281286669,10.892078424027913,,,0.48319206230712763,inf,,,0.906862220686894
388,1.0012912842870252,-0.013350550457160337,0.0,0.9708570675827375,0.9408231052076523,0.6881250147561638,3.7483651985474116,5.308555399020323,,,0.6357360191111145,5.313995179267266,inf,,0.7574078073479438
389,,0.0,0.0,1.7059140175267515,1.6979598841396968,0.9435509642524533,4.426098302889582,21.556138754342935,,,0.5287703885177266,inf,,,0.8700972909076937
390,,0.0,0.0,1.7284574002009312,1.6999397459664267,0.979096814750711,3.8646120609756407,4.335461007662681,,,0.4732203808476458,inf,,,0.8273964220780833
391,,0.0,0.0,1.7490789401409357,1.726197401088367,0.9591841177813274,3.8939679160931613,33.383874404421334,,,0.552929491858785,inf,,,0.8751950916884236
392,,0.0,0.0,1.7574858433147054,1.7308631406925095,0.9711852435082092,4.740294017293083,30.98570634080528,,,0.5068466436745385,inf,,,0.8696621348113801
393,,0.0,0.0,1.7601685589300433,1.736642103949428,0.9560600260285799,4.070695753217619,65.4373486573142,,,0.468121228110369,inf,,,0.8715496463983914
394,,0.0,0.0,1.7618437451868805,1.7397665453851723,0.9509939667692742,4.319622938105802,46.57030047926962,,,0.49759852643134905,inf,,,0.8460492971309337
395,,0.0,0.0,1.0095966087385102,0.946005942235443,0.7524792049858305,2.8368293424174613,2.90592283118692,,,0.6008849035917525,inf,,,0.908650417428579
396,,0.0,0.0,1.3812024955911846,1.3642038883049152,0.8412293967970808,2.6131994570393005,2.9242364965561354,,,0.5783247308855777,inf,,,0.8343147859918305
397,0.6799019538099246,-0.0022663398460330817,0.0,0.8424562854985596,0.8163446901266549,0.7091770550712847,2.808686237189725,4.212616097447037,,,0.5451288209179292,6.383684428466125,inf,,0.7608960918968642
398,,0.0,0.0,1.6377257830177272,1.6117380551192946,0.9350424303399139,2.995487571718741,2.850765113603117,,,0.5329562494928909,inf,,,0.8282478768630525
399,,0.0,0.0,1.1919239285475423,1.1718172831721918,0.666508886522951,3.5668873887251533,21.931334740216194,,,0.5748741956352443,inf,,,0.8274254345048424
400,,0.0,0.0,0.8463668963610448,0.8203084572943706,0.7111979248311115,3.9444529159024038,7.9711467909618925,,,0.5370774965580548,inf,,,0.9298215768922707
401,,0.0,0.0,0.6435578157572066,0.5754310913364226,0.650979038439693,3.077815536435016,2.1848364839062997,,,0.541134803179459,inf,,,0.9365751820888105
402,,0.0,0.0,0.7320906216476475,0.6869635732535273,0.6544038356585717,3.7398839316377646,3.291609399534097,,,0.4880666971167561,inf,,,0.8763917250403985
403,,0.0,0.0,1.528439222861696,1.5123606104946568,0.8958745621620341,3.41722220289468,5.249321010212819,,,0.4928685327679205,inf,,,0.8894734939246732
404,,0.0,0.0,1.7751252187016817,1.7465615692912269,0.945206871541541,4.172695629991466,13.695475665919023,,,0.5068466436745385,inf,,,0.8101727324004212
405,,0.0,0.0,0.7969161312624773,0.7773932893697951,0.8216264573153684,3.2377631456315203,2.1247436832555286,,,0.5370774965580548,inf,,,0.7785620183652151
406,,0.0,0.0,1.7290134762158758,1.7498024503320813,0.9229412233923414,3.442315667365237,4.917579576575614,,,0.48319206230712763,inf,,,0.8738922101493095
407,4.0943445622221,-0.013647815207407002,0.0,0.7710994166537573,0.7487628378269245,0.5311655828494015,2.8635263627125838,3.3078234832159796,,,0.5022576003740722,9.798127036878302,inf,,0.9271437970080778
408,,0.0,0.0,1.7052755965021897,1.6870123654154388,0.9171909194481062,2.9753206590206585,4.153212993283246,,,0.5202020156036558,inf,,,0.8789351011374066
409,,0.0,0.0,1.3227656231942337,1.3035422520898161,0.820623430540334,3.199742598865324,3.162931064315402,,,0.5202020156036558,inf,,,0.9005507927829293
410,,0.0,0.0,1.7468694283029267,1.726535682968752,0.9524227822652561,3.072162340442878,5.10295422533274,,,0.49759852643134905,inf,,,0.8718860105543764
411,,0.0,0.0,1.754034460356428,1.749473447039802,0.9495532853441009,3.150005697514675,5.7049723501984175,,,0.5068466436745385,inf,,,0.8331049529379734
412,,0.0,0.0,1.5124378078645258,1.5051382408248897,0.9468688902201168,3.0363325892480737,6.319616589525726,,,0.4732203808476458,inf,,,0.8521920200718335
413,,0.0,0.0,1.7040385557470674,1.6793671944666257,0.9487154135481938,2.557559483013095,3.9712287927697143,,,0.48319206230712763,inf,,,0.8200978706708717
414,,0.0,0.0,1.6863330304017101,1.6609415522947029,0.9630840426797795,2.503433944293525,3.343871254608074,,,0.4928685327679205,inf,,,0.8386488219575661
415,,0.0,0.0,1.4833482895677876,1.4625268766317154,0.9135494683358262,2.7684737985152297,2.550996509197177,,,0.4732203808476458,inf,,,0.8403589801895323
416,,0.0,0.0,1.7266922746893147,1.7080124112048503,0.9722565153794698,2.35838621768103,2.5522888111478217,,,0.4928685327679205,inf,,,0.8197959889045493
417,,0.0,0.0,0.9270378756252252,0.9087357348211967,0.666696781747744,2.80800371434199,2.847782663434748,,,0.49759852643134905,inf,,,0.9064167457077124
418,,0.0,0.0,0.91025749939802,0.8627633705882871,0.7801831885867834,2.9619275192231505,3.1113513399561175,,,0.5567373465730988,inf,,,0.8440257890975046
419,,0.0,0.0,1.4426145256238034,1.4164538456648337,0.9156534322117432,2.6474628009468817,2.5477540590780534,,,0.4928685327679205,inf,,,0.8204887188652709
420,,0.0,0.0,0.7995185368207613,0.7726863811085565,0.737406274991236,2.1819867473984322,2.5503119918013937,,,0.4880666971167561,inf,,,0.8359306500195222
421,,0.0,0.0,1.2344095670296669,1.2315306822798187,0.8450084661712708,1.7518789929082805,1.6643869331295071,,,0.552929491858785,inf,,,0.8348515527510905
422,1.74066171307072,-0.011604411420471467,0.0,0.7957076900857446,0.7615131968288644,0.6035440471194132,1.9958769896939836,2.5086297625292344,,,0.581717464821069,6.707084583519986,inf,,0.8976401680090914
423,,0.0,0.0,0.6841508005796177,0.6266993079078773,0.7322566318487086,2.344286314843922,2.687740178557703,,,0.5490601803369085,inf,,,0.8705200967697468
424,,0.0,0.0,0.7457181592441178,0.6820322520924691,0.6451453278842929,2.676862003477615,3.0156740147506573,,,0.524519217297268,inf,,,0.8510157140373465
425,,0.0,0.0,1.1560333108787917,1.1465924167755017,0.7683936205879195,2.0034032540407543,2.2853766006255793,,,0.5287703885177266,inf,,,0.8433775549284064
426,,0.0,0.0,1.3963121708821253,1.3630957738226308,0.869775035048904,2.2432894644597985,2.1678264350259644,,,0.5068466436745385,inf,,,0.8417117296600757
427,,0.0,0.0,0.5966573348611164,0.5651470987121578,0.6346426804222707,2.421611678649876,2.58607997173933,,,0.5567373465730988,inf,,,0.8288964110333331
428,,0.0,0.0,1.573860458823483,1.5465134211600513,0.937493755239012,2.706142182944125,2.109488158364861,,,0.43586655696697996,inf,,,0.825971639338655
429,,0.0,0.0,1.09865457976023,0.9879859547189206,0.7748830151854119,2.2828609369779564,2.122960082033773,,,0.49759852643134905,inf,,,0.8943468788398645
430,2.667260207605999,-0.017781734717373324,0.0,0.5256023074977599,0.45299293750995584,0.6096314460472056,2.3431698068771785,2.2171211602211036,,,0.5713653840954815,7.173458444715143,inf,,0.7206516235482758
431,2.445685936634719,-0.008152286455449062,0.0,1.147094910324062,1.1324824842341328,0.8572395299033397,3.5916980562291183,3.6673403116491987,,,0.4880666971167561,8.14946841129092,inf,,0.7587373650392055
432,3.0647251450409425,-0.010215750483469808,0.0,0.9676904668617333,0.9602946874293344,0.7510469909193144,3.3294531537658205,4.656519224838549,,,0.6284777104787076,8.768507619697143,inf,,0.922525443342814
433,1.0418512920622698,-0.03472837640207566,0.0,1.4189203994356836,1.3902674005734121,0.8421290382761211,4.342316364094683,2.719657595797334,,,0.6468212168108125,4.249829465062495,inf,,0.7130650837229213
434,1.8371059838552948,-0.02449474645140393,0.0,1.1110172578587467,1.0825374367679772,0.758316857161948,4.714398880675046,59.90695903174275,,,0.6584896970785714,5.194958853560883,inf,,0.7874410451342254
435,1.3799657563255843,-0.04139897268976753,0.0,1.2433891956920498,1.2102998706799086,0.7492443581513052,4.57838833368877,7.0502152297991305,,,0.6713451011121618,4.677740878822926,inf,,0.5817449186002122
436,2.4849066497880004,-0.008283022165960002,0.0,0.9355321963291364,0.8361981734085955,0.7307949595809135,3.2817581445265707,4.022751038992734,,,0.6425374456860184,8.1886891244442,inf,,0.8292766507563267
437,0.29661070319608235,-0.000988702343986941,0.0,0.7409977922281995,0.6685154309423198,0.6228700519583384,3.2605372313050798,3.8278314127911646,,,0.6207552362147116,6.000393177852283,inf,,0.7560424588323843
438,0.7280006574884121,-0.01698668200806295,0.0,1.346319209273031,1.3089412852933735,0.7786900394688308,4.024698110533083,2.1137637298772685,,,0.6447042257417027,4.367904599450327,inf,,0.7225425312827344
439,0.9454439788281696,-0.022060359505990623,0.0,1.1476283321222254,1.1235361317424502,0.7507806343579861,4.179474108144158,16.915921535986428,,,0.6403206450210053,4.62537289330561,inf,,0.615595916205282
440,1.3523491544195654,-0.02704698308839131,0.0,1.053320394056988,1.0388828628472333,0.7198639106924445,4.210970713250404,22.40582032452656,,,0.6699045166045591,4.56594947283481,inf,,0.6959654771754384
441,1.2264456601779945,-0.00817630440118663,0.0,1.262804043220541,1.227343688313511,0.7810912317053966,3.65671692127965,5.433048239623131,,,0.6097226960127671,6.187209124234077,inf,,0.8798041771037285
442,,0.0,0.0,0.9323095937150617,0.9080464236500505,0.7583640071065011,2.847794785386855,3.1738792419855537,,,0.6233814453054027,inf,,,0.7155733391499313
443,,0.0,0.0,0.8800249875031164,0.8603790190788159,0.7395801097843892,3.0539644447882064,2.969118628343786,,,0.6153451465759925,inf,,,0.9398547447095471
444,1.3176299182650573,-0.017568398910200764,0.0,1.0973438877066697,1.0632766167634629,0.7341472257781183,3.3843435938202475,6.103624648102075,,,0.5915533975974677,5.590453789349198,inf,,0.6696052445556204
445,1.5831133256058898,-0.015831133256058897,0.0,1.2452437339655495,1.2022764510569997,0.8213490110658759,4.1394680154322945,18.608264252588654,,,0.6284777104787076,6.041588934290551,inf,,0.8783815982329679
446,,0.0,0.0,0.7457983344790292,0.6528582563396501,0.6144865474505384,2.89261126504581,3.8845051320750685,,,0.5713653840954815,inf,,,0.7831579105797581
447,0.4942963218147801,-0.001647654406049267,0.0,0.5469833619706004,0.5134691708753076,0.5254521360131976,2.8437022581430895,2.429562422649452,,,0.6125606311107803,6.198078796470981,inf,,0.8930084832199384
448,1.5071412713304226,-0.03014282542660845,0.0,1.0591014537831693,1.014567767253667,0.8024899685215966,3.6353014253470004,10.335129344989447,,,0.6403206450210053,5.2111208215178815,inf,,0.6756088679330664
449,1.6882176967814604,-0.02813696161302434,0.0,0.9470507702680291,0.9295859794710202,0.746743324026395,4.172339513194202,12.51221037664388,,,0.648888643467878,5.426150738057921,inf,,0.673808683177549
450,2.035350897289282,-0.02035350897289282,0.0,1.300294791179522,1.2591472284422909,0.7858114101414325,4.115760324268525,35.32032791484607,,,0.6509067234006624,6.509725149361491,inf,,0.8201713497473733
451,1.1091507432941663,-0.014788676577255551,0.0,1.288791855949294,1.293128902720984,0.7335290877770162,4.090335327017178,5.5744292496059815,,,0.663668482632973,5.21520245983753,inf,,0.8715996579881673
452,1.2570288800001264,-0.020973031522620658,-0.004167546077381869,1.0994842111685594,1.0284970383715513,0.7217244694194123,3.5799889287640263,3.6914480258068543,2.1333883609652413,,0.663668482632973,5.047991080640025,1.9052265724188697,inf,0.6578990084193042
453,1.4316679665746876,-0.014316679665746875,0.0,1.121071753476302,1.1104687163269398,0.6819446457839003,4.019371371453572,6.455983895408354,,,0.6668815377411301,5.590453789349198,inf,,0.5690307278331961
454,0.8256747961530557,-0.011008997282040743,0.0,1.2604390957943454,1.2229893821873747,0.7660433478754748,4.184310628861332,17.878260094474534,,,0.6528756675646988,5.115995809754082,inf,,0.6571999223602648
455,1.6102165990332828,-0.016102165990332828,0.0,1.2709238247795154,1.263441775860817,0.7236339074871497,5.173071793853799,12.437003668550773,,,0.675384900321601,5.421112944027964,inf,,0.6442725052720681
456,0.896346619194073,-0.005975644127960486,0.0,1.246139980703192,1.2405185519519575,0.7397125978276403,3.6123901642787564,3.5082020921832244,,,0.6509067234006624,5.906306738767675,inf,,0.5324750213552877
457,2.397090365466421,-0.015980602436442806,0.0,1.3492068645078852,1.3248192061027946,0.8265632927904505,4.907837643896396,38.07383977391876,,,0.6566669596287297,6.370612346898773,inf,,0.7418431155169606
458,1.5453084483471262,-0.030906168966942527,0.0,1.3877389041915367,1.381627315395413,0.7946660751890454,4.659120914041864,4.624789541518836,,,0.6713451011121618,5.065443530591251,inf,,0.8358727436963206
459,1.4992262012472621,-0.024987103354121038,0.0,1.112548518080018,1.0748516295587696,0.6882730924197455,3.829028463175942,11.731414664501814,,,0.6425374456860184,5.3050063546988335,inf,,0.6880677669533304
460,1.6874265090828644,-0.016874265090828646,0.0,1.1609390649743467,1.1298428471549564,0.7686711124762592,4.369003534895875,2.1787313870703047,,,0.6566669596287297,6.231415216738573,inf,,0.5674484476214907
461,0.7320260782127169,-0.007320260782127169,0.0,1.2970650399067132,1.2766852050321005,0.7755307027073212,4.4310085953244585,20.757562823293604,,,0.62595550513784,5.32306553623723,inf,,0.8646792365544608
462,0.23995066963059103,-0.0007998355654353034,0.0,1.031865875081432,1.0018017114799072,0.7881722121589286,4.485660239489426,5.48653449967439,,,0.6619902821573977,5.943733144286792,inf,,0.866529087428431
463,1.233170994395137,-0.020552849906585617,0.0,1.3015614225492775,1.3100756331910886,0.7919788110340503,3.438019742336223,10.389225429512777,,,0.6509067234006624,4.949226665967612,inf,,0.6683687349063786
464,1.5235347212546149,-0.015235347212546149,0.0,1.0717932687924263,1.0449260868600385,0.6938683576198882,3.839945449599633,6.0206789003137615,,,0.6403206450210053,5.798093154127442,inf,,0.9005063914718552
465,1.000828896896122,-0.006672192645974147,0.0,0.898252347841837,0.8162666394745263,0.7383317778332389,3.315869757410748,7.51921028320349,,,0.6008849035917525,6.000393177852283,inf,,0.6776881431450308
466,2.1287366962155745,-0.03547894493692624,0.0,1.2708036304795867,1.2437654095443675,0.8162754734834053,3.357442302124716,3.664812124208586,,,0.6284777104787076,6.176456332457816,inf,,0.6095180120758552
467,2.271969421181035,-0.03786615701968392,0.0,1.114123913039152,1.0743269485911557,0.7437284342796677,4.6112582037536605,18.737708104075672,,,0.6602640781246099,5.952243833954701,inf,,0.825626967230592
468,1.3862943611198906,-0.0046209812037329686,0.0,1.1369850559495442,1.1085305779688845,0.7585640324985994,3.917023965408098,2.6121586864135407,,,0.62595550513784,7.090076835776092,inf,,0.7632392786814908
469,2.5762452770173225,-0.025762452770173225,0.0,1.006885660487283,0.9820792524977583,0.6922085958159758,4.135418840012028,5.947846489990967,,,0.6509067234006624,7.090076835776092,inf,,0.8778697333189002
470,1.8822783980714837,-0.01882278398071484,0.0,0.9458719971923915,0.9329888435384348,0.7080945814589981,4.25453771080576,16.207470164359894,,,0.6727386042041725,6.307698521488204,inf,,0.6230357271076307
471,1.638747897583685,-0.04916243692751056,0.0,1.1509780236823068,1.1313544594517062,0.720352273637157,4.118389757850759,27.141082658409903,,,0.6425374456860184,5.081415476157303,inf,,0.7955454469399231
472,2.6566785461342852,-0.026566785461342855,0.0,0.9630409351256752,0.9383867697374547,0.7585838731951723,3.381500654821266,3.964021029867933,,,0.6566669596287297,6.941656830657818,inf,,0.8542234842242203
473,1.055431705844088,-0.00703621137229392,0.0,0.8710087095700799,0.8221457670177355,0.7467583808467797,3.209914935815227,4.453078797456923,,,0.6309483474627791,5.982614931831,inf,,0.7313205718820687
474,0.35667494393873245,-0.0011889164797957749,0.0,0.8504243480653068,0.8030001557118462,0.7462556305525366,3.3858213142790037,2.2060855307874916,,,0.6447042257417027,6.060457418594933,inf,,0.887378697891348
475,1.2039728043259361,-0.004013242681086454,0.0,1.1419351767500758,1.1011998425501368,0.8047091045413428,3.8499547389317126,4.454664658129523,,,0.6233814453054027,6.907755278982137,inf,,0.8258955086050965
476,,0.0,0.0,0.6381059116624871,0.600057496333849,0.5739970496268606,3.2137795684414243,3.4514805548322878,,,0.6309483474627791,inf,,,0.6445572113652045
477,0.17832953552441716,-0.0005944317850813905,0.0,1.0001989485053997,0.9567375670885094,0.6771248872064325,3.692223996973368,6.265139182071661,,,0.6468212168108125,5.882112010180618,inf,,0.6997222671892988
478,0.4662100569020194,0.00011683303758583787,-0.0032249000835993004,1.14074437065732,1.0911137079027906,0.6906756876961634,3.404375196498401,1.8497143290632465,1.2499387352803288,,0.6008849035917525,5.44141821018871,1.2299482907291965,inf,0.6189906797221709
479,,0.0,0.0,0.8264639749973449,0.8136014040664641,0.5788731380000157,4.833666002608575,37.768759793929085,,,0.5915533975974677,inf,,,0.8289641978855611
480,1.3093333199837622,-0.0043644443999458745,0.0,1.2894453617440762,1.258299847938672,0.8382076974834431,3.3437785991516895,3.233276105324362,,,0.6566669596287297,7.013115794639964,inf,,0.8320677288768067
481,,0.0,0.0,1.4039415004434752,1.3940031883496995,0.8370109884028066,3.9176114460367466,34.244809398152455,,,0.6207552362147116,inf,,,0.8402724074944126
482,,0.0,0.0,1.185124664690989,1.1574155667642814,0.6897314955250374,3.6601567576318654,2.067464649601493,,,0.5883313578629602,inf,,,0.8084289973885528
483,,0.0,0.0,1.3428950852873005,1.3172597527210361,0.8100782594435462,3.8662697055020714,17.91542199999219,,,0.5915533975974677,inf,,,0.9235360269895496
484,,0.0,0.0,0.9083071629968014,0.8919299371327756,0.7390867086368077,3.3118444411441166,7.226183039001221,,,0.6008849035917525,inf,,,0.769924785582186
485,,0.0,0.0,0.9252939369099757,0.8792368797496221,0.6623296049578816,3.0391609580937535,2.6045208794991592,,,0.6153451465759925,inf,,,0.8224415797942053
486,1.8139291116329581,-0.017540666282130482,-0.006645055206308959,1.1585280330975425,1.1116511674729637,0.6838336100604915,2.318218188533755,0.8562383804755562,1.6127104407562391,,0.6668815377411301,6.099297251911198,1.594695630696897,inf,0.7812533112310638
487,1.0796273230422955,-0.007197515486948637,0.0,0.9233269184965456,0.8631382166995828,0.6995237074196642,2.3162142159747585,1.2491155460727095,,,0.6547956803312163,5.816577968801545,inf,,0.7704794041264577
488,1.6487501522722943,-0.038470836886353534,0.0,1.2104000949516032,1.157245083176991,0.7719360154010411,2.9498787549782968,1.530094601914664,,,0.6652988471865258,5.3768796890511386,inf,,0.7821732289698112
489,1.421969397854377,-0.01421969397854377,0.0,1.243069967093047,1.2264063821306512,0.7756116682776026,4.534127721085603,17.637350693605722,,,0.6403206450210053,5.886104031450156,inf,,0.7377689542046465
490,1.1428029063780507,-0.011428029063780506,0.0,1.1260036836035012,1.0711474033218826,0.7034590795485643,4.629507554532331,6.369516757017645,,,0.6778444222523095,5.645513566532225,inf,,0.6931351946022669
491,0.4307829160924542,-0.001435943053641514,0.0,1.0747606375191991,1.065889591965702,0.7186085821297871,4.5997021161333524,18.352508090501416,,,0.6380535849069913,6.134565390748655,inf,,0.8065775812190061
492,1.0070099849838527,-0.026853599599569407,0.0,1.306309287400939,1.292966085710996,0.7621029573761183,4.128121371615274,15.593282087971673,,,0.62595550513784,4.485906765161274,inf,,0.6897789227557519
493,,0.0,0.0,0.742465137551262,0.6886485777667952,0.697294383227963,3.9998900099865393,29.559539931273743,,,0.6584896970785714,inf,,,0.6647832008759864
494,1.791759469228055,-0.005972531564093516,0.0,0.9488237701212893,0.9328064134798817,0.7053117003139088,3.971001469048573,4.708573279371346,,,0.6403206450210053,7.495541943884256,inf,,0.632191811502256
495,1.7813349640920095,-0.029688916068200157,0.0,0.8900989682761952,0.835518848255947,0.7135337390135786,3.549545006021757,2.5757680542979142,,,0.6713451011121618,5.820316290912153,inf,,0.6716423101362512
496,1.6540053334680187,-0.011026702223120124,0.0,1.1861003957902496,1.1581828071394777,0.7459984889467557,3.8066492057433,1.7156120575379998,,,0.6547956803312163,6.571283042360924,inf,,0.8096257254785186
497,2.3315868020578274,-0.031087824027437698,0.0,0.8882418479801486,0.7839554232727592,0.6762635538574311,3.0140364066630547,2.9680447170566073,,,0.6357360191111145,6.532367626111251,inf,,0.7601605138080564
498,,0.0,0.0,0.6995159138860932,0.6190852433705748,0.7147572396487423,1.5294469368727994,0.9564995147035653,,,0.6652988471865258,inf,,,0.9505368972832983
499,1.5606477482646683,-0.005202159160882228,0.0,1.2495832632984136,1.2384891302361607,0.7139473736469905,3.866323802226101,5.294143952471355,,,0.6528756675646988,7.264430222920869,inf,,0.7595174606945844
500,0.9659707499139587,-0.006439804999426391,0.0,1.3382176608547094,1.2962299137261306,0.7822123268024493,4.246285988326111,9.863912262076118,,,0.6619902821573977,5.707121375921716,inf,,0.618858644102225
501,2.9311937524164198,-0.009770645841388067,0.0,1.253957516079999,1.2352869743239778,0.7476146889173835,4.376907589451769,3.7554025344013713,,,0.6547956803312163,8.63497622707262,inf,,0.9287259989875224
502,1.0338309564110524,-0.010338309564110523,0.0,1.1828284439223253,1.129204157705496,0.6847571447525888,6.2028654822232205,33.46578354482308,,,0.6619902821573977,5.504931615911036,inf,,0.7276444621511138
503,,0.0,0.0,0.9758170271963966,0.9543464194807103,0.6634296386328784,3.309707741503831,4.289501938374285,,,0.6528756675646988,inf,,,0.8815980623843894
504,1.381550581722915,-0.02302584302871525,0.0,1.156990047864773,1.118051225509157,0.7149472367634654,4.877750520580788,42.35435745327359,,,0.6566669596287297,5.391407789614049,inf,,0.6362156243898767
505,0.516396668815446,-0.00172132222938482,0.0,1.255500700168085,1.2465945910136709,0.7910002919746836,4.749649578352271,36.458424850508145,,,0.6547956803312163,6.220179143471647,inf,,0.8422634552523196
506,2.138025047236685,-0.03563375078727808,0.0,1.1391848152153403,1.0358239309842756,0.6548249698976278,4.262777444804877,34.203055305069995,,,0.6447042257417027,6.074846156047033,inf,,0.8185423616335444
507,,0.0,0.0,1.2745577517771902,1.2373450123158536,0.7968680893087394,4.092697793057104,5.331365021147337,,,0.6509067234006624,inf,,,0.5884291081419055
508,1.7582472668161961,-0.04688659378176523,0.0,1.2670442235595214,1.2294174389953687,0.7872992087912579,4.07043767384922,13.474522322269742,,,0.663668482632973,5.207055775269712,inf,,0.7117097188341851
509,,0.0,0.0,0.9506765269807333,0.828848022722892,0.6320399836103159,2.5911922016548767,1.8243235271307974,,,0.6727386042041725,inf,,,0.7732820106694991
510,1.1358663147556405,-0.007572442098370937,0.0,1.2350685302340643,1.23343749327368,0.7053987615423256,3.906240819259849,14.10076508597389,,,0.6380535849069913,5.783547443125063,inf,,0.7611077723176659
511,1.262603964252281,-0.050504158570091245,0.0,1.0966384200618562,1.0473321033934253,0.6603479588858729,3.6767762787871505,18.33634099016631,,,0.6778444222523095,4.130317222680918,inf,,0.7183420590138002
512,0.6658610021470847,-0.004439073347647231,0.0,1.4344781546689407,1.3948010533628237,0.8541541466942146,4.460387729971282,27.354563909328824,,,0.6097226960127671,5.617604778415148,inf,,0.8461994780332959
513,,0.0,0.0,1.3957202608105037,1.3550340070369746,0.7692411119029845,4.4150848831020095,115.03241341168207,,,0.5883313578629602,inf,,,0.9099801591573209
514,,0.0,0.0,1.502810484337851,1.4955803130714869,0.883019102811076,4.745712144513695,72.88328804042587,,,0.6233814453054027,inf,,,0.9276847129573753
515,,0.0,0.0,1.113861208942794,1.0232794676418246,0.7115895447301213,3.77886191974271,35.918387518054224,,,0.6125606311107803,inf,,,0.931509243247912
516,,0.0,0.0,1.2743915261581256,1.2516681805742378,0.7353907057546837,4.10845780969407,55.686107417570206,,,0.6068309995095971,inf,,,0.8114331173673689
517,1.321876520485865,-0.04529493918429901,-0.007580121635135586,1.0602229723721472,1.0002118126242432,0.7531949342944859,4.802037475980833,91.28417092464456,3.8106555201998114,,0.6357360191111145,4.222935796595087,3.7506419482321682,inf,0.7485347421383979
518,1.6424609343105443,-0.06022356759138662,0.0,1.2935370092394287,1.2636279118169176,0.7931336438987937,4.247676703722183,6.410591963099584,,,0.6509067234006624,4.415468521896514,inf,,0.7080572903439707
519,0.6457345736887236,-0.004304897157924824,0.0,1.1751204908500559,1.1480264224790755,0.8171354488118342,4.5884821946242855,6.436054990336335,,,0.6547956803312163,5.524242560824123,inf,,0.6574823779164342
520,2.0258718161314193,-0.033764530268856986,0.0,1.2374697931160665,1.23110825684981,0.751664719038076,4.560264608410028,2.547213563935558,,,0.6509067234006624,5.943733144286792,inf,,0.6853173004256243
521,1.8681712904353323,-0.024908950539137765,0.0,1.2151485455218392,1.162401150881372,0.8208533598781843,4.362384413398009,12.33663558552816,,,0.6380535849069913,5.8507368876128645,inf,,0.8456459816686278
522,1.3588856634398183,-0.027177713268796366,0.0,1.331796913482285,1.299871048992844,0.7516567867262389,4.012964870995867,2.6100799867872455,,,0.6547956803312163,4.98757002116526,inf,,0.8065667641153885
523,1.207572760459617,-0.02012621267432695,0.0,1.252601291501734,1.2000119672425955,0.7892149589766111,4.2974674356408356,11.593589653134652,,,0.6153451465759925,5.129043525146558,inf,,0.9209430733291435
524,,0.0,0.0,1.0912335598670573,1.0235607798618906,0.7830279369257438,3.6642690787699483,6.677553792411324,,,0.62595550513784,inf,,,0.8034084255253998
525,,0.0,0.0,1.1384443629327017,1.1252880705990236,0.7804803950618298,3.624591512078757,5.4840543369573,,,0.5604843169999094,inf,,,0.9250305903614785
526,,0.0,0.0,1.445822383690775,1.4203190222521302,0.8463251974042093,3.590499612605876,19.526983926680572,,,0.581717464821069,inf,,,0.9189676325856049
527,,0.0,0.0,1.343598416991775,1.310500848553613,0.8550940815303065,3.768476057533104,4.23137556516763,,,0.6180765742263259,inf,,,0.9026096153683619
528,,0.0,0.0,0.7297677451596667,0.709028889230211,0.6437232416880656,3.3050006837262584,11.730990438502369,,,0.6333676938231112,inf,,,0.9420179390402839
529,2.000929223887746,-0.020009292238877457,0.0,1.0793953062477917,1.0484485093237992,0.7596977209277791,3.9257789462162416,2.702689146425485,,,0.6403206450210053,5.922768015821747,inf,,0.7181527756838623
530,1.0154095190512145,-0.013538793587349525,0.0,1.1198787196190465,1.1021562776283518,0.7455151212692259,4.159524394142829,9.63687328615374,,,0.6180765742263259,5.119706389150617,inf,,0.8378792112506718
531,1.4411025976148857,-0.004803675325382953,0.0,1.1352178018963786,1.0604766265822942,0.7368213946288067,4.039988747722911,5.362327500731716,,,0.6528756675646988,7.144885072271086,inf,,0.8246871609794324
532,1.4805324558606427,-0.014805324558606427,0.0,1.2770839702111834,1.2185169284168866,0.7469452477894271,3.6772843051022512,5.441374365085242,,,0.6822068148872973,6.0048875674401225,inf,,0.750381293237199
533,1.5481051294562878,-0.011423995056437528,-0.009217406669646308,1.0376863812638404,1.004290447170013,0.6563152908285633,3.9487555982058713,3.3248310674849866,5.565476229646736,,0.6668815377411301,5.835410917134637,2.627715053011324,inf,0.8672211715296044
534,1.8125873068624714,-0.012083915379083142,0.0,1.266814627344281,1.261262750992925,0.7496159510836136,4.286188625306242,27.86540568767466,,,0.6528756675646988,5.973842945758163,inf,,0.6879530169793894
535,1.91985117192426,-0.0127990078128284,0.0,1.1543748809736616,1.1411880979528366,0.8090987983440273,4.3638768746179695,4.083677848016155,,,0.6425374456860184,6.930228134834196,inf,,0.6446293436144241
536,1.6577264385712684,-0.027628773976187807,0.0,1.0361553476857606,1.020920852415488,0.7065765186104414,5.108667893050973,33.49024693456644,,,0.6713451011121618,5.521460917862246,inf,,0.7692241271083313
537,2.1999821676802744,-0.014666547784535163,0.0,1.035972780663854,1.0311198005715634,0.7686211455754117,3.5462759213822252,2.207294463534054,,,0.648888643467878,6.82259747064183,inf,,0.8041593538893389
538,,0.0,0.0,0.9596021490149418,0.9215790335276037,0.6775040524434186,3.3590000175536185,4.877287007383134,,,0.6357360191111145,inf,,,0.7243790769991785
539,,0.0,0.0,0.8691363022998095,0.7577474836815568,0.7042154778974873,1.9452063256324366,1.2830877610266855,,,0.6619902821573977,inf,,,0.8422222935006298
540,1.9756235392963588,-0.026341647190618118,0.0,0.869897799901321,0.8109278130337023,0.6934348699658068,4.3540114819927105,7.801853740243632,,,0.6509067234006624,5.783547443125063,inf,,0.5698395388536072
541,,0.0,0.0,0.948381257989779,0.9293076083361957,0.7214990982054073,4.434014565062584,3.7409391561924794,,,0.6547956803312163,inf,,,0.7071844888464948
542,,0.0,0.0,1.0005473339095028,0.9766729027215206,0.6818578195401873,3.5489771903720464,3.5335769641365964,,,0.6284777104787076,inf,,,0.77999524139353
543,0.7270487322356266,-0.0024234957741187555,0.0,0.8280335258006902,0.8081698911787208,0.745203698943647,4.029052451138682,9.865785264452867,,,0.6333676938231112,6.430831206891828,inf,,0.7199846040937875
544,2.0661963149298153,-0.006887321049766051,0.0,1.0039559518357108,0.9986928625853547,0.6640236971410014,4.584312637403856,24.144430674830275,,,0.6468212168108125,7.769978789586016,inf,,0.8707926101023494
545,,0.0,0.0,1.0324052718215093,1.0069688192712702,0.798439146687812,3.4150402172653953,2.702541422106774,,,0.6447042257417027,inf,,,0.750959944999984
546,,0.0,0.0,1.0664132970090237,1.0004566931491798,0.7237861587809167,4.259537275123584,8.363663207395271,,,0.6509067234006624,inf,,,0.878323467948326
547,,0.0,0.0,1.368385547182136,1.3093621801398692,0.8463943862734228,3.1660632585384074,3.4625762409094523,,,0.6547956803312163,inf,,,0.880356776749447
548,1.477343574014294,-0.019697914320190586,0.0,1.1056874087098456,1.0926110808087066,0.7107547811320583,4.286993733191934,11.114935249362343,,,0.6602640781246099,5.680717201725205,inf,,0.5946718712098792
549,0.7765287894989963,-0.0025884292983299876,0.0,0.9568290322337583,0.9400401679281863,0.6254663630022269,3.7876949683145535,19.896768874553928,,,0.676637947632344,6.480311264155198,inf,,0.6919420326872706
550,1.4896014858013902,-0.009930676572009267,0.0,0.9857520272830074,0.9603098517022343,0.7748421490132136,3.154023467544511,3.009364952317801,,,0.6584896970785714,6.49491006357635,inf,,0.6130238239511241
551,,0.0,0.0,1.0536620628833295,1.0391250802414116,0.7321640401459265,3.4102390743705695,2.8332013551590447,,,0.6740851607140061,inf,,,0.809600988206878
552,,0.0,0.0,1.2610057162678723,1.2003303772323244,0.7144108886609918,3.48495957211696,4.865589482137397,,,0.6668815377411301,inf,,,0.8716398206718113
553,0.8997614299229445,-0.002999204766409815,0.0,1.2752022673552634,1.2725227271185469,0.8374866767475996,3.3831885283724965,2.730641661532995,,,0.6684167106117298,6.603543904579146,inf,,0.8459767169735395
554,2.4699331116040244,-0.01646622074402683,0.0,1.2068978194180568,1.1819344322314915,0.7259737122516429,3.7666364258930423,4.833628621200974,,,0.6380535849069913,7.313220387090301,inf,,0.6419735244185347
555,2.4078101554744777,-0.02407810155474478,0.0,0.8899189357199104,0.8547243950758624,0.7007072875476399,2.956125950552826,1.9961811652004195,,,0.6652988471865258,6.517215821090648,inf,,0.8616151004817478
556,1.7334905611040792,-0.00577830187034693,0.0,1.0759086833040516,1.0441379393298218,0.7193160758944321,4.517405836335262,10.3370909493877,,,0.675384900321601,7.43727303576028,inf,,0.8291992510604258
557,,0.0,0.0,1.262040170427704,1.2385479603773215,0.7725650317315382,3.4984779849957404,4.695239318416421,,,0.6668815377411301,inf,,,0.9099637848060208
558,1.7334905611040792,-0.00577830187034693,0.0,1.102837520332855,1.0797948800574688,0.7769435140603943,3.495428375125629,4.5716243062323105,,,0.6652988471865258,7.43727303576028,inf,,0.7545720879671092
559,1.921155975193688,-0.025615413002582507,0.0,1.1869349422083815,1.171373725984618,0.7661066630688445,3.6977322880588948,10.207655071574186,,,0.6547956803312163,6.198078796470981,inf,,0.7007261061095021
560,,0.0,0.0,1.2825932466739782,1.2537257157982407,0.7907359550243641,3.6828816270421174,2.971922032287884,,,0.6403206450210053,inf,,,0.7440978492842604
561,,0.0,0.0,0.9114946457102502,0.8068572089598719,0.5612251366148967,4.351226928785732,4.658553689086953,,,0.6684167106117298,inf,,,0.9059512196237259
562,1.9902104079518934,-0.006634034693172978,0.0,1.3372926854006728,1.3198824068149386,0.6601784095054255,4.412858662825365,21.77472676391292,,,0.6713451011121618,7.693992882608094,inf,,0.7406354548146913
563,1.5766480896111095,-0.005255493632037031,0.0,0.9103845386110123,0.880220109790951,0.8152559863100473,3.7596831961591155,2.3331782805016728,,,0.6333676938231112,7.280430564267311,inf,,0.8263357072229327
564,0.5389965007326869,-0.0017966550024422897,0.0,1.0769449502833013,1.0550958342410486,0.7033354091733116,4.354065047458745,2.4239252820373514,,,0.6713451011121618,6.242778975388888,inf,,0.8374716981439702
565,1.6714642367690897,-0.011143094911793931,0.0,1.2759532476679833,1.2489023640716812,0.8521462376054437,4.454784708800035,4.940221812152499,,,0.6584896970785714,6.680177130600062,inf,,0.9074964205137812
566,1.9926474629176623,-0.03985294925835325,0.0,1.2047241203887635,1.1690714074298236,0.7181742613591735,3.3131582667356803,4.180197551821318,,,0.6584896970785714,5.744604469176456,inf,,0.6878828818707651
567,1.8719027029895012,-0.01805951403206414,-0.0068991886744625445,1.362537866873366,1.305418705602059,0.7179342810784956,3.626396158550406,4.001884401885786,1.8922263041483536,,0.6790044388599258,6.176456332457816,1.5935224571282007,inf,0.6846232836827616
568,0.9246589815446716,-0.0030821966051489055,0.0,1.0552154177571955,1.036300525512671,0.695117523237524,3.4611650950015758,6.377446795374016,,,0.6619902821573977,6.628441456200873,inf,,0.6221073694047904
569,,0.0,0.0,0.8228170753293265,0.7700902190500009,0.6223095943082415,3.2953482907585245,2.561817858925691,,,0.675384900321601,inf,,,0.6546199743235085
570,2.70805020110221,-0.009026834003674034,0.0,0.9872876772114317,0.9520118298930015,0.6073664603878888,3.58878019057189,7.489411595252321,,,0.6566669596287297,8.411832675758411,inf,,0.7337719142626596
571,,0.0,0.0,1.024022930631955,0.955447127333731,0.5835462072540127,3.894722573484647,10.125522141253883,,,0.680118107274185,inf,,,0.7674481925931264
572,,0.0,0.0,1.0683887897360482,1.0443956615454049,0.7186138346236468,3.5321057159374702,3.78269326749525,,,0.6822068148872973,inf,,,0.8654504179109137
573,,0.0,0.0,1.2700644670368926,1.2215394877461156,0.8433225443723009,3.444816257462839,2.995411094788931,,,0.6566669596287297,inf,,,0.9228892159790588
574,1.5929086104828898,-0.005309695368276299,0.0,0.9431892104977416,0.921343995150891,0.6895747511976804,3.365187929162771,4.073560474797672,,,0.6547956803312163,7.2966910851390905,inf,,0.8226489561999156
575,,0.0,0.0,1.3331546341992708,1.2670936109059348,0.7447649473746714,4.354862104340859,11.436907009232955,,,0.62595550513784,inf,,,0.8013669021060409
576,2.659260036932778,-0.00886420012310926,0.0,1.2435808040657361,1.2014552513348933,0.7663629106020439,4.089884777932615,5.264074714669679,,,0.6380535849069913,8.36304251158898,inf,,0.7765727236738896
577,1.822758438497498,-0.026663012077137567,-0.009792156692812392,1.16943279424158,1.0990717828329344,0.7289653617001471,4.744414372948194,11.99105941808476,3.405569415317711,,0.6468212168108125,5.510411081675661,3.1245651453969594,inf,0.5553728320480851
578,0.647536669307893,-0.0021584555643596433,0.0,1.0654253466960824,1.0048903961769835,0.7447845992295106,4.287155172988145,2.313516407400428,,,0.6333676938231112,6.351319143964094,inf,,0.7360034472725011
579,,0.0,0.0,1.0817889393716955,1.0657619616315832,0.7165525076080186,4.051475795099092,13.639427429241433,,,0.6447042257417027,inf,,,0.9302371090532321
580,,0.0,0.0,0.8985672421589819,0.9029658104346959,0.7505853452275407,3.617165011303749,2.2877255624169623,,,0.6447042257417027,inf,,,0.7179129770318149
581,2.456322677275744,-0.024563226772757442,0.0,1.0960465502240029,1.0584655812813817,0.7688871684958782,4.186780794906968,1.6630966710528599,,,0.663668482632973,6.689066078017308,inf,,0.8107536302149336
582,1.0038523006186921,-0.008382185789744031,-0.00500251155183853,1.247310292257519,1.1912235794539747,0.7031676815676433,4.731261166826245,61.60673808648976,2.0443796198313717,,0.684994737851132,5.151814907559035,2.0510574223624007,inf,0.6826327526809514
583,1.0119609366928826,-0.013492812489238434,0.0,0.9926022775518248,0.9760024572234776,0.6649211151164071,4.086938117042777,2.271844664678216,,,0.648888643467878,5.0849997093851185,inf,,0.7785994242815037
584,0.8517522107365838,-0.002839174035788613,0.0,0.8535108279369998,0.7720587812375744,0.7355172050544163,3.3539099819978775,3.891718855392362,,,0.6357360191111145,6.555534685392785,inf,,0.8699096888538456
585,,0.0,0.0,1.1259293461415267,1.0961884862011353,0.8210823849580361,3.4350942660431554,3.1859803675030993,,,0.6333676938231112,inf,,,0.9421723348415216
586,,0.0,0.0,1.1820570662645316,1.1490445599987522,0.7892564109584638,3.322939298612617,3.6554606294344443,,,0.6153451465759925,inf,,,0.9478147112169085
587,0.9246589815446716,-0.0030821966051489055,0.0,1.1183664566691143,1.0226385749208091,0.7387337058624226,3.601262943625072,5.022846196026753,,,0.6125606311107803,6.628441456200873,inf,,0.8868910508030605
588,1.7628012355669807,-0.017628012355669808,0.0,0.9737023331213258,0.9595106158404783,0.6973697639942611,2.986665520513517,2.9225227243374463,,,0.6652988471865258,6.33866074709217,inf,,0.7706215940209533
589,,0.0,0.0,1.2142590682663468,1.1550031726401349,0.7537872258919923,3.4505642878770475,3.3504953064922276,,,0.6668815377411301,inf,,,0.8579710532260243
590,1.856182348920083,-0.02474909798560111,0.0,1.2779575482277632,1.2253498627812003,0.7918189759587398,3.5379849295552237,2.409140887446523,,,0.6619902821573977,6.104260041253326,inf,,0.640727960328116
591,1.629677467630855,-0.01629677467630855,0.0,1.1944164390048093,1.1621856218540303,0.7882173907229518,3.2507040458470606,2.6763002248930308,,,0.6468212168108125,5.906306738767675,inf,,0.7522809471767805
592,,0.0,0.0,1.5602478135285252,1.4795496460900561,0.9030765432506531,4.830035013765126,93.30060831969523,,,0.6447042257417027,inf,,,0.9219743933468659
593,0.0,0.0,0.0,1.245468814926019,1.2546390212529417,0.8169369552763346,4.424580408767239,5.680682718992482,,,0.6309483474627791,5.703782474656201,inf,,0.834581240797641
594,,0.0,0.0,1.32289175270413,1.2952301208284376,0.8728592534153552,3.7352756372169162,5.38316490055019,,,0.6566669596287297,inf,,,0.8894172726911308
595,0.8754422850701792,-0.008754422850701792,0.0,1.2117053707712764,1.2038654712856376,0.7518948650041606,3.7996993455288424,6.308553704690346,,,0.6309483474627791,5.332218918223718,inf,,0.7492985592974409
596,1.735842159948752,-0.023144562132650027,0.0,1.0537721443202552,1.0164405025462953,0.6983681589046287,4.082727295473779,9.750687721544185,,,0.6038851895711802,5.209086232820094,inf,,0.5299033091182057
597,2.17742195004004,-0.007258073166800133,0.0,1.148581881843819,1.1009341098170664,0.7610429316002634,3.592982196371937,2.776334952771807,,,0.6180765742263259,7.881204424696241,inf,,0.772942176145252
598,1.8004342883956115,-0.012002895255970742,0.0,1.1362585038285582,1.1355059973596389,0.7691383153828065,4.401452633000159,2.586962841127753,,,0.6425374456860184,5.765657878374289,inf,,0.5125514516437661
599,,0.0,0.0,0.8027466906254845,0.7756007047562772,0.7498689146384737,2.8337159852877725,3.4195085791327187,,,0.6699045166045591,inf,,,0.7031221549623412
600,1.7115626475887449,-0.01711562647588745,0.0,1.1462799926808795,1.1335869666269764,0.6816019378222143,3.5045014891610204,3.959430757335598,,,0.6566669596287297,6.000393177852283,inf,,0.5277984817432511
601,1.5519817763988435,-0.025866362939980726,0.0,1.2399495117469055,1.1653386164234538,0.7806358004793962,4.068298666128095,3.8777462378758516,,,0.6684167106117298,5.549631794828943,inf,,0.7426071174225441
602,1.0498221244986778,-0.0034994070816622594,0.0,0.9785794017999021,0.9488064708347104,0.7085983881425809,4.489032422056265,4.841094364045971,,,0.6547956803312163,6.753604599154879,inf,,0.5482893546971449
603,2.533219271819382,-0.06755251391518352,0.0,1.2901426101358575,1.267848133694884,0.7726776013712267,4.910430127051453,17.456000000194326,,,0.6602640781246099,5.242147095080982,inf,,0.6098670579529198
604,0.6770189747159184,-0.011283649578598641,0.0,1.1316823904143334,1.1159583760300207,0.7390304293138946,3.850803282929709,3.96211306027839,,,0.6380535849069913,4.741881231529994,inf,,0.8377373408768145
605,2.590514140012468,-0.01727009426674979,0.0,1.2747718165890984,1.2657004716277567,0.7601871962798022,4.448843485216623,15.53919019981205,,,0.6425374456860184,7.600902459542082,inf,,0.7463029918123474
606,1.6598086973348662,-0.011065391315565776,0.0,1.3175531223996966,1.2751235025688414,0.7472539606077069,4.028556748571375,8.907479866861754,,,0.6652988471865258,6.2370809542742505,inf,,0.8560973813306288
607,1.6762036087463617,-0.011174690724975744,0.0,1.1484321503755361,1.121277593000869,0.6678709851073308,4.153777246162141,3.7645371814521518,,,0.6547956803312163,6.2659013928097425,inf,,0.7905228815061073
608,0.8875615472750927,-0.017751230945501854,0.0,1.3087377568548442,1.2424344000277072,0.7879776565750976,4.520039873004536,5.361772405367534,,,0.6584896970785714,4.761174434464673,inf,,0.6710568814736193
609,2.5362553489071713,-0.016908368992714477,0.0,1.0724606826511014,1.0217336875292409,0.6982414765921179,3.605923048998629,2.874304374657594,,,0.6699045166045591,7.330027505406683,inf,,0.7430763077877985
610,2.8134107167600364,-0.009378035722533455,0.0,0.940162090803681,0.8814582133275051,0.7314314413925956,2.2379225036974018,1.4041037484240873,,,0.6333676938231112,8.517193191416238,inf,,0.7455376794452118
611,1.2802903490512179,-0.025605806981024357,0.0,1.2366437385661226,1.2203665999291005,0.7816736027529126,4.158792560087758,5.299344080555084,,,0.6602640781246099,4.960259086771189,inf,,0.5518435814043521
612,1.7269128223174464,-0.017269128223174463,0.0,1.2923039208944154,1.2979112472511256,0.8070585933189367,4.258053707954145,20.00071934658081,,,0.6727386042041725,6.15006957728462,inf,,0.7378374523747064
613,2.690849487743544,-0.01793899658495696,0.0,1.236658241339395,1.2005620814640896,0.8145983347954011,3.4690346343376097,7.811302033177279,,,0.6468212168108125,7.090076835776092,inf,,0.807521899055488
614,1.5224612588723812,-0.010149741725815875,0.0,0.7162051114960676,0.6964671762920559,0.5761027086961532,3.2679671488173394,2.390086801442486,,,0.6528756675646988,6.437751649736401,inf,,0.7074243986969666
615,1.8822689367739351,-0.0250969191569858,0.0,1.1162684014343685,1.1152414417964325,0.7521756071937092,4.021585540989527,11.17710964584993,,,0.6684167106117298,6.032286541628237,inf,,0.818913074662999
616,2.0544975325389205,-0.020544975325389205,0.0,1.2110978768178589,1.1959280074846317,0.8169639306176073,3.5732770528155293,4.224657408284141,,,0.663668482632973,6.645391014514646,inf,,0.9336509927068604
617,3.0647251450409425,-0.010215750483469808,0.0,1.2514101387175716,1.2226309329495881,0.7304826528918896,4.023980295056497,5.922356125459589,,,0.6740851607140061,8.768507619697143,inf,,0.8096997422184924
618,,0.0,0.0,1.4884089510106502,1.5030466435127128,0.8313088183099067,4.089559479724035,18.617751313228116,,,0.62595550513784,inf,,,0.9400431564888461
619,,0.0,0.0,1.0611221919023055,1.0499079401492348,0.7186701214029078,3.6536677596525555,5.592249402663025,,,0.6180765742263259,inf,,,0.8647411536423376
620,0.8517522107365838,-0.002839174035788613,0.0,1.0346518033558767,1.0191986181525647,0.7358861790332544,3.5396882054552066,14.689487758062446,,,0.6403206450210053,6.555534685392785,inf,,0.7010663993443768
621,,0.0,0.0,1.2595956825706511,1.219842995037834,0.7481519557802723,3.3010653611172036,1.879769308125896,,,0.62595550513784,inf,,,0.8346227588786927
622,,0.0,0.0,1.07632748529987,1.0365886935311495,0.6898749057706876,3.6932018805437847,10.954452088084418,,,0.6333676938231112,inf,,,0.6837647342693103
623,1.594658511313328,-0.010631056742088854,0.0,1.2340972635363268,1.1997485426870167,0.7284101138764568,3.7899292110464224,22.970867201064507,,,0.648888643467878,6.47309101618171,inf,,0.7083504957274245
624,1.284941866859603,-0.004283139556198677,0.0,0.8820067389035448,0.8331877456771665,0.7242394209597456,3.353182163086354,6.250426346465478,,,0.6447042257417027,6.9887243415158045,inf,,0.6065104153960742
625,0.7621400520468967,-0.005080933680312645,0.0,1.0172950306812978,1.000740768254269,0.748434264131206,3.7064768155406242,12.842801275765414,,,0.6357360191111145,5.772775346143153,inf,,0.8763946066188261
626,,0.0,0.0,1.453910891127598,1.4275678720291354,0.8232781254187803,3.5867538833476336,8.200214588114873,,,0.6333676938231112,inf,,,0.940667852489178
627,3.624340932976365,-0.01208113644325455,0.0,1.3399531324118747,1.2962600954877816,0.7300511820796713,3.4967136983660043,2.878667066301829,,,0.663668482632973,9.328123407632566,inf,,0.6191675894438265
628,1.205023289789279,-0.008033488598595193,0.0,0.9813394269197331,0.9672596959513141,0.6760744869871372,3.9776561133297905,16.48570413015668,,,0.6509067234006624,6.129450290081885,inf,,0.8112299758245702
629,,0.0,0.0,1.379501700583972,1.3610623679862075,0.826794588747839,3.540489673028697,21.597368867661025,,,0.6447042257417027,inf,,,0.9250245506297199
630,1.791759469228055,-0.005972531564093516,0.0,1.082217390667681,1.0488828783025657,0.7631705660466607,4.379969131984782,14.937359086076315,,,0.6468212168108125,7.495541943884256,inf,,0.7062860268549417
631,3.0802704385759583,-0.020535136257173056,0.0,0.8444776346726955,0.745316612404864,0.6305840139307052,2.9240577213102723,2.0131777768336394,,,0.6333676938231112,8.040269119325927,inf,,0.6054925396291425
632,2.120263536200091,-0.00706754512066697,0.0,0.9066272071502489,0.8402135441437226,0.6716312666974169,3.0050629738984407,1.497762242529026,,,0.6468212168108125,7.824046010856292,inf,,0.7439986845370731
633,,0.0,0.0,1.2680651810104142,1.2396939538385938,0.786760520481636,3.541002909707751,7.3834374444410305,,,0.6528756675646988,inf,,,0.9404800757531941
634,1.6607312068216509,-0.005535770689405503,0.0,1.2060626481789902,1.0927480215349814,0.8102084364714166,3.14370481981795,5.277244561070928,,,0.5783247308855777,7.3645136814778525,inf,,0.7999256118621829
635,,0.0,0.0,1.1715761652970609,1.1690163793713568,0.7533084648765683,2.681006624824207,2.6798838238767537,,,0.5748741956352443,inf,,,0.7902046152352847
636,,0.0,0.0,1.4033414144899445,1.3908329179604118,0.8625464831635961,2.9826844561619543,5.81463808586742,,,0.5713653840954815,inf,,,0.8432373585570319
637,,0.0,0.0,1.411935132812513,1.4247593602653643,0.8172580395851796,2.2593736427250226,2.3701753139984003,,,0.6068309995095971,inf,,,0.7460411350421919
638,1.3712099336016503,-0.01828279911468867,0.0,0.902215383659597,0.8621840200023896,0.7974843498457771,3.154229688018347,7.1472793682637,,,0.5783247308855777,5.61150719854703,inf,,0.7681304671229664
639,,0.0,0.0,1.4080861766019017,1.3755452432787425,0.9290012745451364,3.0606294795965483,2.354577977087876,,,0.5490601803369085,inf,,,0.9114063169153049
640,,0.0,0.0,0.8175580274336457,0.7898368671451401,0.8814960400273948,2.970511626279694,5.533291112445884,,,0.48319206230712763,inf,,,0.8261531725269035
641,,0.0,0.0,1.1912463216135112,1.1610792571713955,0.9512741943042144,3.3194051160211657,5.780479315039208,,,0.552929491858785,inf,,,0.8289065505980369
642,,0.0,0.0,1.2778579700447976,1.2771206701948226,0.8166945073830287,3.1473855091562624,5.585704121048783,,,0.5677978065141052,inf,,,0.9003775768589304
643,,0.0,0.0,1.6592836640267123,1.6398691455130407,0.9556408920973319,3.630992602813146,47.78211481495789,,,0.5287703885177266,inf,,,0.872530356305395
644,,0.0,0.0,1.366283588388661,1.3578999482568936,0.8750889376212833,4.044256073531375,9.441890402672112,,,0.5978297680564633,inf,,,0.7567131829499276
645,,0.0,0.0,1.2533848557487315,1.221449608691215,0.8413292783690499,3.7576590715673377,6.2676588805487405,,,0.6153451465759925,inf,,,0.8984734965863224
646,,0.0,0.0,1.0604737278764518,1.022002042234057,0.767651617561892,3.9176331897834302,8.054001925460465,,,0.5783247308855777,inf,,,0.8637712060601879
