,hr+bvp_XAp0,hr+bvp_XAp1,hr+bvp_XAp2,hr+bvp_XCond1,hr+bvp_XCond2,hr+bvp_XDist,hr+bvp_XFuzz1,hr+bvp_XFuzz2,hr+bvp_XK2_1,hr+bvp_XK2_2,hr+bvp_XPermEn,hr+bvp_XSamp0,hr+bvp_XSamp1,hr+bvp_XSamp2,hr+bvp_XSpec
0,,0.0,0.0,1.275833981218229,1.211403735132636,0.7685869240984071,3.20143770355437,2.7724829016240937,,,0.6153451465759925,inf,,,0.9479849428806947
1,,0.0,0.0,0.8926708081960453,0.8623464402225641,0.7186587586755463,2.3076321676785008,2.0014703174880544,,,0.6380535849069913,inf,,,0.924081934720951
2,3.138833117194664,-0.010462777057315548,0.0,0.6853895506010133,0.6049986184816473,0.5451454872655942,2.593907847483357,3.4894847164309724,,,0.6602640781246099,8.842615591850866,inf,,0.7473619916649394
3,,0.0,0.0,1.15170368383171,1.1466521203838111,0.766182386696812,3.620833013111269,3.9561799003308,,,0.6357360191111145,inf,,,0.9277765669001915
4,,0.0,0.0,0.6946851264753279,0.6077187853531607,0.7261524515533996,2.5989563642163787,2.4195573254551035,,,0.6284777104787076,inf,,,0.7744638993672021
5,,0.0,0.0,1.0293735243842423,1.020781768027978,0.8154862815699987,2.1034217998817684,1.5694656627251207,,,0.6528756675646988,inf,,,0.8763465901329434
6,,0.0,0.0,0.8076740420146663,0.7507145812264385,0.6861487671780067,2.1261115018480297,1.363053806147276,,,0.6584896970785714,inf,,,0.8161608499511874
7,,0.0,0.0,0.7976737774237311,0.7359601298201655,0.6885371952191681,2.5107738214013735,2.79105228407796,,,0.6668815377411301,inf,,,0.8721397618218022
8,,0.0,0.0,0.7369072681075182,0.6762403171835422,0.5311310214202303,1.9640598438766046,2.1090101190942354,,,0.6584896970785714,inf,,,0.9496207039791134
9,,0.0,0.0,1.0944248787989896,0.9753547080892815,0.6987178329756406,2.15854346880038,1.9392023308140125,,,0.6584896970785714,inf,,,0.8877775947429155
10,,0.0,0.0,1.3507391641781887,1.3382114850717277,0.842841731843461,3.344927023702487,3.3507918158619594,,,0.6528756675646988,inf,,,0.9348852177944657
11,,0.0,0.0,1.5056008361366022,1.4888625591250537,0.8652089426091761,3.6590552445164652,24.15235915760357,,,0.6425374456860184,inf,,,0.9028433484284022
12,,0.0,0.0,1.2702769224972699,1.2161367060224078,0.7862152630494332,3.799575668014187,4.433262188176453,,,0.676637947632344,inf,,,0.9456793645136253
13,,0.0,0.0,1.5215948558392403,1.5127626486695478,0.8410890621973115,3.484047711304718,5.301512142060583,,,0.6566669596287297,inf,,,0.9024152361452623
14,,0.0,0.0,1.2946841258603792,1.2186840382651725,0.78540326392721,3.243504023326033,2.0098979810573545,,,0.6684167106117298,inf,,,0.9538674263298619
15,,0.0,0.0,1.3957297424637303,1.3836228650016043,0.8033913003265643,3.239943939932027,2.9314392920862105,,,0.6727386042041725,inf,,,0.9344387993734001
16,,0.0,0.0,1.4008984830588451,1.3976772368438954,0.7691868599321123,3.8322693005806445,5.302782347800585,,,0.6668815377411301,inf,,,0.8869408087350635
17,1.118814995985629,-0.0037293833199520967,0.0,0.8831407480045695,0.832614964689714,0.7122394573134656,3.481266089098015,5.843217528277967,,,0.6403206450210053,6.82259747064183,inf,,0.7752873123274405
18,,0.0,0.0,1.113144831382273,1.0741771621940466,0.8328401922581732,2.9981411539657343,2.452143547916792,,,0.6684167106117298,inf,,,0.9561687064905992
19,2.689848020273324,-0.05379696040546648,0.0,1.064579017644834,1.0445210696252725,0.8272044955352627,3.2476394490607734,2.932495013880451,,,0.663668482632973,6.209067918046577,inf,,0.7272745682318358
20,,0.0,0.0,0.9572495790158759,0.9437079209080552,0.6507237325365506,3.4924663680424017,7.799341702579969,,,0.6727386042041725,inf,,,0.8571519064270651
21,2.0928645620119766,-0.0069762152067065885,0.0,0.8302745275896313,0.7979021243229188,0.7204353415008107,2.936293137277849,3.7338378755708157,,,0.6566669596287297,7.796647036668178,inf,,0.894957057080228
22,3.0647251450409425,-0.010215750483469808,0.0,0.9559908124231328,0.9410528552291338,0.8144507810784869,3.4664170345379,6.7610712318304405,,,0.6425374456860184,8.768507619697143,inf,,0.671574572765057
23,1.9329409247151457,-0.012886272831434304,0.0,0.7401403280491927,0.6834418535052992,0.7230196435711705,3.047583775247339,3.1106620719067264,,,0.6509067234006624,6.864270167042398,inf,,0.6366708249525209
24,3.506557897319982,-0.011688526324399939,0.0,0.9329997840817009,0.9073618488074504,0.8806680552896874,2.9842265341918432,3.6295394159000938,,,0.6668815377411301,9.210340371976182,inf,,0.7237742648492882
25,,0.0,0.0,1.0441372153592066,0.9541684041566054,0.7875259491997826,3.3666130147197904,3.4851241724968918,,,0.6509067234006624,inf,,,0.7607019742861546
26,2.500672241344206,-0.041677870689070105,0.0,1.1120518647988458,1.0937752597302204,0.7487772011287586,3.960325757901595,8.79003786050849,,,0.6528756675646988,6.417132362533666,inf,,0.7767413004406061
27,,0.0,0.0,1.0040683860571396,0.9754425021285923,0.7067045926549635,2.861750264230069,3.4744376646547637,,,0.6403206450210053,inf,,,0.8558662691231397
28,1.5929086104828898,-0.005309695368276299,0.0,0.682417164642761,0.636928544384646,0.5843689717352355,2.426322672145666,2.264197874107086,,,0.6403206450210053,7.2966910851390905,inf,,0.8131053137318387
29,1.5141277326297755,-0.005047092442099252,0.0,0.8114904588428666,0.7761833590852654,0.7359802359570586,2.5268730190017834,2.110787431557258,,,0.6468212168108125,7.217910207285977,inf,,0.6849521599194246
30,1.181993897607161,-0.003939979658690537,0.0,1.1826176797095782,1.1287487435892072,0.6845596743513792,3.253177500847461,2.8615701595687946,,,0.6528756675646988,6.885776372263361,inf,,0.5850522815018019
31,2.431817456728038,-0.03461518077601459,-0.005915110169452712,0.9785037027403557,0.9336345264209186,0.6633168418244615,3.1133272799424656,2.3651644332708215,1.6144561496662626,,0.663668482632973,5.8546053643907845,1.6211339521972916,inf,0.8992796074938224
32,,0.0,0.0,0.8399710892915372,0.7659746155705063,0.7211850848951424,2.686730209798393,1.8791612849560067,,,0.6403206450210053,inf,,,0.7319161894408625
33,,0.0,0.0,0.8192022705163569,0.741649941838608,0.6427354108024304,2.5682758868025135,2.2609106620417068,,,0.663668482632973,inf,,,0.9474752835793236
34,,0.0,0.0,1.0118707853167763,0.9657007036495652,0.7564598347854772,2.5144603580406923,2.4220458185895866,,,0.6528756675646988,inf,,,0.9404957376458102
35,,0.0,0.0,0.7984108718164544,0.7618909543306108,0.7082691435259502,2.1595925359781574,2.017890202798606,,,0.6509067234006624,inf,,,0.9435487934936573
36,3.6566101935451507,-0.04875480258060201,0.0,1.0908872786267971,1.0810791566015325,0.8234462205123061,3.016717800097251,3.379841693852469,,,0.6528756675646988,7.495541943884256,inf,,0.9234449924552657
37,,0.0,0.0,1.1799971876338446,1.143628818028664,0.7779141973687378,3.4020555783806095,2.0831108571965156,,,0.6547956803312163,inf,,,0.7443120888612093
38,2.289426438835359,-0.01526284292556906,0.0,1.034219267525208,1.0187520122959335,0.7614728907565169,3.1916097319979255,2.9497631559803206,,,0.6584896970785714,7.2966910851390905,inf,,0.7663740852246351
39,,0.0,0.0,1.0561573076407296,1.0465928300894691,0.8225594769670155,2.981592414749151,2.0929878456779374,,,0.648888643467878,inf,,,0.9493946325629424
40,,0.0,0.0,1.4016076364776344,1.3416597826763177,0.7964541901295256,4.395364256052184,5.915649696297942,,,0.6699045166045591,inf,,,0.6542314574330373
41,,0.0,0.0,1.264792505726217,1.2538726012653592,0.7810437775343253,4.176805285321471,7.372528483693658,,,0.6713451011121618,inf,,,0.8536465722889913
42,,0.0,0.0,0.9020139009656474,0.8884246342439439,0.6586503110745706,2.6770316717556972,1.9277327641126547,,,0.6619902821573977,inf,,,0.7969080619756473
43,1.6481184730128344,-0.01098745648675223,0.0,0.9659795888523852,0.9499234824078104,0.6612251647962805,3.151865279686576,1.982274250547225,,,0.6619902821573977,6.417132362533666,inf,,0.7588061377096883
44,,0.0,0.0,0.6571962080901259,0.6009850310373956,0.5902004956822192,2.7658618899805076,1.569063061017948,,,0.675384900321601,inf,,,0.6840597852312759
45,0.41047764993170865,-0.0013682588331056956,0.0,0.852266261581549,0.7900730220765909,0.662821783011467,3.2525700745510515,3.1359173437974097,,,0.6528756675646988,6.11426012458791,inf,,0.7153305695825649
46,,0.0,0.0,1.1483363757190033,1.0622226150239609,0.6317182644428588,3.6199479927041502,3.1639013419108943,,,0.68318204999448,inf,,,0.6756219096259943
47,1.4733652457827746,-0.009822434971885164,0.0,0.6401386559067269,0.5796266791626062,0.6297719487931922,3.3506778087076348,2.7757048822258876,,,0.6684167106117298,6.254273354814623,inf,,0.9129412165396895
48,,0.0,0.0,1.2989325334474773,1.271169587810713,0.7398030750588774,3.888592957356786,3.3238752650156638,,,0.6509067234006624,inf,,,0.7145423006249384
49,2.0096185448676476,-0.013397456965784317,0.0,0.9629133439703403,0.951952336459611,0.7699604621642975,3.6161917672233614,2.0339726788269474,,,0.6547956803312163,6.82259747064183,inf,,0.8283771363004253
50,3.3694273217273807,-0.03369427321727381,0.0,1.0345246054694592,0.972918727053979,0.8483460852837957,3.5698758920713507,3.47441806355456,,,0.6727386042041725,7.973577744827256,inf,,0.9109605149147764
51,,0.0,0.0,0.9148978740533001,0.8860557918197567,0.708069681692495,2.5129364328869968,2.0828713357559154,,,0.6380535849069913,inf,,,0.7574151535556182
52,1.9661128563728327,-0.006553709521242776,0.0,0.9423229661640907,0.8786709710867316,0.73937874485009,3.0185819963692784,2.4626641290762477,,,0.6566669596287297,7.669895331029034,inf,,0.878190879229751
53,3.387042513197938,-0.06774085026395876,0.0,0.9935307422101475,0.9251726863565763,0.7337414694590921,3.313507627548016,3.357329328738723,,,0.675384900321601,7.173458444715143,inf,,0.841457968679357
54,,0.0,0.0,1.090567258196861,1.070585838763937,0.6737941183958276,2.7458204025725754,2.5229132573582733,,,0.648888643467878,inf,,,0.7782182743503715
55,3.912023005428146,-0.013040076684760487,0.0,0.8843640217821486,0.856624192835627,0.7311223576346468,2.882304876683329,2.849798625412909,,,0.6602640781246099,9.615805480084347,inf,,0.8569716631409918
56,3.138378261540732,-0.03138378261540732,0.0,1.019580301109882,0.9820170213221558,0.7255660449066271,2.6780977051004924,2.492648041911047,,,0.6699045166045591,7.623375315394141,inf,,0.5763957138162416
57,3.3592803132269684,-0.033592803132269686,0.0,1.0192933243269473,0.9770162511275075,0.6872497509008136,2.906378463224569,3.1964596175624527,,,0.648888643467878,7.824046010856292,inf,,0.7549226281313963
58,,0.0,0.0,0.8459116333967319,0.8290178379425327,0.600049186856289,3.331985934754417,2.6304099897450666,,,0.6447042257417027,inf,,,0.6752384424628748
59,1.1499055830556604,-0.0038330186101855346,0.0,0.698650240517505,0.630600263313103,0.6628093133578705,3.223809984387824,2.4437050765752977,,,0.6566669596287297,6.853688057711861,inf,,0.7730906485523735
60,2.3722161266608,-0.015814774177738668,0.0,1.0757702830526992,1.06115902958434,0.7511162495040251,2.8067679278354776,2.800697748747881,,,0.6584896970785714,7.382213258577253,inf,,0.8968658689386589
61,1.8648507243170958,-0.012432338162113971,0.0,0.9980643726609659,0.9754034434986546,0.5323164202044515,3.607854173464551,5.313562116281124,,,0.6528756675646988,6.843216757844566,inf,,0.7566752014601965
62,,0.0,0.0,1.1841663250127994,1.1662465972962335,0.7929614395622753,4.260455546668813,48.972986006043165,,,0.676637947632344,inf,,,0.9342182540279107
63,2.17742195004004,-0.007258073166800133,0.0,0.9350112299932102,0.8940436186488723,0.6887381707393632,4.793162155521453,13.392598965045718,,,0.6790044388599258,7.881204424696241,inf,,0.6770684142342032
64,2.336486644669727,-0.007788288815565757,0.0,1.0693455651461243,1.055000360327483,0.7304919813633959,4.026857689595974,2.373486619269155,,,0.676637947632344,8.040269119325927,inf,,0.7869667898873536
65,,0.0,0.0,1.2735499325167334,1.242101896175272,0.7318486210321439,4.769763318680581,9.891953986982216,,,0.6684167106117298,inf,,,0.8151077190361127
66,,0.0,0.0,1.2858455149223897,1.2885128238924315,0.6255739655693695,3.4965104201656905,9.288804010210345,,,0.684994737851132,inf,,,0.8199206622172238
67,,0.0,0.0,1.2216354439313408,1.2032653395445199,0.73477173335712,3.9886614353851817,40.80891997342047,,,0.6668815377411301,inf,,,0.9083929038073276
68,,0.0,0.0,1.1648840619565137,1.1522186947073634,0.7159854024641772,3.4788882449779783,4.400065473281996,,,0.663668482632973,inf,,,0.8297440064858064
69,,0.0,0.0,1.2702023036142975,1.2547703153135634,0.7352193970960411,4.334234424121081,7.306324735944843,,,0.6699045166045591,inf,,,0.9322438150059608
70,,0.0,0.0,1.1163586615869265,1.0797482654275972,0.7574362541156722,3.199716138932873,2.5955615238798853,,,0.675384900321601,inf,,,0.8152198844385133
71,,0.0,0.0,1.2946600190716608,1.2618261018855743,0.8332246092807637,3.40411010171991,5.685977603348381,,,0.6284777104787076,inf,,,0.9382136613198393
72,,0.0,0.0,1.2156839741476573,1.188005810976615,0.8092184101282757,3.8514345335627893,9.92274071655579,,,0.6566669596287297,inf,,,0.9298290929390741
73,,0.0,0.0,1.1828149830552985,1.1338001179532013,0.8168442267401553,3.280688959793511,14.852132193817486,,,0.6380535849069913,inf,,,0.8693452459941003
74,,0.0,0.0,1.2828142806113094,1.2786228295155264,0.7592177955596225,3.3624683370639623,5.47388210538467,,,0.5915533975974677,inf,,,0.8720686356567889
75,,0.0,0.0,1.2121397589304825,1.1592827146621465,0.79896028376255,3.8237065331128752,2.4223444192216115,,,0.6125606311107803,inf,,,0.9017052727685122
76,,0.0,0.0,1.1042530966968018,1.08511626075149,0.7041951576321893,2.983267792577163,2.147677093830818,,,0.6584896970785714,inf,,,0.8494284781985432
77,,0.0,0.0,1.3863553415384036,1.3587734545490981,0.8057131906541348,3.376817534600076,3.426726303630368,,,0.6652988471865258,inf,,,0.9097188836868486
78,,0.0,0.0,1.0166414715720447,0.986542166385572,0.7120988646371541,2.9404272977422674,2.785609324318689,,,0.6566669596287297,inf,,,0.7335807127859478
79,,0.0,0.0,1.3389801765679303,1.3289985461485863,0.7956501637068396,3.1969052019232715,3.5390109285590534,,,0.6602640781246099,inf,,,0.9258764100628505
80,,0.0,0.0,0.9696697673648782,0.95025864755498,0.6838598056022231,2.9245230970159715,3.786427004673547,,,0.6509067234006624,inf,,,0.9306892959856222
81,,0.0,0.0,1.1282044884299134,1.0888386749938344,0.8006910810523462,3.848892739454429,3.3141561813626064,,,0.6180765742263259,inf,,,0.8718454273052617
82,,0.0,0.0,0.6898563190139103,0.589807143822395,0.6329380229436021,2.8006853806195746,2.862088191743129,,,0.6740851607140061,inf,,,0.9519739667711267
83,,0.0,0.0,1.1653609082970577,1.1015670119672327,0.7191768268401356,2.9612165923636016,2.937751803427945,,,0.6602640781246099,inf,,,0.9535637999591727
84,,0.0,0.0,1.2203549365535427,1.1875670832262708,0.7640306934190815,2.7050245407636315,1.8002565785603042,,,0.6668815377411301,inf,,,0.8079012895198919
85,,0.0,0.0,1.0533113373607241,0.9983707449397355,0.7312225223866335,2.3477347431849895,1.7228163707146296,,,0.62595550513784,inf,,,0.8760304682779774
86,,0.0,0.0,1.1157903235921793,1.0822380767915365,0.7450446334641254,2.724460849380639,2.2155144893787018,,,0.6309483474627791,inf,,,0.9011379179726472
87,,0.0,0.0,1.0149953335109032,0.9955858636838982,0.7349912439650869,2.925026954085967,2.8080923141031637,,,0.6468212168108125,inf,,,0.8969577576909116
88,,0.0,0.0,1.0220760181382995,1.005518730004826,0.638869387259887,3.1973552038939967,5.234834451312402,,,0.6713451011121618,inf,,,0.9437432331081252
89,,0.0,0.0,1.0401194639358027,0.9696096685110044,0.694533675096755,3.192939163047356,3.2164449280391016,,,0.6713451011121618,inf,,,0.7988379784944402
90,,0.0,0.0,1.5572575278120777,1.5101885060926825,0.8480445024941456,2.556331967767676,2.485988758480974,,,0.5947193981915972,inf,,,0.9389748374517385
91,,0.0,0.0,1.0619167314865015,0.9826683849847452,0.7899560980819121,2.9711268630912655,3.7096306732036988,,,0.5883313578629602,inf,,,0.9468399784642302
92,,0.0,0.0,1.2324820404589216,1.2053434719948681,0.7086594549957345,3.3585478197959864,8.057146498406704,,,0.6684167106117298,inf,,,0.7351886320157135
93,,0.0,0.0,1.0926723827169247,1.019601795790042,0.7831406873840314,3.561669231312292,4.0316432968435025,,,0.6699045166045591,inf,,,0.9405380610628048
94,,0.0,0.0,0.8221580941465797,0.7951414207685487,0.6460107336918346,2.629976871777001,2.1435126777809073,,,0.6652988471865258,inf,,,0.9447411644685347
95,,0.0,0.0,1.1696617218472456,1.1177051998438448,0.8007174249834506,2.168733063738079,1.4558830924992745,,,0.6403206450210053,inf,,,0.9557904165179222
96,,0.0,0.0,1.159480616770322,1.131249325961213,0.8196378750589364,2.6922592698914483,2.238731676969869,,,0.6584896970785714,inf,,,0.8149731918920952
97,,0.0,0.0,1.0508714477234868,1.0332348077901798,0.7421666261874786,3.2223268350039276,2.6780749076215167,,,0.6619902821573977,inf,,,0.9063131764269888
98,,0.0,0.0,1.2313130435720334,1.198495843712192,0.7646961813905495,3.531776121932623,2.061183086019998,,,0.6699045166045591,inf,,,0.8988073007784283
99,,0.0,0.0,1.0827791778400184,1.0651870143738829,0.7195979716148247,2.9712962230981925,2.7802620538727854,,,0.676637947632344,inf,,,0.9335820876668856
100,,0.0,0.0,1.1480589587780656,1.1306193984911994,0.6926176816540968,3.2986459236987176,3.4172637951491684,,,0.680118107274185,inf,,,0.9507127312072916
101,,0.0,0.0,1.1144581376715468,1.0721010688270238,0.6921601366134963,3.5478987417908083,3.675660520632399,,,0.6652988471865258,inf,,,0.9372904547296205
102,,0.0,0.0,1.1141315373667233,1.07190231297041,0.7044789918488876,2.6943393019435704,1.7127093957165331,,,0.680118107274185,inf,,,0.9519270098360794
103,1.4271163556401458,-0.004757054518800486,0.0,0.8480206771327845,0.8151132448795076,0.729569161067175,3.224719582925403,2.785995292085733,,,0.6668815377411301,7.1308988302963465,inf,,0.7924754869375686
104,2.371577964480997,-0.007905259881603323,0.0,1.071587873054821,1.0371277568195583,0.7691856828444755,3.443446721564202,3.4443301171690868,,,0.6357360191111145,8.075360439137198,inf,,0.8303818047154297
105,,0.0,0.0,0.9622027349349133,0.9620352512578453,0.7185195920456495,3.3331377634197032,2.345333500586958,,,0.6602640781246099,inf,,,0.9365839313402768
106,,0.0,0.0,0.6272090708368429,0.5487538900668195,0.5123107687245296,1.8744831401049398,1.845391669413996,,,0.6333676938231112,inf,,,0.7594759958266918
107,,0.0,0.0,0.950368396166643,0.8913859751025834,0.7856945614934816,1.7068097700830638,2.0726714732489153,,,0.6207552362147116,inf,,,0.9336655544335345
108,,0.0,0.0,1.1479110757867745,1.1248602382034347,0.7883413104620748,2.866808103917785,2.375796270214752,,,0.6619902821573977,inf,,,0.9509244253134433
109,,0.0,0.0,1.1429787070138575,1.1362494823367624,0.7598835817154576,3.138179684417842,1.9495953372647605,,,0.6684167106117298,inf,,,0.9180605715584715
110,,0.0,0.0,1.0356201716073052,1.0144227233114276,0.7360299122786056,2.956239384138471,2.138254498846033,,,0.6699045166045591,inf,,,0.9140975255038418
111,,0.0,0.0,1.0717714977875095,1.0416353754189036,0.7921407577711624,3.1363346664884233,3.459778922667362,,,0.6097226960127671,inf,,,0.9332767832340743
112,,0.0,0.0,1.0716586691605436,1.0447017442252935,0.7320493674196347,3.1020980757863867,4.561446431813704,,,0.6619902821573977,inf,,,0.7285883784131363
113,,0.0,0.0,1.2069590797535186,1.1730363172234377,0.8196845416421794,3.545487791646942,5.29662592155566,,,0.6619902821573977,inf,,,0.9488926309078372
114,,0.0,0.0,0.9690258434439877,0.936055301238507,0.713896803305744,3.068541836542254,3.8638871839639193,,,0.6468212168108125,inf,,,0.9408828718308158
115,,0.0,0.0,1.0634452801322802,1.0196601389460664,0.7742709210547539,3.1152484390647066,2.8273791971087165,,,0.6333676938231112,inf,,,0.9441063235424366
116,,0.0,0.0,1.7861440395302548,1.7435347801357859,0.9549962424479882,4.226034905760669,70.94909021056576,,,0.5370774965580548,inf,,,0.8359936975417825
117,,0.0,0.0,1.7809948483382783,1.7670592002339904,0.9476136713030574,4.128541894862001,53.61050645467293,,,0.5287703885177266,inf,,,0.8181767400812423
118,,0.0,0.0,0.7642393962645296,0.7213735010814145,0.586820763566247,2.5564998426346452,3.3306827248892104,,,0.552929491858785,inf,,,0.7860294567809332
119,,0.0,0.0,1.6016217530063797,1.5261143948072808,0.9185680396802905,2.985220455934943,1.637818816154895,,,0.5883313578629602,inf,,,0.9069950376319119
120,,0.0,0.0,1.1607854792563197,1.1510480187796521,0.7854375080303455,3.9119605915178326,12.494206964069106,,,0.6097226960127671,inf,,,0.9362034671207741
121,,0.0,0.0,1.6292854794377676,1.5916504755186143,0.8785784863955468,3.6063813655036783,2.6274070216946477,,,0.5748741956352443,inf,,,0.9264729960571929
122,,0.0,0.0,1.3421848334171445,1.2674137304742046,0.7713436047258636,3.6417980549880595,21.89778019560441,,,0.5783247308855777,inf,,,0.872269460427324
123,,0.0,0.0,1.7856867849133329,1.7622457173251085,0.9296920386284631,5.339147052207555,140.78743985677585,,,0.62595550513784,inf,,,0.9208608376612732
124,,0.0,0.0,1.784938576229188,1.755246733187383,0.9431139052817235,4.449741129873255,106.16031312981244,,,0.6008849035917525,inf,,,0.8748856342166705
125,,0.0,0.0,1.7815125576341284,1.7410224176397544,0.9244902107329127,4.671929592777491,712.9934655332089,,,0.6038851895711802,inf,,,0.904893555029917
126,,0.0,0.0,1.786352996002181,1.7625876412606978,0.9319610109298417,5.747566568611518,189.6275928201048,,,0.6207552362147116,inf,,,0.9054388645722653
127,,0.0,0.0,1.7726367244307992,1.7445077524529036,0.9358336945348573,5.061639058309771,inf,,,0.6333676938231112,inf,,,0.8493830948912026
128,,0.0,0.0,1.7739022446961665,1.7471082062237873,0.9285160878118717,5.02575774645866,inf,,,0.6125606311107803,inf,,,0.8426968063399062
129,,0.0,0.0,1.7765491438077492,1.752078762791308,0.9417767307648961,4.767542172434172,inf,,,0.6447042257417027,inf,,,0.8486568025152005
130,,0.0,0.0,1.7770134131538833,1.7670255020314507,0.9238187304164522,5.780517838724671,149.0044742041793,,,0.6068309995095971,inf,,,0.9085704358656603
131,,0.0,0.0,1.2797576874312009,1.2496512239733313,0.8444485907697193,3.913151682847909,2.836935304997275,,,0.5713653840954815,inf,,,0.9114353491297481
132,,0.0,0.0,1.7781032023815149,1.7753914488948979,0.9058348731107514,5.300687428462177,391.1050535927681,,,0.5604843169999094,inf,,,0.8493738699389579
133,,0.0,0.0,1.7744153648739733,1.7658524676186553,0.9289161549023603,4.773685045451065,416.8964569688287,,,0.581717464821069,inf,,,0.8645372102278546
134,,0.0,0.0,1.7833044864042993,1.7592536855718026,0.9326171295266278,4.587770110476857,inf,,,0.5490601803369085,inf,,,0.8523851960234844
135,,0.0,0.0,1.7874866587999847,1.7653173388274157,0.9306564663842182,4.0924828324076925,97.9676691197677,,,0.5915533975974677,inf,,,0.8926596108944375
136,,0.0,0.0,1.3940065130732089,1.3798232940142252,0.8126310750040359,3.928641141178203,4.1334117037330556,,,0.6038851895711802,inf,,,0.8782404138715841
137,,0.0,0.0,1.4272414835322746,1.4119929538051619,0.8610628936389041,4.636896563639459,12.177671140757106,,,0.5451288209179292,inf,,,0.8390902450196853
138,,0.0,0.0,1.785862675311169,1.7630562491804513,0.9486064126651783,4.250355403060875,71.15045573743126,,,0.5677978065141052,inf,,,0.8785670626745729
139,,0.0,0.0,1.7852199340994095,1.7402419746241249,0.9505582532302403,3.9698028316925433,92.89056423117299,,,0.585052858160615,inf,,,0.8587237019673222
140,,0.0,0.0,1.7836117333162615,1.7538645265346509,0.947025356300891,5.168387878058498,268.98925060979144,,,0.5287703885177266,inf,,,0.8930872917412411
141,,0.0,0.0,1.7769291701685208,1.7670424336725905,0.9327758956528689,4.407914112721159,74.9538406042657,,,0.5783247308855777,inf,,,0.9182497409371866
142,,0.0,0.0,1.3822068984811129,1.344359743107976,0.8085307944528876,6.320824098851454,117.46863250237534,,,0.5158180382284114,inf,,,0.9037466615293901
143,,0.0,0.0,0.7472638305135384,0.7241405912566121,0.5827892032476844,4.270631135420926,11.048434472945566,,,0.5567373465730988,inf,,,0.9209384152990979
144,,0.0,0.0,1.7781688995210163,1.7840606142168594,0.8782124163673729,3.912444862599922,8.903813339880747,,,0.68318204999448,inf,,,0.8969843803962366
145,,0.0,0.0,1.7512053280050806,1.7375161992994366,0.8681204490391007,4.333259758181839,168.68675313824085,,,0.648888643467878,inf,,,0.8351774183377528
146,,0.0,0.0,1.4113202183366191,1.4077959072213666,0.7393319541670295,3.839075013595805,10.06034041445432,,,0.6547956803312163,inf,,,0.9204513988052578
147,,0.0,0.0,1.1918901104014823,1.1687998114690845,0.843058712967785,3.9460570148478333,19.700940100065615,,,0.5915533975974677,inf,,,0.8394051598859269
148,,0.0,0.0,1.7731048298179175,1.7428909402493786,0.9330886641780702,4.048512302467318,147.31924906290612,,,0.6038851895711802,inf,,,0.8696521233013262
149,,0.0,0.0,1.7813564622722016,1.7489393164270157,0.9428369977034485,4.533701127033525,8.470155101642286,,,0.6233814453054027,inf,,,0.8758347814308254
150,,0.0,0.0,1.774458225417434,1.780785846267203,0.9182492511920528,4.104636447245955,621.6962153593594,,,0.6153451465759925,inf,,,0.8384370330707202
151,,0.0,0.0,1.7859595649500486,1.7607575473018573,0.9450492636139065,5.30730478662427,457.12764996666505,,,0.6284777104787076,inf,,,0.8733047871454589
152,3.757872325600888,-0.012526241085336292,0.0,0.9947106886432707,0.9280749630600448,0.7314701216365792,4.120310139216655,34.07273481588197,,,0.6008849035917525,9.461654800257088,inf,,0.6844432187940791
153,,0.0,0.0,1.2511479415479094,1.2338120705048394,0.714471813412839,5.042332542337345,62.33698316741723,,,0.6008849035917525,inf,,,0.9191053390019827
154,1.23911126660851,-0.0123911126660851,0.0,1.369494573754671,1.3140914400413366,0.7904396430620133,3.7618893720891373,1.5932098160876649,,,0.6468212168108125,5.683979847360021,inf,,0.7689054715937363
155,2.659260036932778,-0.00886420012310926,0.0,1.2553902509339485,1.2407980099612115,0.8631186531310542,3.5391978444945873,4.384246211686721,,,0.585052858160615,8.36304251158898,inf,,0.9489449946112452
156,,0.0,0.0,1.5181288084058966,1.5131769924490461,0.9188557104760866,2.8611975170706656,2.8495885984723843,,,0.4732203808476458,inf,,,0.859005635509023
157,,0.0,0.0,1.3399840186597647,1.3045549265731011,0.8283142331216873,2.8658726009588427,3.11716530727195,,,0.5158180382284114,inf,,,0.8529907482405354
158,,0.0,0.0,1.3600749488431587,1.3474237125840633,0.918139174459727,2.818035771355495,2.6462554563337197,,,0.4576907132971797,inf,,,0.8646085493558023
159,,0.0,0.0,1.7259056084529205,1.7172680149925401,0.9596426883411737,3.095786689359354,2.4365958097409943,,,0.44144624493110796,inf,,,0.8503082499964434
160,,0.0,0.0,1.7414454632404341,1.7086121450440712,0.9629227630253295,3.676358732563641,12.061734850850243,,,0.42445136339222655,inf,,,0.8272994392265544
161,,0.0,0.0,1.7350054491369378,1.7110903740328285,0.9711810734015692,3.787041213173551,4.525567117593248,,,0.41861278947482794,inf,,,0.8116371223448278
162,,0.0,0.0,1.7333124496793881,1.7249955546804936,0.9671242743820202,3.9322570850983594,3.632134034161042,,,0.44144624493110796,inf,,,0.8145006006427079
163,,0.0,0.0,1.6383680926062785,1.6202028430697508,0.9453890677360848,3.502780431856731,2.260393045509234,,,0.44694259446804574,inf,,,0.8423110885614542
164,3.506557897319982,-0.011688526324399939,0.0,1.4359678989301992,1.4115503999557866,0.9183467983099346,4.209205963213745,5.430126443402473,,,0.468121228110369,9.210340371976182,inf,,0.8150911865046521
165,,0.0,0.0,1.7532610080667985,1.735919310758005,0.9572178572092865,4.485692308280868,5.093575327710463,,,0.5490601803369085,inf,,,0.8681927534696705
166,,0.0,0.0,1.7817884492285976,1.7268228939550778,0.9512381827828059,4.782813185864063,309.65145069075083,,,0.5978297680564633,inf,,,0.880702833351672
167,,0.0,0.0,1.7729333671246728,1.7568350854119523,0.9325729925368782,4.039755800761126,409.54512460094315,,,0.6097226960127671,inf,,,0.921270585019575
168,,0.0,0.0,1.7816047387662337,1.7782609162432357,0.9397244916393801,5.168301343996438,140.092067810387,,,0.6097226960127671,inf,,,0.9183052985394592
169,,0.0,0.0,1.77871938719853,1.7519291159873012,0.9468912126096946,4.7134871749181135,79.96475942084196,,,0.5748741956352443,inf,,,0.9242128371776828
170,,0.0,0.0,1.2441489913277965,1.2056726713824935,0.8995827603254124,3.7582665293785618,21.23948969724161,,,0.5068466436745385,inf,,,0.7683157733902587
171,,0.0,0.0,1.0260340399967829,1.014763975053337,0.7809887165084151,4.195525219130287,57.092983297637026,,,0.5370774965580548,inf,,,0.8089016898703273
172,,0.0,0.0,1.6547384867976616,1.6291200265426746,0.9564877447429111,3.539751713010574,3.51696161753472,,,0.47824363442641393,inf,,,0.8606398422667922
173,,0.0,0.0,0.9598975565653682,0.9364384417188145,0.6354756151239142,3.0020760429905105,3.314017380149381,,,0.4880666971167561,inf,,,0.8424442643664337
174,,0.0,0.0,1.4142881296360148,1.390081743332118,0.8715987064879105,3.1355121404319126,5.496983379924915,,,0.47824363442641393,inf,,,0.8188220427710385
175,,0.0,0.0,1.6807038878454332,1.622606240223739,0.9523560517024552,3.6907499553541907,7.482679287056305,,,0.41861278947482794,inf,,,0.7900381929473552
176,,0.0,0.0,1.6686292134265273,1.6290953969631634,0.9587974818210601,2.850623431444402,3.4091066133793975,,,0.43586655696697996,inf,,,0.8430780319401725
177,,0.0,0.0,0.6927218518754401,0.600348648968906,0.7309898074609521,3.2325117371678744,5.465407004348795,,,0.5947193981915972,inf,,,0.9087367805266474
178,1.4297271477735995,-0.014297271477735997,0.0,1.495670739761421,1.4694735554889566,0.9187557180171328,3.4534188844155866,22.54719437000693,,,0.5947193981915972,5.636123826182386,inf,,0.8195811623599667
179,,0.0,0.0,1.6876366099899258,1.7037695850064105,0.9194057699898983,3.2402229528480198,6.482128467664639,,,0.44144624493110796,inf,,,0.8570005762138906
180,1.3068247628403629,-0.008712165085602418,0.0,1.0190390786056074,1.0063982896361454,0.8047683912833975,2.9011050303830372,3.550967476123055,,,0.4629450596409901,6.11426012458791,inf,,0.9082643489097586
181,,0.0,0.0,1.593365791672516,1.5623404186975631,0.9089393873481877,2.2012403006212664,2.4834735043880762,,,0.41268473150466,inf,,,0.8194434277715354
182,,0.0,0.0,1.6872236194888761,1.674636593289066,0.9577340907610946,2.52668012072782,2.013958408018668,,,0.4732203808476458,inf,,,0.7939537377732323
183,,0.0,0.0,1.541227292555269,1.497050435466871,0.9225995642711611,2.1834859686345265,1.6605419156879924,,,0.4928685327679205,inf,,,0.8140461359712675
184,,0.0,0.0,1.5760504133811943,1.5454821132140324,0.907621852219817,2.3399248928966054,1.9171374680301732,,,0.41861278947482794,inf,,,0.8205367806000133
185,,0.0,0.0,0.8310213130829897,0.7830640951079193,0.706517741944688,2.6079959849824634,2.927442690570367,,,0.524519217297268,inf,,,0.7970886405559571
186,,0.0,0.0,1.6570792948688176,1.6289449918444119,0.939994677071392,2.669505497115364,3.0031047390316714,,,0.4576907132971797,inf,,,0.8560431341429523
187,2.371577964480997,-0.007905259881603323,0.0,0.7876086757357327,0.7637239517850212,0.6784820416242227,3.393689092810928,3.817440358179103,,,0.5113665138247345,8.075360439137198,inf,,0.8955513321203861
188,,0.0,0.0,1.583485016133895,1.491546661969819,0.921610096908457,2.489562486828325,2.464063130838554,,,0.5370774965580548,inf,,,0.879078353665228
189,1.0216512475319814,-0.003405504158439938,0.0,1.116039017383749,1.0883380723364044,0.8361025097261469,3.1972161365132554,2.789340477955578,,,0.4880666971167561,6.725433722188183,inf,,0.8902901250172758
190,,0.0,0.0,1.7340322298145798,1.6764915337733703,0.9537133825999481,3.337119314584408,2.189989499243873,,,0.5022576003740722,inf,,,0.8749307889613702
191,,0.0,0.0,1.6917464599893757,1.6364453965124768,0.939916458841238,3.6389389039370155,4.748030472427557,,,0.4928685327679205,inf,,,0.9021873067798951
192,1.1361411422512984,-0.011361411422512983,0.0,0.8881727150150265,0.8316577949893759,0.7179608724123134,2.9310726350016774,2.5874639013967435,,,0.552929491858785,5.693832143803033,inf,,0.848638793396164
193,1.0498221244986778,-0.0034994070816622594,0.0,1.3643417088806615,1.3395882723855415,0.847900608508676,3.6819365642473483,5.148623907334024,,,0.5022576003740722,6.753604599154879,inf,,0.8696145991629374
194,0.6567285185838122,-0.004378190123892081,0.0,1.1427987149472716,1.099353636965474,0.7685500960643845,3.5850823495875987,7.560794807966726,,,0.6233814453054027,5.572754212249797,inf,,0.8280645202457971
195,,0.0,0.0,1.0011608908587273,0.9799437741444651,0.7986169061871738,3.4425115263878157,12.12618731804059,,,0.6097226960127671,inf,,,0.8803813010890666
196,0.3955147772549963,-0.0013183825908499875,0.0,0.8811308921925264,0.8242815256810263,0.7660376254767011,3.0775450452463526,2.9606322026348764,,,0.5783247308855777,6.099297251911198,inf,,0.9228115425839947
197,1.5248587736344856,-0.015248587736344858,0.0,1.1819818973639484,1.17268061198033,0.7428486585354878,3.774825977858954,4.86503915601501,,,0.6602640781246099,6.009402247794649,inf,,0.6098894821539719
198,,0.0,0.0,1.077434350534937,1.0263440509848945,0.7551642275986963,3.1207968117865725,2.8523598267802885,,,0.6619902821573977,inf,,,0.813120301560151
199,,0.0,0.0,0.9497922490723584,0.9115195750145665,0.703175137819049,2.8076282641477777,2.3977087647925033,,,0.6284777104787076,inf,,,0.7019747908052496
200,,0.0,0.0,1.1484908247315793,1.1049669859925342,0.7209604932591192,3.3103634346791435,10.278618716109504,,,0.585052858160615,inf,,,0.9437740968369065
201,,0.0,0.0,1.0839243890497705,1.0759076621983095,0.8054503176920416,3.005267054715628,3.68191557042096,,,0.5713653840954815,inf,,,0.9277925195860254
202,,0.0,0.0,1.3591612628432137,1.3495770356021093,0.8502153879313485,3.0806743485574963,2.901455015074467,,,0.6207552362147116,inf,,,0.8925402289704362
203,,0.0,0.0,1.223237323807187,1.178385374795774,0.811660894058786,2.8027645967967074,2.6981422302850526,,,0.6125606311107803,inf,,,0.883278678545102
204,,0.0,0.0,1.1987343882313226,1.174348157479593,0.768611030359246,2.56010228427263,2.4832595093221586,,,0.5978297680564633,inf,,,0.915757331631828
205,,0.0,0.0,0.8990664623310399,0.8612675273842327,0.7788301395018923,2.5876105780283627,2.1552424394863867,,,0.6403206450210053,inf,,,0.9261308027442008
206,,0.0,0.0,0.8757169030922239,0.8133654384085092,0.5981110145201871,2.304092336076717,1.8117174256762758,,,0.6333676938231112,inf,,,0.7648556684737072
207,,0.0,0.0,1.332543305275526,1.29153540074109,0.8114349342971698,2.7897884210471697,2.210032797310865,,,0.6357360191111145,inf,,,0.9489517285362452
208,,0.0,0.0,1.163023024970933,1.0800187476736447,0.813120684171622,2.398031401303815,3.1429057300206673,,,0.6153451465759925,inf,,,0.9427808313855971
209,,0.0,0.0,1.0760479794523012,1.0359828482724944,0.718241698449018,2.160902182758051,2.555694298245585,,,0.6233814453054027,inf,,,0.9431302682068174
210,,0.0,0.0,1.084762670676426,1.0683528748435194,0.7903336204887675,2.5809735429877865,6.2199463725647135,,,0.5978297680564633,inf,,,0.8896148497376488
211,2.2494050849985907,-0.014996033899990605,0.0,0.9023563490110484,0.8292764964499422,0.6356076321955122,2.1382859153977787,0.8475948918139125,,,0.648888643467878,6.782592136028131,inf,,0.7356241855076849
212,,0.0,0.0,0.7858447382077973,0.7557409334285285,0.6526086146826933,2.888155698672613,2.0396911456160787,,,0.6699045166045591,inf,,,0.7579126529895914
213,,0.0,0.0,1.1475738239670874,1.099818224852668,0.7897478718251693,2.5034894728763892,1.9708956624357894,,,0.6547956803312163,inf,,,0.9464100941394366
214,,0.0,0.0,0.4296239601486483,0.4129176910868793,0.563740559536107,2.1849368184803972,1.7747729858304413,,,0.648888643467878,inf,,,0.6127638266814615
215,,0.0,0.0,1.0981036548121208,1.0772631658879508,0.8102070509962837,2.494849478354977,2.019751913522939,,,0.6619902821573977,inf,,,0.7913390813264634
216,1.1687838201099594,-0.01947973033516599,0.0,0.8048002880653674,0.7632322328214556,0.5726514881511494,2.636854055145187,1.9626462577618016,,,0.6333676938231112,5.250585963726847,inf,,0.6791343499581236
217,2.0011790427807505,-0.020011790427807503,0.0,0.9686637907731291,0.9102220033321097,0.7206868828920998,3.209302216307914,2.6048433216018356,,,0.6602640781246099,6.480311264155198,inf,,0.6622162131057974
218,,0.0,0.0,0.855749035681553,0.8315594285513954,0.6640980061082631,2.408717676454747,2.606580395602848,,,0.6357360191111145,inf,,,0.7957218222989678
219,,0.0,0.0,1.0704557996282165,1.0216860520270925,0.7167486792626808,1.8129528773926056,2.7798342551469766,,,0.6233814453054027,inf,,,0.8954410054572945
220,,0.0,0.0,0.8479711488893108,0.7992771584157339,0.5904988891841663,1.7033291554223715,1.6892849460655808,,,0.5748741956352443,inf,,,0.89259563411604
221,,0.0,0.0,0.871382336163624,0.857589558786928,0.588201674259206,2.3742010942641163,2.9736527528013226,,,0.6380535849069913,inf,,,0.9467884680236203
222,1.323060473089365,-0.01323060473089365,0.0,1.1645293752551067,1.0990456222559082,0.8100043034197206,3.1799343609421116,2.55286285215771,,,0.6309483474627791,5.926926025970411,inf,,0.7476696565078857
223,1.5651701579966668,-0.04173787087991111,0.0,1.2067949945737515,1.1392274108787033,0.8251200142564336,3.8596529848011176,2.9192996330786105,,,0.6425374456860184,5.0725106978143435,inf,,0.5686553483934094
224,1.5652035884402964,-0.010434690589601977,0.0,0.8766162303846915,0.8381131904191904,0.69402280650973,3.1323038363164075,2.094105685331447,,,0.6740851607140061,6.571283042360924,inf,,0.6284887271819123
225,,0.0,0.0,0.7779962623619767,0.7469611799342634,0.5904611912639699,2.698291017724144,2.267612214618823,,,0.6425374456860184,inf,,,0.7471351335671089
226,2.1002649106583493,-0.03500441517763916,0.0,0.6486974449624267,0.6282141587260809,0.7737137956230642,2.896738981007228,2.4982377948923333,,,0.6699045166045591,6.160540877151916,inf,,0.7282406058230366
227,1.284941866859603,-0.004283139556198677,0.0,1.1306959586214156,1.1394129553579389,0.7406309199810287,3.2480521923572208,3.0017589551808888,,,0.6668815377411301,6.9887243415158045,inf,,0.9506327884953077
228,1.5141277326297755,-0.005047092442099252,0.0,1.0514997983768173,1.0214835948781162,0.7368437937178882,3.0820502253392577,3.716613034231093,,,0.6547956803312163,7.217910207285977,inf,,0.7654813973940998
229,1.471359119134187,-0.009809060794227914,0.0,0.9387950405579816,0.8725569431244979,0.7200330643935631,3.0157296163686005,3.8187357289068617,,,0.6619902821573977,6.480311264155198,inf,,0.8292413846886278
230,1.297063227391948,-0.004323544091306493,0.0,0.9627926481905547,0.9426092320850715,0.7223599715748993,2.5454174410198047,2.4828259911879598,,,0.6566669596287297,7.000845702048149,inf,,0.5888789248210492
231,2.583482161678617,-0.03444642882238156,0.0,0.9842973929430606,0.9440566153520259,0.7917997635896011,3.4330976317473385,2.870971997535306,,,0.648888643467878,6.885776372263361,inf,,0.6518703349182254
232,3.3815870250855147,-0.022543913500570098,0.0,0.9999798729225173,0.9074064851216831,0.6488949155387561,4.060593386343763,8.069698882355208,,,0.6699045166045591,8.36304251158898,inf,,0.8378826790043814
233,,0.0,0.0,1.1244862023038231,1.0825568795450478,0.7890729640447905,3.6405495982999,2.9508916867199444,,,0.6447042257417027,inf,,,0.9170350720326909
234,,0.0,0.0,1.058299650175105,1.0528944228771713,0.7699606781655163,3.220367350776191,1.9640433298615334,,,0.6713451011121618,inf,,,0.9552411904911238
235,,0.0,0.0,1.128969297114467,1.0961040616806292,0.792728145073599,2.833765144687941,2.210672805792987,,,0.6180765742263259,inf,,,0.9353893809372638
236,,0.0,0.0,1.0139416685289375,0.9218503981031138,0.7466234402142328,3.1673842665063616,4.32780770558589,,,0.6380535849069913,inf,,,0.9214022335491426
237,2.5682882587270512,-0.008560960862423504,0.0,0.9210730563064249,0.8901229302041539,0.7385648106460503,3.3222254043903736,12.090201271374305,,,0.6547956803312163,8.272070733383252,inf,,0.9166404489503366
238,,0.0,0.0,0.9989717058343026,0.9817719182388144,0.6747048774107933,3.6890156453497664,2.629554295576995,,,0.663668482632973,inf,,,0.9322610570512676
239,,0.0,0.0,0.6110229457220787,0.5750029903154441,0.6743326616318842,3.24100838142756,5.8909472625094335,,,0.6309483474627791,inf,,,0.9318668983992545
240,,0.0,0.0,1.3293411964073263,1.3305452002678082,0.8391395687063815,2.2699417629843177,2.893506877681366,,,0.6284777104787076,inf,,,0.9306517468042279
241,,0.0,0.0,1.0318450601750522,0.9824440662452619,0.7608680864826138,2.620908862450113,3.115842359677774,,,0.6125606311107803,inf,,,0.9259977533357753
242,,0.0,0.0,1.7066451099813114,1.676701552302884,0.9553914725295694,2.289450843032794,3.9919094610689787,,,0.581717464821069,inf,,,0.8640010804361757
243,,0.0,0.0,1.6685021883787132,1.6569689834688957,0.9249089860028152,2.504911015872401,3.892104852463901,,,0.5567373465730988,inf,,,0.8584048700692106
244,,0.0,0.0,1.0084466160108925,0.9786067497676973,0.6831849055812702,4.1243302550393475,12.464662350655882,,,0.62595550513784,inf,,,0.534248570706524
245,,0.0,0.0,1.6862898131486674,1.6482950707065567,0.9424996669194038,2.7362382400568905,4.349868198201872,,,0.47824363442641393,inf,,,0.8977708639866193
246,,0.0,0.0,1.7094105822104002,1.672640015187958,0.9504287058801667,3.3485159093372334,4.45516293012861,,,0.541134803179459,inf,,,0.8423558029245068
247,,0.0,0.0,1.7568491447780525,1.7348790724646546,0.946619688255154,3.3565485836145164,49.600574595338216,,,0.47824363442641393,inf,,,0.8367701561585831
248,,0.0,0.0,1.7845800887542402,1.7537676097622645,0.9693067552282956,3.559012694556422,75.87133764635487,,,0.5287703885177266,inf,,,0.8473825958350524
249,,0.0,0.0,1.7839200669316804,1.7661177361086473,0.9659279681882008,4.034935377821449,31.326264646658846,,,0.5451288209179292,inf,,,0.8786214381306117
250,,0.0,0.0,1.7699781246776767,1.7461055030333295,0.9469540716035264,4.450170835097187,10.80057026883878,,,0.468121228110369,inf,,,0.8957787275878513
251,,0.0,0.0,1.7812585371710745,1.7681349123886312,0.9531777822850691,3.533303867332902,23.747404597475523,,,0.524519217297268,inf,,,0.8860309867512334
252,,0.0,0.0,1.787807849229527,1.7783352822255478,0.9228826325380032,4.5929400434901675,65.29699818337181,,,0.541134803179459,inf,,,0.9076558327311225
253,1.160487692386197,-0.00386829230795399,0.0,1.0141176399523086,0.9847292393827264,0.7012142831725318,4.5345033033367415,17.332847272737265,,,0.6038851895711802,6.864270167042398,inf,,0.7483471473572989
254,,0.0,0.0,0.8709704284148078,0.8476654623980707,0.7226579891997924,3.9114224144643504,11.295477008293918,,,0.5022576003740722,inf,,,0.7193820856074483
255,,0.0,0.0,1.7819604755749545,1.7581333982925442,0.9613807383586195,3.789938152425695,50.185623611970044,,,0.5022576003740722,inf,,,0.8516611817053252
256,,0.0,0.0,1.7715423962661028,1.734772329894845,0.9462232438487642,4.435319704722341,80.78548231385618,,,0.5604843169999094,inf,,,0.8956632829280984
257,,0.0,0.0,1.790204378038263,1.7910771252829911,0.9482588020676292,5.069061817775932,32.45023907021385,,,0.552929491858785,inf,,,0.8952536185633133
258,,0.0,0.0,1.7858032945438858,1.7489487310524,0.9593904129169522,4.286379128916772,7.27512550955984,,,0.5713653840954815,inf,,,0.9167499152260116
259,1.1290714961528183,-0.0037635716538427276,0.0,1.2330973816482271,1.2100101571741932,0.8572039987603827,3.9276556778187723,3.0941759797125568,,,0.5329562494928909,6.832853970809019,inf,,0.8842386079659477
260,,0.0,0.0,1.7030144922811026,1.6802030836911002,0.9128903040443647,2.62913575604245,1.659440988838381,,,0.48319206230712763,inf,,,0.877934028252195
261,,0.0,0.0,1.7745491634328394,1.7508598658799968,0.9244270570207883,3.555354501689338,4.097990248339302,,,0.5329562494928909,inf,,,0.892597412942136
262,,0.0,0.0,1.7759040162131798,1.7552716592720246,0.9385360720117504,3.3881991747703943,59.921275965063515,,,0.5451288209179292,inf,,,0.8940964017679806
263,,0.0,0.0,1.001640567228862,0.9932100924430541,0.7715682432473246,3.0874065688959065,3.7681989216591085,,,0.524519217297268,inf,,,0.9329910090395311
264,,0.0,0.0,1.1681020863261926,1.14114448773788,0.7702240329939383,2.753856509265208,2.577743516574904,,,0.5329562494928909,inf,,,0.8715889957343432
265,1.5013541521260234,-0.02502256920210039,0.0,0.9124977075062228,0.9031736126599387,0.658689049890349,2.791219614526374,3.6507696975398485,,,0.6584896970785714,5.4621443407058266,inf,,0.7327244410729764
266,,0.0,0.0,1.019534400930691,0.9843177153760874,0.685226485224038,2.8070992711048293,4.210490997555686,,,0.6284777104787076,inf,,,0.7547585418582868
267,1.0624208151544519,-0.021248416303089036,0.0,0.7789580521185332,0.6523331588976041,0.6214600792449422,2.8138490359240262,2.7678374376526396,,,0.5915533975974677,4.62764304184015,inf,,0.5469012645860301
268,1.9186193101335365,-0.025581590801780487,0.0,0.6073695775588578,0.5025590409325158,0.6814818817035,2.367480706118563,2.657559035677766,,,0.541134803179459,6.1092475827643655,inf,,0.7074929036997509
269,,0.0,0.0,1.007484834094373,0.974265591824298,0.7726126319516279,1.3983126417866254,1.6259708787468072,,,0.5158180382284114,inf,,,0.80335184150172
270,,0.0,0.0,0.6115169440574754,0.5941733411298122,0.7874284323261513,1.7373390633216685,2.1104830861110644,,,0.4928685327679205,inf,,,0.7212211789069354
271,,0.0,0.0,0.8988930642395994,0.8867490660940636,0.6311464603475682,1.567090555746344,1.8317412112754257,,,0.4732203808476458,inf,,,0.6993294756788789
272,,0.0,0.0,1.664839476276338,1.6479135128654336,0.9725486421061578,2.046136041753406,2.0187953146161184,,,0.44694259446804574,inf,,,0.7771127728017162
273,,0.0,0.0,1.71759068614637,1.6916046042260229,0.9741123736122802,2.413597442161963,2.521062588662617,,,0.5068466436745385,inf,,,0.8012166170155487
274,,0.0,0.0,1.7332284420536177,1.7157570054195428,0.954661956416116,2.457224513381299,2.0867799823749693,,,0.44694259446804574,inf,,,0.8217678874788912
275,,0.0,0.0,0.7358674754100644,0.6550308593251363,0.7002636963592008,2.7292938942711555,1.9767429807708132,,,0.5978297680564633,inf,,,0.6566577057922602
276,,0.0,0.0,1.7276689943737518,1.700039415754973,0.947291672025128,3.7018332805658014,4.9166072478719,,,0.6008849035917525,inf,,,0.8651537263352923
277,,0.0,0.0,1.5699090200164307,1.5235054830643895,0.9279630699298937,2.637473759658835,2.0467473571096475,,,0.5022576003740722,inf,,,0.8803897325519109
278,3.601491862855568,-0.032629151422056704,-0.015390740082684203,0.85599417217795,0.8297145232556171,0.5424640275861267,2.5976928559637416,1.9420987498694373,2.5322960685272466,,0.6038851895711802,7.769978789586016,2.538973871058276,inf,0.6877590120598465
279,1.8325814637483102,-0.006108604879161034,0.0,1.0101902312901219,0.9896051794181464,0.7870763193225995,2.6474136917157103,2.269872674665692,,,0.62595550513784,7.536363938404511,inf,,0.79268602827139
280,,0.0,0.0,1.637807686891009,1.6405830092324274,0.9324548916346211,2.544687211623383,2.794907620171079,,,0.4302020962658841,inf,,,0.8032289962238133
281,,0.0,0.0,1.773568400211671,1.7583650866584248,0.9740674981639458,3.0718409109761233,7.511444709577314,,,0.42445136339222655,inf,,,0.8055173745504913
282,,0.0,0.0,1.6498738091093268,1.6440172776388406,0.9831783872209072,3.42978368737486,6.725977041624771,,,0.41861278947482794,inf,,,0.862691615072584
283,,0.0,0.0,1.7785646258936596,1.7647492197518915,0.9706874149555829,3.390122190641225,52.940932608208776,,,0.43586655696697996,inf,,,0.8472018147950728
284,,0.0,0.0,1.769271973241454,1.7597982067112785,0.9639976017939027,3.484363059187501,8.424694212557904,,,0.4302020962658841,inf,,,0.8360369358371347
285,,0.0,0.0,1.7849508538728884,1.7549588413081296,0.9833724197748082,3.8171242782988513,19.56949260863253,,,0.44694259446804574,inf,,,0.7994104502593999
286,,0.0,0.0,1.7814381150799723,1.7653325767254582,0.9705003062157725,2.959777673079256,14.666157613006778,,,0.4629450596409901,inf,,,0.8023924072917074
287,,0.0,0.0,1.7309166650582242,1.7090507323091648,0.9554684692680193,3.7269988322004823,11.14460051695772,,,0.4576907132971797,inf,,,0.7859757101152798
288,,0.0,0.0,1.7818682980909384,1.7579437484815097,0.9662883736828087,3.3857838489726455,12.541874905184756,,,0.41861278947482794,inf,,,0.849054596741788
289,,0.0,0.0,1.7343384182872947,1.6157054520275556,0.9512516440045677,4.186260144628919,24.40967842827296,,,0.5287703885177266,inf,,,0.8936109035563298
290,,0.0,0.0,1.3699448779857606,1.3035506504367862,0.7992539584238024,6.254244008278146,9.372271028546434,,,0.5604843169999094,inf,,,0.9216438846330246
291,0.19439413802822383,-0.0006479804600940794,0.0,1.552654702019031,1.4851042074597074,0.9096232968348438,4.428254021618385,38.04390655384111,,,0.5370774965580548,5.898176612684425,inf,,0.920764712476581
292,,0.0,0.0,1.778476297261871,1.7429505464336827,0.9528708146446951,4.746582782423999,7.663234407450794,,,0.541134803179459,inf,,,0.9101286447449585
293,,0.0,0.0,0.8741367091795617,0.8276980395332659,0.752118722214791,3.8950090480719446,6.083666257882783,,,0.5370774965580548,inf,,,0.8119431048523631
294,,0.0,0.0,1.7825603382564876,1.7593363011785348,0.93604051087896,3.8128203712056496,54.81801899502192,,,0.5713653840954815,inf,,,0.8805439027613068
295,,0.0,0.0,1.773131440876635,1.7441722862883289,0.9231156515464863,3.4326645207876747,4.859476964181207,,,0.5978297680564633,inf,,,0.888662011257641
296,,0.0,0.0,1.7891215619293657,1.7411448238595233,0.9003395521396637,3.6740491144908876,3.8937569582920584,,,0.5713653840954815,inf,,,0.8870883429949763
297,0.992983170869553,-0.019859663417391062,0.0,1.3503467262843398,1.1966149918579547,0.8092962185198203,2.9105889414032613,1.309850203287792,,,0.5915533975974677,4.656463480375642,inf,,0.842014761027269
298,1.8476255699234392,-0.02463500759897919,0.0,0.9465207888176858,0.8982586522592085,0.7854768847224177,3.612178593342631,3.0037543083658256,,,0.6468212168108125,5.459529960131756,inf,,0.7189790174643501
299,3.6629515381514057,-0.03662951538151406,0.0,1.114932803832085,1.0763289481201392,0.7916793211264918,3.44281885117272,4.426571259086591,,,0.6309483474627791,8.006367567650246,inf,,0.6705138133312194
300,,0.0,0.0,0.9974027243506148,0.9003536226934541,0.6864644344100257,4.271712723317371,16.299601837255743,,,0.49759852643134905,inf,,,0.8844633772953545
301,1.1290714961528183,-0.0037635716538427276,0.0,1.4713015339556474,1.460461285915339,0.8437623441462035,4.201062458275421,30.628595507169244,,,0.5883313578629602,6.832853970809019,inf,,0.7068919621891547
302,,0.0,0.0,1.2975543134158856,1.2835407921926498,0.7841245923071521,4.407660412274136,52.36678888917093,,,0.5287703885177266,inf,,,0.8895202561602213
303,,0.0,0.0,1.0462898286576225,1.0068261383226995,0.8641307134883337,4.030444836982522,6.093449586904432,,,0.6125606311107803,inf,,,0.9228639842101404
304,,0.0,0.0,1.0585136053542965,1.0211458493068508,0.750014532642292,3.48286245531105,48.9785325254351,,,0.552929491858785,inf,,,0.7472949354945397
305,,0.0,0.0,1.2500270460522112,1.2026570933847425,0.8023599814231657,4.6579200975382005,57.89835241937395,,,0.6333676938231112,inf,,,0.935659073718171
306,1.4426921081925628,-0.009617947387950418,0.0,0.9918460634167406,0.9839353580685433,0.7093672696025466,3.637330781379334,3.969918154891852,,,0.6727386042041725,5.9870299500401165,inf,,0.7810525697018622
307,1.2611312181658847,-0.004203770727219616,0.0,1.1142460195253758,1.0606752744822967,0.6741002583875144,4.467480532748833,12.808834651177598,,,0.6602640781246099,6.964913692822086,inf,,0.84920302444885
308,,0.0,0.0,1.2509229819619974,1.2273574254439952,0.7722516960160896,3.796273086441648,46.83667002606336,,,0.5915533975974677,inf,,,0.8919429672662449
309,2.736335376846407,-0.018242235845642715,0.0,0.6380857527506588,0.5650884961271163,0.693508885831311,2.076378766963114,1.8334544691444914,,,0.648888643467878,7.7440033031827555,inf,,0.8711116267296901
310,,0.0,0.0,0.6782467715929187,0.6407985364422293,0.7152710991338413,2.1202529680360183,1.8810724663573057,,,0.648888643467878,inf,,,0.9232986594703141
311,,0.0,0.0,0.3340055355332284,0.3035462015981762,0.557125682435326,1.7750463360362347,1.719555534768131,,,0.6811855325194978,inf,,,0.9140922947231629
312,1.0886619578149417,-0.0036288731927164725,0.0,0.7231043185107177,0.6458121233764466,0.6053203686791729,2.033086852810054,1.50262648232756,,,0.6528756675646988,6.792444432471143,inf,,0.8557994241524433
313,1.9712411064564273,-0.013141607376376182,0.0,1.069577523797236,1.0319330162897493,0.6777775470520719,2.501992447563054,1.4019666873402827,,,0.6333676938231112,6.662632820949152,inf,,0.8253627652478658
314,,0.0,0.0,1.3258957438937493,1.3274001892458656,0.7563608755701456,4.678638688506933,2.340040813614639,,,0.6547956803312163,inf,,,0.9021405253792015
315,2.629548326697378,-0.01753032217798252,0.0,0.8328021675398596,0.7598482801317356,0.658639799626156,1.929814310699872,1.4409983195118736,,,0.6652988471865258,7.2966910851390905,inf,,0.7038275463083848
316,2.1073153640483016,-0.014048769093655343,0.0,0.5033765015163618,0.45885548453707914,0.6480336129956608,2.4653941206901053,2.0591714741636293,,,0.6713451011121618,6.918928579580262,inf,,0.7692832444412824
317,1.5929086104828898,-0.005309695368276299,0.0,0.6669465007374012,0.5941798309690293,0.6431761393364998,2.819747238538134,2.8975398323050077,,,0.6566669596287297,7.2966910851390905,inf,,0.790364081615048
318,,0.0,0.0,1.3341071975616934,1.3185677224336523,0.7541052954201861,3.6912531622344544,19.58177205914112,,,0.6619902821573977,inf,,,0.8427088150320835
319,,0.0,0.0,1.305096778119102,1.2451790045823699,0.7913301976025873,4.018838332652045,11.059724450637727,,,0.6528756675646988,inf,,,0.8920563870643621
320,,0.0,0.0,1.2810220071766025,1.2864172411795947,0.8147518273335486,3.2304850224371817,2.4521491433191867,,,0.6684167106117298,inf,,,0.9135362901040113
321,,0.0,0.0,1.0298714659509862,1.0245445301407496,0.7517381070858447,3.5180656369013628,3.7270598919634628,,,0.6584896970785714,inf,,,0.8990070344912634
322,,0.0,0.0,0.8202814826919494,0.8035427096197568,0.5808805824869364,3.095323266458804,5.643414644447496,,,0.6180765742263259,inf,,,0.7621295600409096
323,2.4432438182171645,-0.040720730303619404,0.0,1.1630772759109977,1.1446747733626514,0.7710251041469831,3.698520738319954,3.140103552969806,,,0.6602640781246099,6.465922526703098,inf,,0.8168909695811335
324,,0.0,0.0,1.0561901853709277,1.0344815704882246,0.7395540753821009,4.776118017320277,11.536964768003951,,,0.6357360191111145,inf,,,0.7893005796385059
325,,0.0,0.0,1.2432038200961972,1.1833949386162514,0.7743464716447933,4.18302894275836,5.951882733064754,,,0.680118107274185,inf,,,0.9226971137101213
326,2.0111670131229142,-0.013407780087486094,0.0,1.1332908003030266,1.101769114919061,0.7339493582245425,3.2227890611548524,2.1198216227335407,,,0.6068309995095971,6.930228134834196,inf,,0.6741065954171191
327,,0.0,0.0,1.134452377588717,1.1057508447109665,0.705329215144211,3.3078235612618316,3.129653360679594,,,0.6528756675646988,inf,,,0.8649055671930986
328,,0.0,0.0,1.4030070713591327,1.3479536753748744,0.8109576556422039,3.4806729418150577,4.737595582995786,,,0.68318204999448,inf,,,0.8179840182874504
329,,0.0,0.0,1.3192025290693963,1.283472171690406,0.7736356230236855,4.234270215628365,3.8361388083097676,,,0.675384900321601,inf,,,0.825209122620594
330,1.3863832579109505,-0.00924255505273967,0.0,1.1149330021035462,1.0744081314370162,0.7212461853575703,3.8112501618863486,2.8421980329361185,,,0.6652988471865258,6.16581793425276,inf,,0.6498609318663133
331,,0.0,0.0,1.3649877160126702,1.3395315597186064,0.7947876106126974,3.5550169207103695,2.328435990727939,,,0.6713451011121618,inf,,,0.9298600112079529
332,1.3862943611198906,-0.0046209812037329686,0.0,1.1750550074938193,1.13937200616137,0.8092259905809503,3.519269748364834,4.016569652897665,,,0.6652988471865258,7.090076835776092,inf,,0.9330654907726856
333,,0.0,0.0,1.0407236324151596,0.9707583905026624,0.641810865698962,3.511229821892274,5.277789584443602,,,0.6333676938231112,inf,,,0.9405900952877178
334,2.0199281884690152,-0.013466187923126769,0.0,1.166137431585592,1.1186669372025544,0.7300171396743276,3.485238982438976,8.884525694123937,,,0.663668482632973,6.437751649736401,inf,,0.7209780930604636
335,3.912023005428146,-0.013040076684760487,0.0,1.2917380117986372,1.2672426997242283,0.7994264973888167,3.693123139591431,2.7440992026053093,,,0.6566669596287297,9.615805480084347,inf,,0.702281488655116
336,2.0710676130292245,-0.01380711742019483,0.0,1.2294788165736041,1.1957748971269435,0.7870466009817327,4.322890517648171,15.30522612696271,,,0.6740851607140061,7.013115794639964,inf,,0.7700622878948347
337,,0.0,0.0,1.476024713484774,1.475540965603867,0.8655761536854398,4.019730890441471,12.281484824091018,,,0.6740851607140061,inf,,,0.9371656219565281
338,,0.0,0.0,1.2389579380268165,1.1852221551799438,0.7509111493280967,3.844379986419862,10.02767942240691,,,0.6858323589451731,inf,,,0.9209277509854688
339,,0.0,0.0,1.2626591703932117,1.2478244752111394,0.6781029869128892,4.23839748107853,9.300789114598324,,,0.684994737851132,inf,,,0.9320484099072787
340,1.4400388549633343,-0.014400388549633342,0.0,1.0948612665772284,1.0906805554512866,0.7729614409917963,3.622883599922602,4.068351025114749,,,0.6547956803312163,5.991464547107982,inf,,0.7786920827164854
341,1.4842747694800944,-0.004947582564933648,0.0,1.2168225059327635,1.1866538153155304,0.6410777166329218,3.8285933299618935,2.9977794750796884,,,0.6566669596287297,7.188057244136296,inf,,0.7109348754553577
342,,0.0,0.0,1.3993107153633653,1.401898483370393,0.82923964100173,3.854046083144738,5.557408469294917,,,0.6566669596287297,inf,,,0.9315731616557141
343,3.4011973816621555,-0.011337324605540518,0.0,1.18146176957894,1.1801824567436814,0.7997799673425594,3.633897270635199,6.760856674725511,,,0.6509067234006624,9.104979856318357,inf,,0.9530164302531924
344,,0.0,0.0,0.996582501304392,0.9584374885374596,0.7760156776859015,3.9491154471058354,8.986442729781,,,0.6380535849069913,inf,,,0.8672813934537308
345,,0.0,0.0,1.0743276313822674,1.0332079476204206,0.7801205566555842,2.8173198034162894,1.883011133122794,,,0.6684167106117298,inf,,,0.8869305941449179
346,,0.0,0.0,1.3300094362051171,1.2822988047788046,0.8163608982977715,3.607777670509179,3.671190897935516,,,0.6309483474627791,inf,,,0.812461985018013
347,,0.0,0.0,1.2077385175299276,1.1903442064126653,0.7472824869285789,4.0912474618319,1.8248348794786171,,,0.6822068148872973,inf,,,0.9526360422711037
348,,0.0,0.0,1.1816986758276427,1.1337733639293146,0.7332638176728086,4.326739438661067,23.439609564190974,,,0.676637947632344,inf,,,0.8581233992249324
349,,0.0,0.0,1.100717547520291,1.07291077987923,0.6939777707384608,4.691236324720004,8.96318034363522,,,0.663668482632973,inf,,,0.9204821487410987
350,4.0943445622221,-0.013647815207407002,0.0,0.9278571055245411,0.8572173363566854,0.6859982872644541,3.391423311513263,2.334123564371156,,,0.68318204999448,9.798127036878302,inf,,0.9370153569026392
351,,0.0,0.0,1.2259952267422858,1.2062621669727003,0.8011754734830006,4.4467429506038085,7.567159348042055,,,0.6790044388599258,inf,,,0.8802042083184752
352,,0.0,0.0,1.1711385377323913,1.081981683984935,0.7190732677098906,4.352893313788068,25.771185318079976,,,0.6727386042041725,inf,,,0.8774267525403269
353,,0.0,0.0,1.0151732964657236,0.9914156956899821,0.6905682387326356,4.1402579852366275,13.773185715529962,,,0.6547956803312163,inf,,,0.9179797445604462
354,,0.0,0.0,1.1559965070502407,1.1603650924965332,0.682251678351169,4.076889946997219,13.162432264005192,,,0.6547956803312163,inf,,,0.7807696185836618
355,,0.0,0.0,0.9433947060866724,0.8984925525592972,0.6685054252127963,3.7681994551599938,9.148841078080418,,,0.680118107274185,inf,,,0.9149073117209122
356,,0.0,0.0,1.0485937320426222,0.9820682013093907,0.6510231380332456,3.872896166450019,2.926648942911227,,,0.6841113288387766,inf,,,0.8707565082550315
357,,0.0,0.0,1.2328971440605423,1.16911884986021,0.7637587237289383,3.636650146274077,3.331636393206825,,,0.6713451011121618,inf,,,0.8073985112028885
358,,0.0,0.0,1.1228935574927708,1.0987942559806694,0.6728123115655633,3.865148045818405,2.488972782145491,,,0.6652988471865258,inf,,,0.7200664676580149
359,,0.0,0.0,1.0684926893335973,1.0183794806432795,0.7510847485940649,3.649541129935664,7.408809759386884,,,0.663668482632973,inf,,,0.6750564916016497
360,,0.0,0.0,1.0093620825274294,0.9739206694906839,0.6533774620789092,2.656458663693383,2.184515658859012,,,0.6233814453054027,inf,,,0.7884619922950182
361,,0.0,0.0,0.8959955997073069,0.8477532714490675,0.6677628666756045,2.4166555438711717,1.2866022902515528,,,0.6668815377411301,inf,,,0.7081035261326976
362,,0.0,0.0,1.1034362126375912,1.0851757282122474,0.6933838584213484,3.3303735419331537,2.4666059743631994,,,0.6740851607140061,inf,,,0.8600815392464756
363,,0.0,0.0,1.1822240507600117,1.1465254702620278,0.7545979503593764,3.2234019370163804,2.8153103407556994,,,0.6447042257417027,inf,,,0.6506279797884073
364,1.1661786256638578,-0.007774524171092385,0.0,0.7446540970043932,0.7149337064016256,0.6267652088124904,3.203943843946502,2.646013197171903,,,0.663668482632973,6.160540877151916,inf,,0.6338878320392826
365,5.0106352940962555,-0.016702117646987518,0.0,1.3018668469724204,1.3057859536313317,0.777827061028062,3.9890391946395933,11.695191215092741,,,0.6547956803312163,10.714417768752456,inf,,0.865601563564062
366,,0.0,0.0,1.0355366135234934,0.9749362998361298,0.7468596238034977,3.0501925300260964,3.2508753204449596,,,0.6333676938231112,inf,,,0.7232077543129373
367,,0.0,0.0,0.963042410310964,0.8898861406645475,0.6621905754140333,3.8344033668516073,7.595616281408716,,,0.6447042257417027,inf,,,0.8582078093100053
368,2.1007014804912343,-0.021007014804912343,0.0,0.829877520128463,0.792256473780218,0.6658780430666008,3.04332907213849,2.2286187355769043,,,0.648888643467878,6.517215821090648,inf,,0.7751771848430559
369,2.008691760542986,-0.013391278403619908,0.0,1.1489048556813783,1.1331003286575736,0.7215941506696334,3.8328777601394064,3.160811423500586,,,0.6547956803312163,7.013115794639964,inf,,0.7582518854933935
370,,0.0,0.0,1.2032452657437198,1.1994644251482505,0.7417634181514484,3.558826441994199,5.489787232937514,,,0.6778444222523095,inf,,,0.8131693130657447
371,,0.0,0.0,1.0189807818684882,0.9788220842834134,0.7159028164928503,3.6754581263133397,5.426427086131618,,,0.675384900321601,inf,,,0.7934720902222657
372,,0.0,0.0,1.0798483051369954,1.0643637991931254,0.7950184579393513,3.094070673032517,2.2870325446065913,,,0.6684167106117298,inf,,,0.7529566508764383
373,,0.0,0.0,0.7016699833365764,0.6527867134913732,0.7365306232998602,3.841644883766487,6.182418387876548,,,0.62595550513784,inf,,,0.6227409233725408
374,,0.0,0.0,0.8649285438245683,0.813482914920909,0.6370472897038547,2.722421183192085,1.6022432580198966,,,0.688071247053758,inf,,,0.81132964444271
375,,0.0,0.0,0.9857212791226485,0.9810797153540258,0.6888504549328885,3.5273279448804127,2.6505110650392116,,,0.6893362020498699,inf,,,0.9349164164381402
376,,0.0,0.0,1.0851178487945374,1.0496794921511992,0.6914501926467804,3.4176300990474036,3.2054917401530942,,,0.6652988471865258,inf,,,0.8903400201155589
377,1.4411025976148857,-0.004803675325382953,0.0,0.8114102564180207,0.7859313485893407,0.7210488192565204,3.291631852220925,4.102088767287268,,,0.6403206450210053,7.144885072271086,inf,,0.8505816058341421
378,,0.0,0.0,0.8025263609515711,0.7837566425635702,0.6539827532199721,3.2808667652081986,2.6244595949505194,,,0.6652988471865258,inf,,,0.7579809761190706
379,,0.0,0.0,1.2650352314381008,1.2048018392506057,0.7916729171879913,3.3411741809770783,2.0260436536632533,,,0.6619902821573977,inf,,,0.8732957812285318
380,,0.0,0.0,1.22004230503705,1.1791979104761332,0.7566566216757352,3.5110873391527706,2.1120902121623897,,,0.6790044388599258,inf,,,0.88493736015614
381,,0.0,0.0,1.0212791668149355,1.002884237863861,0.6774730724762787,3.33806210712321,1.9412241543546012,,,0.688071247053758,inf,,,0.9336212159324812
382,1.8971199848858813,-0.006323733282952938,0.0,1.0366003445911278,1.0143892432128019,0.7672322215031845,3.419656288296976,3.050871924879343,,,0.6447042257417027,7.600902459542082,inf,,0.8244114306151709
383,,0.0,0.0,0.7911170109497196,0.7765642342296052,0.6829392958253885,2.9818436490679248,4.378924921131834,,,0.6602640781246099,inf,,,0.6455423257624533
384,2.7593434954897607,-0.009197811651632536,0.0,0.8175759011733855,0.782324992215906,0.6608442743038802,2.7459475138203517,2.322356263210593,,,0.6380535849069913,8.463125970145962,inf,,0.7482670788362559
385,,0.0,0.0,1.0019865028337822,0.9533215485319089,0.6687119112392131,3.254554476520629,6.96514474179511,,,0.62595550513784,inf,,,0.6549295546254251
386,,0.0,0.0,0.8096272327105575,0.7788178926863835,0.6446371752279247,2.632980840344448,1.9258432735942215,,,0.6180765742263259,inf,,,0.80761963609563
387,,0.0,0.0,1.3142362024189442,1.3156527051499776,0.8370062846571554,3.1598250109964434,2.5748928783526495,,,0.6309483474627791,inf,,,0.8689754621706315
388,,0.0,0.0,1.3538229310911176,1.3106611090049636,0.769467983534126,3.781355162621503,2.6096798237644605,,,0.6713451011121618,inf,,,0.9176438623060001
389,,0.0,0.0,1.2336482293515638,1.2015806503890825,0.7828990455212421,4.287302147404016,4.7391517998533415,,,0.675384900321601,inf,,,0.948323915390218
390,,0.0,0.0,1.2810849830066253,1.2636187644865895,0.8403378328467465,4.445414892818069,5.324782613469549,,,0.6713451011121618,inf,,,0.9557382858320705
391,,0.0,0.0,1.0794376314285723,1.0141035913288763,0.6999966937924798,2.5948150594680444,2.3662033876641644,,,0.663668482632973,inf,,,0.9347728780901206
392,,0.0,0.0,1.1320521480474963,1.0724104518201236,0.6997246206915145,3.6736171541015206,3.5365470946128803,,,0.6699045166045591,inf,,,0.9386749566741379
393,,0.0,0.0,1.2873682780311972,1.237013934817487,0.8412310615652905,3.3040564599260747,5.579296853537466,,,0.680118107274185,inf,,,0.8609016093401394
394,,0.0,0.0,0.7961867372012804,0.7643275663530166,0.7541181137605351,2.9386979167804315,5.603481409112403,,,0.6684167106117298,inf,,,0.9071584703824663
395,,0.0,0.0,1.127846718203429,1.108865168046802,0.7216064105380263,2.492798573792677,1.9833397025387498,,,0.6866242695638369,inf,,,0.932703794234619
396,,0.0,0.0,0.8642145774701879,0.8143709015155649,0.700541479267722,2.535505526783305,2.5021609384201335,,,0.6684167106117298,inf,,,0.9528189654566216
397,,0.0,0.0,0.9122032691089454,0.8845130102147044,0.596145905149776,2.076487152328484,1.8544331275380488,,,0.6468212168108125,inf,,,0.9382655117291975
398,,0.0,0.0,1.1037496444470805,1.0536055892914604,0.7801386883344494,2.496969930876799,2.3643094572303878,,,0.6619902821573977,inf,,,0.9478997981508823
399,,0.0,0.0,1.275574943049986,1.2292862690786828,0.8870458415047228,3.1692966123873987,2.9668631807042543,,,0.6713451011121618,inf,,,0.9358811639117791
400,,0.0,0.0,1.1565624353882142,1.1172975546861807,0.7473681520128942,2.9894258317372713,6.180770227463528,,,0.6357360191111145,inf,,,0.948189435889862
401,,0.0,0.0,1.1640157726991969,1.1505909070117213,0.7977943366556741,2.563112453122579,2.7039024180167313,,,0.6207552362147116,inf,,,0.9463423374059067
402,,0.0,0.0,1.7856728901028582,1.7692313518242782,0.9201885444760619,3.494056662023536,19.92244312005168,,,0.6652988471865258,inf,,,0.8841743057246538
403,,0.0,0.0,1.7603002171468196,1.6971568792221041,0.9270759670675132,3.9291862236849737,52.766574269071654,,,0.6528756675646988,inf,,,0.8661405002150299
404,,0.0,0.0,1.3245894253605057,1.2493267297024555,0.7923305763156733,3.489498272555647,6.834670393719314,,,0.675384900321601,inf,,,0.9171892733903447
405,,0.0,0.0,1.5995852079448567,1.545608793119972,0.8388759086683805,5.187583877313619,68.8374530659777,,,0.6509067234006624,inf,,,0.9172933023538018
406,,0.0,0.0,1.4880217448784425,1.4526452331839823,0.8169753436989738,4.425792842667168,80.03261473275953,,,0.6333676938231112,inf,,,0.9008788059277111
407,,0.0,0.0,1.6289493484527562,1.6325218822549383,0.901938381517548,4.431579513238969,104.23742008596436,,,0.6425374456860184,inf,,,0.9018344088214117
408,,0.0,0.0,1.7579886639601559,1.715141104701404,0.9463322113728222,4.653573486745232,523.796495285639,,,0.6153451465759925,inf,,,0.8510733545115229
409,,0.0,0.0,1.2467165950337808,1.2115181895125702,0.7565280177208457,3.937887583739893,10.710610968448625,,,0.6233814453054027,inf,,,0.903149122751017
410,,0.0,0.0,1.7781796816226394,1.7193655239498522,0.9172256316393427,3.9620290479334406,207.43434747686987,,,0.6309483474627791,inf,,,0.8400978339058237
411,,0.0,0.0,1.7841136028336286,1.7175697573731377,0.8873972182500498,4.179358286765171,2.096952930734597,,,0.6468212168108125,inf,,,0.9065255076436628
412,,0.0,0.0,1.777461101843521,1.764124709115458,0.8823373389888021,4.179620093475654,93.83660167774745,,,0.6207552362147116,inf,,,0.9057312375167421
413,,0.0,0.0,1.5153051188635378,1.4845230906831561,0.9040866475040356,3.969793287261701,70.1862030600507,,,0.6153451465759925,inf,,,0.9230702416357565
414,0.6100322738494387,-0.0020334409128314624,0.0,1.2084050648192206,1.1940245677595152,0.7468667416637753,4.0853360126394875,24.054548720598753,,,0.6547956803312163,6.3138147485056395,inf,,0.7600864684929727
415,4.205916337879206,-0.028039442252528038,0.0,1.0714243566399015,1.031908645210264,0.781902152290381,3.8997058760910273,29.951330379097712,,,0.6684167106117298,8.36304251158898,inf,,0.8952730612646617
416,,0.0,0.0,1.7787204831262058,1.7424903520688606,0.8945341585662425,3.9899461803104836,174.38989252966877,,,0.6619902821573977,inf,,,0.9018473695290022
417,,0.0,0.0,1.3172212187343912,1.256225129512613,0.8359851545630234,4.191091985371479,19.274938548018795,,,0.6097226960127671,inf,,,0.9212065138486061
418,,0.0,0.0,1.0838351887444126,1.017232840600667,0.8252132660204767,4.212116070492995,59.10904175922053,,,0.6207552362147116,inf,,,0.9363895522557419
419,,0.0,0.0,1.7792775883815046,1.744495697755222,0.9095614005643854,4.328475512852963,98.32280904828426,,,0.6447042257417027,inf,,,0.900414521441639
420,,0.0,0.0,1.0561439687920902,1.0356076699415915,0.8002240565141109,2.8686329906009997,2.0243147914845823,,,0.6380535849069913,inf,,,0.847743763234978
421,,0.0,0.0,0.8435889457438623,0.8270590454000712,0.8578035103872366,0.3980872970840866,0.45396737194232395,,,0.6528756675646988,inf,,,0.9120676174734701
422,,0.0,0.0,1.0204679578612597,0.9755212943307007,0.8915304071989069,0.5223433057272684,0.6387544892994056,,,0.6602640781246099,inf,,,0.9445139259660567
423,,0.0,0.0,0.45711687490834657,0.41496389756414875,0.9237968500003998,0.5130891481747625,0.7853174510500699,,,0.6425374456860184,inf,,,0.9422479572069262
424,,0.0,0.0,0.598652759157524,0.5510938885624256,0.8908307696488633,0.6814508317405737,0.9580092198499058,,,0.6547956803312163,inf,,,0.9239999791389093
425,,0.0,0.0,0.5934247308654913,0.5031932424577661,0.8553032741957654,0.6384002825792024,0.6989877565545983,,,0.6207552362147116,inf,,,0.9355712740680384
426,,0.0,0.0,0.6679109679191518,0.6277836167553179,0.7785243791758717,0.7509387954200043,0.6661797742515805,,,0.6357360191111145,inf,,,0.9466261982904965
427,0.6199929434758095,-0.006199929434758095,0.0,0.6977963545111577,0.6138265435402662,0.551205746801528,1.8695022280856128,1.225036357662345,,,0.6468212168108125,5.134687942766234,inf,,0.6928497848749641
428,,0.0,0.0,1.7421374666301834,1.708876594253969,0.9376044850654907,4.403355806564586,1.7638134988683767,,,0.5641709578113449,inf,,,0.881472578025044
429,,0.0,0.0,1.7877595880775237,1.7670601889763835,0.9556896325376469,4.256055270546749,238.77754574456412,,,0.5370774965580548,inf,,,0.8491079756450605
430,,0.0,0.0,1.2543623417268406,1.108285835118065,0.8031393311911527,1.7031940330307258,0.9487113980695114,,,0.5883313578629602,inf,,,0.8703594256182849
431,,0.0,0.0,0.1469052641087327,0.09814265933549804,0.4360961261329985,0.5356341367695319,0.7622641457070648,,,0.6284777104787076,inf,,,0.9507858971486549
432,,0.0,0.0,0.16656787659450742,0.08606529858121341,0.4590911310072191,0.6395945317979527,1.0473431814892855,,,0.6068309995095971,inf,,,0.5776751937527846
433,1.469824053523568,-0.04409472160570704,0.0,0.9261566557437888,0.9010860897321546,0.7531377935204745,4.452572439371231,13.433311126345334,,,0.6468212168108125,4.504822212153809,inf,,0.6642589250959623
434,1.4413028937797445,-0.014413028937797445,0.0,1.465373342768665,1.4233101690644856,0.8146742356942718,4.787319623128661,84.18512194681111,,,0.6447042257417027,5.674223672414657,inf,,0.741788221104179
435,,0.0,0.0,1.347140271946975,1.3048870057308664,0.8980877221087801,4.5642381942053865,126.46797020468966,,,0.6528756675646988,inf,,,0.8165758090161975
436,2.336486644669727,-0.007788288815565757,0.0,0.7682792310732259,0.7219064224865211,0.6926277802323085,4.16940234398115,19.372074655005143,,,0.5677978065141052,8.040269119325927,inf,,0.6646948213248463
437,,0.0,0.0,1.0518255964890366,1.0491293443818157,0.7589819227773187,3.8579475755612553,29.42697177662933,,,0.5451288209179292,inf,,,0.8923432443456167
438,0.8595953881976097,-0.002865317960658699,0.0,0.694373263981246,0.6299476713177811,0.5632911551742467,4.106239302643614,43.21764552328472,,,0.585052858160615,6.563377862853811,inf,,0.7550664498819889
439,,0.0,0.0,1.768001852951377,1.728451332836148,0.9314281836152409,3.7274774538348603,27.781998988773363,,,0.524519217297268,inf,,,0.8842741330780165
440,1.0886619578149417,-0.0036288731927164725,0.0,0.5706137201666738,0.5341484755740197,0.3925721309326309,3.9837489120513125,49.79266986701628,,,0.5641709578113449,6.792444432471143,inf,,0.7051646907448655
441,1.0593915755148284,-0.003531305251716095,0.0,0.7400731684814434,0.7162607072451407,0.6770031176755993,5.183669067268572,8.160503396902087,,,0.5883313578629602,6.763174050171029,inf,,0.687704858217841
442,,0.0,0.0,1.1225131530242067,1.0936813325396102,0.8067910837125634,3.8160704568530788,8.547345774820695,,,0.5202020156036558,inf,,,0.8257763810901905
443,,0.0,0.0,1.7759548523257487,1.7728701507459685,0.9464923503772595,4.0759360614589895,95.78874663770135,,,0.552929491858785,inf,,,0.8541448836705585
444,,0.0,0.0,1.7655826803309798,1.7430889822226159,0.9414987826339739,3.87839767559042,106.98900331934958,,,0.5287703885177266,inf,,,0.8582484925004692
445,,0.0,0.0,1.7749563833820545,1.7510152163472716,0.9545624818529032,4.361995709354687,23.53378274151152,,,0.5748741956352443,inf,,,0.8605424432565635
446,,0.0,0.0,1.7540341734141565,1.7252255874626945,0.9282806701390606,4.000117963922875,58.7107276536731,,,0.524519217297268,inf,,,0.8405138652584494
447,,0.0,0.0,0.9188122664499141,0.9051251865030278,0.6292663545316127,3.5063856878574287,90.57707800426678,,,0.585052858160615,inf,,,0.9204392946597256
448,,0.0,0.0,1.2852456713386091,1.2600546404075268,0.7059922563031713,3.679942499268646,8.133749571284032,,,0.663668482632973,inf,,,0.9322219758401189
449,,0.0,0.0,1.7744000871680345,1.7516330160432874,0.9277920183613325,3.913050697730003,81.11808649678774,,,0.5677978065141052,inf,,,0.8882146035300121
450,,0.0,0.0,1.6345868005849025,1.596462124911611,0.9369521719043811,4.191519186575762,28.80863202499305,,,0.5490601803369085,inf,,,0.8979330639535277
451,,0.0,0.0,1.7537164450449474,1.7374112134283577,0.9398000132681545,3.5328649821959517,27.02071464941723,,,0.5604843169999094,inf,,,0.9007500316614484
452,,0.0,0.0,1.7588579663053174,1.7272299183528212,0.9221025346788676,2.8397711919372832,14.273354140754817,,,0.5748741956352443,inf,,,0.8620912137367333
453,,0.0,0.0,1.7623208607539687,1.70843578817245,0.9236906759312153,3.6147457106006406,10.347901755241658,,,0.541134803179459,inf,,,0.8819379337547463
454,,0.0,0.0,1.7771245894969394,1.7306960013139758,0.9323639652993821,3.1084889048357147,22.89156122862892,,,0.541134803179459,inf,,,0.8788310278793795
455,,0.0,0.0,1.4417476036789607,1.4376990113039423,0.9060792033627184,3.109075421873335,31.300170832949064,,,0.5287703885177266,inf,,,0.8870963407947908
456,,0.0,0.0,0.4669010610795933,0.4355415721569362,0.9250154826010759,3.0970712142738352,4.039683620181452,,,0.5370774965580548,inf,,,0.6220215235589093
457,,0.0,0.0,0.9043820370877742,0.8840796893038434,0.7578449848212504,3.2204209275293265,10.015525057317042,,,0.5158180382284114,inf,,,0.8467054005146651
458,,0.0,0.0,1.2750472022049573,1.224638591615753,0.7729896487303921,2.393825297506514,2.67498741426331,,,0.4928685327679205,inf,,,0.9006828502422689
459,,0.0,0.0,0.9099825931432705,0.8406533337676304,0.6259777676083762,2.5287444861004995,2.8946177012569567,,,0.5604843169999094,inf,,,0.8062621236197577
460,,0.0,0.0,1.0860441748841128,1.0405501647280504,0.7733676805469385,3.9959810143123824,13.70585869284038,,,0.49759852643134905,inf,,,0.9093264400651049
461,,0.0,0.0,1.4273627369577628,1.4119778733103834,0.9607880510132956,4.818848779370899,4.269592004883452,,,0.5202020156036558,inf,,,0.8566354567401817
462,,0.0,0.0,1.505046304137995,1.4825108438684804,0.9020978975700633,3.2861096126244136,2.5905136209160364,,,0.5158180382284114,inf,,,0.8758813185390145
463,,0.0,0.0,0.8195308369265205,0.755970084250672,0.7286171301734805,4.00523438951376,33.93395596145554,,,0.5451288209179292,inf,,,0.9042136201804654
464,,0.0,0.0,1.7771243433412478,1.7545103701075169,0.9497333609835548,3.8002168394640177,77.8037907295734,,,0.5068466436745385,inf,,,0.8803854785551051
465,,0.0,0.0,1.7805232312931474,1.7647480689609,0.9529352630066008,4.00069969527776,21.274068236263805,,,0.5287703885177266,inf,,,0.8716497232924754
466,,0.0,0.0,1.766490246838824,1.7593632011689397,0.9596301646217174,3.8584187366654734,46.82853471296565,,,0.524519217297268,inf,,,0.8483829610090284
467,,0.0,0.0,1.1682718529354321,1.165369517704169,0.6897253267999655,4.165829375637192,35.617371820686515,,,0.6125606311107803,inf,,,0.839817264381139
468,,0.0,0.0,1.1654038078450575,1.1513019623543672,0.8281065899341925,4.076522568382063,22.04702057106281,,,0.5113665138247345,inf,,,0.9066356706136472
469,,0.0,0.0,1.7740451084537499,1.760322808680296,0.9411194453543765,4.941377511912047,8.578101178463143,,,0.5451288209179292,inf,,,0.881512659578404
470,,0.0,0.0,1.7861528734277234,1.7440554414274678,0.937854237722531,4.344827875150417,65.98751765641224,,,0.585052858160615,inf,,,0.8968124582215422
471,,0.0,0.0,1.7758211604805023,1.7577680378289442,0.9380955083465634,4.176399510850273,38.33510637764035,,,0.5947193981915972,inf,,,0.9074715796804357
472,,0.0,0.0,1.782660918934755,1.7739099581857145,0.9337687878056468,4.276031720092619,75.48781142617459,,,0.5329562494928909,inf,,,0.914268533677448
473,,0.0,0.0,1.783792832802534,1.746536302869866,0.9344294378083482,3.6977183716404585,18.256458006133343,,,0.5567373465730988,inf,,,0.9261286279252813
474,,0.0,0.0,1.1438865339822348,1.0835504042734998,0.7340887496402939,4.293421701614888,20.108160393494195,,,0.5915533975974677,inf,,,0.8604673998102195
475,1.4696759700589417,-0.004898919900196472,0.0,0.821750061441278,0.801530452422741,0.7592816126289428,2.4085845676441604,2.357561435058294,,,0.5370774965580548,7.173458444715143,inf,,0.8843147999432344
476,,0.0,0.0,0.7242201980406839,0.7036640786198749,0.676722918395435,2.938927678443272,4.285833775585575,,,0.5158180382284114,inf,,,0.8409494728596811
477,,0.0,0.0,1.753099641958022,1.737087517035411,0.9539253781936505,3.032155648931264,4.450469383004043,,,0.47824363442641393,inf,,,0.8310439649733149
478,,0.0,0.0,1.7709286404678053,1.7720648861331716,0.9565946474971595,2.979209914498147,6.869561406749879,,,0.49759852643134905,inf,,,0.8313153694265116
479,,0.0,0.0,1.7573626924523402,1.737577569193723,0.9488727219927281,3.4045423890914903,4.727733021682814,,,0.4629450596409901,inf,,,0.8423674105205431
480,,0.0,0.0,1.7428387397093232,1.7101534865733887,0.9614501636109236,3.074038393686324,2.9678430747162645,,,0.5370774965580548,inf,,,0.8085582957129985
481,,0.0,0.0,1.7701980500557795,1.7793178575470407,0.9633958209855151,3.1302547278529382,8.423770423845404,,,0.5022576003740722,inf,,,0.8499320388080389
482,,0.0,0.0,1.7554530225339502,1.753733117684559,0.968708402272277,3.5230393222438376,7.586107775375775,,,0.4928685327679205,inf,,,0.8557731508244227
483,,0.0,0.0,0.7314748224103187,0.7164741449176654,0.6892616737032904,3.645086872583618,11.855298961761278,,,0.44694259446804574,inf,,,0.8553781290556565
484,,0.0,0.0,0.9937451987173672,0.9427847317038437,0.7329326270907605,3.0683209326861993,2.65066045102832,,,0.5329562494928909,inf,,,0.911411003498773
485,,0.0,0.0,1.7279403662433008,1.6567658927380209,0.9434692413729002,3.4731463769930015,4.777475091463533,,,0.5451288209179292,inf,,,0.9161516968571815
486,,0.0,0.0,1.7266335870212752,1.7035987494141664,0.9139139928756373,2.9632973911107436,2.584116342118781,,,0.4732203808476458,inf,,,0.8818773909169062
487,,0.0,0.0,1.629418013787645,1.6072336380916588,0.8883276285249716,3.080024520826717,2.9714754154840577,,,0.5068466436745385,inf,,,0.8559208761270451
488,,0.0,0.0,0.7078234133645415,0.6321174667158037,0.6433158688122378,2.5709289920929432,1.7551548719116434,,,0.5068466436745385,inf,,,0.8464372673428139
489,,0.0,0.0,1.1658102928740057,1.1360375080022163,0.773610037931639,2.686420578362792,2.8239271470219713,,,0.5113665138247345,inf,,,0.910366667265708
490,,0.0,0.0,0.7393911539811967,0.7228053101186163,0.6726983712064084,2.1903587130737736,2.4827067941724894,,,0.5022576003740722,inf,,,0.7030359549450773
491,,0.0,0.0,1.7318269166228921,1.7012453856140028,0.9361448867743001,3.2319989192266223,1.9504399116503062,,,0.5287703885177266,inf,,,0.8925876740734714
492,,0.0,0.0,1.6972214980827491,1.6800126865379015,0.922036788787895,2.6099659996543654,2.83455774442076,,,0.42445136339222655,inf,,,0.8696426673299417
493,2.5257286443082556,-0.008419095481027518,0.0,0.4999816666436416,0.4595655631992146,0.701946861964531,2.0974391550782667,2.4403156879960375,,,0.5783247308855777,8.229511118964457,inf,,0.8253995724400899
494,,0.0,0.0,0.8037800524564543,0.7755906535697813,0.6548885937809481,2.7125254299360466,2.4951682089043508,,,0.5158180382284114,inf,,,0.7996511918655719
495,,0.0,0.0,1.689149825022568,1.6787698014215313,0.9622401481007943,3.388678065875907,15.032874066578762,,,0.5202020156036558,inf,,,0.8402240231577233
496,,0.0,0.0,1.7457529864176653,1.7131306383732887,0.9756180235496321,3.3480342872008273,2.7855373376393464,,,0.4576907132971797,inf,,,0.8018942058290474
497,,0.0,0.0,1.7392159260511728,1.730316998034245,0.9771662090250063,3.6206873907552093,4.044446592744599,,,0.5068466436745385,inf,,,0.7949716476901884
498,,0.0,0.0,1.7259480619715308,1.7153312417306517,0.9490467830844372,3.8726201116714245,4.5112976635375155,,,0.4629450596409901,inf,,,0.7806216745570249
499,,0.0,0.0,1.1565379289284,1.1006434845942437,0.7923870856697912,2.526095660402973,2.787586344890323,,,0.5113665138247345,inf,,,0.881766956293404
500,,0.0,0.0,1.5666320639357416,1.5330856612611203,0.9087508577479937,2.2861909541309893,2.5355311329300285,,,0.5287703885177266,inf,,,0.8220501522772622
501,,0.0,0.0,1.359300036751868,1.3170572931739055,0.8118359371168952,3.7334804466974263,10.15880214503468,,,0.5883313578629602,inf,,,0.9285880914027949
502,,0.0,0.0,1.617780254349186,1.5653136292345586,0.919040393624295,4.383176327130706,8.874327898355151,,,0.5158180382284114,inf,,,0.8966793876105333
503,,0.0,0.0,1.150410094770729,1.1240993961527954,0.827842580656246,4.326596302494682,11.065963066503974,,,0.6008849035917525,inf,,,0.831303418438647
504,,0.0,0.0,1.2422727187430158,1.2324600410463353,0.8053945945688097,3.6204379707837995,3.5322397263111327,,,0.6727386042041725,inf,,,0.9206986988638468
505,,0.0,0.0,0.9658261557313852,0.9281701177904808,0.7739172748004931,2.617243409035596,3.1284355900359597,,,0.5370774965580548,inf,,,0.8305039551521917
506,,0.0,0.0,1.0936599052008094,1.026665096790993,0.8044874449444571,3.0014055115669125,3.7976379803392253,,,0.6097226960127671,inf,,,0.9459229256943619
507,,0.0,0.0,1.3792945308839115,1.3399589964533316,0.8595761267304615,3.2460838697609753,3.2860010854549664,,,0.6008849035917525,inf,,,0.9246245763772601
508,,0.0,0.0,1.451007585112571,1.4335644021627063,0.8983531714340341,3.9477376765153833,2.201763012627206,,,0.581717464821069,inf,,,0.9218212226639373
509,,0.0,0.0,0.8774382844835964,0.8423335082037439,0.8278540260798499,2.5965116196507716,1.763796264884244,,,0.6380535849069913,inf,,,0.8557007409895332
510,2.995732273553991,-0.00998577424517997,0.0,0.7848358412412969,0.7496326366015262,0.7005171696216709,2.9162102306656457,3.0707372583860457,,,0.62595550513784,8.699514748210191,inf,,0.9481442273394105
511,,0.0,0.0,0.6251518137396231,0.5731487788391635,0.5980543074396968,2.9351982441105435,3.5897706408277195,,,0.6713451011121618,inf,,,0.9468740280298503
512,,0.0,0.0,1.1579476704312703,1.1508136543789484,0.7568819248780233,2.6457746084215223,1.5931171570858464,,,0.663668482632973,inf,,,0.9494597492960396
513,,0.0,0.0,0.953666995987835,0.9105977457006643,0.7525781002831184,2.3114412593179714,2.440677303872876,,,0.581717464821069,inf,,,0.9461842377629575
514,,0.0,0.0,0.9424126520487123,0.8826964940015102,0.6744079776246689,2.6118109426765446,2.1644824588280636,,,0.6357360191111145,inf,,,0.9288586132700236
515,,0.0,0.0,1.0120458789032283,0.9560534673567501,0.7347765180184901,2.912931432882902,2.66582569197566,,,0.6284777104787076,inf,,,0.92887061906678
516,,0.0,0.0,0.5860883347868542,0.5637071019713901,0.5441835564236689,2.4381414061331976,2.6568418923502413,,,0.6008849035917525,inf,,,0.9425361066107001
517,,0.0,0.0,1.3264969669730609,1.2641588107078596,0.9020123352670276,2.0639100757556985,3.01631038729446,,,0.5567373465730988,inf,,,0.909651539695034
518,,0.0,0.0,0.7086011617685968,0.6874782473306422,0.640746490338967,2.261811178835379,3.1905409758336365,,,0.6097226960127671,inf,,,0.8452271648329962
519,3.3058872018578307,-0.011019624006192769,0.0,1.048646542896637,1.0314495056344322,0.7909350384161058,4.302770546344554,22.50160788169915,,,0.6547956803312163,9.009669676514031,inf,,0.7432460231025834
520,1.027168544893836,-0.00684779029929224,0.0,1.1150122050238838,1.060407036689608,0.7005605349860325,3.018009430138088,3.0909261014828635,,,0.6509067234006624,6.036926921184739,inf,,0.7030563315843824
521,,0.0,0.0,0.8737448385112114,0.8376196130337955,0.6847403589306947,3.0633071159818455,5.807810938182294,,,0.6713451011121618,inf,,,0.9425780796445721
522,,0.0,0.0,0.39836821029223257,0.36433019816305157,0.5730289310299215,2.5775782930413165,2.578385748716074,,,0.6547956803312163,inf,,,0.9278362648393937
523,,0.0,0.0,0.8911742122834457,0.8509818797468284,0.7550857995804469,2.0960262751998826,2.085129178847102,,,0.6357360191111145,inf,,,0.911372117655542
524,,0.0,0.0,1.0707989823084572,0.8931264356211389,0.7575285523033729,2.8712027999424494,2.1499471080604735,,,0.6602640781246099,inf,,,0.800864611319938
525,,0.0,0.0,1.1059736257259085,1.076495556060712,0.7456380939177951,2.795616314025739,2.6271834820080353,,,0.6566669596287297,inf,,,0.817669253562886
526,,0.0,0.0,0.7444671882115175,0.7427744484419728,0.6150142606196131,2.737173484455485,1.9230096776173426,,,0.6619902821573977,inf,,,0.8841010250581685
527,3.7477709719421277,-0.02498513981294752,0.0,1.141784632397162,1.0825133732388834,0.765971212694956,2.634322117995594,2.5857652354832026,,,0.6403206450210053,8.699514748210191,inf,,0.8318306735289825
528,,0.0,0.0,1.0418647679436057,0.9974735047563809,0.7411656471704043,2.9650639096054854,3.206918766795463,,,0.6727386042041725,inf,,,0.7688726874257589
529,,0.0,0.0,0.6034541592616323,0.5535732533209339,0.67206812683395,2.3940295428943066,3.5525770365446063,,,0.6357360191111145,inf,,,0.8419291461190502
530,,0.0,0.0,0.8806337990532824,0.8377706564721988,0.7006315493636806,2.4944466677163017,1.447511905841881,,,0.6528756675646988,inf,,,0.9457540478150852
531,1.160487692386197,-0.00386829230795399,0.0,0.9846644596764683,0.9662064336127801,0.7269189272003602,3.292510277979174,3.985649426367484,,,0.6309483474627791,6.864270167042398,inf,,0.8165266502306032
532,0.647536669307893,-0.0021584555643596433,0.0,0.973970214031806,0.954525980649874,0.7077912566592001,3.124275417210483,4.813794624759197,,,0.675384900321601,6.351319143964094,inf,,0.8136247495146964
533,,0.0,0.0,0.7771799543716834,0.7440350674452477,0.7063187598827022,3.6454097054703216,10.172496588935292,,,0.6309483474627791,inf,,,0.9023199603406338
534,1.5766480896111095,-0.005255493632037031,0.0,0.8687578505813996,0.8523800069470079,0.6752161897541231,3.1235316957665193,5.3681855697263785,,,0.6447042257417027,7.280430564267311,inf,,0.6424465161868477
535,,0.0,0.0,0.617121885710435,0.5737213156882561,0.6025668811027769,2.5378131783688738,1.9490774441917442,,,0.6619902821573977,inf,,,0.8358986317483703
536,,0.0,0.0,1.1489406671802496,1.1365095463386732,0.7239158107278928,3.1270754725344534,3.0228057988301376,,,0.6233814453054027,inf,,,0.5504859493560528
537,0.9852836033611064,-0.0032842786778703548,0.0,1.1676448515012359,1.1293648876523898,0.7057642301751106,3.3877138028712195,5.059206076264664,,,0.6713451011121618,6.689066078017308,inf,,0.847319883113601
538,1.7076481530208285,-0.011384321020138857,0.0,1.1398096842502272,1.0970117357985079,0.7330948075338041,3.510466025077535,11.296240840731993,,,0.6699045166045591,6.532367626111251,inf,,0.660142083431771
539,1.4411025976148857,-0.004803675325382953,0.0,1.0140741477778057,0.9999424272592121,0.6857673407079048,3.904244845106026,1.5183345349575448,,,0.6584896970785714,7.144885072271086,inf,,0.7197097271493825
540,1.8219036342525847,-0.01821903634252585,0.0,1.232971476100918,1.2052309275487718,0.7488065559352053,3.707229130169942,3.7174015608539475,,,0.6528756675646988,6.33866074709217,inf,,0.684257540724281
541,1.5496454062645046,-0.030992908125290094,0.0,1.1628617524978764,1.0870979232475873,0.7538354069553724,3.3789241064716444,2.769510351635098,,,0.6447042257417027,5.391407789614049,inf,,0.6874037857539008
542,1.9665373371733772,-0.039330746743467544,0.0,1.030883375646327,0.9876821998054827,0.8539530270817706,3.6066874671247557,3.5790716612636495,,,0.6547956803312163,5.707121375921716,inf,,0.7633075280755476
543,,0.0,0.0,1.0663311528252366,1.0330901087384496,0.7175639444780593,3.3411434393026047,3.023368284414429,,,0.6684167106117298,inf,,,0.6863680705223341
544,3.437214194032908,-0.057286903233881796,0.0,1.1566247007739108,1.1463455854230566,0.7604605714790932,2.68999404213732,2.419542956255597,,,0.6727386042041725,6.725433722188183,inf,,0.7780856996807612
545,1.3122266876983486,-0.013122266876983485,0.0,1.1149350088272025,1.0457676587042002,0.7419309193311153,3.6727072944612336,3.109773338014593,,,0.676637947632344,5.713832810509703,inf,,0.5833847586907277
546,,0.0,0.0,0.5232309075182661,0.5019174144039593,0.3776885606119185,2.8443627327964816,2.5113546662871213,,,0.6713451011121618,inf,,,0.7293658504501705
547,,0.0,0.0,0.5106604851235836,0.45712534816335715,0.49468921270675104,2.917609113135004,2.8566049821532107,,,0.6790044388599258,inf,,,0.786920936312047
548,,0.0,0.0,0.8664232402086913,0.8075723352109498,0.6147645818560407,3.3661780258304828,1.9975764910565479,,,0.680118107274185,inf,,,0.7526832113660347
549,,0.0,0.0,1.026582477095566,1.0042447244679236,0.7307498839194976,3.1807010216071117,3.3461909822828577,,,0.6811855325194978,inf,,,0.9269164855268077
550,1.823401012913794,-0.024312013505517253,0.0,1.1781154142634083,1.128619705254014,0.651461345077773,3.4337198284278125,2.034957682508674,,,0.680118107274185,5.413603522005833,inf,,0.6211947133685654
551,1.875141078167106,-0.0062504702605570206,0.0,1.0033289993762038,0.9717008939218547,0.5892637569711057,4.015436490352076,7.2242850061582695,,,0.6713451011121618,7.578923552823307,inf,,0.5782557718907002
552,,0.0,0.0,0.9429456038879539,0.9091387300518351,0.6151177472885898,3.326912952666994,2.190958058364799,,,0.6727386042041725,inf,,,0.7438495376677952
553,2.8757865692462747,-0.019171910461641833,0.0,0.9094822606052593,0.8636880390489747,0.6484082954964814,4.265698574076907,2.8774681268091173,,,0.6684167106117298,7.852216887822989,inf,,0.7710290007343956
554,2.117954063271944,-0.014119693755146292,0.0,0.755677982101783,0.703923693105374,0.7456457087087692,2.9829696907532393,5.003167123990154,,,0.6153451465759925,7.117105508164011,inf,,0.8513804170372391
555,2.403855577787934,-0.02403855577787934,0.0,1.2161985735211938,1.130631469543816,0.7329310870405966,3.3373538796451148,3.4848998701379443,,,0.6425374456860184,6.9532176530588945,inf,,0.851611500201786
556,1.2069913540368231,-0.020116522567280387,0.0,1.1691898108971341,1.1526199866159206,0.7416962471190935,3.750429350603768,9.208091861804306,,,0.6509067234006624,5.240048458424061,inf,,0.7945641981738253
557,2.381941493504341,-0.023819414935043408,0.0,1.2692918616248547,1.2435860415175075,0.8404376657903592,4.081997451066811,2.2166186103922003,,,0.6468212168108125,6.941656830657818,inf,,0.7382303299123053
558,2.7136276094794365,-0.09045425364931454,0.0,1.157401603599633,1.1295136268279629,0.8127127654381622,4.512144656002095,15.501336274229988,,,0.6509067234006624,5.674223672414657,inf,,0.8120605102387063
559,2.633007788114781,-0.04388346313524635,0.0,1.0478121848546218,1.0139697178314442,0.7106161937462536,4.326467991623722,4.680523297513893,,,0.6684167106117298,6.603543904579146,inf,,0.7018353371827049
560,2.24942847922576,-0.0224942847922576,0.0,1.0063138604467745,0.9164896447821468,0.7432665661799343,3.394845448871936,4.365826154564039,,,0.6619902821573977,6.843216757844566,inf,,0.8148241759761763
561,2.899046577063721,-0.007610525688603846,-0.01171645149182096,1.1848817012424395,1.160872703159243,0.6436117615767335,3.340752524686484,2.1831763790209457,1.4402411804052961,,0.6547956803312163,7.881204424696241,1.329135947279942,inf,0.6181503852849349
562,0.843970070294529,-0.00281323356764843,0.0,1.0279115843868147,1.028459984612565,0.7829095748982031,3.4516349456021134,4.015207239699734,,,0.680118107274185,6.54775254495073,inf,,0.6735696235213272
563,1.5796898672119073,-0.02106253156282543,0.0,0.9974726267688618,0.9551134511394926,0.7192543658619976,3.648307152527562,2.492922208974954,,,0.6357360191111145,5.614551340928259,inf,,0.6362409308273326
564,,0.0,0.0,1.1243338857845615,1.0736886278533113,0.6907855242244733,3.165490180105355,5.9309216308954555,,,0.6357360191111145,inf,,,0.8306164114539585
565,2.0598006142291907,-0.020598006142291906,0.0,1.0302458499928395,0.9880594768245416,0.6965302677839442,2.8020573320705537,1.9910420097379582,,,0.6619902821573977,6.326160584327939,inf,,0.5315062072251833
566,1.4156742087233518,-0.009437828058155679,0.0,1.22603840640013,1.2185083426363623,0.762023274936126,3.444604643446299,2.5080393272407218,,,0.6602640781246099,6.4239583276040655,inf,,0.7062233425455405
567,1.878936162800444,-0.012526241085336292,0.0,1.1434206206597595,1.1124337990978896,0.7287177174569013,4.275364009952029,2.1557861784183947,,,0.663668482632973,6.579251212010101,inf,,0.778899045238063
568,0.9634460716097757,-0.006422973810731838,0.0,0.6822373425481191,0.6379653648610205,0.6700674646945953,3.5105346832581157,4.75501104324613,,,0.6528756675646988,5.947979435168243,inf,,0.6761626936492675
569,2.195029403185573,-0.014633529354570485,0.0,0.9536044723773203,0.9221996323590673,0.7621676605777771,3.065608888902526,3.3761412777508846,,,0.663668482632973,7.025538314638521,inf,,0.6582462760786144
570,,0.0,0.0,1.2621301170308272,1.17711747801143,0.798032348719109,2.9704662687082233,2.2781608290339364,,,0.6528756675646988,inf,,,0.9549371620227445
571,1.5766480896111095,-0.010510987264074062,0.0,1.114127076745008,1.0229230025836082,0.785400412947959,3.110996778065971,2.5352892683877815,,,0.6528756675646988,6.587283383707366,inf,,0.7574417911391177
572,,0.0,0.0,1.1405226865730311,1.1179775604823254,0.7335413301406933,3.509507923282633,5.30510986446186,,,0.6528756675646988,inf,,,0.827316723656409
573,,0.0,0.0,0.7200850705870472,0.6793496966422927,0.6250384157419175,2.6687137138783648,2.747479545737736,,,0.6509067234006624,inf,,,0.651286026456347
574,,0.0,0.0,1.3708579997031374,1.3664454655669647,0.8404020124071163,2.8109277629530354,6.025677308017816,,,0.6619902821573977,inf,,,0.9388958151045637
575,,0.0,0.0,0.9000341864790353,0.8272569540714384,0.6698992274549108,2.786669422254539,5.091074902812002,,,0.6619902821573977,inf,,,0.9200376690993936
576,,0.0,0.0,1.0343816636073717,1.0041075727456839,0.8103757019623632,3.0574908840575454,2.470437486544561,,,0.6333676938231112,inf,,,0.8771017638604808
577,,0.0,0.0,1.1537452481932635,1.1319454793929367,0.7319309420144312,3.422244452972378,6.2687878630846665,,,0.676637947632344,inf,,,0.888638022101193
578,,0.0,0.0,1.1284743263169608,1.1221902704238007,0.7429543014693969,3.186825564065254,2.0881616305270696,,,0.6713451011121618,inf,,,0.8975692746170643
579,,0.0,0.0,1.1590268609782444,1.0961033946250995,0.8048162574003582,3.435173476478997,10.611338580459222,,,0.6309483474627791,inf,,,0.9356528454356294
580,,0.0,0.0,1.150144755161448,1.1081637924595478,0.8013294012712264,3.5734090067387707,8.706148711141699,,,0.6425374456860184,inf,,,0.9351545077271808
581,,0.0,0.0,0.4120279157265517,0.38289681392020214,0.6260793492631537,2.6404510851126104,2.275466210868974,,,0.6547956803312163,inf,,,0.9427466217045875
582,,0.0,0.0,0.8554850489615774,0.7993284159536878,0.7214954624486455,3.0589550847338467,1.9950665824305984,,,0.6684167106117298,inf,,,0.8528203423706686
583,,0.0,0.0,0.6451502507135564,0.5843926612336513,0.579995556384863,3.403076158581174,5.4696873719174235,,,0.6668815377411301,inf,,,0.6857981571792922
584,,0.0,0.0,0.7376431046867157,0.6768783615513446,0.6436555878781292,3.1781360309645996,5.129428388865452,,,0.6284777104787076,inf,,,0.8050226447676607
585,,0.0,0.0,1.3223249121870577,1.2957475181805507,0.8380116287357607,2.937043456023241,2.9814284811528373,,,0.6284777104787076,inf,,,0.9239977089712007
586,,0.0,0.0,1.229789507027614,1.1845692096899896,0.7933390814817803,3.384901837494076,4.668086567588075,,,0.6602640781246099,inf,,,0.8641260347259418
587,1.9902104079518934,-0.006634034693172978,0.0,0.9900406966918479,0.9805721193971644,0.7160457772426841,3.9242851273109007,9.162260551137456,,,0.6668815377411301,7.693992882608094,inf,,0.8820210665563144
588,,0.0,0.0,1.0844770607773861,1.0777009501710695,0.7974725634759007,3.0451277912775496,2.5378175491246355,,,0.6619902821573977,inf,,,0.8777518968928172
589,,0.0,0.0,0.9370811304553127,0.8691933255895253,0.7568050301670611,2.52115099173875,4.157788115052342,,,0.6233814453054027,inf,,,0.9086736296006207
590,,0.0,0.0,1.0753578054206054,1.0315016634201286,0.7542337104595742,2.2205100475647974,3.3327545612176994,,,0.6153451465759925,inf,,,0.8748910993557185
591,,0.0,0.0,1.2305600989185896,1.2168500391221948,0.822069998330197,3.7078429368465318,7.765886043336433,,,0.6425374456860184,inf,,,0.9534720562902348
592,,0.0,0.0,0.8453490914564249,0.7790846457847797,0.6558250470457541,2.7561692402259528,3.5973004400785875,,,0.6309483474627791,inf,,,0.9362935752681835
593,1.3730491343698699,-0.004576830447899566,0.0,1.041514447685514,1.0254656606747083,0.7481922736979983,3.126056494830613,2.3773275118062434,,,0.676637947632344,7.076831609026071,inf,,0.9514512324342163
594,,0.0,0.0,0.5578208088279786,0.5273254122687088,0.708071037166431,2.69673311738796,2.5992099833225253,,,0.6584896970785714,inf,,,0.9063710198769842
595,,0.0,0.0,0.8699364866953321,0.8202900579823144,0.7477887699607958,2.35704108460199,1.8940041584424363,,,0.6153451465759925,inf,,,0.9466139414354967
596,,0.0,0.0,1.05859730894849,1.0363029031360278,0.7249839138013068,3.2118611857760877,3.0355483687937093,,,0.648888643467878,inf,,,0.7698356797943928
597,,0.0,0.0,0.8088735715853634,0.7603567886996365,0.6217980115806186,3.4293274071686866,4.669781580028401,,,0.6468212168108125,inf,,,0.7757907354123482
598,,0.0,0.0,1.266576842558177,1.2085495457984983,0.7626078858365147,2.8137547017404647,2.0329591036920216,,,0.6652988471865258,inf,,,0.9434279993151555
599,,0.0,0.0,1.1538121768553933,1.1335003554387368,0.7779752992047287,2.9633354930568125,5.0821373325002055,,,0.6547956803312163,inf,,,0.9425754987286792
600,,0.0,0.0,1.2282994100999958,1.2048155536911163,0.7667749883738776,2.632166515591239,4.255728218803438,,,0.6180765742263259,inf,,,0.9290310027232171
601,,0.0,0.0,1.1761584525123885,1.1416094025330077,0.7295241936149526,2.5406271671044283,2.172767824325112,,,0.6068309995095971,inf,,,0.938683000202442
602,,0.0,0.0,1.471525159854962,1.419974808469658,0.877009541954866,3.0238673442594246,2.469560292188717,,,0.6380535849069913,inf,,,0.9422122344172638
603,,0.0,0.0,1.0670087244948034,1.060013232720174,0.7636269643270455,3.5086897908865753,3.0264904835227804,,,0.6566669596287297,inf,,,0.9463867217675129
604,,0.0,0.0,1.4674210790884188,1.4197640213036575,0.8641737355547696,3.2401603222338657,5.014206870873654,,,0.6619902821573977,inf,,,0.9341385162017399
605,,0.0,0.0,1.2528357067444535,1.1806156982886429,0.826413439886482,2.7239465687767495,2.686163282984005,,,0.6333676938231112,inf,,,0.940273602744959
606,,0.0,0.0,0.8971064814720945,0.8538434220247777,0.7952699694036882,2.914395734928447,2.485037096666123,,,0.68318204999448,inf,,,0.9524693447298264
607,,0.0,0.0,0.5946275967967009,0.5474942567148083,0.5921735084683968,2.63983881179736,3.320197291870414,,,0.6509067234006624,inf,,,0.947771491403306
608,,0.0,0.0,0.8302062860745548,0.8074232616542816,0.6394005966754319,2.908101270813944,3.6329939497553374,,,0.6584896970785714,inf,,,0.9531897238344489
609,,0.0,0.0,0.6123411743399892,0.5851438307326412,0.661637984745411,2.5914390843381536,2.9963621883254756,,,0.648888643467878,inf,,,0.949587386528376
610,,0.0,0.0,0.9877556673054195,0.9341671088390595,0.7492554581671586,2.430945197096042,2.471698908699375,,,0.6528756675646988,inf,,,0.9553966951160076
611,,0.0,0.0,1.1242817795864628,1.087245086990387,0.7227853508458231,2.7820471054587075,4.115158188006798,,,0.680118107274185,inf,,,0.920805626972443
612,,0.0,0.0,1.0670208511962165,1.0237975689995409,0.7302880629388473,2.8730264513101904,3.7555822974202724,,,0.6619902821573977,inf,,,0.9393453725762205
613,,0.0,0.0,0.5196398388388923,0.46749315321026946,0.6524556694796592,2.5759589323441374,2.0647776164940344,,,0.663668482632973,inf,,,0.9465575076417779
614,,0.0,0.0,1.2397304125315005,1.193099129687184,0.757423918173223,3.035018941342045,4.376496849875837,,,0.6584896970785714,inf,,,0.9385826606689952
615,,0.0,0.0,0.9942869067196244,0.9591531012025586,0.717539514390214,2.8878495049134387,2.542790842000546,,,0.6380535849069913,inf,,,0.9410905279938679
616,,0.0,0.0,0.9912817329008148,0.9651587414318499,0.7287069463081067,2.8500333632190573,3.284343110364949,,,0.6684167106117298,inf,,,0.9465652296375258
617,,0.0,0.0,1.2145021471207007,1.1486820186743463,0.7660612466606583,3.349450045996028,3.2970626039026314,,,0.6547956803312163,inf,,,0.9553187773459051
618,,0.0,0.0,1.5349962680234195,1.499804855062719,0.8463832933105272,2.9316764240819246,3.048257594234805,,,0.6602640781246099,inf,,,0.9552867615798358
619,,0.0,0.0,1.3415664586615934,1.3550117568162328,0.8314453536168696,2.990152461179784,2.9886381980768446,,,0.6713451011121618,inf,,,0.9025387919850951
620,,0.0,0.0,1.1006346008881598,1.0800029895750243,0.7974422864768098,2.6783305879250054,1.9404969604330713,,,0.663668482632973,inf,,,0.9414137869664291
621,,0.0,0.0,0.8028011147900477,0.7706758688985671,0.4909499193929332,3.3524330463775267,8.4054164182796,,,0.6811855325194978,inf,,,0.9393533318790989
622,,0.0,0.0,1.2881306154768908,1.2571513078717411,0.8360027063980024,3.2171144103960048,4.481276706605318,,,0.6566669596287297,inf,,,0.9396836157727282
623,,0.0,0.0,1.2068049281395297,1.2043381058275886,0.7333298878550973,2.261152044585809,1.7048924949441422,,,0.6778444222523095,inf,,,0.9330111953585174
624,,0.0,0.0,1.117102251918434,1.0971426126253083,0.766913753527574,3.158687631175213,3.1348092716294618,,,0.6619902821573977,inf,,,0.9213071046448202
625,,0.0,0.0,1.0636561971438494,1.0235084716043397,0.6417993613336448,2.975358073561728,2.8277079284923694,,,0.6547956803312163,inf,,,0.9330674630106977
626,,0.0,0.0,1.0867903797749672,1.0705152846324173,0.732019222615734,3.3532289871656045,2.409684673689714,,,0.6668815377411301,inf,,,0.9553725985924459
627,0.9246589815446716,-0.0030821966051489055,0.0,0.9003471112234986,0.8670661254910685,0.7649520618986666,2.4491186684573094,1.6828939309090565,,,0.6528756675646988,6.628441456200873,inf,,0.9517520201669294
628,,0.0,0.0,1.2103703807338109,1.1570515287643244,0.7773076101705116,3.0611559644121766,2.8373026365538614,,,0.6468212168108125,inf,,,0.951478295460082
629,,0.0,0.0,0.8056235113500024,0.7508540500653662,0.717589838600565,3.051737402992394,2.4563821221887703,,,0.6668815377411301,inf,,,0.9429102911753773
630,,0.0,0.0,0.9571776509811529,0.9304027811531831,0.6630888844503794,3.4072050112571812,4.066925460659569,,,0.6740851607140061,inf,,,0.7121868504692699
631,,0.0,0.0,0.6807574642248599,0.6446103610556487,0.6921684772942522,3.085004859349238,2.8572084807115936,,,0.6684167106117298,inf,,,0.816971144875421
632,,0.0,0.0,1.0326564919600871,1.0257003533838802,0.5795411114785592,4.005041101643276,13.898420864062071,,,0.6822068148872973,inf,,,0.9334465474523297
633,,0.0,0.0,1.1103288809694698,1.0991840247368656,0.7618478800266287,3.3776674265170175,7.386253950330888,,,0.6509067234006624,inf,,,0.7768423152036046
634,,0.0,0.0,0.8382135067321079,0.7973747997246488,0.5981817986733662,3.5378695582546764,4.633091339387593,,,0.676637947632344,inf,,,0.7399287362135248
635,,0.0,0.0,0.6194160320085046,0.5872995222941848,0.6172782313274389,3.6801063685030724,2.093726404902358,,,0.675384900321601,inf,,,0.762296380886243
636,,0.0,0.0,1.4777000040205508,1.4590227569159395,0.8371256923222241,3.5736357700391075,3.441190195543013,,,0.68318204999448,inf,,,0.8614759399948456
637,,0.0,0.0,1.2636749744703497,1.2031200119093524,0.7573975836100073,2.9170291113523414,2.1413567121936845,,,0.6727386042041725,inf,,,0.9441650164178769
638,,0.0,0.0,1.110225120870913,1.1082987931961212,0.7157060734080631,3.5289692755260877,9.139901891601683,,,0.676637947632344,inf,,,0.9484257062647312
639,,0.0,0.0,1.0486359472042526,1.0373589690722185,0.692877875317394,3.4882692079174737,3.49667831408754,,,0.6547956803312163,inf,,,0.7414796917570056
640,3.912023005428146,-0.013040076684760487,0.0,1.0370355577667625,1.0179390003161957,0.7042510095958757,3.2764435889726853,1.6096147085237216,,,0.6684167106117298,9.615805480084347,inf,,0.8451961980945578
641,,0.0,0.0,0.5643983672357568,0.5290034692658406,0.7633538954797056,2.026511206491505,1.9461965507018895,,,0.6566669596287297,inf,,,0.943770433289516
642,,0.0,0.0,0.9588911137730832,0.9223064793668855,0.7288227777730295,2.9263059954091375,3.7668702938918157,,,0.6357360191111145,inf,,,0.7673759373466064
643,,0.0,0.0,1.1703303699340402,1.1334416888523382,0.7225928488003232,2.9993265241803084,5.72233712228153,,,0.6425374456860184,inf,,,0.9289168576686236
644,,0.0,0.0,0.9182867501192874,0.9136844161722747,0.6136619462458284,3.350145844448252,12.244280825232023,,,0.6547956803312163,inf,,,0.9390746246208079
645,,0.0,0.0,1.116071897616951,1.0791204701585717,0.7455964481176406,3.79703926873433,6.528348202392898,,,0.6668815377411301,inf,,,0.9322518618741594
646,,0.0,0.0,1.3380798761113106,1.3145799376818754,0.8466661559432642,3.03242740380215,3.5152196243310163,,,0.6619902821573977,inf,,,0.874296628994246
647,,0.0,0.0,1.1328904870231091,1.113140766056836,0.717220830081062,3.4961896100887406,3.6621354382013576,,,0.6425374456860184,inf,,,0.7931383921488796
648,,0.0,0.0,1.247792827540271,1.207309536402003,0.8296452871414354,3.2820433046490507,2.8975067625135797,,,0.6602640781246099,inf,,,0.9190702898639922
649,,0.0,0.0,1.1657720646258918,1.1274776552822803,0.75342663012641,3.9859986469185698,40.2253595014037,,,0.62595550513784,inf,,,0.7966877394760231
650,,0.0,0.0,1.3707982752506103,1.3452437756282405,0.8467779383655245,3.6751004752326017,15.427640111339656,,,0.6380535849069913,inf,,,0.9149708323543639
651,,0.0,0.0,1.4014277830161614,1.3936602915403213,0.8557573176113935,4.03639551966275,20.00838004419391,,,0.6447042257417027,inf,,,0.8767065703728602
652,,0.0,0.0,0.8816981294386123,0.8641869980310452,0.6811460257688767,3.4560500908788025,23.988617234409233,,,0.6207552362147116,inf,,,0.810871103771905
653,,0.0,0.0,0.961006881469639,0.9176518434025576,0.7306957273339275,4.633460126729744,15.688687588001137,,,0.6468212168108125,inf,,,0.9162504270015145
654,,0.0,0.0,1.2349736265236868,1.2299394631360054,0.7772131899844588,4.621272649653108,53.9283144541938,,,0.6602640781246099,inf,,,0.92001360834464
655,,0.0,0.0,1.3377834177340306,1.2943074190931754,0.7900641109169863,3.78505977602523,20.12607457421873,,,0.6584896970785714,inf,,,0.9174310276517385
656,,0.0,0.0,1.393724464613274,1.3670099685570103,0.7596694716080064,4.561449952545817,93.1865604196814,,,0.663668482632973,inf,,,0.9263097169309341
657,1.383104557637871,-0.00922069705091914,0.0,1.0376761230809488,1.013504268767821,0.7665965362761605,3.4906132825723475,14.157195885608788,,,0.6447042257417027,6.160540877151916,inf,,0.8281576541483276
658,1.0988123286787794,-0.007325415524525196,0.0,1.1187255320629206,1.0818046495732012,0.7800745331033564,3.4955281182328988,10.383597198439706,,,0.6309483474627791,6.1092475827643655,inf,,0.8181078674672965
659,2.2787193915834507,-0.015191462610556337,0.0,1.169314524393873,1.0939028521739682,0.6396090474967058,3.5600149563531502,2.231850284071955,,,0.6309483474627791,5.926926025970411,inf,,0.8256937565215202
660,1.7940446175470488,-0.017940446175470488,0.0,0.9623864785809894,0.9440642044683352,0.6892117555443136,3.4439682526421524,15.961236804900908,,,0.581717464821069,6.225781399020317,inf,,0.9146865061610706
661,0.5923127639860665,-0.005923127639860665,0.0,0.9477622311077916,0.8611009969325619,0.6510203458696298,4.044764246582242,44.40489744981007,,,0.6038851895711802,5.175116932761879,inf,,0.8729383341009637
662,,0.0,0.0,1.036900591275936,1.0051951824828296,0.7362802072192444,3.6801407779250566,12.9940014262018,,,0.663668482632973,inf,,,0.8357086576680299
663,0.8835009090511642,-0.0029450030301705473,0.0,0.992093300175752,0.9704322916181983,0.7474574694945446,3.545048926188319,3.306739727064264,,,0.6333676938231112,6.587283383707366,inf,,0.8302353871100729
664,,0.0,0.0,1.1821239342470504,1.1654862977176823,0.829241877821627,3.692195288378037,15.129450489389757,,,0.6038851895711802,inf,,,0.9282722558020209
665,,0.0,0.0,0.9721912534583039,0.94911181740093,0.6710310093756328,3.6355964028025056,29.276817693515735,,,0.6180765742263259,inf,,,0.9288101517123623
666,,0.0,0.0,1.2467579748672506,1.1317016557087187,0.7925495742227995,3.6573823924940236,17.252897068550595,,,0.6333676938231112,inf,,,0.8607465664618987
667,,0.0,0.0,1.0907422630932202,1.0378676906445616,0.7793654446007162,3.867227229235359,8.678131675644844,,,0.6180765742263259,inf,,,0.7996782831612765
668,,0.0,0.0,1.558643472302815,1.442903946095785,0.8573167177356028,3.956254013446534,4.525045773011995,,,0.5947193981915972,inf,,,0.933633516538672
669,,0.0,0.0,1.3470635950511303,1.3444536475769602,0.8081099151527578,3.695519160833343,66.39349087945408,,,0.6284777104787076,inf,,,0.829918247937531
670,,0.0,0.0,0.3560050029692372,0.2381692570980691,0.7159599817824495,4.1140993949155575,2.4736465767143025,,,0.6207552362147116,inf,,,0.7206881069079863
671,,0.0,0.0,1.7749600577296802,1.754492707346109,0.948411680048034,5.232261935807655,276.3849920607448,,,0.552929491858785,inf,,,0.8742391444126341
672,,0.0,0.0,1.778810396120043,1.7671548853355046,0.950206595836354,4.874089685627121,558.4081827553043,,,0.5287703885177266,inf,,,0.8679116918818638
673,,0.0,0.0,1.1864353907092613,1.1800007732805016,0.8075402969934716,5.234508493669887,30.505698520836937,,,0.6038851895711802,inf,,,0.9323380177676324
674,,0.0,0.0,1.2106346878322591,1.1733536578265091,0.8318059739894161,4.215342529085154,19.27984884334905,,,0.5947193981915972,inf,,,0.8115386182089982
675,,0.0,0.0,0.9065134449131437,0.8874978366390756,0.6644923218468303,3.8533053859335653,2.695508207641406,,,0.6699045166045591,inf,,,0.7802778021963149
676,,0.0,0.0,1.7258338266954936,1.7063612600194167,0.8959280950528116,4.463125603644045,466.8378871778675,,,0.6068309995095971,inf,,,0.8949978834009354
677,,0.0,0.0,1.3985652952993441,1.3550588436686564,0.8081175966470419,3.865689871264591,2.436421480128744,,,0.5370774965580548,inf,,,0.9136096536055697
678,,0.0,0.0,1.7713193615443688,1.7426765196858427,0.9392573769191778,3.9546793747306364,142.0171436838837,,,0.5604843169999094,inf,,,0.9113356746935025
679,,0.0,0.0,1.780946668565171,1.7520106675287705,0.9187929099972433,4.485248358854465,358.7613845960104,,,0.6584896970785714,inf,,,0.9110238096585376
680,,0.0,0.0,1.7772961543111716,1.7495969356541898,0.9271777747582481,5.28101347314353,61.282597407670735,,,0.6528756675646988,inf,,,0.8965454287819775
681,,0.0,0.0,1.77147716072993,1.7461336847376283,0.9249277322892301,4.490770911153647,266.9966391917404,,,0.6038851895711802,inf,,,0.9054190418283565
682,,0.0,0.0,1.7882752852901442,1.7542344639059855,0.9286580707024469,3.987067807906113,305.27393112188463,,,0.6068309995095971,inf,,,0.8979694068569896
683,0.8997614299229445,-0.002999204766409815,0.0,1.246328804807269,1.1977100158510767,0.8595886266332311,3.026706114832282,3.249675435911887,,,0.6207552362147116,6.603543904579146,inf,,0.7576528669653778
684,,0.0,0.0,1.2016855686809667,1.1633233097403939,0.7790593907802866,1.1495545207241913,1.6654350963477007,,,0.6547956803312163,inf,,,0.9073712548043146
685,,0.0,0.0,1.268112854679866,1.2086164180418877,0.8150899720647651,1.280007051955299,1.8240358836313,,,0.6727386042041725,inf,,,0.9225679260736348
686,,0.0,0.0,1.5086579107518212,1.4722310415595536,0.90056441498648,1.2205447200049715,2.0261672981861105,,,0.6509067234006624,inf,,,0.9087849364244208
687,,0.0,0.0,0.5135818605626005,0.4466979198351724,0.7779482057722307,1.0201705810438424,1.2989681374796493,,,0.6602640781246099,inf,,,0.9408809255408815
688,,0.0,0.0,1.4900685870211505,1.459608850430209,0.9131261359946822,0.888136244667865,1.3275346662993002,,,0.6447042257417027,inf,,,0.912586349306486
689,,0.0,0.0,1.3983327261966096,1.3769748041987486,0.8486878346118466,0.962808798937538,1.539545790072625,,,0.6153451465759925,inf,,,0.9002322398626407
690,,0.0,0.0,1.2681531525077754,1.2214949264035693,0.8334634456101185,0.867545099869448,1.196543683521616,,,0.6333676938231112,inf,,,0.9090545402847656
691,,0.0,0.0,1.5831600230341267,1.577118091796143,0.8412017960322866,0.6818581182791393,0.988323116815422,,,0.6125606311107803,inf,,,0.9221045487244125
692,1.9435688694715996,-0.07774275477886398,0.0,1.0893787082042836,1.0116963282220683,0.7057295501249048,2.1879940292379065,0.9690123673264397,,,0.6038851895711802,4.741881231529994,inf,,0.6572697887653131
693,1.1473402159727732,-0.04206914125233502,0.0,1.7687623767116962,1.7420544835505993,0.9596183048727822,4.394317655012461,66.95201475414311,,,0.5451288209179292,4.036704782775686,inf,,0.9020146158141233
694,1.2623726666467894,-0.016831635555290526,0.0,1.783072170466505,1.7328078460705887,0.9718018941043116,6.073545092084922,145.13017946384412,,,0.5915533975974677,5.313995179267266,inf,,0.9223133464346233
695,,0.0,0.0,1.4694512305211236,1.4586716003893605,0.9316803830755278,4.312682111421535,23.79728230354734,,,0.552929491858785,inf,,,0.715355107160635
696,,0.0,0.0,1.7776826866343716,1.7478763171372491,0.9226259223365453,5.351904314299472,69.93263895149796,,,0.585052858160615,inf,,,0.9379914517262523
697,,0.0,0.0,1.7666239136968727,1.7330604117217057,0.925322825946185,4.392191335777237,inf,,,0.6038851895711802,inf,,,0.9084496703694596
698,,0.0,0.0,1.7851597767792493,1.7639749857970235,0.943427196136381,5.002514145284274,215.20375749300135,,,0.5883313578629602,inf,,,0.9186674422585139
699,,0.0,0.0,1.7878820457822482,1.7724296906793946,0.9405907021491843,5.34588876483173,169.3735892835164,,,0.6125606311107803,inf,,,0.9034348872718538
700,,0.0,0.0,1.7682067873188627,1.7727824313234954,0.9372165774134582,5.951368002842881,inf,,,0.6097226960127671,inf,,,0.8549821049875446
701,,0.0,0.0,1.786344227214804,1.7573400411601556,0.9452947675553824,5.068273619622122,inf,,,0.581717464821069,inf,,,0.8816704831966878
702,,0.0,0.0,1.7789660084009775,1.7625607278077668,0.935831218460644,4.969772093329164,inf,,,0.6068309995095971,inf,,,0.8698346315397284
703,,0.0,0.0,1.7585608890288462,1.7464432780550276,0.9563738982602271,5.065524690133207,714.5782002199974,,,0.5604843169999094,inf,,,0.875895554401022
704,,0.0,0.0,1.7884218457260186,1.7608915036626613,0.9505116439822577,5.1461505754225945,369.9368450574372,,,0.5641709578113449,inf,,,0.8238603739765278
705,,0.0,0.0,1.7870376411350757,1.7587320817273757,0.9557152551266855,4.847576088113767,635.3844094449826,,,0.5113665138247345,inf,,,0.8482729241001328
706,0.023609865639133736,-7.869955213044579e-05,0.0,1.6668320532037162,1.642395016994015,0.9344890304328854,4.4745821953419975,3.158861058865516,,,0.5370774965580548,5.727392340295335,inf,,0.8494631706060508
707,0.40047756659712525,-0.0013349252219904174,0.0,1.558651644979545,1.52446463017822,0.9012361350899645,5.0461866440419385,13.224868887158697,,,0.5567373465730988,6.104260041253326,inf,,0.8678054118195285
708,,0.0,0.0,1.6097791347040515,1.616378771581979,0.9024980356233805,3.633873896565719,3.3132169471080952,,,0.5287703885177266,inf,,,0.9066303979866862
709,,0.0,0.0,1.7536397839143119,1.721666809054724,0.9522776058170537,4.112350837795056,38.64332072595188,,,0.6038851895711802,inf,,,0.9293817220848448
710,,0.0,0.0,1.783511068839442,1.754090161750506,0.952661277705063,5.535789328287841,538.4062126317164,,,0.5978297680564633,inf,,,0.8948025930348026
711,,0.0,0.0,1.781373058424414,1.7495909345324427,0.9654241896915111,4.0300060331264485,498.10972098810026,,,0.5567373465730988,inf,,,0.8805883686032443
712,1.7147984280919266,-0.005715994760306422,0.0,1.5178770017426493,1.4608694080324083,0.9053753895347477,4.86807636710173,11.575700583171146,,,0.541134803179459,7.418580902748128,inf,,0.8694649651199291
713,,0.0,0.0,1.113024795531277,1.100023581705901,0.8526069848055114,4.026618544556539,6.6950376351996725,,,0.5677978065141052,inf,,,0.856169486934373
714,,0.0,0.0,1.6962074313068154,1.6799740814365531,0.9594597444951095,3.9545657469469453,28.046580287337434,,,0.43586655696697996,inf,,,0.8899810760841321
715,,0.0,0.0,1.7818950229820143,1.75073690640282,0.9709963463344614,3.903464747133412,188.9214959586106,,,0.49759852643134905,inf,,,0.811604320164498
716,,0.0,0.0,1.1234812207458253,1.1060684627269657,0.7907592330343753,4.139507711933843,46.53952845265996,,,0.541134803179459,inf,,,0.7078132283411157
717,,0.0,0.0,1.7887507506767553,1.7721363759185507,0.9612556045074284,4.488216130911112,49.09332273951655,,,0.5490601803369085,inf,,,0.8703462297846961
718,,0.0,0.0,1.3946216475559305,1.410151674492764,0.7861489859982206,4.916349956546512,114.95052955155519,,,0.5451288209179292,inf,,,0.8626282954003761
719,2.562637945510571,-0.025626379455105708,0.0,1.3734808388210937,1.3319388496122309,0.812315053680453,4.803253059922743,208.22721701625736,,,0.6309483474627791,7.013115794639964,inf,,0.6423395566831968
720,,0.0,0.0,1.1238238787323716,1.0843612612366382,0.7954847005965562,4.446144760320104,197.8310389311511,,,0.5915533975974677,inf,,,0.7944721998787662
721,,0.0,0.0,1.775730141201344,1.7628614347420595,0.9379603526479439,7.3072302620441665,46.70284509535041,,,0.62595550513784,inf,,,0.8551014400906997
722,,0.0,0.0,1.7837492147188636,1.7459560687670803,0.9625140728044285,4.885649877702356,210.64736082272285,,,0.5915533975974677,inf,,,0.898115053342407
723,,0.0,0.0,1.7904291802634948,1.7863206259154263,0.9586076659382317,4.398548985989501,476.2301955672647,,,0.5490601803369085,inf,,,0.8425162158896238
724,,0.0,0.0,1.6291475401161113,1.6615502818237988,0.9512146800236606,4.347848533386527,183.5090264882202,,,0.5370774965580548,inf,,,0.8681565237881714
725,,0.0,0.0,1.7759859232053934,1.7835146257597532,0.9345300387278279,5.020510590345666,466.45877914682654,,,0.5329562494928909,inf,,,0.8953107209136
726,,0.0,0.0,1.2141743198945196,1.1924682282110848,0.6935461970957041,4.780255060061091,74.54691625598251,,,0.6233814453054027,inf,,,0.8451450380765527
727,,0.0,0.0,1.7821890681220331,1.7485389325844718,0.920037583614243,4.760689622494578,149.54834245195232,,,0.6207552362147116,inf,,,0.8804402746455166
