,hr+bvp_XAp0,hr+bvp_XAp1,hr+bvp_XAp2,hr+bvp_XCond1,hr+bvp_XCond2,hr+bvp_XDist,hr+bvp_XFuzz1,hr+bvp_XFuzz2,hr+bvp_XK2_1,hr+bvp_XK2_2,hr+bvp_XPermEn,hr+bvp_XSamp0,hr+bvp_XSamp1,hr+bvp_XSamp2,hr+bvp_XSpec
0,,0.0,0.0,1.05221502722971,0.9838384211359557,0.8828001902356474,1.15667359409589,1.213436868599374,,,0.6602640781246099,inf,,,0.9523583705349743
1,,0.0,0.0,1.1679231127081091,1.112519106105158,0.8842620729461337,1.582974759924603,1.556260488345496,,,0.6380535849069913,inf,,,0.9385044019369126
2,,0.0,0.0,0.9623857567895684,0.9394849645764894,0.7503401315719516,1.9715592052415878,1.7751109807967467,,,0.6602640781246099,inf,,,0.9433061042447903
3,,0.0,0.0,1.286231718328218,1.2699508522944045,0.8652361568234581,1.9528381034334268,1.5333612324572392,,,0.6309483474627791,inf,,,0.9468313652599933
4,,0.0,0.0,1.133868357367688,1.0915713755635548,0.8617457342017438,2.0034623303429777,1.6505494515427834,,,0.6652988471865258,inf,,,0.9297219578451535
5,,0.0,0.0,1.12844556780561,1.1135473963142615,0.8199204441382307,1.524784365412305,1.5987518417041942,,,0.6566669596287297,inf,,,0.9231863770360997
6,,0.0,0.0,1.0547953568345383,1.0342281444098738,0.7922738504665867,1.5942013833343613,1.4962398448475607,,,0.6509067234006624,inf,,,0.9533065304242345
7,,0.0,0.0,1.2391814839068542,1.238731673879796,0.8749953953684634,1.3019440578817603,0.9684033766248996,,,0.648888643467878,inf,,,0.9148685289053837
8,,0.0,0.0,0.7931207949990663,0.7667623427969134,0.818123712127158,1.5159536963211846,1.905028286974653,,,0.6447042257417027,inf,,,0.897742548552372
9,,0.0,0.0,1.0020218607337894,0.9750272236210721,0.7727829799238075,1.3957759346125405,1.2844001729345293,,,0.648888643467878,inf,,,0.9354258273365921
10,,0.0,0.0,1.1536463533729933,1.1292036247518782,0.8146874375912693,1.69666241374063,1.9640875275326635,,,0.6333676938231112,inf,,,0.9527924732769332
11,,0.0,0.0,1.2813340382734746,1.269084538896935,0.890705478843405,1.8819697198530358,2.1185823119815836,,,0.6403206450210053,inf,,,0.9524944228708938
12,,0.0,0.0,0.9863635083382734,0.949147232832576,0.7424111600789667,1.5375535245384733,1.8602193099866153,,,0.6509067234006624,inf,,,0.9240805262281258
13,,0.0,0.0,1.1490283477679752,1.1174002404973382,0.8089123435256435,0.8723951911696914,0.77304763852296,,,0.6447042257417027,inf,,,0.9473807389640421
14,,0.0,0.0,0.8993561894281337,0.8465038327370016,0.7752062226279858,0.5518582987170316,0.6035292621993729,,,0.6380535849069913,inf,,,0.9381219928982782
15,,0.0,0.0,0.9083598875665275,0.8641608574787749,0.8781497132311731,0.330863710683311,0.5125103761045757,,,0.541134803179459,inf,,,0.9415265275002147
16,,0.0,0.0,0.9925598617396421,0.9367999083610391,0.8339657368658243,0.44014187508107533,0.605083306413017,,,0.5883313578629602,inf,,,0.9462794536909576
17,,0.0,0.0,0.9921618493018658,0.9764129316800276,0.7523551041464167,0.8102679730655881,0.9110230788448223,,,0.6153451465759925,inf,,,0.9497085599394685
18,,0.0,0.0,1.0609613391189565,1.0114003297065708,0.7680257296040357,0.8389899151404342,1.0055195523452731,,,0.6425374456860184,inf,,,0.9371071223707269
19,,0.0,0.0,1.2715780521697597,1.2604595044629778,0.8276795970886567,0.5616443076381078,0.987943497162858,,,0.5947193981915972,inf,,,0.9066221099886508
20,,0.0,0.0,0.8176131921310773,0.7866171410479587,0.6496997617395268,0.40745642687980077,0.5620408271586321,,,0.6097226960127671,inf,,,0.9351005892445551
21,,0.0,0.0,0.558936042925166,0.5154456189736499,0.7798722444312107,0.49359205972383624,0.6707732005872308,,,0.6125606311107803,inf,,,0.9383686971307496
22,,0.0,0.0,1.293821354282162,1.236267121949723,0.8734633324621273,1.0045289281458822,1.0137102246612328,,,0.6207552362147116,inf,,,0.9386360476268311
23,,0.0,0.0,1.3079157634494782,1.2734347763993465,0.8770202901663559,1.6047393079051562,1.2859030619249483,,,0.6619902821573977,inf,,,0.915722811757096
24,,0.0,0.0,0.5790801762573972,0.5204592548072494,0.8438282228364014,0.9665655632265547,1.0370683772816836,,,0.6284777104787076,inf,,,0.8755169783035912
25,,0.0,0.0,1.3328709237553993,1.3217946930111335,0.9297573856812882,0.6606335182836717,0.7010804765051276,,,0.6233814453054027,inf,,,0.8895249851624173
26,,0.0,0.0,0.8007749361180678,0.7930372670477037,0.8914588915394404,1.071042651797584,1.1547670920758197,,,0.6097226960127671,inf,,,0.9444831626421981
27,,0.0,0.0,1.1868404076798895,1.156231482765825,0.8735211586444039,1.8474942402847003,2.349989252385476,,,0.6547956803312163,inf,,,0.9149237384388813
28,,0.0,0.0,1.3533101506723366,1.324489046791686,0.7979335037903095,1.8650194011829355,1.7729789931196358,,,0.6509067234006624,inf,,,0.9157748703800164
29,,0.0,0.0,1.114107713376255,1.0965544934656626,0.7496355530087001,1.9596794472688792,2.5482315897203396,,,0.6468212168108125,inf,,,0.9481873258495441
30,,0.0,0.0,1.1949869786858054,1.1719591190095688,0.8086128100550372,2.153155975301097,2.2891359132221747,,,0.6333676938231112,inf,,,0.9381345511256239
31,,0.0,0.0,1.1058652695352797,1.0594809949801691,0.8259711390723756,1.9156352040671356,2.0623263204661724,,,0.6468212168108125,inf,,,0.9428229425196692
32,,0.0,0.0,1.3056677245239983,1.267606995422566,0.8655552531673395,1.6732179566042644,1.4236498506156015,,,0.6309483474627791,inf,,,0.9224472406553901
33,,0.0,0.0,1.288964692776308,1.2687312999941385,0.793583610497399,1.8209837732939256,2.04118583255113,,,0.6207552362147116,inf,,,0.9213569688597221
34,,0.0,0.0,1.4145728152401114,1.3899316711777392,0.8012587271642109,1.6076515477024391,1.7917117906316096,,,0.62595550513784,inf,,,0.8675265611621192
35,,0.0,0.0,1.2569235939819234,1.2082088850683868,0.7839540227854065,1.2291304438460637,1.4866031568061542,,,0.6153451465759925,inf,,,0.8747736512312118
36,,0.0,0.0,1.1275110113270075,1.0645827170678042,0.8472578928171232,0.9767229882141503,1.1667831738599623,,,0.6097226960127671,inf,,,0.9430073257383615
37,,0.0,0.0,1.2455124311758443,1.2640614838125637,0.8215860060407982,1.4411410014289114,1.4809554196863948,,,0.6584896970785714,inf,,,0.9306614949596053
38,,0.0,0.0,1.2906614973403718,1.282194192893768,0.8325298356762585,1.5855889376788586,1.235201426058305,,,0.6547956803312163,inf,,,0.9393660048463605
39,,0.0,0.0,1.2423733955799179,1.2265878564929664,0.9315695800364254,1.7976842816013772,1.6955537654848818,,,0.6602640781246099,inf,,,0.9432504800348833
40,,0.0,0.0,1.2856709924958063,1.2831911184600442,0.886554491367441,1.787159787177341,1.990754824056988,,,0.6528756675646988,inf,,,0.9357678849426688
41,,0.0,0.0,1.2604994628822284,1.2181073191937501,0.8295348753709139,2.032089701583356,1.717519863187182,,,0.6528756675646988,inf,,,0.92749215913978
42,,0.0,0.0,1.1120974524353804,1.1228866507318995,0.7204145202708525,1.282466544633699,0.994438820167515,,,0.6602640781246099,inf,,,0.9437589246729698
43,,0.0,0.0,1.2192966041986808,1.206763460888062,0.8467261906169389,1.960959746231308,1.7627330471929314,,,0.6684167106117298,inf,,,0.897572022643995
44,,0.0,0.0,1.110303021438722,1.0928767369881012,0.7442073409399932,1.421937295688823,1.5937880066726915,,,0.6180765742263259,inf,,,0.8391718703193365
45,,0.0,0.0,1.3526444837931861,1.3295979305539185,0.9323337012637066,1.7918598533554226,2.098993165556414,,,0.6403206450210053,inf,,,0.9136408914369958
46,,0.0,0.0,1.12307305710417,1.0719457119956721,0.765237876449001,1.471218402255256,1.379101866649572,,,0.676637947632344,inf,,,0.9493907675967275
47,,0.0,0.0,1.0787678034119366,1.0423684339175727,0.8247163940722376,1.3904489074947293,1.2501293979088846,,,0.6566669596287297,inf,,,0.9497071403805099
48,,0.0,0.0,1.2610316093503724,1.2287168654228884,0.8602453746336455,1.6823802956242515,1.7048299600309138,,,0.6380535849069913,inf,,,0.9412602178023263
49,,0.0,0.0,1.2601235564311415,1.2364074563495173,0.77554578162561,1.9552134765240847,1.6471848238879137,,,0.663668482632973,inf,,,0.9192640230836505
50,,0.0,0.0,1.1812667355549802,1.1720097097586748,0.7773183110773177,1.9484517192378656,2.022281099537191,,,0.6309483474627791,inf,,,0.9314952358039
51,,0.0,0.0,1.200340005745472,1.1710612485310394,0.7989274416852963,1.6201423057691826,2.2002350412944978,,,0.62595550513784,inf,,,0.8934287704520493
52,,0.0,0.0,1.2682520589341948,1.2359425963450716,0.8437385187263526,1.7213781294247423,2.1529906577546774,,,0.6125606311107803,inf,,,0.9280219073790537
53,,0.0,0.0,1.2859796793985385,1.2630451823467883,0.8688836566297369,1.7629040253322024,2.3129757674101867,,,0.6403206450210053,inf,,,0.9364867769235272
54,,0.0,0.0,1.6173386735100443,1.5955150556526485,0.8916870477940582,1.3724715307377975,1.7690839590292318,,,0.5947193981915972,inf,,,0.908138608075881
55,,0.0,0.0,1.3460500076270383,1.3466404405401657,0.8431110014621639,1.7502003393634777,2.0297761129654686,,,0.648888643467878,inf,,,0.890854769472167
56,,0.0,0.0,1.2927819746968061,1.237009647711858,0.8013762941223712,1.6810321175123735,1.9779683718585652,,,0.6008849035917525,inf,,,0.9434828991907184
57,,0.0,0.0,1.2524678253940644,1.2273077154311562,0.7538263655785381,1.3430041854179953,1.6646787795419122,,,0.6233814453054027,inf,,,0.9144743280756455
58,,0.0,0.0,1.2562696989443831,1.1541018152637692,0.8533670958610547,1.1563645927764552,1.2585015023969979,,,0.5883313578629602,inf,,,0.8731360441613889
59,,0.0,0.0,1.5812020969005716,1.5592094304545592,0.8769771057210827,1.8822944966379647,2.231643041865459,,,0.6008849035917525,inf,,,0.930197391422276
60,,0.0,0.0,1.5585203975954942,1.558142804300827,0.8517730789848287,2.0710672682093065,3.2120720831048977,,,0.5604843169999094,inf,,,0.9372461221515888
61,,0.0,0.0,1.3577741677821293,1.3111295881103124,0.8345281347237475,1.78267520190556,2.2489889222441857,,,0.6207552362147116,inf,,,0.9412033401496582
62,,0.0,0.0,0.9792572365391984,0.9507646235891606,0.8082617740760917,1.7183706179849325,1.9803857207442164,,,0.6380535849069913,inf,,,0.9211811227148088
63,,0.0,0.0,1.2317648270907982,1.216124214864626,0.7778001526897427,2.217115761111119,1.6995053330362242,,,0.6309483474627791,inf,,,0.9218976646919557
64,,0.0,0.0,1.3281524300559049,1.2991201136707218,0.9043786838197662,1.819099015169455,2.386877535337968,,,0.6509067234006624,inf,,,0.9469829225147194
65,,0.0,0.0,1.061672351086896,1.0515091063770818,0.9100832179293178,1.612432642791871,1.293885442137861,,,0.6509067234006624,inf,,,0.9431585470470164
66,,0.0,0.0,1.249789784463549,1.2037197379970783,0.8307494184992565,1.8122511954450815,1.8934388738503303,,,0.6528756675646988,inf,,,0.9450315352206288
67,,0.0,0.0,1.17336334255235,1.1505513098865496,0.8202795020135244,1.8608152917122838,1.9383671838400083,,,0.6584896970785714,inf,,,0.9519149007640128
68,,0.0,0.0,1.4791886807314565,1.4534985191009637,0.7973766295402556,2.1783567922846383,2.014012342003743,,,0.6403206450210053,inf,,,0.9294685191311888
69,,0.0,0.0,1.3739173559336382,1.3477732350959153,0.7607011754841638,1.8636639846775633,2.187127732067994,,,0.6468212168108125,inf,,,0.930801633796386
70,,0.0,0.0,1.374442495200377,1.3552214229225814,0.777349113578123,2.1447345399337814,2.8514179185515354,,,0.6068309995095971,inf,,,0.9366367407961944
71,,0.0,0.0,1.1070360997519244,1.0429331283781038,0.7565479995117209,2.0244203743852034,1.936871057299598,,,0.6652988471865258,inf,,,0.9360326127263843
72,,0.0,0.0,1.1624722903882927,1.124043014370683,0.7793319473718713,1.864753576233151,2.480463947974882,,,0.6207552362147116,inf,,,0.8858630403276851
73,,0.0,0.0,1.1060510387781854,1.0655373913190014,0.7317587229149864,2.3307513220818152,2.6058363089939145,,,0.6333676938231112,inf,,,0.9019803745359969
74,,0.0,0.0,1.3433748614451726,1.307564561897456,0.8399355067930706,1.8332481344687337,1.9209836540636136,,,0.6547956803312163,inf,,,0.9507940530662778
75,,0.0,0.0,0.8982261545720478,0.8642501998839381,0.7264797041418534,1.6123460213393899,2.4052439142160695,,,0.6207552362147116,inf,,,0.9103209789355257
76,,0.0,0.0,1.0581177104244759,0.9963328192232954,0.7635831740621991,1.6773134981451034,2.058177231977975,,,0.5783247308855777,inf,,,0.9070248731619223
77,,0.0,0.0,1.4057861903060247,1.3928234111239386,0.9087880458411347,1.967843166652649,2.3027698380825585,,,0.6584896970785714,inf,,,0.9217078055202288
78,,0.0,0.0,1.1205732935233812,1.085032768242838,0.7793574623097367,1.893263436175684,1.816158588259215,,,0.62595550513784,inf,,,0.9077219424039962
79,,0.0,0.0,1.2113505199874701,1.1969348295327207,0.821988901425213,1.6357175684554752,1.9518375038973088,,,0.6284777104787076,inf,,,0.9376905289578408
80,,0.0,0.0,1.1673803286064062,1.1602889260756406,0.7801149267976469,1.3535183307114056,1.3819695256862294,,,0.6153451465759925,inf,,,0.9386788907372132
81,,0.0,0.0,1.309744412387068,1.3116162949323038,0.8926845468451796,2.004520784209808,1.4566407243838104,,,0.6309483474627791,inf,,,0.9561153172952939
82,,0.0,0.0,1.368443768080799,1.3101885593175089,0.8606525114737367,1.6409806905478717,1.5944520536730515,,,0.6468212168108125,inf,,,0.9545355142445396
83,,0.0,0.0,0.7636323596716856,0.7429419896838564,0.7726656240616494,1.2431092834078545,1.3807473907214154,,,0.6233814453054027,inf,,,0.960369229388998
84,,0.0,0.0,1.177543055541189,1.1659616075964867,0.742084021068738,0.9334102878861056,1.157653157115688,,,0.6097226960127671,inf,,,0.9158036079833299
85,,0.0,0.0,1.1194586159415447,1.0495084283639822,0.7990675063665078,1.4202122161151864,2.113462819331195,,,0.585052858160615,inf,,,0.9385980707695687
86,,0.0,0.0,1.2880600432111626,1.2906180446444573,0.8275642714658312,1.2274302823162004,1.7585035924473713,,,0.6125606311107803,inf,,,0.8946539375805397
87,,0.0,0.0,1.4196649153073047,1.4011814473793796,0.8647950251342925,1.1737311113447593,1.6278544907023926,,,0.6008849035917525,inf,,,0.8744711316862536
88,,0.0,0.0,0.7039497377984891,0.6343197862102842,0.7294441881258995,1.0377156578500106,1.2506052119480613,,,0.5947193981915972,inf,,,0.9321288369036078
89,,0.0,0.0,1.0937350854622518,1.0776127544811995,0.8299809100149383,1.3147067623241009,1.763657140190071,,,0.6008849035917525,inf,,,0.9175455953497678
90,,0.0,0.0,0.9693832127647515,0.9048747400911193,0.7279102728737504,1.1367756322638287,1.344139237749498,,,0.6097226960127671,inf,,,0.9418242964008946
91,,0.0,0.0,1.5717242864595549,1.5249290214377236,0.8770153700679414,0.8029346478711913,1.3792357256347767,,,0.5713653840954815,inf,,,0.9099657101162101
92,,0.0,0.0,1.401058981463976,1.3724995225219812,0.8961921970348034,1.2161398847262561,2.22408385822797,,,0.541134803179459,inf,,,0.906387599928195
93,,0.0,0.0,0.971924194311096,0.9472400641185376,0.754545732167724,1.1818144023375208,2.1689994273764257,,,0.581717464821069,inf,,,0.9119279144842123
94,,0.0,0.0,1.5832607113886372,1.5621315634669624,0.8906831405929793,1.2687055265598008,2.2370149352643454,,,0.5748741956352443,inf,,,0.9006432680749897
95,,0.0,0.0,1.3177905663194456,1.3231049281225402,0.874136115993996,1.3607738980459623,2.597014048656857,,,0.581717464821069,inf,,,0.8900562964025538
96,,0.0,0.0,1.550673567786498,1.5059316641344584,0.8618609207362449,1.6295294703729726,2.1724384082353714,,,0.581717464821069,inf,,,0.8911525891562376
97,,0.0,0.0,0.9286156635841504,0.8791506865125779,0.7798870795390858,1.6862509063464977,2.3980637600605776,,,0.6207552362147116,inf,,,0.9233813763086836
98,,0.0,0.0,1.3527013543598811,1.3549915409218298,0.8668496307347076,1.2802407237253692,2.4035670297605236,,,0.541134803179459,inf,,,0.887823361480239
99,,0.0,0.0,1.768126124119901,1.705987748584042,0.8505626096341526,1.3580967290475372,3.119263552660783,,,0.5677978065141052,inf,,,0.8674189169580644
100,,0.0,0.0,1.785191561950875,1.7617625699383788,0.9098799978636611,1.367026676544381,3.3811053365585964,,,0.5677978065141052,inf,,,0.8494341069542756
101,,0.0,0.0,1.525933275347204,1.516171572152409,0.8753309589124261,1.3551579376188136,2.6614684803877937,,,0.5677978065141052,inf,,,0.8354628823400837
102,,0.0,0.0,1.0936220916513062,1.0711221068672316,0.7642747992428297,0.9453277227596079,1.4140640783900302,,,0.5202020156036558,inf,,,0.9122145646828503
103,,0.0,0.0,1.1691831240173096,1.1011070907300216,0.7578236509458589,1.9003053339159521,2.252709863335597,,,0.5713653840954815,inf,,,0.934818297733831
104,,0.0,0.0,1.6139792600399248,1.612057876229048,0.8664238045529914,1.8349737970730868,2.782744322976451,,,0.581717464821069,inf,,,0.9105019663637192
105,,0.0,0.0,1.0990833797806179,1.0745104749338474,0.75465437572599,1.8401922993785322,1.83774474442577,,,0.5783247308855777,inf,,,0.9274924057318019
106,,0.0,0.0,1.2038344537809174,1.150219636084886,0.874155984312586,1.2016885752622262,0.8085141058527341,,,0.6668815377411301,inf,,,0.9484409776809172
107,,0.0,0.0,1.5431155761846955,1.4943082281559454,0.7333328347683726,1.2830798100544574,1.4119359688870723,,,0.6038851895711802,inf,,,0.9151569044507677
108,,0.0,0.0,0.8403474122189145,0.8083595030574943,0.6233930401375829,1.8528446711381032,3.1281686346316446,,,0.5370774965580548,inf,,,0.920552258274544
109,,0.0,0.0,1.7849603347110077,1.733760449318021,0.953901714102405,2.5040452981854404,5.659875462959091,,,0.5022576003740722,inf,,,0.8529329447571211
110,,0.0,0.0,1.3815253650803816,1.363023710971136,0.8200339879478338,1.6527954537175673,2.6589075805616904,,,0.6068309995095971,inf,,,0.8932815558770375
111,,0.0,0.0,1.5209458760339822,1.4992680388281638,0.8808553752779285,1.901341440462223,3.1324872708644693,,,0.5068466436745385,inf,,,0.9026963233329087
112,,0.0,0.0,1.34634661273015,1.345013443787407,0.8564297112818599,1.4287744881114364,2.0778947052465213,,,0.5783247308855777,inf,,,0.9265057349254204
113,,0.0,0.0,1.4382530814817571,1.413114492974134,0.8942225950437233,1.2964290794503905,2.627935434495277,,,0.4928685327679205,inf,,,0.8557642172920146
114,,0.0,0.0,1.0156644913186135,0.9976389289983841,0.7858974814420245,1.487449661581594,1.7952876308016026,,,0.5604843169999094,inf,,,0.88134394780455
115,,0.0,0.0,1.3367303333217788,1.3225885565527105,0.8614101505795656,1.9654324847065976,3.128530128517852,,,0.5202020156036558,inf,,,0.7397559836657254
116,,0.0,0.0,0.764163066918006,0.735429171921303,0.7646850284963006,1.322361542983074,2.3934836718184718,,,0.5915533975974677,inf,,,0.9065363046200055
117,,0.0,0.0,1.716594549888983,1.6666816266646645,0.8987259769546054,1.9009339122530182,3.3876067811699495,,,0.5883313578629602,inf,,,0.8794363537439961
118,,0.0,0.0,0.7425696569190828,0.7231234319957568,0.4155815771368483,1.3529492353537,1.4407252924018248,,,0.62595550513784,inf,,,0.9525588672133535
119,,0.0,0.0,0.49203287129615664,0.3190743018679171,0.6029406149082156,1.026618624437284,1.4816087112796286,,,0.552929491858785,inf,,,0.9425119838839121
120,,0.0,0.0,0.8037863231163411,0.7576008103464985,0.7269716719482759,0.9764349445225584,1.6094740194549821,,,0.5604843169999094,inf,,,0.8607544690561466
121,,0.0,0.0,0.9440527671186206,0.9280224377086322,0.6781107255675026,1.5546815476033764,1.790589785566787,,,0.5915533975974677,inf,,,0.9499066961269061
122,,0.0,0.0,1.31957784165981,1.2741326638271386,0.8826883333029111,0.45604458476424337,0.8156477398660886,,,0.5113665138247345,inf,,,0.9085643743047367
123,,0.0,0.0,1.4455089693734404,1.4175188833002672,0.8433949659474966,0.2998339762693114,0.6081871299811652,,,0.5287703885177266,inf,,,0.8679556328061072
124,,0.0,0.0,1.6932954245886715,1.6737134691757087,0.9218184381621077,0.2509918185114316,0.4881528113314431,,,0.524519217297268,inf,,,0.8173229093107718
125,,0.0,0.0,1.6192048983642229,1.6191977665754123,0.8825428148274116,0.24972756298126583,0.48122527527730397,,,0.5022576003740722,inf,,,0.8190940786436923
126,,0.0,0.0,0.8389085929263811,0.7952243919122657,0.6299754076396695,0.36055014900153,0.5410578886088842,,,0.5068466436745385,inf,,,0.901328046046756
127,,0.0,0.0,0.9548714309202779,0.8981423495398406,0.8402477708803061,0.7367918314096257,0.6096611130411149,,,0.6068309995095971,inf,,,0.9256304601340382
128,,0.0,0.0,0.41730317772600345,0.3949843267278111,0.6136696409068776,0.6025665699468816,0.6284967443030482,,,0.6008849035917525,inf,,,0.9392729647145693
129,,0.0,0.0,0.6714116365405265,0.661631248376134,0.7542492213651667,0.41435980841708686,0.5132145957691883,,,0.5641709578113449,inf,,,0.9446625587106592
130,,0.0,0.0,1.2577885361596741,1.2288639319986747,0.8889921901576215,0.09331973142088068,0.16404708227373163,,,0.5915533975974677,inf,,,0.7257556767576074
131,,0.0,0.0,1.1831801939359334,1.1030262464004883,0.8098922296371994,0.0708279238821019,0.12298746927797419,,,0.5915533975974677,inf,,,0.711299918496308
132,,0.0,0.0,1.2204815296117217,1.1869975543022722,0.81770158071063,0.07843689557360119,0.1276241424005115,,,0.5713653840954815,inf,,,0.7415507955139639
133,,0.0,0.0,1.4573207665074042,1.420797751816631,0.85626700133708,0.0724929648473822,0.1282528214249632,,,0.6008849035917525,inf,,,0.7276848594051266
134,,0.0,0.0,1.5086858659409517,1.4294503460903947,0.817844594814922,0.09005691448357722,0.1613214189337587,,,0.5978297680564633,inf,,,0.7118801893639528
135,,0.0,0.0,0.2126938811736031,0.19704583191834177,0.5523756753501595,0.18998900273241792,0.239842735817542,,,0.6125606311107803,inf,,,0.9070664559859036
136,,0.0,0.0,1.5128456204065235,1.4837651630477033,0.8461262788657697,0.21970531782399833,0.4032923683400249,,,0.5713653840954815,inf,,,0.7893770146541375
137,,0.0,0.0,1.3365108929442389,1.3269117788301983,0.8572818564281496,0.1651559508219508,0.30209066146959784,,,0.5641709578113449,inf,,,0.7987298957399334
138,,0.0,0.0,0.7673475133940165,0.7156632921057738,0.7789357609306793,0.27776078405883237,0.3687118422681887,,,0.5490601803369085,inf,,,0.8794121818409988
139,,0.0,0.0,0.8051941709898258,0.8023953382577435,0.7317175899650943,0.35984348036286135,0.4106721830820713,,,0.5604843169999094,inf,,,0.916866825302861
140,,0.0,0.0,0.8255656683010663,0.7869474355368141,0.7058480701914133,0.15667071480225947,0.18981580262265255,,,0.6207552362147116,inf,,,0.8727105809938552
141,,0.0,0.0,0.7965492654504561,0.763832581096221,0.67970185748799,0.19656978903128627,0.26557987731637045,,,0.6207552362147116,inf,,,0.8704147698165601
142,,0.0,0.0,0.4128048388903693,0.3533762151125557,0.8052528727480661,0.1272914586106598,0.20032462921183655,,,0.5947193981915972,inf,,,0.8596228824408875
143,,0.0,0.0,0.4120279157265517,0.39141166247655534,0.6736411474557461,0.43299095618726396,0.507757829266403,,,0.5915533975974677,inf,,,0.9170720308335787
144,,0.0,0.0,1.4127414744840696,1.3988392985257547,0.5895616668784311,0.3036734561966601,0.51053735808097,,,0.5783247308855777,inf,,,0.7586769475947648
145,,0.0,0.0,1.0018557554283583,0.9577918447643371,0.7494409769195003,0.41266372674888285,0.6774282674782797,,,0.552929491858785,inf,,,0.7734179127038746
146,,0.0,0.0,0.8085657966740931,0.7658313676479338,0.8823120212187981,0.5419974784806313,0.6229918464410092,,,0.5883313578629602,inf,,,0.9065378061412805
147,,0.0,0.0,0.7109365370703793,0.6817124940176502,0.7919237448297592,0.14898126900107317,0.19171047362949473,,,0.6207552362147116,inf,,,0.8810794868368836
148,,0.0,0.0,1.4103572828716011,1.3547909500789719,0.865390450462036,0.1052992001882948,0.18087532598130995,,,0.581717464821069,inf,,,0.8086132259157424
149,,0.0,0.0,0.8254278295457889,0.7968895106474275,0.7223221284222284,0.1973079102083271,0.24472246714723353,,,0.5915533975974677,inf,,,0.8489593634697477
150,,0.0,0.0,1.6084772150159268,1.5646399354705323,0.8845935444980676,0.20423359872903932,0.35750815786421475,,,0.585052858160615,inf,,,0.7392084973695668
151,,0.0,0.0,0.18683165482699773,0.16225022007811557,0.680580756293424,0.225620497696004,0.3183743547266541,,,0.585052858160615,inf,,,0.8717448973322752
152,,0.0,0.0,1.3273188536954263,1.3209469945309422,0.737403424641606,0.08873833248189904,0.16760557953592875,,,0.5329562494928909,inf,,,0.7875221546892387
153,,0.0,0.0,1.1810655140464508,1.1420093308877048,0.8387828977200259,0.08805042889449087,0.1623107918721804,,,0.6068309995095971,inf,,,0.7506886647369354
154,,0.0,0.0,0.8237460346956144,0.8025773587640626,0.8026368989986613,0.20129185116279755,0.3152004844821094,,,0.6038851895711802,inf,,,0.8528738832344379
155,,0.0,0.0,1.4173219055377395,1.3938981750114696,0.8706076548919279,0.1678115927046635,0.2985820086920881,,,0.5915533975974677,inf,,,0.7963315788306132
156,,0.0,0.0,1.2537782415797674,1.2295936885259444,0.8643191345207067,0.25388632890499413,0.4037189884852613,,,0.5915533975974677,inf,,,0.7802901200287089
157,,0.0,0.0,1.0498787785911552,1.0220138962575267,0.8553404646994933,0.2843319561602977,0.43982294473578315,,,0.5641709578113449,inf,,,0.773853882611258
158,,0.0,0.0,1.21668357538814,1.1977423320047842,0.829246925110464,0.2730205400167844,0.4425468523750619,,,0.585052858160615,inf,,,0.7855544993891502
159,,0.0,0.0,0.3108102892920412,0.26881814615159516,0.6914407179339616,0.4930932485252582,0.6567365404317987,,,0.585052858160615,inf,,,0.931861126889075
160,,0.0,0.0,1.3211010511332408,1.3160307305696253,0.6645994727928739,0.3083032029587702,0.41631825130148953,,,0.5567373465730988,inf,,,0.8495989519517841
161,,0.0,0.0,0.9752850399615791,0.958033678160052,0.8444559765821558,0.6183548454406487,0.77843978669058,,,0.581717464821069,inf,,,0.8346385202626689
162,,0.0,0.0,1.353591060490851,1.3389594395411926,0.8434777349650506,0.5142994257974333,0.6660619250119235,,,0.5947193981915972,inf,,,0.7862692801202612
163,,0.0,0.0,0.49274784944921735,0.4610805469749008,0.7155205142926646,0.6694994669506662,0.6316678560863805,,,0.5947193981915972,inf,,,0.9160077203960016
164,,0.0,0.0,0.804621701607195,0.7308159256002793,0.8674270027233033,0.5955817634990794,0.4919354654210808,,,0.6468212168108125,inf,,,0.9135766371504739
165,,0.0,0.0,1.00539028910558,0.9658927548882348,0.8989187045229703,0.8827747606849441,0.7870656005070027,,,0.6447042257417027,inf,,,0.9220579957359502
166,,0.0,0.0,1.2848008408622387,1.239804922124388,0.8768094284502993,1.4538551994918836,0.9660453504204325,,,0.6309483474627791,inf,,,0.8637256212265153
167,,0.0,0.0,0.8972577791755423,0.878891953717739,0.8575143605521665,0.928291158011079,0.9123269142910858,,,0.6284777104787076,inf,,,0.798411050140985
168,,0.0,0.0,0.5629871005157768,0.5263060820566985,0.7575401037580822,0.4282350180201694,0.3895775022357488,,,0.6068309995095971,inf,,,0.920623316221917
169,,0.0,0.0,0.8612823578397465,0.8385776403661537,0.7967522002962516,0.6643871833159638,0.5339435260313284,,,0.6207552362147116,inf,,,0.9197215168954296
170,,0.0,0.0,0.9591667101178043,0.9198317780711631,0.789268312324431,0.7135049002649525,0.4537330647745149,,,0.648888643467878,inf,,,0.8911056342050037
171,,0.0,0.0,0.8238551415726683,0.7980883140943359,0.7497735066494013,1.0284295357222908,1.0513865339340533,,,0.6180765742263259,inf,,,0.8929868333995843
172,,0.0,0.0,1.0090579600062257,0.9605898161502487,0.8588611839432394,0.7830560422208742,0.6869837606571746,,,0.62595550513784,inf,,,0.9389734703069048
173,,0.0,0.0,0.9252930264963006,0.8542731118145991,0.7768069982855889,0.5439007077583773,0.5381772933000042,,,0.6509067234006624,inf,,,0.9189239663066314
174,,0.0,0.0,1.0207340433240177,0.9455318015636923,0.87081757664797,0.9787021606430166,0.7832316914251043,,,0.6180765742263259,inf,,,0.9466199595433274
175,,0.0,0.0,0.9377678280964931,0.9057202647589078,0.7538749943322626,0.7065379725374428,0.5313820600727461,,,0.6509067234006624,inf,,,0.9262488901095491
176,,0.0,0.0,0.7130911976816955,0.6746486193993197,0.8033298714882956,0.7752863446229988,0.6211757661186568,,,0.6652988471865258,inf,,,0.9463709857678646
177,,0.0,0.0,1.0322329777246737,0.9846552087267049,0.8891879361332177,0.5054952679764193,0.532043940116576,,,0.6180765742263259,inf,,,0.9238114537559984
178,,0.0,0.0,0.7826297217293723,0.764315460586545,0.710707991047786,0.8122627134194728,0.7378014865415919,,,0.6180765742263259,inf,,,0.8495363481492267
179,,0.0,0.0,1.1042854408225025,1.0524984279453515,0.795694880777986,1.0350505712679257,0.9595460732328494,,,0.6233814453054027,inf,,,0.8552615962393493
180,,0.0,0.0,0.6712317400520922,0.6526312359375156,0.7861949017957719,0.28458117440275954,0.3269056017958142,,,0.5748741956352443,inf,,,0.9139607472492417
181,,0.0,0.0,0.6543823615216986,0.5760184256436326,0.6576575593110546,0.29430737348451735,0.24153018305698948,,,0.5978297680564633,inf,,,0.9215316023381341
182,,0.0,0.0,1.0856752530469742,1.0367503493688472,0.8676229389837582,0.6952925272247421,0.4922888159497041,,,0.6284777104787076,inf,,,0.9346329531533515
183,,0.0,0.0,0.7701809378068044,0.7211703796525336,0.7034063227998505,0.5279646742563654,0.5725008996725582,,,0.5641709578113449,inf,,,0.9388964583553092
184,,0.0,0.0,0.9872218678420115,0.9347418101912005,0.7957205240865706,0.8653612067420956,0.6157235806165325,,,0.5978297680564633,inf,,,0.9351051087249083
185,,0.0,0.0,0.8054024397854198,0.7282802354130098,0.8127173705356776,0.288845895331055,0.30516343354999464,,,0.5490601803369085,inf,,,0.9104121620638737
186,,0.0,0.0,1.0304448934791717,1.0345058414563488,0.7713678285253841,0.643019085160034,0.49883761990220254,,,0.6528756675646988,inf,,,0.9242664949040844
187,,0.0,0.0,0.6932456887147511,0.6095686539901293,0.7696089173587329,0.46725846665803616,0.3620536873001679,,,0.6180765742263259,inf,,,0.9030877811574018
188,,0.0,0.0,0.4727870410598005,0.41653510740018757,0.794921339665655,0.39277061969727817,0.4655413197929866,,,0.5978297680564633,inf,,,0.8661906723983455
189,,0.0,0.0,1.4736412976809135,1.414779645036124,0.8899455785043108,0.2419101485418774,0.40643670003025356,,,0.5713653840954815,inf,,,0.7163319939139844
190,,0.0,0.0,1.2668646957571847,1.229589570865253,0.8161219525568068,0.25039672912472777,0.4716258450277325,,,0.524519217297268,inf,,,0.7456288956454612
191,,0.0,0.0,1.284364778976074,1.2597328298249688,0.7840281550750929,0.2768913608170885,0.5130718572822571,,,0.581717464821069,inf,,,0.7099606415697816
192,,0.0,0.0,1.288215106177877,1.262436807496899,0.7794606998083753,0.25555111376188433,0.4945793283148863,,,0.541134803179459,inf,,,0.7330367572839203
193,,0.0,0.0,1.4171534719368863,1.4110353310499144,0.8333154153105302,0.2714316425187387,0.5081995889143356,,,0.5783247308855777,inf,,,0.7494903773023441
194,,0.0,0.0,0.70915906257291,0.622494608155193,0.7574165315529388,0.4917897730213087,0.5094035880205339,,,0.5947193981915972,inf,,,0.9384548613590353
195,,0.0,0.0,0.8237508003088521,0.8197570959706781,0.6255285958574845,0.34926982721762173,0.33301111095329,,,0.5713653840954815,inf,,,0.9294853147471638
196,,0.0,0.0,1.0318168163285502,0.9925076195759513,0.8676517971308891,0.7087844614249142,0.49699791198088916,,,0.6357360191111145,inf,,,0.9287205485474823
197,,0.0,0.0,1.3380661522390416,1.3107083950747629,0.9175549257831805,1.3270346715667793,1.3356743211309179,,,0.6333676938231112,inf,,,0.9372530778250877
198,,0.0,0.0,0.9472541354277431,0.8968809438613027,0.7615489879447329,0.3386546013766463,0.2451269146422128,,,0.6528756675646988,inf,,,0.9133971768404515
199,,0.0,0.0,0.9750956218147411,0.9517853679888955,0.6940138281216387,0.27031313198383095,0.16909796276551087,,,0.648888643467878,inf,,,0.9247544221009101
200,,0.0,0.0,0.690057715553141,0.6073404360154016,0.7227432623945651,0.3584118300370395,0.279511917814703,,,0.6153451465759925,inf,,,0.9155692376587328
201,,0.0,0.0,0.6841810154491834,0.6294183207723864,0.6913322520108757,0.394590768133399,0.4164797610583823,,,0.581717464821069,inf,,,0.8962558775003789
202,,0.0,0.0,0.37963695508045747,0.26132968490100217,0.6213660594676913,0.23070592788827343,0.22447185705521042,,,0.6403206450210053,inf,,,0.9000256266604447
203,,0.0,0.0,0.4390767741582272,0.36833311983153405,0.6793620416946997,0.26356286252189964,0.22754291882262517,,,0.62595550513784,inf,,,0.9340412758546366
204,,0.0,0.0,0.5061320840427864,0.4895607795891752,0.6640508096179293,0.43506348486021396,0.36796654096279996,,,0.6547956803312163,inf,,,0.9435475881332366
205,,0.0,0.0,0.6987693771588801,0.6811907636478466,0.56992659359276,0.2590595671598605,0.35141382267902493,,,0.5947193981915972,inf,,,0.9192704367771194
206,,0.0,0.0,0.7421049895986519,0.6543705631859766,0.6991547909468687,0.29863658170893376,0.29865996105680653,,,0.6740851607140061,inf,,,0.879183386230785
207,,0.0,0.0,1.0839192235804727,1.011862622751222,0.8427485315697939,1.0311305487663476,0.47745888280912596,,,0.5978297680564633,inf,,,0.9227494673225807
208,,0.0,0.0,1.2700026267444897,1.2451834147385958,0.8381947630217854,1.4781419841732129,1.000957615081222,,,0.6447042257417027,inf,,,0.946384224577969
209,,0.0,0.0,1.2926264680596313,1.287222308138894,0.8401522308955598,2.219171588329251,1.665929263051234,,,0.6547956803312163,inf,,,0.9081016205510516
210,,0.0,0.0,0.18592973281183492,0.10303787019099586,0.5448166115226107,1.2637701732279985,1.1216926527811877,,,0.6547956803312163,inf,,,0.6746237620184556
211,,0.0,0.0,1.0820503079974648,1.064944872961912,0.7867429029146059,0.9810095348051059,1.051520084280897,,,0.6380535849069913,inf,,,0.9499135105751914
212,,0.0,0.0,1.12086842145562,1.095805789898794,0.8485545822040964,1.4269047789746911,1.035248074838357,,,0.6668815377411301,inf,,,0.9508867657630191
213,,0.0,0.0,1.086672285458262,1.0711828161576515,0.8059651893729933,1.8057727652961946,1.654272593149103,,,0.6684167106117298,inf,,,0.8876288694449471
214,,0.0,0.0,1.01176259585233,0.9778339415718353,0.6997504028183219,0.6469548746362881,0.7317519959654858,,,0.5783247308855777,inf,,,0.8422824562414485
215,,0.0,0.0,1.1191532882222288,1.0826168831397047,0.8432680370580007,0.6670921883951366,0.5077778029092123,,,0.6309483474627791,inf,,,0.9267510772158903
216,,0.0,0.0,0.6290589098187807,0.5908741110610404,0.8306352287382889,0.4677176251097508,0.48731096139278196,,,0.6180765742263259,inf,,,0.9209963708618849
217,,0.0,0.0,0.2285328140111255,0.19790350630202666,0.671518565638599,0.2290350599930047,0.25284816586371395,,,0.6097226960127671,inf,,,0.9451255566404257
218,,0.0,0.0,1.0263211791606328,1.0090735370090806,0.7389702420215899,0.5723135031606122,0.41277651396722526,,,0.6284777104787076,inf,,,0.9353687325810448
219,,0.0,0.0,1.1115953697547516,1.0621739196563478,0.8488753423518343,0.5833510890761071,0.5151892070690679,,,0.6333676938231112,inf,,,0.9122436817614482
220,,0.0,0.0,0.17118885779824036,0.1194952584905927,0.6051400928980898,0.4309279906598874,0.41220832420917414,,,0.6233814453054027,inf,,,0.9656035700662562
221,,0.0,0.0,1.3318838178365486,1.334835531394698,0.9200726977041268,0.23525810510997683,0.3581864320738174,,,0.6125606311107803,inf,,,0.9140835142901182
222,,0.0,0.0,0.8339246785176777,0.8120678674625658,0.7972344078392805,0.19965061194700237,0.24014276254584277,,,0.6008849035917525,inf,,,0.9267690691775565
223,,0.0,0.0,0.8696798430490489,0.8061839632113575,0.8230507845937658,0.3917221257732135,0.42654495567640605,,,0.581717464821069,inf,,,0.9437098606762953
224,,0.0,0.0,0.9821721724555897,0.9643088376346529,0.8082179656870976,0.38276802933443227,0.4643809207303571,,,0.648888643467878,inf,,,0.9350677813686656
225,,0.0,0.0,1.1840308890592048,1.1546997176313374,0.9323037016688105,1.1016011699198913,0.9124876279707372,,,0.6584896970785714,inf,,,0.9312431411936374
226,,0.0,0.0,0.9882243699705667,0.9677560756278867,0.8288668496583564,1.3110713871519968,1.0348085728770664,,,0.6740851607140061,inf,,,0.9451042903184377
227,,0.0,0.0,0.9332654093113804,0.9044570689560152,0.8031729936402376,0.468195975397731,0.6111845825571462,,,0.6153451465759925,inf,,,0.8660857046046768
228,,0.0,0.0,0.857721953349761,0.8399365582127963,0.4960686499987873,0.8199884639840617,0.8935541655298762,,,0.6547956803312163,inf,,,0.9537608145309278
229,,0.0,0.0,0.7890248897113475,0.7468142325036514,0.7282096092915952,1.069665235264614,1.035125349942686,,,0.6447042257417027,inf,,,0.9065412694559665
230,,0.0,0.0,1.129051759394219,1.0845662570227075,0.8049991989905996,1.26682875872878,1.2898458156868757,,,0.6097226960127671,inf,,,0.8772363485879874
231,,0.0,0.0,0.5402171493504888,0.46544340333863005,0.7868565118157774,1.1104725733521967,0.9909111128985033,,,0.6509067234006624,inf,,,0.7743630414434212
232,,0.0,0.0,0.6787470220679094,0.6241082520751752,0.818184392284801,0.7797658586331004,0.7372088521085317,,,0.6468212168108125,inf,,,0.9578739599158624
233,,0.0,0.0,0.9636160232570163,0.914365138837967,0.7356265439937899,1.0257177053682276,0.7967728691858644,,,0.648888643467878,inf,,,0.9512479664146614
234,,0.0,0.0,1.2083967003175664,1.1871200888806124,0.6650998947074096,1.6973244535987626,1.4780191439662211,,,0.6357360191111145,inf,,,0.9507368517766185
235,2.5682882587270512,-0.008560960862423504,0.0,0.5644096423156999,0.5076426521440796,0.4962167338204125,1.588633895207343,0.9127792071169893,,,0.6425374456860184,8.272070733383252,inf,,0.5643238967093813
236,2.17742195004004,-0.007258073166800133,0.0,0.6850754588362359,0.6426322534704609,0.6695355648020718,1.680663353643541,1.012194399450102,,,0.6668815377411301,7.881204424696241,inf,,0.6916426461375026
237,,0.0,0.0,1.139633342588873,1.1368231714304058,0.8423575644609611,2.343159574726928,1.8036911070795836,,,0.6333676938231112,inf,,,0.8567372282242457
238,,0.0,0.0,0.9467789905037894,0.9097768031552456,0.798441684956368,1.4956044276754599,1.0611156985672145,,,0.648888643467878,inf,,,0.838401571365865
239,,0.0,0.0,0.82656050240555,0.8151999690013745,0.7113537525876431,1.3560130973274005,0.9914625468520166,,,0.6284777104787076,inf,,,0.9511286105899283
240,,0.0,0.0,0.7967162490170049,0.7736883656935016,0.7976029457199313,1.0054875938559689,0.8547608569589411,,,0.6180765742263259,inf,,,0.9408821323686912
241,,0.0,0.0,1.1398971755969154,1.1353555416491146,0.8441888635934428,1.1145335942408818,0.7459583127988778,,,0.6333676938231112,inf,,,0.9492236445165354
242,,0.0,0.0,0.8474940809655398,0.8308039571062747,0.766612855708508,0.9449380881098246,0.9404074507446807,,,0.648888643467878,inf,,,0.9505664714249473
243,,0.0,0.0,0.7976908712446259,0.7404808661986333,0.8096378326423376,0.6756783061041411,0.47778307462011294,,,0.6207552362147116,inf,,,0.9490009336639592
244,,0.0,0.0,0.8588488280776332,0.8062393611643357,0.7226580099897866,0.3053702273778471,0.41878676679431087,,,0.6008849035917525,inf,,,0.9537704388235777
245,,0.0,0.0,0.11539037784936122,0.0879985239361572,0.4115877061793917,0.6372080740885057,0.6964836185762121,,,0.5978297680564633,inf,,,0.6728121509995239
246,,0.0,0.0,0.400721650866001,0.3821002049072923,0.684048519181305,1.3582449360654658,1.0233706304020256,,,0.6584896970785714,inf,,,0.8041524651450598
247,2.5682882587270512,-0.008560960862423504,0.0,0.47520082260193564,0.45608666964248573,0.7581524008608651,1.5768987578777498,1.2155331562095832,,,0.648888643467878,8.272070733383252,inf,,0.6942738973813329
248,,0.0,0.0,0.775939114673364,0.7466569761471422,0.8258894579301472,1.821778304755839,1.2143354633639007,,,0.6309483474627791,inf,,,0.9236894146734913
249,,0.0,0.0,0.9221108390633594,0.9052200776980206,0.8448459488966018,1.6452391449382497,1.2474536188053613,,,0.6309483474627791,inf,,,0.9260414624259624
250,,0.0,0.0,0.3108102892920412,0.2783487758889361,0.46671093875153824,0.8410504829377407,0.6241754709834213,,,0.6380535849069913,inf,,,0.6353040137049377
251,,0.0,0.0,0.7010017199308738,0.5952159059049379,0.8486550314225759,0.6648336756746083,0.6846668944973928,,,0.6740851607140061,inf,,,0.9533054041156079
252,,0.0,0.0,0.6996820928181435,0.6468295988599233,0.8228360781743059,0.8764952866306946,0.6837907650830297,,,0.6699045166045591,inf,,,0.9507590778846011
253,,0.0,0.0,1.0607698738796436,1.0352527692611995,0.7183886856271057,1.1615291093170552,0.7576083778788949,,,0.648888643467878,inf,,,0.9453700734621568
254,,0.0,0.0,0.7438682893433751,0.7200283936231938,0.8428219087410325,1.702800791442691,1.4183695313022981,,,0.6125606311107803,inf,,,0.9465146438708528
255,5.703782474656201,-0.019012608248854004,0.0,1.0974008652605867,1.0878327035429853,0.7925738429602442,2.316648757650709,1.6233049031480413,,,0.6233814453054027,11.407564949312402,inf,,0.8875872888882727
256,1.7334905611040792,-0.00577830187034693,0.0,0.9983790937671576,0.950677392572689,0.6595401118612745,2.3675121503309655,1.393527546241498,,,0.6333676938231112,7.43727303576028,inf,,0.7345699451437553
257,2.769134018089314,-0.018460893453928758,0.0,0.5445495865853889,0.486242101851459,0.816384309937405,1.881777282650909,1.4283627059536184,,,0.6509067234006624,7.233177679416765,inf,,0.6907366352619901
258,,0.0,0.0,0.44256062104342075,0.4021893631456537,0.8161732154540635,1.0483461187697738,1.014267382522838,,,0.6584896970785714,inf,,,0.9447781161488352
259,,0.0,0.0,0.4962663691823033,0.4236157810374545,0.7800297757852748,1.3915189570819733,1.1139836395363714,,,0.6619902821573977,inf,,,0.9509699550569564
260,,0.0,0.0,0.3746090005862306,0.33272694194540614,0.7098895254236695,1.4584941742448223,1.577807387013263,,,0.6333676938231112,inf,,,0.9375426846559952
261,,0.0,0.0,0.9532327802260604,0.9335541072518332,0.7600686182612773,0.956224031538292,0.8780619559259563,,,0.6528756675646988,inf,,,0.9260252375736602
262,,0.0,0.0,0.9571537156419133,0.9237945240765836,0.7226572048471328,1.327006877935205,1.149048177970238,,,0.6652988471865258,inf,,,0.8946169993362046
263,,0.0,0.0,0.48121114884489746,0.4471339964720307,0.6181970462393475,1.4920479934295048,1.440822886194785,,,0.6125606311107803,inf,,,0.9219375496848671
264,,0.0,0.0,0.360658446061434,0.249189254807493,0.581390541574981,1.3729839794628595,1.3491384703008493,,,0.6380535849069913,inf,,,0.7580525824177133
265,0.7133498878774648,-0.0023778329595915493,0.0,0.5390841687303629,0.4359191736008306,0.4211669992390306,1.1413012490605514,0.8454174122172053,,,0.6309483474627791,6.417132362533666,inf,,0.7654612138784294
266,1.832615374468219,-0.02443487165957625,0.0,0.6493173479525434,0.48240314980333215,0.500219487153388,0.7895898036819606,0.5479318080296327,,,0.62595550513784,6.013937402960041,inf,,0.6529989753780929
267,2.103058188944938,-0.028040775852599172,0.0,0.28588429402253124,0.2530867020206332,0.7002257067111757,0.8735425528267532,0.7931064729795154,,,0.6425374456860184,6.144874760407516,inf,,0.4287344558165554
268,,0.0,0.0,0.8923818743489123,0.8806185718134648,0.8083100104593554,1.9060001846686763,1.3168447377309287,,,0.6284777104787076,inf,,,0.9534326714533193
269,,0.0,0.0,0.38638982516786635,0.36775469089136453,0.5215495231332801,1.4940716611529097,1.4176348544828057,,,0.62595550513784,inf,,,0.6744425595198215
270,,0.0,0.0,0.651232332859856,0.5828748022377412,0.7440883918411599,0.811432174899824,0.840034667429434,,,0.6380535849069913,inf,,,0.9515565890578095
271,,0.0,0.0,0.2702261217973413,0.23883615423149815,0.7266467774318941,0.2667077086725094,0.26680705938668264,,,0.6403206450210053,inf,,,0.9444794286426724
272,,0.0,0.0,0.7404083197134113,0.7291013993722819,0.5546897543325451,0.22072337445332096,0.19626310174955822,,,0.6566669596287297,inf,,,0.9627835004842904
273,,0.0,0.0,0.6182211934765531,0.5678993651865736,0.7389949765411493,0.9126115311386757,0.8744323029899415,,,0.5947193981915972,inf,,,0.9440019002256647
274,,0.0,0.0,0.6375293459751039,0.5719523555130427,0.8413866817680913,0.916306542013701,0.9779524889897111,,,0.648888643467878,inf,,,0.9517957320225581
275,,0.0,0.0,1.0422043458109138,1.0212833750152621,0.6877453166575841,0.9843708528822341,1.1134517642609654,,,0.5947193981915972,inf,,,0.95376983092917
276,,0.0,0.0,0.9061569493430914,0.8591757254024099,0.623251482916853,0.7175989629043807,0.6723871565610123,,,0.6357360191111145,inf,,,0.9489468796145154
277,,0.0,0.0,0.6121882658163641,0.5700549626501711,0.7800105057429274,0.7499125076434393,0.6388484590618535,,,0.6403206450210053,inf,,,0.9490216705061324
278,,0.0,0.0,0.7416920860973447,0.738340555432173,0.48121881543951733,0.5130400641610037,0.5675276686651628,,,0.5641709578113449,inf,,,0.9574533469789986
279,,0.0,0.0,0.7326712203964592,0.6873975417457338,0.7305224376476126,0.6502479385498557,0.6712814098821703,,,0.6403206450210053,inf,,,0.9490756709200371
280,,0.0,0.0,1.2411490915516956,1.248672626512363,0.8664623121860453,1.0750662458225975,1.0596407561581265,,,0.6602640781246099,inf,,,0.9291850418202214
281,,0.0,0.0,0.7881066407666216,0.7740101544158587,0.7110231148681853,0.8998328094888003,0.8159921157690672,,,0.648888643467878,inf,,,0.9489693599539237
282,,0.0,0.0,0.5362944793053777,0.5069218757593627,0.721411497043674,0.8557759187483222,0.9957736563983789,,,0.6357360191111145,inf,,,0.9506052279180875
283,,0.0,0.0,0.8453860798190449,0.8063386306484894,0.7070852352728204,0.8692412036350438,0.8038141980020438,,,0.6038851895711802,inf,,,0.9547791030756693
284,,0.0,0.0,0.514582108870093,0.47305750051477047,0.6677968560785184,2.1391551732163387,1.975327087728941,,,0.6740851607140061,inf,,,0.669270246018152
285,,0.0,0.0,0.48156596428488374,0.46802314997990463,0.718705354238743,1.3853290916597483,1.0526217607005404,,,0.663668482632973,inf,,,0.9265279527297633
286,,0.0,0.0,1.1577652518102477,1.1164889484175973,0.9050173559015864,1.8436050517978764,1.754185322955613,,,0.6619902821573977,inf,,,0.9570908173198374
287,,0.0,0.0,1.1333322294049704,1.0516356824012794,0.938049479878122,1.4952768058170856,1.4011453653789232,,,0.6602640781246099,inf,,,0.9083186748511065
288,,0.0,0.0,1.407121884599887,1.3335926501914581,0.8705973693843027,1.2060784929511872,0.9258109986284486,,,0.648888643467878,inf,,,0.8739481693767666
289,,0.0,0.0,1.2161402404528883,1.1866202148392742,0.8994280056577206,1.2440040002183466,1.0948183030752259,,,0.6447042257417027,inf,,,0.9485930509344316
290,,0.0,0.0,1.2869953538861498,1.2818506149366249,0.6998450203258101,0.2916786418149733,0.4168904568919297,,,0.5883313578629602,inf,,,0.9004588165921499
291,,0.0,0.0,0.6878037285800901,0.671903090312821,0.8062961612391072,0.5138531745852175,0.4969759687713813,,,0.6380535849069913,inf,,,0.934347667375837
292,,0.0,0.0,0.6181397549291829,0.5961782074878381,0.8679061756374711,1.1042154516882086,0.9425044659876762,,,0.6425374456860184,inf,,,0.9501710559942008
293,,0.0,0.0,0.9337538878453616,0.9088839727507501,0.7610145193666793,0.5794285662562141,0.7857300324965286,,,0.47824363442641393,inf,,,0.9015538316123398
294,,0.0,0.0,1.2150082537614422,1.1320646420872613,0.822697963664543,0.7895604009759847,0.7703549612640672,,,0.585052858160615,inf,,,0.9231053078155844
295,,0.0,0.0,0.9579063686194738,0.9114525035366315,0.8216962556579385,0.6353311575960434,0.7097402104151553,,,0.524519217297268,inf,,,0.9073440334303896
296,,0.0,0.0,1.7035440058372373,1.6833667852820235,0.9014496622264085,0.6822713507348517,1.277741827480877,,,0.4928685327679205,inf,,,0.8400341239441917
297,,0.0,0.0,1.2819090643962938,1.2633987377585403,0.8925787456936348,0.6854236258860651,1.2298932351962297,,,0.41861278947482794,inf,,,0.8423992086667642
298,,0.0,0.0,1.4086162049156146,1.394677853790724,0.8545809391214252,1.1524200079064781,1.8235140177294265,,,0.5068466436745385,inf,,,0.8624581272940159
299,,0.0,0.0,1.2763571498413335,1.104771150208801,0.8173635573119452,0.6614923561813069,0.6157001610830756,,,0.541134803179459,inf,,,0.8590572785632808
300,,0.0,0.0,1.6793590162614054,1.6773153211092982,0.8720756905558954,0.18156675104014958,0.36974072254136464,,,0.47824363442641393,inf,,,0.8543611657246832
301,,0.0,0.0,0.6868567672273772,0.659131489108282,0.7447047796112991,0.877519687581622,1.0418347424045327,,,0.5451288209179292,inf,,,0.9413529453014122
302,,0.0,0.0,1.5473534011626182,1.4602317308942163,0.8464442141534658,1.0189678053149558,1.3030407608592645,,,0.4928685327679205,inf,,,0.843132533215104
303,,0.0,0.0,0.08467349851939517,0.05940500481936426,0.36707935121140206,1.0924674813046944,1.5238261056945879,,,0.5604843169999094,inf,,,0.9600929804714695
304,,0.0,0.0,1.3362455819535406,1.270362786228918,0.8543555910211514,0.5830313622524325,0.9196852080875771,,,0.5451288209179292,inf,,,0.8926625475381893
305,,0.0,0.0,1.7478845144159991,1.7272095675763908,0.9181026457179646,0.38904559586356974,0.7787128815399699,,,0.49759852643134905,inf,,,0.8422791429539627
306,,0.0,0.0,1.7553392789586986,1.7226122078359702,0.9236824355222346,0.35846809595375617,0.7375648495851741,,,0.49759852643134905,inf,,,0.8465560079800617
307,,0.0,0.0,1.6691179125794702,1.6597930048404614,0.8740159271782691,0.3699412538787742,0.717041465824162,,,0.44144624493110796,inf,,,0.8596046828235744
308,,0.0,0.0,0.871557138030728,0.845939443365539,0.765703140240917,0.528269224487897,0.523178401121479,,,0.5490601803369085,inf,,,0.922102896174361
309,,0.0,0.0,1.29012909418299,1.2512078398504352,0.7906533810878423,0.10165746168561195,0.1849797864295289,,,0.6357360191111145,inf,,,0.7808253817896131
310,,0.0,0.0,1.3569749083974294,1.3406036418481682,0.7849771296248844,0.09684683313892568,0.17324537440770366,,,0.5915533975974677,inf,,,0.7101900581378899
311,,0.0,0.0,1.5310062989300652,1.5173348798718822,0.8767174358668723,0.10367650193232628,0.17627271229141228,,,0.6125606311107803,inf,,,0.714290423849107
312,,0.0,0.0,1.3525229092627917,1.3312735749521418,0.8188443791022401,0.10421738921155821,0.1789438318084665,,,0.6180765742263259,inf,,,0.7327478894212831
313,,0.0,0.0,1.5678837735607787,1.5546683090871767,0.8479934055495412,0.09223560705430743,0.16710492372150748,,,0.6284777104787076,inf,,,0.7006826151957634
314,,0.0,0.0,1.6339491833460826,1.6114498108076452,0.8871187437403953,0.09928871197300629,0.17485839269635253,,,0.6125606311107803,inf,,,0.7725807716435719
315,2.0402208285265546,-0.006800736095088515,0.0,0.3005320855225746,0.243775216937563,0.4113512520279491,1.1093638176323506,0.830456205588753,,,0.6068309995095971,7.7440033031827555,inf,,0.9224484392940289
316,,0.0,0.0,1.4740566632887209,1.4376826225674035,0.7878292189580836,0.38959227323760254,0.6227183643110741,,,0.5641709578113449,inf,,,0.8080733603346361
317,,0.0,0.0,1.5542287018598744,1.5425275556218123,0.7847870324315812,0.34971692260140125,0.5632967384382674,,,0.5022576003740722,inf,,,0.8319456191195386
318,,0.0,0.0,1.7705585562414283,1.7634740737248398,0.8731567679564253,1.0073081377266206,1.8042030302824028,,,0.5158180382284114,inf,,,0.825104400031178
319,,0.0,0.0,1.5475098021345746,1.510045261105121,0.8286604650776155,0.21669234966753784,0.3883049161957406,,,0.48319206230712763,inf,,,0.7632125987274911
320,,0.0,0.0,1.4927997836685343,1.4323276017352433,0.8159387553295387,0.14770890891966634,0.2765230406444754,,,0.5748741956352443,inf,,,0.8272047112786952
321,,0.0,0.0,1.4106714109167398,1.384937931504613,0.8916806382051252,0.1638737309189066,0.27355506072683433,,,0.5567373465730988,inf,,,0.8164071963759422
322,,0.0,0.0,0.9108883257953997,0.8696483522516064,0.6777467412813394,0.3573673150557257,0.4857287139654535,,,0.524519217297268,inf,,,0.8380608061682149
323,,0.0,0.0,1.3661683657219967,1.3422819643240218,0.662551092533367,0.19330175614803596,0.3246314152523726,,,0.6068309995095971,inf,,,0.7521367024129602
324,,0.0,0.0,1.4365208475710554,1.4063742394231769,0.8702433183967972,0.12192464469611365,0.20979580344456789,,,0.5947193981915972,inf,,,0.7327206417422156
325,,0.0,0.0,0.6180006044491856,0.5861826619342464,0.7922796002262631,0.272319689038765,0.34012697511470613,,,0.5883313578629602,inf,,,0.8742551778425344
326,,0.0,0.0,0.8566451040997956,0.7968261238207766,0.8681423073958776,0.6033468198331724,0.645383381635632,,,0.5604843169999094,inf,,,0.9183678018609498
327,,0.0,0.0,1.5452280039723192,1.4721982277477974,0.8410323154055709,0.31051973880904166,0.5036661837426823,,,0.5202020156036558,inf,,,0.7879012417455359
328,,0.0,0.0,1.490481946269158,1.4557309825428133,0.8702938715528089,0.29375158227519566,0.49793647979904765,,,0.5604843169999094,inf,,,0.7254632878861222
329,,0.0,0.0,0.7871305479837192,0.6893107025854635,0.6863238863503452,0.34001889041612743,0.4173709943766859,,,0.6068309995095971,inf,,,0.8904624054882092
330,,0.0,0.0,0.40731012515243287,0.33610736509772254,0.696552117390537,0.40379724606146655,0.4272705924136841,,,0.6068309995095971,inf,,,0.9177171002174468
331,,0.0,0.0,1.1094029522192503,1.099389493110775,0.7800415986572723,0.3101514824466122,0.42470336224275856,,,0.6425374456860184,inf,,,0.6717983298646131
332,,0.0,0.0,0.5629845207927551,0.5283048802512937,0.44099249798708934,0.39493936166219035,0.45999669148671324,,,0.6547956803312163,inf,,,0.8783553109335281
333,,0.0,0.0,0.8747907024906284,0.82973951273952,0.6944383098170305,0.5363591012891429,0.6298444367300963,,,0.5713653840954815,inf,,,0.9050907998962204
334,,0.0,0.0,0.7610780268195542,0.7196743737437193,0.6423222674226506,0.36802001855234256,0.5331886883425161,,,0.585052858160615,inf,,,0.7547178815254098
335,,0.0,0.0,0.8449817756452866,0.7438822275838267,0.7262190494205676,0.63763125775793,0.738371259513495,,,0.5748741956352443,inf,,,0.8683499007526695
336,,0.0,0.0,1.294142506405209,1.3012377462396292,0.7908072571917881,0.4648940119990571,0.6418211789866992,,,0.5451288209179292,inf,,,0.8313246684592517
337,,0.0,0.0,0.6820971321813402,0.6154912513649476,0.7628873630240643,0.6497513342879193,0.776778693538236,,,0.581717464821069,inf,,,0.8766643579545556
338,,0.0,0.0,1.1115443703665635,0.9806399434388138,0.8172465052151541,0.49252985779199926,0.6789206209754999,,,0.5748741956352443,inf,,,0.8051312060532767
339,,0.0,0.0,1.4536777245949417,1.4328406479499327,0.8443384242498199,0.44057951983371635,0.6696507232092775,,,0.5329562494928909,inf,,,0.7491584055737277
340,,0.0,0.0,1.0937976062153902,1.0387807533450752,0.8983058975031157,0.31034565966164257,0.5165574039493166,,,0.6008849035917525,inf,,,0.7144634232421315
341,,0.0,0.0,1.2555680909388103,1.2260116828869652,0.8337162364097177,0.3831444970136101,0.5972731879152805,,,0.6038851895711802,inf,,,0.8146900509067011
342,,0.0,0.0,0.8673121936935874,0.8442278642766413,0.6779163287009946,0.48714094869482677,0.5876843851000082,,,0.5915533975974677,inf,,,0.8925987994268018
343,,0.0,0.0,1.427974846594532,1.3792031142398486,0.799655965455348,0.730895412055574,1.1188574563644007,,,0.6125606311107803,inf,,,0.8477612342549271
344,,0.0,0.0,1.5192607906530073,1.5286459106224335,0.8423294412654252,0.6483384865333066,1.0047300936089323,,,0.6038851895711802,inf,,,0.7873435331343591
345,,0.0,0.0,0.8310924960717108,0.7568719593473638,0.5911968901202445,0.6614599271976311,0.8566365406573246,,,0.6180765742263259,inf,,,0.8827398317231094
346,,0.0,0.0,0.9489190005537063,0.9144276604436556,0.8334095288188353,0.8500141395254504,0.7781820073501124,,,0.5567373465730988,inf,,,0.9303632919511425
347,,0.0,0.0,0.6980063035900481,0.5779848705662113,0.8823829109584359,0.9081811201391647,0.8698818355736019,,,0.6207552362147116,inf,,,0.9476351985787984
348,,0.0,0.0,1.0291218245773175,0.9535873559903655,0.8017038658888088,0.3631321269466943,0.40582630959233773,,,0.581717464821069,inf,,,0.8770430549606446
349,,0.0,0.0,0.37774277082760943,0.26577727805994406,0.6910520701508751,0.33579958029642576,0.3173364690077503,,,0.6097226960127671,inf,,,0.9443691837684787
350,,0.0,0.0,0.10696905971831198,0.08356092084467251,0.5902813281691955,0.5952104796228814,0.6576166736891189,,,0.5567373465730988,inf,,,0.605293425024797
351,3.5654494151481737,-0.023769662767654492,0.0,0.25536107293752264,0.13505951492616566,0.42580917369441407,0.4210019168744334,0.5059674621744779,,,0.5677978065141052,8.574351605256187,inf,,0.6438504371192978
352,,0.0,0.0,0.4701124778206282,0.43219948836531197,0.7451860168408156,0.48255845602979897,0.369518410622304,,,0.6038851895711802,inf,,,0.9179438186678105
353,,0.0,0.0,1.4845141299037268,1.4807292870091118,0.8126564983105932,0.9672607800155988,1.1926513654391488,,,0.5329562494928909,inf,,,0.7979711272999668
354,,0.0,0.0,0.9446883523162973,0.8974562378404057,0.7584175463372033,0.5262024546385772,0.5004390066334535,,,0.5604843169999094,inf,,,0.8468732849684972
355,,0.0,0.0,1.6258539098161005,1.5874489444881612,0.9070348552350648,0.32664724482823126,0.5623793918055879,,,0.5490601803369085,inf,,,0.775923178856159
356,,0.0,0.0,1.300204616564938,1.2379365627934769,0.9025013168946378,1.3791344806042813,0.9009773506031267,,,0.6699045166045591,inf,,,0.9279428063432519
357,,0.0,0.0,0.6485202171651276,0.6173466562399685,0.6783424753921641,0.6398787568016285,0.460714121042336,,,0.62595550513784,inf,,,0.8731128152977253
358,,0.0,0.0,0.6610653042203067,0.60001019071297,0.7735336356194792,0.2328515467819,0.2923272611933041,,,0.5947193981915972,inf,,,0.7684137665123544
359,,0.0,0.0,0.7173081221381259,0.6717927733598287,0.8332169785514109,0.17344634095321998,0.24648501131565034,,,0.6207552362147116,inf,,,0.842879867104554
360,,0.0,0.0,0.8798626512267421,0.8072981710831645,0.5551445552747039,0.25340370274333585,0.2995247929273846,,,0.6333676938231112,inf,,,0.8605877707297741
361,,0.0,0.0,1.0193409207700246,1.0160480337412556,0.7266160666812638,0.31605180081055473,0.24353482145184335,,,0.6447042257417027,inf,,,0.8593522099680152
362,,0.0,0.0,1.2781747036056221,1.215330428754277,0.8631195820305403,0.08721925838428043,0.14340210044433468,,,0.5978297680564633,inf,,,0.7309645039731033
363,,0.0,0.0,0.7046074792437784,0.6011318185049622,0.8032844171987251,0.49294426523491097,0.5397803867375154,,,0.6207552362147116,inf,,,0.8651119185785022
364,,0.0,0.0,0.8357390896608741,0.8026210899260159,0.6999796134071682,0.5371263695312559,0.7971428234723597,,,0.5713653840954815,inf,,,0.7575593370504617
365,,0.0,0.0,0.8245343928294298,0.7280824735903445,0.7573883214060055,0.9988658611808097,0.8624136702708177,,,0.5978297680564633,inf,,,0.9223917300681252
366,,0.0,0.0,1.596843210124828,1.5723720119553037,0.7728922220750064,0.23856094387241084,0.42118382179810154,,,0.5287703885177266,inf,,,0.8090728339766654
367,,0.0,0.0,0.8061366448832822,0.7918190392900551,0.6235261214806979,0.6448914916390154,0.5638403673352373,,,0.6180765742263259,inf,,,0.9436912769372171
368,,0.0,0.0,0.3425926612355005,0.3047683130878482,0.7560110086109293,0.22800159875126408,0.3290941421975965,,,0.5748741956352443,inf,,,0.8846639025686063
369,,0.0,0.0,0.8426693644738847,0.7727552874116217,0.834419374994612,0.22179975398326382,0.3092540005685799,,,0.5202020156036558,inf,,,0.820680598533584
370,,0.0,0.0,0.9596383339221096,0.9255250489858089,0.6597645655850175,0.4920035609616655,0.6280938761684589,,,0.5158180382284114,inf,,,0.8898532531152284
371,,0.0,0.0,0.50340452646551,0.4146082522135742,0.7906832280262546,0.29287803016706915,0.2759607700324902,,,0.6180765742263259,inf,,,0.9264661186790826
372,,0.0,0.0,0.8593655820616473,0.8342571675314215,0.7496884115403132,0.09009684307398727,0.14235620893479167,,,0.5783247308855777,inf,,,0.7689471966511991
373,,0.0,0.0,1.1962783298995838,1.154621567457397,0.8444457528047731,0.14032837506430645,0.23542762309294615,,,0.5783247308855777,inf,,,0.8027878371217638
374,,0.0,0.0,0.9940950267902169,0.9673100014332155,0.7980512791697462,0.12186918113522274,0.1929484865531495,,,0.585052858160615,inf,,,0.8004417767141958
375,,0.0,0.0,0.18683165482699773,0.14212927163000583,0.5835492796868823,0.1514298464428515,0.1876421069859341,,,0.581717464821069,inf,,,0.8454075768295743
376,,0.0,0.0,0.7424865044912922,0.6637200686817923,0.8178560090627542,0.6095730451061425,0.7284591632593986,,,0.5370774965580548,inf,,,0.8910178689944289
377,,0.0,0.0,1.392372574554828,1.3333590121088086,0.853635298861746,0.4983466020377081,0.6867328826572885,,,0.5604843169999094,inf,,,0.8228084052655141
378,,0.0,0.0,1.611127386914199,1.5575174049193976,0.9075101248154381,0.5069260046318178,0.7855880661081894,,,0.5604843169999094,inf,,,0.803951538293317
379,,0.0,0.0,0.628258379840919,0.5767969232475588,0.7296049442559425,0.39642965538570984,0.5778191498456953,,,0.581717464821069,inf,,,0.9102936315323127
380,,0.0,0.0,1.4381863048849646,1.401088202735475,0.8092329453982035,0.22243698907052048,0.36051926826112024,,,0.5490601803369085,inf,,,0.7783950707662983
381,,0.0,0.0,1.403536232301635,1.4014599353268435,0.9148077599717219,0.3066990491435583,0.5044264966818126,,,0.541134803179459,inf,,,0.8220476869378406
382,,0.0,0.0,0.6045955616219256,0.5634121463690394,0.7447127856100298,0.3747398607286978,0.49553702435111086,,,0.62595550513784,inf,,,0.9084427141592988
383,,0.0,0.0,1.2579899741427607,1.1970410525647395,0.7137118778078473,0.13326485029594445,0.22359995981585573,,,0.6180765742263259,inf,,,0.722044803450736
384,,0.0,0.0,1.476540444490338,1.467677973452953,0.7966222185836516,0.13996831046997724,0.25529700414915885,,,0.62595550513784,inf,,,0.700240814615005
385,,0.0,0.0,0.4576086627220408,0.3410827615905082,0.5694125272687159,0.325202589768621,0.3492049398748947,,,0.6180765742263259,inf,,,0.9292128662531817
386,,0.0,0.0,0.9374057161227749,0.9056934675473498,0.854856972337912,0.8344254400336337,1.104452032369012,,,0.5748741956352443,inf,,,0.8816101886399413
387,,0.0,0.0,0.988324426771039,0.9808068826369342,0.7567466497515049,0.6947034369823546,0.8322169098694716,,,0.6207552362147116,inf,,,0.8729955317433207
388,,0.0,0.0,0.4741655984079159,0.44648525164842173,0.7034800473642029,0.38426506873875355,0.502667897866022,,,0.62595550513784,inf,,,0.8275127149288642
389,,0.0,0.0,1.1545742727986152,1.1200776895123066,0.8898017860363425,0.5755546027945423,0.7198504950079464,,,0.6068309995095971,inf,,,0.8054983950242668
390,,0.0,0.0,1.0006542755921768,0.9799770942970912,0.7755223097147214,0.35840574501900635,0.4985194925907386,,,0.5783247308855777,inf,,,0.8055746540303041
391,,0.0,0.0,1.274469061266329,1.2506149810018201,0.71195350251019,0.183221521512193,0.30844552916435536,,,0.5641709578113449,inf,,,0.7972233729436962
392,,0.0,0.0,1.384105108812568,1.3545372347008504,0.8199186050029889,0.2334424105148168,0.39993620867900803,,,0.5677978065141052,inf,,,0.8134511833914532
393,,0.0,0.0,1.5566365947588825,1.547193167200454,0.91803829925025,0.20342757684932844,0.3369742666521197,,,0.5947193981915972,inf,,,0.7918934931730985
394,,0.0,0.0,0.8016472513216102,0.7908344018576628,0.6920470075001253,0.48695256836717377,0.5968846576336131,,,0.6380535849069913,inf,,,0.8582825641412092
395,,0.0,0.0,1.1963023116967397,1.1643509224150208,0.7963262044941676,0.5271737040482907,0.819258888154771,,,0.5641709578113449,inf,,,0.7978534217297305
396,,0.0,0.0,1.3731266857733675,1.3232089449760622,0.821584519276954,0.42723436163524753,0.7281657759110699,,,0.5641709578113449,inf,,,0.7964153745589418
397,,0.0,0.0,1.4854680562026374,1.4031648311316003,0.7783688858155791,0.3158536354419251,0.4935682683613968,,,0.5915533975974677,inf,,,0.7738079482123094
398,,0.0,0.0,1.107023831206869,1.0496232706698636,0.804246904332954,0.6851670440772153,0.9745735421157604,,,0.5883313578629602,inf,,,0.8441425091668667
399,,0.0,0.0,1.4976007285621271,1.466565228812693,0.8206259946824426,0.5865095637851656,0.8157525071076784,,,0.6038851895711802,inf,,,0.799281617612289
400,,0.0,0.0,0.3170462752537733,0.2294637779833497,0.6094467684240557,0.7152948138803179,0.9192615733262828,,,0.5370774965580548,inf,,,0.9005687646357138
401,,0.0,0.0,1.2146923507831455,1.1638891577718071,0.7556973397163422,0.4547303697990064,0.5833372910652566,,,0.5451288209179292,inf,,,0.8384873708097065
402,,0.0,0.0,0.6046650835655466,0.5633428151614104,0.6513828492981241,0.5913646079736102,0.7960692800935539,,,0.6008849035917525,inf,,,0.8575578071983736
403,,0.0,0.0,0.9655134911080068,0.9299833723623239,0.7321131840613891,0.7986183433743209,1.1144351558455088,,,0.5915533975974677,inf,,,0.8638010288619066
404,,0.0,0.0,1.4145741715312132,1.3610837086271763,0.8305456265817305,0.9197507754286067,1.2774898598790987,,,0.6180765742263259,inf,,,0.7408278315185305
405,,0.0,0.0,1.4283668383922568,1.40761439158248,0.7842527028731738,0.8528290380555964,1.2193510705406876,,,0.6403206450210053,inf,,,0.7773321581168725
406,,0.0,0.0,0.9628429746904733,0.9542212952983767,0.7485117224303347,0.7590497085892647,0.9119066330593734,,,0.6180765742263259,inf,,,0.8773201901299322
407,,0.0,0.0,1.2827094173861533,1.220003574028143,0.8552110270670825,0.37741761958380105,0.5129393797227344,,,0.5329562494928909,inf,,,0.8075901412485716
408,,0.0,0.0,1.165204647213557,1.1047349750932007,0.8482722842937174,0.31474187171995965,0.5011069662479744,,,0.5978297680564633,inf,,,0.7649402396394076
409,,0.0,0.0,0.7422326170930125,0.7256488139940993,0.69587345177296,0.46805949008711134,0.5470229836542013,,,0.6038851895711802,inf,,,0.8909493703465401
410,,0.0,0.0,1.267333028671345,1.2076058890435968,0.8300100026401935,0.6307871198447164,0.8074805916010596,,,0.585052858160615,inf,,,0.8383673981805625
411,,0.0,0.0,1.342518097546901,1.3259493909230755,0.8578243156262166,0.7312368517945291,0.9709858536025661,,,0.5567373465730988,inf,,,0.870483760759648
412,,0.0,0.0,1.4910566282935607,1.4823299508555736,0.8307497255640407,0.6165353573454295,0.9039747791669386,,,0.585052858160615,inf,,,0.8224259461788178
413,,0.0,0.0,1.445723599217042,1.417731108076623,0.8472051006123171,0.5145525477662812,0.7441712656795463,,,0.6233814453054027,inf,,,0.7674434331412966
414,,0.0,0.0,1.460795918144354,1.4653855764620947,0.8294136770826726,0.6559345221119545,1.084268389159545,,,0.6357360191111145,inf,,,0.7894528511825826
415,,0.0,0.0,0.8688942005441896,0.8242465219453535,0.5701991650824283,0.5642983561932434,0.803290480284699,,,0.5978297680564633,inf,,,0.8875243980185635
416,,0.0,0.0,0.8315356302667894,0.7815694276877221,0.8243473502890598,0.44276964946417025,0.5587082007221376,,,0.5783247308855777,inf,,,0.9119056081499963
417,,0.0,0.0,0.9835258798867534,0.9203196777750545,0.8063312846096383,0.5519637745992939,0.688462460334613,,,0.541134803179459,inf,,,0.90931647979583
418,,0.0,0.0,1.2318146808154002,1.2172194221926476,0.6757145022099161,0.34800107154161714,0.5076746384762791,,,0.6008849035917525,inf,,,0.8136052290945398
419,,0.0,0.0,0.848749558330759,0.8197983275226935,0.8197630619717895,0.3482095713793704,0.4983208534244857,,,0.5748741956352443,inf,,,0.8462557607053629
420,,0.0,0.0,1.4338656370076157,1.4177743754360173,0.8771950676373236,0.36216814860764296,0.5299149104347181,,,0.552929491858785,inf,,,0.8343598920660977
421,,0.0,0.0,1.3160646950357502,1.282450376887016,0.8267011415170553,0.4140975276680811,0.571581518045177,,,0.6125606311107803,inf,,,0.7890884524882202
422,,0.0,0.0,1.1536252323374303,1.1340701668178859,0.8986325428441589,0.7090265745147551,0.8710866623911587,,,0.6357360191111145,inf,,,0.8540276744906302
423,,0.0,0.0,0.5896612351934939,0.5389405008256151,0.8174689651553227,1.097204306892906,1.05884641059441,,,0.6284777104787076,inf,,,0.95171011825168
424,,0.0,0.0,0.9390002684736717,0.907982600537771,0.8321056796707011,1.2966906065482657,1.120735657235821,,,0.6668815377411301,inf,,,0.9331761802056061
425,,0.0,0.0,1.3076228059849309,1.3002737839867986,0.7965461551266823,1.4920610522801026,1.2929518951189587,,,0.6584896970785714,inf,,,0.9118450888167572
426,,0.0,0.0,1.064208786902132,1.032356432901274,0.8630790674876719,1.5308998625984278,1.3475135292378395,,,0.6566669596287297,inf,,,0.8648284498047777
427,,0.0,0.0,1.3708651856274199,1.339487294920992,0.8615680878293622,1.629210750766429,1.6977274316186413,,,0.6547956803312163,inf,,,0.9325997129729275
428,,0.0,0.0,1.0973145399721587,1.0913945915220888,0.8812357490564088,1.5253654096890519,1.4586005660611072,,,0.6180765742263259,inf,,,0.9324044878816939
429,,0.0,0.0,1.1078174404581338,1.0596222794441084,0.8967392851841767,1.2739657982628347,0.9541332012403003,,,0.6509067234006624,inf,,,0.9256087089825982
430,,0.0,0.0,0.9762242357112366,0.9714042512759394,0.8165265138728308,1.581528849982404,1.7995056756112873,,,0.6447042257417027,inf,,,0.9485913124472378
431,,0.0,0.0,1.256244226582935,1.2020809495260583,0.8855863597269197,1.297199631422392,1.145704157100773,,,0.6468212168108125,inf,,,0.9488167859344011
432,,0.0,0.0,1.182387230302171,1.1753359467987465,0.8458619506064141,1.2855632999123627,1.136507811004206,,,0.6652988471865258,inf,,,0.9525585222972751
433,,0.0,0.0,1.1070444789722393,1.0802682503392191,0.8575364117845532,1.0876370217361973,0.8670303915872248,,,0.6284777104787076,inf,,,0.8411817990431251
434,,0.0,0.0,1.2763838243698336,1.2866290619052065,0.9418135182567848,1.3565026651968435,1.2948548832720936,,,0.6528756675646988,inf,,,0.9408054707586467
435,,0.0,0.0,0.18967299066309576,0.17929800326043085,0.5705169998511347,1.3798122437923774,1.059658644256468,,,0.6602640781246099,inf,,,0.9693050823257838
436,,0.0,0.0,1.2499886965752476,1.2514531990944802,0.8393092047343341,1.5709807958001276,1.5494253015262438,,,0.6668815377411301,inf,,,0.9033486178157439
437,,0.0,0.0,1.1100195733511036,1.079422247404246,0.8440158402866709,1.4130746140942192,1.464975052226249,,,0.6468212168108125,inf,,,0.8917694434534721
438,,0.0,0.0,0.617800832475537,0.529870200211587,0.8069923654054623,0.6757084188656953,0.7694936232432404,,,0.6008849035917525,inf,,,0.9420079728965078
439,,0.0,0.0,0.9918396533840689,0.9638585339550616,0.8900521282714877,1.4295596358032945,1.4190273615038715,,,0.6509067234006624,inf,,,0.953594990022008
440,,0.0,0.0,0.8795476250179303,0.8299407631145883,0.7791254735146698,0.8675518639724876,0.8880218911852366,,,0.6684167106117298,inf,,,0.9542926593781929
441,,0.0,0.0,1.1974602484137138,1.1737553400097247,0.8711061843013491,1.3602382389050545,1.0873737200872526,,,0.6699045166045591,inf,,,0.9534937355510773
442,,0.0,0.0,1.032446761950918,0.9221390831749618,0.8554150517057926,1.1076696824896965,0.9136976368409973,,,0.6566669596287297,inf,,,0.9536996611230262
443,,0.0,0.0,0.5911653130612783,0.5284025866949837,0.8194953658268457,0.9579243800166186,0.815950007749,,,0.6547956803312163,inf,,,0.9367230853418926
444,,0.0,0.0,1.3370212468813036,1.3015606502921198,0.8931108714721988,0.6738515894663015,0.6321908492796657,,,0.6652988471865258,inf,,,0.9021022229934019
445,,0.0,0.0,1.0408766651082386,1.0206657447624436,0.9218240916803866,0.6882121706900083,0.635296261719074,,,0.6778444222523095,inf,,,0.929246076163239
446,,0.0,0.0,1.1304692960997818,1.1046909599788917,0.9041490385608195,0.6635165605447603,0.692996461320528,,,0.6727386042041725,inf,,,0.9323486550187549
447,,0.0,0.0,1.2558548856771372,1.2373851781569207,0.790678001894712,0.6982192664840492,0.7471209764514851,,,0.6425374456860184,inf,,,0.946613701919639
448,,0.0,0.0,0.3474611413333561,0.31874989411575744,0.5255706327738204,0.7850325808115654,0.5348396458681107,,,0.663668482632973,inf,,,0.9576264538789566
449,1.5141277326297755,-0.005047092442099252,0.0,0.8924079798557862,0.8615448191874225,0.6581383341710443,2.8944371224485073,2.3729003315450163,,,0.6425374456860184,7.217910207285977,inf,,0.7979124957594204
450,,0.0,0.0,1.4190293877475235,1.3869821729456853,0.8568794445493287,2.1501824593455674,1.7712698179426787,,,0.6447042257417027,inf,,,0.8446346463166453
451,,0.0,0.0,0.6851162926126136,0.6693657261432298,0.7419247510495078,2.1221613046244263,2.166218324175954,,,0.6684167106117298,inf,,,0.9504556796293547
452,,0.0,0.0,1.3606734887115357,1.340218086644553,0.8878749408666253,1.9947048519494546,2.0793508839324875,,,0.6584896970785714,inf,,,0.9515174209358126
453,,0.0,0.0,1.2838325396202674,1.2588924786859472,0.9102517110458497,1.9056415539858684,2.123624899511152,,,0.680118107274185,inf,,,0.9264998820073659
454,,0.0,0.0,1.3396249703132028,1.3189701618726466,0.9589038265899315,1.7522652036234472,1.915406334114518,,,0.6528756675646988,inf,,,0.9208951599791888
455,,0.0,0.0,1.1932813767717911,1.1613478546061426,0.8454196651822443,2.063347056636857,2.3451431306033714,,,0.648888643467878,inf,,,0.953204793169595
456,1.6039129943408077,-0.010692753295605385,0.0,0.9801505018940156,0.8766017532661312,0.7538026473728032,1.9815243134823586,1.1803094756601582,,,0.6180765742263259,6.603543904579146,inf,,0.8962667418669422
457,1.7964948426399387,-0.050665754751684985,-0.009217406669646308,0.9799169017030533,0.911341785661399,0.6704918271175738,2.2007654299950885,1.5548979524699473,3.7594933258845535,,0.6425374456860184,5.002336491281561,3.460789478864401,inf,0.8682150606195325
458,,0.0,0.0,1.211009597775624,1.1267295000974795,0.8385585505622976,1.9695212585830528,1.2743460139962022,,,0.6528756675646988,inf,,,0.9082499653250423
459,,0.0,0.0,1.2024526525662955,1.1756511189968233,0.7839114482810717,2.7130635773457303,1.9780394054979409,,,0.6684167106117298,inf,,,0.7535712266023828
460,2.053728212799345,-0.03570105700110175,-0.019065028673547448,0.8421042028507459,0.7844482482199177,0.6341868893959306,1.78146506739729,1.17803119324998,,,0.6284777104787076,5.3744787275136,6.0330862217988015,inf,0.5304639913534818
461,0.41047764993170865,-0.0013682588331056956,0.0,0.5627488497505092,0.5284381971998265,0.5413846348243766,1.7104969508479115,1.3832098594496176,,,0.6207552362147116,6.11426012458791,inf,,0.7950924353183756
462,,0.0,0.0,0.8291601166101065,0.7596084248541756,0.7258134785143675,1.2586696260756853,0.6902835001188186,,,0.6333676938231112,inf,,,0.9536680608899112
463,,0.0,0.0,1.184655659449285,1.1362966718336505,0.8352255734393791,1.8516161622146776,0.7974122121202587,,,0.6403206450210053,inf,,,0.8059232454455227
464,1.913084685210615,-0.0637694895070205,0.0,1.2867983910741367,1.2609753221102222,0.8524726765359412,3.7479674873643765,3.963941560350641,,,0.6468212168108125,5.190958848227537,inf,,0.7855013698899342
465,1.9391704133281813,-0.019391704133281812,0.0,1.2365397675218455,1.176474973452916,0.830157142288942,3.3310444899733205,2.8944613991620294,,,0.6699045166045591,6.532367626111251,inf,,0.6629935112229878
466,,0.0,0.0,1.3644986958421887,1.3502629084903912,0.7968154086032181,3.0649625838297965,3.1044402107047797,,,0.6547956803312163,inf,,,0.9445568735366445
467,1.040343380544134,-0.0034678112684804465,0.0,0.8777349544911337,0.8095134479106096,0.7232818743181474,2.2602454773508516,1.3745766057648403,,,0.663668482632973,6.744125855200335,inf,,0.8285488930748696
468,,0.0,0.0,0.9745417479030297,0.8976876381725039,0.7988059583161085,1.323741729757962,1.1949840746818683,,,0.6380535849069913,inf,,,0.9526115550972698
469,,0.0,0.0,0.9084748611071427,0.8516504596772156,0.885273429560057,1.2759683700806124,1.3860522677836653,,,0.6425374456860184,inf,,,0.9612515412232303
470,,0.0,0.0,1.2163671606891513,1.1808935167082641,0.9372077551959108,1.1194621106622713,1.1381479661790934,,,0.6333676938231112,inf,,,0.8639036264056096
471,,0.0,0.0,1.0200935619695566,1.0097552873354223,0.7250019727130971,1.2334895477201933,1.367526785354066,,,0.62595550513784,inf,,,0.9115158741960646
472,,0.0,0.0,0.992312010107654,0.9641530781864716,0.7455798746640536,0.9843984755135401,1.1460424746544549,,,0.5915533975974677,inf,,,0.9429377152116684
473,,0.0,0.0,0.8589300810577503,0.8256871407339272,0.7275464426466959,1.4137845943281264,1.4724288628350204,,,0.6547956803312163,inf,,,0.9400157336981839
474,,0.0,0.0,1.0447066292897231,0.9679649911047914,0.9178292222400788,1.6913905642966207,1.5673489260921616,,,0.6547956803312163,inf,,,0.940921230789284
475,,0.0,0.0,1.2016535848990662,1.1670088107498486,0.90517568636552,2.028311893295979,1.8755898704779645,,,0.6528756675646988,inf,,,0.9430680961562644
476,1.8119621765455745,-0.006039873921818582,0.0,0.5513928270604276,0.49975306880359893,0.6209877770819718,2.0821385163662773,1.7375756732618517,,,0.6602640781246099,7.515744651201776,inf,,0.6375490722996721
477,,0.0,0.0,1.2038930513800412,1.2042903878161437,0.7926193079687667,2.3940014286131204,2.5912188965638707,,,0.6309483474627791,inf,,,0.8975114334767174
478,,0.0,0.0,1.4170195536333854,1.410884693800865,0.8744838068196953,2.2823295376987076,2.654039987255391,,,0.663668482632973,inf,,,0.8957939164920722
479,,0.0,0.0,0.6491950663205809,0.6182357481219425,0.6743236954017873,1.3395097117450212,1.4858890340567457,,,0.6468212168108125,inf,,,0.9482048002294219
480,,0.0,0.0,0.6035123565544881,0.5851273394921923,0.5983128458461757,0.7541866078710799,0.894060798616928,,,0.6403206450210053,inf,,,0.9423481827947587
481,,0.0,0.0,0.9353744355778437,0.919791165806271,0.8333473822571025,1.2063944181203228,1.0448664285035612,,,0.6097226960127671,inf,,,0.9512573825552243
482,,0.0,0.0,1.0003860853108006,0.9026987276663839,0.8459605288547253,1.3041999061521268,0.9557916466585101,,,0.6468212168108125,inf,,,0.9179561769094615
483,,0.0,0.0,1.1189838593196593,1.067969006899783,0.879433189671624,1.9973980578510968,1.5551784668950215,,,0.6566669596287297,inf,,,0.9574486552664634
484,,0.0,0.0,0.7593411703893368,0.724265169294892,0.7561018374134971,1.2867969902982224,1.8127452106113509,,,0.5641709578113449,inf,,,0.9515342805288124
485,,0.0,0.0,0.9922271422111261,0.9874105537541479,0.7177243718518164,1.4130345383899492,2.3498389894163285,,,0.6207552362147116,inf,,,0.9259907077217602
486,,0.0,0.0,0.9656726319381397,0.9360401952641628,0.8533432710773194,1.1114547810130626,1.6299257959797113,,,0.6068309995095971,inf,,,0.939024174349627
487,,0.0,0.0,0.8602855022548263,0.8377896135739572,0.7531655440893774,0.8651776388932759,1.2036812784010489,,,0.581717464821069,inf,,,0.935879435466453
488,,0.0,0.0,0.8189481678990256,0.7872558929921034,0.8304333353877712,1.7443759664064438,1.695655295349699,,,0.6403206450210053,inf,,,0.9512364682580811
489,,0.0,0.0,1.1053757196662435,1.08509172328578,0.8054648635336361,1.3977901945854962,0.8782729834732779,,,0.676637947632344,inf,,,0.9416502735363791
490,,0.0,0.0,1.3194036121993333,1.33849578690923,0.8693305572129112,1.840221575988401,1.6015140458692958,,,0.6509067234006624,inf,,,0.886676214679391
491,,0.0,0.0,1.014252626678241,0.9854106701527953,0.7640876425788403,0.8032226138690413,0.7952966271077586,,,0.6547956803312163,inf,,,0.9291588759289924
492,,0.0,0.0,1.1524182397834217,1.1246590243162038,0.8689781453649703,1.3634716165825833,1.4627789754414773,,,0.6619902821573977,inf,,,0.9502302883763792
493,,0.0,0.0,0.8577280295848652,0.8341271557252002,0.8180233087103154,1.2174844653228394,1.0737937822780255,,,0.648888643467878,inf,,,0.9507445820397644
494,,0.0,0.0,1.0707077172604327,1.0389401172637993,0.8459676193849084,1.710612121855893,1.3734357808258688,,,0.663668482632973,inf,,,0.9596834604642501
495,,0.0,0.0,0.8897276830855083,0.8182822687989505,0.6894285275261701,0.8823059861097717,0.9946300442255182,,,0.6068309995095971,inf,,,0.9613184983504319
496,,0.0,0.0,1.1182273813399533,1.0954239835371675,0.8119607683034447,1.288777001216946,1.3587037497492014,,,0.6528756675646988,inf,,,0.934138394638483
497,,0.0,0.0,0.9019766779449326,0.895533229966704,0.7084947141783979,1.0524305438472354,1.1242547479973823,,,0.6566669596287297,inf,,,0.9139795267082242
498,,0.0,0.0,0.9189987176884543,0.9369688465485346,0.8067476218203492,1.0652424880046223,1.2637725185374922,,,0.6309483474627791,inf,,,0.938000979949133
499,,0.0,0.0,0.9600894098219932,0.9314190063922291,0.7143812128312701,1.2756995991300404,1.2158880437762483,,,0.6380535849069913,inf,,,0.8724708233817122
500,,0.0,0.0,1.0594517071363747,1.0082011532604431,0.860087147102835,1.3822640472975602,1.2698368907940432,,,0.6547956803312163,inf,,,0.8806990471433644
501,,0.0,0.0,0.8443051815675368,0.7695981868119618,0.8010807974229596,0.91110785565855,0.5952176261515092,,,0.6584896970785714,inf,,,0.9182048415579802
502,,0.0,0.0,1.1840544961266233,1.151152125097442,0.8995073730919886,1.3932381226608872,1.0414755391993697,,,0.6652988471865258,inf,,,0.923851217226371
503,,0.0,0.0,1.2659326103877562,1.2317484600817161,0.9281560789148182,1.407570520482443,1.0185297162685627,,,0.6447042257417027,inf,,,0.9487496745576485
504,,0.0,0.0,1.2859430360529238,1.2020672246573734,0.8674964409374152,1.6994321558784335,1.2855900786758003,,,0.6468212168108125,inf,,,0.9453275623239159
505,,0.0,0.0,0.99729623591138,0.9486370313143375,0.8014054873195594,0.812021960760564,0.7250092284359972,,,0.6403206450210053,inf,,,0.9189823851692402
506,1.9532414125262654,-0.01302160941684177,0.0,0.5706704207312443,0.5024882336070706,0.5959196097507393,1.148032607486117,0.43992278439489296,,,0.6584896970785714,6.155291521265772,inf,,0.618970645900572
507,2.881493295090676,-0.038419910601209015,0.0,0.9100426593043894,0.8570176322678884,0.7463052034285629,2.4090545686250784,1.8699034059849122,,,0.6309483474627791,7.03811709684538,inf,,0.5803072786439457
508,,0.0,0.0,1.4704722515239568,1.4643076354593076,0.9359018842022748,2.6323831328498426,1.8888475389541068,,,0.6357360191111145,inf,,,0.919905698183227
509,,0.0,0.0,1.3244110119289394,1.2942172013788744,0.93391776675755,2.3574934362774274,1.5992807509155718,,,0.6740851607140061,inf,,,0.942147499657539
510,,0.0,0.0,1.1676080460846205,1.1423374797486983,0.8709577736825256,2.262031185406014,1.6849111308898945,,,0.6468212168108125,inf,,,0.7007792623161402
511,,0.0,0.0,1.1552426725827925,1.1119307794357247,0.8466649437581816,2.1494807254935275,2.1017946672179018,,,0.6528756675646988,inf,,,0.9395390451503174
512,,0.0,0.0,1.0719444754201946,0.9963531239322874,0.7994219647152845,1.875804554850513,1.786204220180798,,,0.62595550513784,inf,,,0.8853286745984931
513,,0.0,0.0,0.5216473641247608,0.48213319756505146,0.6002445303128799,1.6127977536723292,1.430879536193633,,,0.648888643467878,inf,,,0.688104207721816
514,,0.0,0.0,1.276141158521292,1.243511652598938,0.8438081210810104,1.594096633284526,1.290111741861457,,,0.6684167106117298,inf,,,0.9498233418357926
515,,0.0,0.0,1.1699226478873332,1.1433508444327463,0.859532177374743,1.0040411685412087,1.203155079745574,,,0.6380535849069913,inf,,,0.9386559851440794
516,,0.0,0.0,0.37184687076460343,0.32978214697388475,0.8196189175164976,1.5765670429316685,1.029331400390084,,,0.6357360191111145,inf,,,0.7780809088789634
517,,0.0,0.0,0.8730924134781669,0.8291574408297743,0.8292725926215905,1.18712960530159,0.9483968376129879,,,0.648888643467878,inf,,,0.9523047878528237
518,,0.0,0.0,1.3422951947691668,1.3124965428159387,0.8397778221416363,1.3393373859291686,1.3337984859460563,,,0.6357360191111145,inf,,,0.9518107015718892
519,,0.0,0.0,1.2751842328855334,1.2330781974665102,0.9273955648052816,1.2521510454148896,1.147388082228251,,,0.6740851607140061,inf,,,0.9137579342418156
520,,0.0,0.0,1.3340169515877678,1.3180063818718977,0.8756175522473606,1.78781751141002,1.9832875638676377,,,0.6333676938231112,inf,,,0.948426279647387
521,1.3217558399823195,-0.004405852799941065,0.0,0.7546754918736944,0.7179297454855478,0.42426444741805824,1.1749837004147474,0.9684197310770493,,,0.6447042257417027,7.025538314638521,inf,,0.702938027748463
522,2.3025850929940455,-0.007675283643313485,0.0,0.3194774867977862,0.17673946877120308,0.6079115471865258,1.6193916773064676,1.6814663308995557,,,0.6509067234006624,8.006367567650246,inf,,0.935072956311233
523,,0.0,0.0,0.9513235886114189,0.925799552082136,0.8504423285702574,0.9597363279918163,0.8530701223677367,,,0.6357360191111145,inf,,,0.9039522501023345
524,,0.0,0.0,0.8550106629354937,0.840994125153391,0.7508647559758542,0.6864199816187717,0.6372532058924775,,,0.6357360191111145,inf,,,0.9367319804588166
525,,0.0,0.0,0.8726179962372823,0.8372262215433469,0.6973166236648783,1.3080278501696558,1.2222568500325501,,,0.6097226960127671,inf,,,0.9524657670853255
526,,0.0,0.0,0.6806827014728652,0.6245999667577852,0.8037982142205188,1.5993323596449953,1.474160660186781,,,0.62595550513784,inf,,,0.9639637822957621
527,,0.0,0.0,1.0866840902837303,0.9686367688129143,0.8278106626350558,0.5834168256723208,0.6076231867200872,,,0.6602640781246099,inf,,,0.9257694231205705
528,,0.0,0.0,1.1877497546083884,1.1501359168833805,0.864774235440758,0.8170183704002676,0.7410352781224946,,,0.6468212168108125,inf,,,0.924243164030425
529,,0.0,0.0,1.0408248406233973,1.0220328652062443,0.6961392444253973,1.6194279181248303,0.9008324889417048,,,0.648888643467878,inf,,,0.9449208604563455
530,,0.0,0.0,1.273163173961539,1.1689905962476344,0.7974407959430888,3.1168764725858473,1.998926928364571,,,0.6713451011121618,inf,,,0.959697555989597
531,,0.0,0.0,0.9002160859783862,0.8216871339976546,0.8337066010245096,1.2829269032332165,0.9254517833382587,,,0.6528756675646988,inf,,,0.937111464790989
532,,0.0,0.0,0.6440175904682537,0.6102643681920893,0.8620268565310139,1.2064276363997248,0.9576954198610306,,,0.6528756675646988,inf,,,0.9361252073663301
533,,0.0,0.0,0.7605952209434754,0.6867276276806663,0.7890011619439288,1.4506888052234808,1.1582530120217451,,,0.6309483474627791,inf,,,0.9451305620010186
534,,0.0,0.0,1.1969310696422448,1.136562736399031,0.8542809528721635,1.9508723235538208,1.5822597126463207,,,0.6727386042041725,inf,,,0.9455056097910798
535,,0.0,0.0,1.1910859450197364,1.1618774860811947,0.8409706680410526,2.0424163558076796,1.5029572848866484,,,0.6509067234006624,inf,,,0.95265406764851
536,,0.0,0.0,0.7667430827251274,0.7282615080665594,0.8341111105001584,1.2312047848621637,0.9377966854862845,,,0.6425374456860184,inf,,,0.9475417607192583
537,,0.0,0.0,0.9411499886821495,0.9356792507816667,0.7768548090250389,1.5849271760092831,1.329162316319407,,,0.6425374456860184,inf,,,0.9143187464386453
538,,0.0,0.0,1.0729461328455216,1.0167076627428475,0.8609688707946971,2.0945351845949833,1.6392287877343237,,,0.6528756675646988,inf,,,0.935099982202375
539,,0.0,0.0,1.194534649925606,1.134349243480942,0.8346159254797816,2.5400941459830753,2.920182939123452,,,0.6403206450210053,inf,,,0.9166580106813565
540,,0.0,0.0,1.135335756453462,1.1212216311304855,0.718813515633163,2.177406474124731,2.34655278917104,,,0.648888643467878,inf,,,0.9478132599739694
541,,0.0,0.0,1.066485230087396,1.048528903619498,0.8906449155658404,2.074200805325331,2.032389110752395,,,0.6447042257417027,inf,,,0.8958606121718067
542,,0.0,0.0,1.111867708869418,1.078913366590675,0.8214972299591186,1.9231890575694242,1.777396248743605,,,0.648888643467878,inf,,,0.9532160488028971
543,,0.0,0.0,0.8491383743205341,0.8371812777211428,0.7739044100112206,1.0967359348908634,1.5426373729801295,,,0.5748741956352443,inf,,,0.9447128824234329
544,,0.0,0.0,0.9435638565416156,0.8946494903790829,0.6679990868302506,1.4132627279799017,1.4584591204516877,,,0.6380535849069913,inf,,,0.9535860150630296
545,,0.0,0.0,1.3013413711683206,1.2776813914531955,0.8543952969617078,2.428421832183664,2.2018123449476086,,,0.6380535849069913,inf,,,0.9501592613727615
546,,0.0,0.0,0.706433221296126,0.6894807151377383,0.8154777964013931,2.615863845133076,3.366481022948036,,,0.62595550513784,inf,,,0.9417991239236766
547,,0.0,0.0,0.9603508493436509,0.921241194853319,0.8346892288765548,2.451299875439449,2.6310708332434505,,,0.6447042257417027,inf,,,0.9550697200219675
548,,0.0,0.0,1.1451984687111187,1.112466948386157,0.7814992078078685,2.04285327211658,2.3846562911041684,,,0.6284777104787076,inf,,,0.9243681099106884
549,,0.0,0.0,0.7584748936616902,0.6669158331832851,0.7253791537905907,1.175738873987569,1.1172892220759856,,,0.6468212168108125,inf,,,0.9160508397569813
550,,0.0,0.0,0.7790865017796391,0.7726804024612419,0.6437055123676709,1.0609612017791543,1.0325811989426976,,,0.6125606311107803,inf,,,0.9519207282140553
551,2.3497729477679745,-0.02349772947767975,0.0,0.8094301170114125,0.7156637172160154,0.5822009420605225,1.5714255003980164,1.3653793811183597,,,0.6566669596287297,6.772835961082766,inf,,0.5680967345267788
552,,0.0,0.0,0.6779052986722699,0.6491480315478069,0.6953518008693881,2.1637148653144203,2.552071910774963,,,0.6125606311107803,inf,,,0.7301335431891066
553,,0.0,0.0,1.0481469337156593,0.9006129468721139,0.7051932756468967,1.5212646438862036,1.5002840352895668,,,0.585052858160615,inf,,,0.8412490440892356
554,,0.0,0.0,0.6978836512705133,0.6465382910754732,0.8324216381589741,1.6611927644722295,1.8795634797982494,,,0.6125606311107803,inf,,,0.9312056188051898
555,,0.0,0.0,1.1183353434768029,1.0884472058657129,0.7211720848663498,2.2483694998132604,1.6885076661481264,,,0.6547956803312163,inf,,,0.7907389130845796
556,3.506557897319982,-0.011688526324399939,0.0,0.6274755110826269,0.5409987137700484,0.717656164269554,2.334829024096482,2.3327509190368283,,,0.648888643467878,9.210340371976182,inf,,0.6588621315024334
557,,0.0,0.0,0.9204055144011829,0.8750051726938641,0.8256720003291469,1.3979064320264283,1.3573108738267803,,,0.6380535849069913,inf,,,0.8601825170122032
558,,0.0,0.0,1.3434133842364706,1.293242530673766,0.8540248027917828,3.1468264889994026,3.663253648092426,,,0.6447042257417027,inf,,,0.9530390904023368
559,,0.0,0.0,0.8752137530716445,0.8443417564460463,0.885931630016722,1.310923935397003,1.2828740016126217,,,0.62595550513784,inf,,,0.9063486664714901
560,,0.0,0.0,0.8519423319815416,0.8123047503881902,0.9362241351989413,1.0204913983548358,1.035450789319582,,,0.6566669596287297,inf,,,0.8463231761477912
561,,0.0,0.0,1.1499755956821407,1.0876690999618108,0.882828414478864,2.260970874097593,1.510328825874919,,,0.6447042257417027,inf,,,0.9482004034993329
562,,0.0,0.0,0.32743650467680574,0.2588025603160901,0.5913381890188247,0.2068423514837904,0.2607232125245702,,,0.552929491858785,inf,,,0.946239503362104
563,,0.0,0.0,0.4166587748622503,0.29361559320125685,0.6551176120605352,0.287553177190717,0.30554893473721256,,,0.552929491858785,inf,,,0.9491088664003909
564,,0.0,0.0,0.722381506608286,0.6732337113081652,0.7464552299486664,0.18479734797057346,0.3060462897028906,,,0.5022576003740722,inf,,,0.8513463125730198
565,,0.0,0.0,1.6205926904322212,1.580243810714451,0.9119233346588647,0.14462065891069176,0.28780050964089104,,,0.5451288209179292,inf,,,0.7631358138541121
566,,0.0,0.0,1.3853349883119592,1.3543667622247662,0.8695810845589266,0.24678774270070375,0.45129055509132254,,,0.552929491858785,inf,,,0.8370118037988071
567,,0.0,0.0,1.7312191424205834,1.6751244833438494,0.9152070317050128,0.30613306854129574,0.5818723764583452,,,0.552929491858785,inf,,,0.8087613339993374
568,,0.0,0.0,1.7036948840783697,1.6850608768344353,0.9280669737908324,0.3043980431861946,0.5808099003139968,,,0.5202020156036558,inf,,,0.7836543367151824
569,,0.0,0.0,1.5701324074691978,1.5564596210439812,0.9226798853160099,0.3303402583796897,0.6386774461422058,,,0.44694259446804574,inf,,,0.7985768441553154
570,,0.0,0.0,1.6662780618330362,1.6442132728635723,0.9009044782089289,0.2920908840543099,0.5251962159079364,,,0.5068466436745385,inf,,,0.7877710206845973
571,,0.0,0.0,1.63571532247847,1.5999825834305488,0.8721714018596468,0.22925067287591996,0.3768479371033055,,,0.5641709578113449,inf,,,0.7771880491848524
572,,0.0,0.0,0.6274456554334958,0.6136480296779357,0.6618685866331016,0.2957488758880097,0.38600243484639807,,,0.6153451465759925,inf,,,0.9127422455801962
573,,0.0,0.0,0.7461055711034312,0.7248320198211535,0.7348078533678358,0.076114422461156,0.10481540077135999,,,0.5677978065141052,inf,,,0.9423991012880149
574,,0.0,0.0,1.4435109440219407,1.4083552939813244,0.8158143238131706,0.033790470366524036,0.06483286161975557,,,0.5604843169999094,inf,,,0.7874484926706159
575,,0.0,0.0,1.4671144789780226,1.4274785616083294,0.8558341734656937,0.036557766074339366,0.06926481114191524,,,0.62595550513784,inf,,,0.8048166268030278
576,,0.0,0.0,0.7415985010292807,0.7006340092080638,0.6583246208027637,0.3946277707860077,0.35186764367281503,,,0.6038851895711802,inf,,,0.9449106612833824
577,,0.0,0.0,0.5099936485496531,0.42572339702683887,0.5767172722390835,0.1270873438743839,0.17420329838324872,,,0.541134803179459,inf,,,0.8949808172034368
578,,0.0,0.0,1.6221025711959374,1.5852000640068564,0.703804535337682,0.1675074766019389,0.28997171093996443,,,0.6153451465759925,inf,,,0.7300081700083404
579,,0.0,0.0,1.3776077917556773,1.2593742952287328,0.7784232623896943,0.3142505845795714,0.45015455119820974,,,0.5915533975974677,inf,,,0.7661132261949812
580,,0.0,0.0,0.9900966953971551,0.9399860686605309,0.8376244113117205,0.7435585354342227,0.5519805505899597,,,0.6153451465759925,inf,,,0.8681394992745364
581,,0.0,0.0,0.913956889845885,0.8763206127890316,0.7915006446558225,0.2229308885635445,0.32560107440270486,,,0.5978297680564633,inf,,,0.7956348770546358
582,,0.0,0.0,0.9532696928917628,0.9369356443201513,0.7749886821208144,0.597783375737342,0.6246559187451587,,,0.6068309995095971,inf,,,0.8733105972940055
583,,0.0,0.0,1.2837678768887204,1.2717182832888523,0.7797885397408427,0.19261253784149565,0.34149137457121204,,,0.5202020156036558,inf,,,0.7169919280670249
584,,0.0,0.0,1.1228416956983804,1.0286186889252282,0.8234222071634182,0.17358722801847906,0.24770487225556115,,,0.5490601803369085,inf,,,0.777432931583751
585,,0.0,0.0,1.5813100887250098,1.5652166549604447,0.879278380715435,0.06055284039174424,0.12648133141936627,,,0.5158180382284114,inf,,,0.7731064379653761
586,,0.0,0.0,1.6267081286897007,1.6185999997987186,0.8935512373633672,0.08488424440833658,0.16295085005461224,,,0.4928685327679205,inf,,,0.7401691998255082
587,,0.0,0.0,1.6905801381468064,1.6607025596393037,0.9059636986956023,0.08099996051493534,0.17990521964071926,,,0.5490601803369085,inf,,,0.773795376658066
588,,0.0,0.0,1.6171996319455566,1.5902802638942206,0.8450044804877302,0.11995418487252475,0.2486465089972219,,,0.5287703885177266,inf,,,0.8067341610754719
589,,0.0,0.0,1.6450693428452194,1.6354591459376133,0.8744132546060848,0.09725382671350782,0.20385543294024566,,,0.5287703885177266,inf,,,0.7519107314120151
590,,0.0,0.0,1.7005296088551618,1.679400578098136,0.8847242973162023,0.13625269836369402,0.29269048304533035,,,0.5113665138247345,inf,,,0.7929683990316624
591,,0.0,0.0,1.702631483687635,1.67951132208582,0.8880615776733333,0.12866535583650274,0.2620368172119628,,,0.49759852643134905,inf,,,0.8104334140744248
592,,0.0,0.0,0.6245324229231165,0.5741063845910047,0.848198410636817,0.5046125398491946,0.478347760593132,,,0.6068309995095971,inf,,,0.9323822891762683
593,,0.0,0.0,0.5220770133514161,0.46418989557450624,0.7943109486232803,0.18043321784875813,0.21834496693897326,,,0.581717464821069,inf,,,0.8830926047176739
594,,0.0,0.0,0.6607850765729064,0.6014349881989584,0.48987824475582536,0.5775244906269694,0.2964729116384648,,,0.6403206450210053,inf,,,0.8266666717021268
595,,0.0,0.0,0.7202037163159882,0.6775923629785879,0.6298790622150034,1.902752480616846,1.4717925162798362,,,0.6233814453054027,inf,,,0.8849226074453833
596,,0.0,0.0,1.4755399529312874,1.4733661497033173,0.6779610443177292,0.059887162562674796,0.1153349887539813,,,0.6357360191111145,inf,,,0.7962154581986987
597,,0.0,0.0,1.4915960961576213,1.4699468978995651,0.9371925719624661,0.03625909190291084,0.07529567058357056,,,0.5604843169999094,inf,,,0.7818055100906423
598,,0.0,0.0,1.4624483438191171,1.4217502648841107,0.8778534086614364,0.043509741961697636,0.08979198991452123,,,0.5883313578629602,inf,,,0.8007699728600222
599,,0.0,0.0,1.5589560331303478,1.5455486779225187,0.9080898174203299,0.04417413415123138,0.09111506725752183,,,0.6207552362147116,inf,,,0.8169081502377292
600,,0.0,0.0,1.5868314693893733,1.556683211747793,0.9151692361770661,0.043510507667267814,0.08697390903338363,,,0.5748741956352443,inf,,,0.8107115578305171
601,,0.0,0.0,1.4980942633739267,1.4227725032917589,0.9422602980189938,0.04390993709826099,0.08915868304187395,,,0.6233814453054027,inf,,,0.8132964185481281
602,,0.0,0.0,1.630594689203543,1.5693608750222032,0.9215189671369542,0.06099877890794809,0.12316003962013833,,,0.5451288209179292,inf,,,0.8151366352461618
603,,0.0,0.0,1.6250956098504008,1.592064103567433,0.8811473031467139,0.08125124116373901,0.1648897867347327,,,0.5783247308855777,inf,,,0.8148615572398348
604,,0.0,0.0,1.4261295852548255,1.3793043910164469,0.8679790372941634,0.057398844396432426,0.10109602223145703,,,0.5883313578629602,inf,,,0.773443320042274
605,,0.0,0.0,1.6678986939399882,1.645596500236747,0.8816743057794263,0.06303319564276984,0.1118638045870137,,,0.6068309995095971,inf,,,0.7979972182025717
606,,0.0,0.0,1.5709261385026985,1.5485822516553405,0.8751735384918593,0.07971549676036632,0.1613688241110653,,,0.5947193981915972,inf,,,0.8164796124475461
607,,0.0,0.0,0.3478684791444273,0.31122581153272866,0.5814864766475342,0.199328406189015,0.216084538050774,,,0.6380535849069913,inf,,,0.9197626048156446
608,,0.0,0.0,1.036361546980768,0.9820465838084056,0.8992078088912895,0.5435180371771816,0.4603110966307129,,,0.6153451465759925,inf,,,0.8895523306403845
609,,0.0,0.0,1.0560551972689365,0.9950498220487577,0.8905285679754417,0.32784750243959604,0.3918013203530842,,,0.5883313578629602,inf,,,0.8138622482799754
610,,0.0,0.0,0.16280166969132603,0.14051066434505843,0.5502586986242597,0.5235314020663483,0.6092383212051302,,,0.6008849035917525,inf,,,0.9007965265030277
611,,0.0,0.0,0.7335039408554779,0.6943006174786467,0.7216467757245963,0.5323738220598914,0.7369730741579673,,,0.5451288209179292,inf,,,0.848424211949729
612,,0.0,0.0,0.7915260978636013,0.7254973787379674,0.7284069293792763,0.7670361403886413,0.9676198242612485,,,0.5783247308855777,inf,,,0.8777291439165054
613,,0.0,0.0,0.8971031096269485,0.8712293097976238,0.7898362834933571,0.3810176758575922,0.5192044140913858,,,0.5883313578629602,inf,,,0.8374676255587735
614,,0.0,0.0,0.8865287466917046,0.8356638242913588,0.7201397936859906,0.3738873198728436,0.49516423897924206,,,0.6038851895711802,inf,,,0.8716679938964975
615,,0.0,0.0,1.2082875777123014,1.197914798071782,0.832705176208243,0.4192048691262479,0.6667332657240543,,,0.6038851895711802,inf,,,0.7741782843749497
616,,0.0,0.0,0.982906290113844,0.96744677196713,0.8017780247670528,0.4400076596705616,0.6559598418847837,,,0.6097226960127671,inf,,,0.7108814678951869
617,,0.0,0.0,1.3038581903605764,1.265399991091147,0.9263887698541358,2.0231004728773065,1.8273388458204791,,,0.6602640781246099,inf,,,0.9185857897358214
618,,0.0,0.0,1.3009130139113845,1.2930165067459598,0.8509427891644876,2.033449464911011,1.6451532995337312,,,0.6699045166045591,inf,,,0.9262513390254958
619,,0.0,0.0,1.0179762898647673,0.9853554085873852,0.8264930948052972,1.8099608117165742,1.54632726277768,,,0.6652988471865258,inf,,,0.9213056512731328
620,,0.0,0.0,1.3681291625617205,1.3439152037763882,0.8228647034628219,1.5359930103369641,1.5537919403500244,,,0.6068309995095971,inf,,,0.9420066788962266
621,,0.0,0.0,1.150602051439277,1.084835959804789,0.7959774647068287,1.3034060649360844,1.110048282946105,,,0.6207552362147116,inf,,,0.9495808464550264
622,,0.0,0.0,0.9733691803052756,0.944372030613625,0.7837343619978003,0.7430734204406868,0.9415949874918048,,,0.62595550513784,inf,,,0.8470713238657709
623,,0.0,0.0,0.693077693081942,0.6581729940601101,0.8119422923555655,1.153620319938319,1.1044044125189263,,,0.6125606311107803,inf,,,0.943024831884481
624,,0.0,0.0,0.8311690939298172,0.7930840193288612,0.7447406867111844,0.851291024513003,0.9857122435151612,,,0.6125606311107803,inf,,,0.9497076264044074
625,,0.0,0.0,0.9364432565816222,0.9164474247693228,0.796913268037269,0.8637334094732192,1.0954169756736973,,,0.6566669596287297,inf,,,0.9264838706495359
626,,0.0,0.0,1.130788514467246,1.0833408798550552,0.7218675777434118,1.1162177929032706,1.1957352411804272,,,0.6425374456860184,inf,,,0.9369371219581317
627,,0.0,0.0,1.1042449203665166,1.07255238442284,0.7330527485998852,0.8886244573092765,1.148469544499994,,,0.648888643467878,inf,,,0.9065704294515355
628,,0.0,0.0,0.8227453928189754,0.8051047104426662,0.7099400937291624,0.8208911450537993,0.8694545892687006,,,0.6357360191111145,inf,,,0.9106593449466917
629,,0.0,0.0,0.8706954367361988,0.8367978872637665,0.7653134297912961,0.6221675720033213,0.7983011303897652,,,0.6528756675646988,inf,,,0.9175949672788007
630,,0.0,0.0,0.9624928285563312,0.9480286900323041,0.7408171700524915,0.8437752865782844,1.0147163272184359,,,0.62595550513784,inf,,,0.9471764939213669
631,,0.0,0.0,1.12374678641375,1.1154811342056747,0.7869631888753518,0.5276671135229279,0.6498941659114232,,,0.6125606311107803,inf,,,0.9449872108547668
632,,0.0,0.0,1.1446938362411334,1.115119710236837,0.8971516822695254,0.5228521749813552,0.7211794453014724,,,0.6357360191111145,inf,,,0.9305776742956171
633,,0.0,0.0,0.8704231453740302,0.8231348691578263,0.8016210236452468,0.7424829291408465,0.7215887350911885,,,0.6447042257417027,inf,,,0.9439511267104174
634,,0.0,0.0,0.9603304102466773,0.9374207264923767,0.7755461767685029,0.6162456029418345,0.6193875387071289,,,0.6447042257417027,inf,,,0.9486364002410034
635,,0.0,0.0,1.230691622567864,1.1942605377668067,0.9025369859383422,0.5257719792204398,0.6744998608095468,,,0.6357360191111145,inf,,,0.9112067174045576
636,,0.0,0.0,0.9794152698506527,0.9535504926856276,0.7823233630547448,0.880651644469794,0.7625128635951184,,,0.6425374456860184,inf,,,0.9502873607162599
637,,0.0,0.0,0.7717979670008518,0.7397971089864355,0.7416279479292952,0.6315313119450642,0.7555361754062482,,,0.6425374456860184,inf,,,0.938807078344797
638,,0.0,0.0,0.7764269247252044,0.7457451206291061,0.6824263774065771,0.4715089467395394,0.5427449127939921,,,0.5915533975974677,inf,,,0.7686864258548776
639,,0.0,0.0,1.151006697615422,1.1134656065924426,0.8005541726945269,0.5228234819942653,0.614356786024946,,,0.62595550513784,inf,,,0.7536879395828776
640,,0.0,0.0,0.7983912799239011,0.6662470484740642,0.7108846101886356,0.7945532180315006,0.8030774720396854,,,0.5978297680564633,inf,,,0.8968867068707428
641,,0.0,0.0,1.0948446186745036,1.0559673428335126,0.8194135759116747,1.378301790747821,1.3367610449871734,,,0.6333676938231112,inf,,,0.9049270860866974
642,2.2380465718564744,-0.007460155239521581,0.0,0.106969059718312,0.0873828510220749,0.4798337026978104,1.1834814623778098,0.695373390128315,,,0.6403206450210053,7.941829046512676,inf,,0.6168135373243406
643,,0.0,0.0,0.14054012242578456,0.10727912347888978,0.31537162841804006,1.1712342119863852,0.7067186635931062,,,0.6207552362147116,inf,,,0.6345834460512652
644,,0.0,0.0,0.8008773870910215,0.7797763274633309,0.6454305841229803,0.3618224060264321,0.41258451626971426,,,0.5451288209179292,inf,,,0.9493716798399234
645,,0.0,0.0,0.8422115093525615,0.8186529382434202,0.7985651761499614,0.5599504522883129,0.4184466149489494,,,0.5451288209179292,inf,,,0.9422823629486569
646,,0.0,0.0,0.8641952334752905,0.8430086237910719,0.8523424109467846,0.5647621317849282,0.3339075661233806,,,0.6284777104787076,inf,,,0.94827637741969
647,,0.0,0.0,1.0149160415612404,0.9955978605842184,0.8581312864606645,1.1510020279033029,0.946591746953185,,,0.6380535849069913,inf,,,0.8671026046228034
648,,0.0,0.0,1.2430733643482021,1.200985727864025,0.9352430093380686,1.2152412135604334,1.02674046363341,,,0.6447042257417027,inf,,,0.8623330855735223
649,,0.0,0.0,1.2005816442373554,1.1578283823587978,0.8686122010804681,1.4328727437065318,1.3492952485080985,,,0.6528756675646988,inf,,,0.95141608230705
650,,0.0,0.0,0.7907758135032028,0.7789183174475114,0.7050773379222282,1.2384662725020321,1.2278033716828387,,,0.6619902821573977,inf,,,0.9460442407568279
651,,0.0,0.0,0.6014173662807426,0.5884323559413538,0.4170732722465033,1.0168038323807203,1.2247847670720193,,,0.6509067234006624,inf,,,0.579841510664959
652,,0.0,0.0,0.22733628620625643,0.20824386709909962,0.8188746476110708,1.056509755198993,0.7076738277340908,,,0.6668815377411301,inf,,,0.8182740173573906
653,,0.0,0.0,0.7989673065663055,0.7703757100169284,0.846441085354494,0.7471077116877737,0.5201034072379898,,,0.6713451011121618,inf,,,0.9317814453931345
654,,0.0,0.0,1.2683277159143023,1.2220514467778918,0.8642090933520788,1.433021426526491,1.3598613383272697,,,0.6284777104787076,inf,,,0.8451374915062815
655,,0.0,0.0,0.4484082699949383,0.40720245408352224,0.7009761903271967,1.4491434042798501,1.0436575265108297,,,0.6380535849069913,inf,,,0.6993599803253842
656,,0.0,0.0,0.39399895841261096,0.22874599098998516,0.630525589864463,0.630628826406797,0.4973306844188716,,,0.6357360191111145,inf,,,0.9590972356157011
657,,0.0,0.0,0.5820057037123676,0.5406800860578849,0.7546170889469004,0.2755648528984873,0.3372775979494854,,,0.6333676938231112,inf,,,0.9291307565774368
658,,0.0,0.0,0.2773878899566606,0.18995515951354708,0.704790186988087,0.7325873100087937,0.4982295143941099,,,0.6547956803312163,inf,,,0.9279037794437718
659,2.7893096658510976,-0.01859539777234065,0.0,0.607954305240628,0.5230740125117284,0.4770831394317848,1.2815587497923147,0.9352586808077017,,,0.6619902821573977,7.796647036668178,inf,,0.6778238865489469
660,,0.0,0.0,0.9440989973254441,0.8903089753598413,0.8538392863655592,0.8155084762521848,0.8140446773749016,,,0.6380535849069913,inf,,,0.9422643406173266
661,,0.0,0.0,0.7097554571842611,0.6418804534115015,0.7996055472701342,0.5935603253874788,0.6428999542292558,,,0.6068309995095971,inf,,,0.9349929133332301
662,,0.0,0.0,0.5393072237347868,0.4923262985300312,0.6084377293893056,0.43946814504279996,0.38826666018874356,,,0.6233814453054027,inf,,,0.950569553306709
663,,0.0,0.0,0.46863485616656414,0.45093568463206124,0.737411134507342,0.583397571692184,0.5309132770677938,,,0.5947193981915972,inf,,,0.9371248777993548
664,1.8254708073867723,-0.012169805382578482,0.0,0.5571420739429765,0.4953826492741256,0.5574047873262272,1.3028299166426138,1.0457185667735511,,,0.6547956803312163,6.82259747064183,inf,,0.9259429231317177
665,,0.0,0.0,1.0053295812470606,0.9816390232761328,0.8824590009179805,1.1620334150916,0.9631180488468356,,,0.6668815377411301,inf,,,0.9455607926333458
666,,0.0,0.0,1.1469446750454204,1.096608212462,0.8930955116701262,1.8067758244331882,1.0650443833523844,,,0.6333676938231112,inf,,,0.9492572104379526
667,,0.0,0.0,1.1463111889267026,1.1364135902829364,0.7977204583803945,2.1074371479294833,1.466536437473147,,,0.6153451465759925,inf,,,0.9557143280951402
668,,0.0,0.0,1.0265962692827066,0.9427004027644075,0.8197018810111458,1.443231479064278,1.1268436032127787,,,0.6566669596287297,inf,,,0.9441526064165147
669,,0.0,0.0,1.0871549335716189,1.0604934772454577,0.8215050004252306,0.7925266987571395,0.6551248253237429,,,0.6602640781246099,inf,,,0.9353499870222713
670,,0.0,0.0,1.0481470613998372,0.99879535988958,0.8386105951479943,0.6332607528508158,0.6171654835189325,,,0.6566669596287297,inf,,,0.9256370817196136
671,,0.0,0.0,1.0037433041316646,0.8906111432522006,0.8261054435445928,1.2451625518735805,1.6746426079990098,,,0.5915533975974677,inf,,,0.948069650922218
672,,0.0,0.0,1.7582372117964606,1.7252186650879893,0.9139491400980594,1.292699112979806,2.2136811854064846,,,0.49759852643134905,inf,,,0.8693912102361945
673,,0.0,0.0,0.8670874867933348,0.8305331956831381,0.7765255839919357,0.8400742862853359,1.0002138023908396,,,0.6008849035917525,inf,,,0.9123933558347719
674,,0.0,0.0,0.868440491364127,0.835205074062337,0.7176375611444004,1.6030486053405357,1.301501414684528,,,0.6668815377411301,inf,,,0.6722179881428401
675,2.257482562318786,-0.02257482562318786,0.0,0.42876768006226834,0.36866333761711045,0.7047735399840911,1.336159128171322,1.3509048173831606,,,0.6309483474627791,6.671366500917907,inf,,0.5020704313749704
676,,0.0,0.0,0.7527180683577245,0.7294848628327453,0.8157978338140718,1.071059382036553,0.7907894393691943,,,0.6207552362147116,inf,,,0.9313571526547326
677,1.6621181702630135,-0.011080787801753422,0.0,0.8739431504611525,0.8011870924232983,0.6586521637806801,1.8592302397585778,1.0624028819484064,,,0.6284777104787076,6.671366500917907,inf,,0.5792546625268743
678,3.757872325600888,-0.012526241085336292,0.0,0.8917163181622191,0.8167282998410718,0.6767080574585348,2.100513419718576,1.1317233266127067,,,0.6652988471865258,9.461654800257088,inf,,0.7465798211590757
679,,0.0,0.0,0.7125036562390648,0.6293620874545701,0.7742472261795661,1.5071783755798915,1.1249428754977329,,,0.6509067234006624,inf,,,0.9218706270500291
680,1.6784307839210517,-0.005594769279736839,0.0,0.5614036135604639,0.5253006300389168,0.741177449798684,1.2956271477157253,1.0200198888076986,,,0.6284777104787076,7.382213258577253,inf,,0.6824761127824114
681,3.310036603265178,-0.02206691068843452,0.0,0.8853175890625345,0.7996296369423528,0.690155089282259,1.7800397920250142,1.077098851927696,,,0.648888643467878,8.272070733383252,inf,,0.6377223704679998
682,2.970536154445939,-0.02970536154445939,0.0,0.347571611831547,0.29048749081618547,0.5756511619453796,1.3935247308706424,1.296554278617993,,,0.6207552362147116,7.557417347602343,inf,,0.759564195106435
683,,0.0,0.0,1.0315261119323413,0.9985556051741934,0.8856350633909856,1.9170618264426555,1.2234138707933702,,,0.6233814453054027,inf,,,0.8603649622692318
684,1.8121704664881826,-0.01208113644325455,0.0,0.6481561275991197,0.6232730789759473,0.5558536665924992,1.816418488915542,1.4638891748230336,,,0.648888643467878,6.82259747064183,inf,,0.5829010651336373
685,,0.0,0.0,0.7025358118544908,0.6608171264030865,0.9077745928073199,1.3930022394510317,1.262273126874864,,,0.6447042257417027,inf,,,0.958651504186839
686,2.8134107167600364,-0.009378035722533455,0.0,0.6451502507135564,0.6249510631421942,0.7762309209283286,2.3627537531664355,1.8145752768972163,,,0.6284777104787076,8.517193191416238,inf,,0.7009962777282754
687,,0.0,0.0,0.4161638637117183,0.3640567947489079,0.6899671313510899,2.4023401108445,1.7734945528284762,,,0.6309483474627791,inf,,,0.5651213120480731
688,,0.0,0.0,0.8040572739349215,0.784034827235976,0.8434241864263389,1.6805159851923976,1.2675206348910057,,,0.6509067234006624,inf,,,0.9434098264088865
689,,0.0,0.0,0.894810008846397,0.8809333475980098,0.8130145032102793,1.9512455975270404,1.5273484527769834,,,0.6468212168108125,inf,,,0.9521170900097368
690,,0.0,0.0,1.2466076116319043,1.2282688932136647,0.7535014885314759,2.368483096690346,1.66062275484897,,,0.648888643467878,inf,,,0.9534932752539008
691,,0.0,0.0,1.1638945330534154,1.1284937809724258,0.874989381068793,2.156430468877202,1.7044181915165733,,,0.6468212168108125,inf,,,0.9465023924881214
692,,0.0,0.0,1.1495801492816946,1.1035869452026903,0.8108444594407782,2.181126068491966,1.5972586038680694,,,0.6447042257417027,inf,,,0.9342348223425067
693,,0.0,0.0,1.2297585051495075,1.1933561267251307,0.851731008624759,2.488134820524646,1.461698269609876,,,0.6652988471865258,inf,,,0.9366028874259692
694,,0.0,0.0,0.9347371317141754,0.8741696498753929,0.9252780134763037,1.215261443081519,1.2430455068758346,,,0.6468212168108125,inf,,,0.954225339509839
695,1.529395204760564,-0.005097984015868546,0.0,0.23961561702026368,0.15832585789947198,0.7621896680399408,0.7770232002188446,0.7720904357631037,,,0.6468212168108125,7.233177679416765,inf,,0.6973922680209018
696,,0.0,0.0,0.731419711037339,0.70345572098949,0.8513158921646548,0.743197890375367,0.7396757370771866,,,0.6584896970785714,inf,,,0.9265155322604174
697,,0.0,0.0,1.2425258071680323,1.1830785556215797,0.790377439488131,1.862554965350376,1.3101119299592274,,,0.648888643467878,inf,,,0.958221249203916
698,2.3418662542455966,-0.015612441694970643,0.0,0.3507391690211783,0.32716985112603125,0.6978727900243,1.8636604823854257,1.8507456715326065,,,0.6652988471865258,7.347121938765983,inf,,0.7021326422425772
699,,0.0,0.0,0.8005373220409273,0.7469127752803065,0.8563710290142379,1.2700247341613036,1.1791758049565413,,,0.6333676938231112,inf,,,0.9195690013101095
700,,0.0,0.0,0.7643142801320456,0.7250563517636436,0.7629239239083159,0.73018044474961,0.8083568512017997,,,0.6447042257417027,inf,,,0.9013815781555562
701,,0.0,0.0,0.7447518004244771,0.7130021961737891,0.6778690519322754,0.7400307580407449,0.6138484560015034,,,0.6468212168108125,inf,,,0.9533118810887725
702,,0.0,0.0,1.0494242774304272,1.0057614398760082,0.8779564392120354,1.1325213629186235,0.9801653153972192,,,0.6509067234006624,inf,,,0.9391093084456045
703,,0.0,0.0,0.8008545152300655,0.693976321270905,0.827372898831597,0.9017838501193731,0.7807185862746115,,,0.6584896970785714,inf,,,0.906089730663443
704,,0.0,0.0,0.9298840359253192,0.9091669126505756,0.7412599203975413,2.115292167306898,1.675644889233046,,,0.6584896970785714,inf,,,0.9404132460960758
705,,0.0,0.0,0.7088504671550834,0.656720205451395,0.7616243539879304,1.5705965931828028,1.4042095118985352,,,0.6309483474627791,inf,,,0.5422052468893573
706,,0.0,0.0,1.1318010956231765,1.1178049300147688,0.6812071918131019,0.7847382341184559,0.7629123228168714,,,0.6284777104787076,inf,,,0.9357789952680846
707,,0.0,0.0,0.9576530586827254,0.9208357971212171,0.8364580838364092,0.9812615555052836,0.8949583596267977,,,0.6584896970785714,inf,,,0.9504580411559357
708,,0.0,0.0,0.8842224413122918,0.839948675059012,0.8218734481591295,1.2916633946885319,0.731077600227046,,,0.6097226960127671,inf,,,0.9497155900142071
709,2.167995792550435,-0.014453305283669567,0.0,0.7864926403983696,0.7597668709830554,0.7635127128346255,2.5790480389348893,2.124088616076194,,,0.6528756675646988,7.173458444715143,inf,,0.5965430076975657
710,,0.0,0.0,0.9224107987909407,0.9031008096853479,0.6944093073696982,2.1437050568703326,2.2616003190906895,,,0.6284777104787076,inf,,,0.9438922319086325
711,,0.0,0.0,1.2929984654453466,1.2812251127291598,0.8654179397017933,2.306438820281189,2.2211391790006796,,,0.648888643467878,inf,,,0.9419123697976435
712,,0.0,0.0,0.8203345385754286,0.8045072158596814,0.8528034947948263,1.9358338679628253,1.4996928611791762,,,0.663668482632973,inf,,,0.7917726726719256
713,,0.0,0.0,1.2017756312686318,1.1800837212203479,0.8201576338626101,1.9869492709083931,1.9600848922071197,,,0.6284777104787076,inf,,,0.9511263077250198
714,2.0928645620119766,-0.0069762152067065885,0.0,0.54892251580751,0.5198756721707773,0.6978117072045917,1.9706006495799426,1.7144691115719035,,,0.6602640781246099,7.796647036668178,inf,,0.6857066932202102
715,,0.0,0.0,0.8588432311696461,0.8547762183498546,0.8049448690765083,2.386449483742264,1.8482482572331338,,,0.6652988471865258,inf,,,0.7987043857205192
716,,0.0,0.0,1.2751706537826133,1.263850352033894,0.8654631181559843,2.2754545484142303,1.998266658153895,,,0.6468212168108125,inf,,,0.9089207301713503
717,,0.0,0.0,1.057321379444801,0.9964772194279885,0.8476305835981742,1.6160271762097949,1.088143383675037,,,0.6602640781246099,inf,,,0.928630852207874
718,,0.0,0.0,0.6451913324938727,0.5596544776253173,0.8556830420471055,1.3513814151886723,1.1512032384787692,,,0.6309483474627791,inf,,,0.9500714701950839
719,,0.0,0.0,0.41829817968390687,0.3944494557051215,0.6455701772705834,0.6040091480003861,0.7616389731222754,,,0.5677978065141052,inf,,,0.9344264087323254
720,,0.0,0.0,0.9913394658437334,0.9576339404076439,0.7346540469074553,0.6021421426960879,0.8910439647007741,,,0.5604843169999094,inf,,,0.8777337053223938
721,,0.0,0.0,0.5889411940245026,0.57292926357527,0.6477501238795695,0.5496419779101588,0.5772053398223902,,,0.5068466436745385,inf,,,0.925515532634738
722,,0.0,0.0,1.2052393882457735,1.136410714637382,0.8365901691267419,0.4643920229889176,0.633452743976956,,,0.5329562494928909,inf,,,0.8711067674265939
723,,0.0,0.0,0.8206509024955536,0.7682207671053444,0.6858229324055659,0.4982970324230759,0.7542528397970589,,,0.5604843169999094,inf,,,0.8629108854129824
724,,0.0,0.0,1.5816447519060968,1.5407064647284598,0.9163353866641747,0.5639018047707962,0.8500578887757456,,,0.5915533975974677,inf,,,0.8030240939293225
725,,0.0,0.0,1.581985851833991,1.5593096131936734,0.9150897376323399,0.49968778086784005,0.7454887223854731,,,0.5883313578629602,inf,,,0.8314305460514495
726,,0.0,0.0,1.568167434191592,1.5693840651054625,0.9267220702462436,0.5366932427218764,0.8157856958041309,,,0.5158180382284114,inf,,,0.8191701824055075
727,,0.0,0.0,1.6559516283860989,1.6170896316847105,0.9058395668388012,0.6488213033967347,1.0698758169511158,,,0.5490601803369085,inf,,,0.8013591935105431
728,,0.0,0.0,1.6554310838720174,1.6296188458691045,0.934837622036816,0.7640544036740644,1.2960334534585365,,,0.5748741956352443,inf,,,0.8223401407919666
729,,0.0,0.0,1.6224536752058623,1.6072564253212187,0.9339451652753163,0.7795061944206269,1.3755775079185804,,,0.5567373465730988,inf,,,0.7640651410979166
730,,0.0,0.0,0.5342523539436336,0.5136003453085863,0.572211243996252,0.8884113639553459,1.4782838155984694,,,0.5641709578113449,inf,,,0.896550545857057
731,,0.0,0.0,1.1849651230837022,1.1574676666513737,0.7175642916723309,1.0726142557128917,1.1600696338283247,,,0.6425374456860184,inf,,,0.8829539392233369
732,,0.0,0.0,1.4047509603260369,1.370876834227871,0.8495737047053193,0.32231221433504265,0.4548885489509687,,,0.468121228110369,inf,,,0.7944289624529078
733,,0.0,0.0,1.300024261588413,1.2406336790451589,0.8736859717534354,0.38115260716497795,0.47254136365052174,,,0.45235697871908603,inf,,,0.8005671373136031
734,,0.0,0.0,1.301262500804254,1.2307073099425758,0.8210373441632187,0.4638456394144775,0.6045766291856962,,,0.524519217297268,inf,,,0.8275152720098051
735,,0.0,0.0,1.5077427385234212,1.4711132062595085,0.9157788325465833,0.45192650685801794,0.6956406899142615,,,0.45235697871908603,inf,,,0.8225410649895988
736,,0.0,0.0,0.9452852899752368,0.889198531293538,0.8356580786230206,0.7134170678951225,0.8587809649807767,,,0.541134803179459,inf,,,0.9284976789473558
737,,0.0,0.0,1.4452241768757434,1.413937329734638,0.813483328647361,0.5453189243705195,0.7879561360797844,,,0.5713653840954815,inf,,,0.7869243458868973
738,,0.0,0.0,1.652059967303972,1.5699136229704822,0.9218322091729754,0.8062424309666034,1.1162368969965946,,,0.4732203808476458,inf,,,0.7934440755060119
739,,0.0,0.0,1.1547272308311176,1.110684586649819,0.8871617375384226,0.5642359716743899,0.5533234351691505,,,0.5490601803369085,inf,,,0.8663631094687103
740,,0.0,0.0,1.5857075666225204,1.5540602109162749,0.856149664846847,0.4143288475916415,0.6934397417925868,,,0.44694259446804574,inf,,,0.8245995613510072
741,,0.0,0.0,1.7285061449791517,1.7207943426437406,0.9158062241468558,0.48341204894947676,0.9484792770028274,,,0.3751344627501719,inf,,,0.792524643963377
742,,0.0,0.0,1.7546417699085048,1.7328453491276958,0.91762685189637,0.49989660782536316,0.9413533788267467,,,0.41861278947482794,inf,,,0.7807241631965922
743,,0.0,0.0,1.6873797153008816,1.6642146159279019,0.9049646085536939,0.41104796074188105,0.7770767014713849,,,0.41861278947482794,inf,,,0.800863486820218
744,,0.0,0.0,0.5210002576285282,0.4924870061351649,0.5714872852723736,0.4892237803929257,0.7155501740033604,,,0.5287703885177266,inf,,,0.9067714667119496
745,,0.0,0.0,1.599520232759148,1.5790911054816266,0.7912283721319835,0.11620740832972903,0.2130333329337811,,,0.585052858160615,inf,,,0.7656195994398156
746,,0.0,0.0,1.5428105733302104,1.5251465811396883,0.9172438127153438,0.14628617399438404,0.24111399824896884,,,0.5783247308855777,inf,,,0.7824612469681991
747,,0.0,0.0,0.650738356736619,0.5747868439777027,0.790323496979416,0.5314998383758277,0.5330352019320869,,,0.5978297680564633,inf,,,0.9324877535988124
748,,0.0,0.0,0.9161072228619981,0.8781808196361663,0.6526377782072711,0.2950309369396978,0.39844453812771874,,,0.6008849035917525,inf,,,0.8737754709278073
749,,0.0,0.0,1.4330761997807246,1.4146445482489776,0.8660267272201475,0.17340057744036624,0.2944725323255145,,,0.5978297680564633,inf,,,0.8056409845699866
750,,0.0,0.0,0.5095096583859747,0.4428459341171646,0.7891412257373192,0.39712825354482484,0.5169380706542286,,,0.5713653840954815,inf,,,0.9047082521423264
751,,0.0,0.0,1.6823623580847553,1.6480059026561922,0.8880342442467752,0.5566263261529607,0.8606261086497077,,,0.4629450596409901,inf,,,0.826958261981994
752,,0.0,0.0,0.17118885779824036,0.1295742441795469,0.5910806557944465,0.4455566276389247,0.5838460606489867,,,0.5451288209179292,inf,,,0.9467534411358504
753,,0.0,0.0,1.7007408179946908,1.6672742149905486,0.8841614281849249,0.3018732581971097,0.5949198369598325,,,0.44144624493110796,inf,,,0.7832180958432929
754,,0.0,0.0,1.7060749486963342,1.6692275477396301,0.8939761134243389,0.2869733742030438,0.5480307772067172,,,0.5022576003740722,inf,,,0.8158347364719093
755,,0.0,0.0,1.652088808525427,1.6340435039776544,0.9031168479533791,0.3712273915709645,0.7217377652455216,,,0.4629450596409901,inf,,,0.8081359726995843
756,,0.0,0.0,1.6735591162334724,1.6626199075887325,0.8987576125062209,0.46227356722888474,0.8616507219616841,,,0.4302020962658841,inf,,,0.7999576187483235
757,,0.0,0.0,0.6729232740629085,0.6509393483855843,0.6176161635481349,0.692391527029164,1.0949310598035469,,,0.5022576003740722,inf,,,0.9176187819510173
758,,0.0,0.0,0.7009065421036635,0.6646735170663619,0.7397061976903748,0.3661246371400661,0.43505788244961635,,,0.5370774965580548,inf,,,0.9376034414325692
759,,0.0,0.0,0.4663922904771132,0.42004268489835955,0.8012519422759443,0.2226465975083134,0.25154377650135273,,,0.541134803179459,inf,,,0.8325171502743322
760,,0.0,0.0,0.788044391462206,0.7631067081183798,0.7412502092342732,0.07968102331433896,0.13945807109005665,,,0.5329562494928909,inf,,,0.9007703453723068
761,,0.0,0.0,0.41706703691928293,0.37404253900213846,0.5705636712405838,0.245666167805038,0.2228951426673791,,,0.5947193981915972,inf,,,0.955353424174695
