,hr+bvp_XAp0,hr+bvp_XAp1,hr+bvp_XAp2,hr+bvp_XCond1,hr+bvp_XCond2,hr+bvp_XDist,hr+bvp_XFuzz1,hr+bvp_XFuzz2,hr+bvp_XK2_1,hr+bvp_XK2_2,hr+bvp_XPermEn,hr+bvp_XSamp0,hr+bvp_XSamp1,hr+bvp_XSamp2,hr+bvp_XSpec
0,,0.0,0.0,1.2399430381011578,1.2257899940119192,0.8937885049435348,1.4272659228377953,1.3400468412481126,,,0.6357360191111145,inf,,,0.9522067294124471
1,,0.0,0.0,1.3105821544493548,1.2063285743042333,0.9069022861137107,1.672262172500037,1.6346066956480056,,,0.6509067234006624,inf,,,0.9380952335764378
2,,0.0,0.0,1.384746273862116,1.3132626310473918,0.9021499645120263,1.8049160195699057,1.7011746561634395,,,0.6447042257417027,inf,,,0.9516901172057103
3,,0.0,0.0,1.2260680928625451,1.193882320753682,0.9148805859497653,2.091242983751503,2.0394221408743487,,,0.648888643467878,inf,,,0.9467852418279141
4,,0.0,0.0,1.1690764998991958,1.1343736175158468,0.7752118712027737,1.8095230949962064,1.3640989769383833,,,0.5883313578629602,inf,,,0.9510030484330722
5,,0.0,0.0,0.8967122008562863,0.869429735954542,0.8096264369035681,1.560528631297028,1.3707821468595633,,,0.663668482632973,inf,,,0.9348562981307597
6,,0.0,0.0,0.5935332863224029,0.5414709162365847,0.7744998960179008,1.4254064256088643,1.4638541701992855,,,0.6403206450210053,inf,,,0.9169074775405149
7,,0.0,0.0,0.48804459839242614,0.428007752065647,0.6998290687618601,1.2062287784652777,0.9967283798802651,,,0.6309483474627791,inf,,,0.9503313773821082
8,,0.0,0.0,0.5600867835236567,0.5337811544152211,0.6671488910059836,1.38024221059563,1.0570724884721825,,,0.6284777104787076,inf,,,0.9317995250157077
9,,0.0,0.0,0.7876628785250193,0.7605628637948557,0.7191348750005437,1.9495852784173031,2.0019927189943005,,,0.6357360191111145,inf,,,0.9165167575136702
10,,0.0,0.0,1.2291304062314394,1.2285107434461724,0.8139465074304083,1.8731218795260136,1.9373322837191147,,,0.6447042257417027,inf,,,0.9268676100423097
11,,0.0,0.0,0.407369937951472,0.36395235923304287,0.7967190537420655,0.9418802720431849,0.6592913526421825,,,0.6602640781246099,inf,,,0.9523659668376742
12,,0.0,0.0,0.9730639094759699,0.9566270180868316,0.7805424538175462,1.0754997052159168,1.009061526591187,,,0.6425374456860184,inf,,,0.946152475029495
13,,0.0,0.0,0.5055111090208558,0.4887532114554841,0.6970913748762261,1.3459720608809342,1.056867284933885,,,0.6357360191111145,inf,,,0.9461891235590836
14,,0.0,0.0,0.8622486549134422,0.8214109172508401,0.7600301063895738,1.0990480411663266,0.8910641135024142,,,0.62595550513784,inf,,,0.948319372502814
15,,0.0,0.0,0.4177750880277238,0.3896480140976344,0.6057662716194018,0.8705482837150441,0.7958055043209282,,,0.6425374456860184,inf,,,0.9192740004853194
16,,0.0,0.0,0.9245622007549813,0.8861905370715139,0.801901907465072,1.6551340641370056,1.5156803553613591,,,0.6584896970785714,inf,,,0.9395016097948707
17,,0.0,0.0,0.8574020205576368,0.7843507673651962,0.7823669762595146,1.5462478264586048,1.125006816623255,,,0.6038851895711802,inf,,,0.9524267321608694
18,,0.0,0.0,0.8581507388451715,0.7940479905957177,0.8648765252033079,1.0484231950656542,0.8943534416276206,,,0.6425374456860184,inf,,,0.9453457693769073
19,,0.0,0.0,0.9755306544270531,0.9491490114238457,0.8224984197947316,0.9391268152078609,0.80278992665494,,,0.6068309995095971,inf,,,0.9286497912283727
20,,0.0,0.0,0.8703472723951735,0.825578481873068,0.8291747939910288,1.0717367256629018,1.0727246482223107,,,0.6468212168108125,inf,,,0.9404958932245687
21,,0.0,0.0,0.7285145396684202,0.6719429393146646,0.7981346080496708,1.020960712917177,0.7257049655139458,,,0.6468212168108125,inf,,,0.9258302454276788
22,,0.0,0.0,0.8355696923710627,0.7569981014502397,0.7379621183225356,1.3916052618629293,1.5461077796728577,,,0.62595550513784,inf,,,0.945982180779246
23,,0.0,0.0,1.3821446503375077,1.3493399819076475,0.8592240230961591,1.2763733041330967,1.3477208162843815,,,0.6509067234006624,inf,,,0.905508058994448
24,,0.0,0.0,1.4675108672491979,1.450697988219801,0.8444919255762804,1.2022323257730845,1.475387508340421,,,0.6309483474627791,inf,,,0.9213888674358357
25,,0.0,0.0,1.0244316853764075,0.9908408755971496,0.8383302965808115,1.2739053982106148,0.7323936626727012,,,0.6180765742263259,inf,,,0.9571052965642337
26,,0.0,0.0,0.47100805993585626,0.4226283220239537,0.7331706041223536,0.5092496399529576,0.40052100056976325,,,0.6309483474627791,inf,,,0.9412762110637038
27,,0.0,0.0,1.109493375209388,1.091406132978787,0.7490027763812104,1.1802862124680946,0.6183115092125318,,,0.6309483474627791,inf,,,0.9562706916677512
28,,0.0,0.0,0.860678511344135,0.800416049368718,0.8655543010724994,1.5105530655900947,1.339521123061198,,,0.6357360191111145,inf,,,0.9462801885596984
29,,0.0,0.0,0.6802548593539324,0.6170978527969709,0.8506890912286049,1.4952616088737685,1.2011645557833872,,,0.648888643467878,inf,,,0.9485857977508783
30,,0.0,0.0,1.116684306624131,1.073581338207346,0.8599605091298982,2.1733022986114054,1.663030991143215,,,0.6284777104787076,inf,,,0.9531886633385669
31,,0.0,0.0,0.9645570780847066,0.9207171484430349,0.8167457290459473,1.9084877607857622,2.1185005138141033,,,0.6468212168108125,inf,,,0.9354873792994408
32,,0.0,0.0,0.8594817382675487,0.8388409420310785,0.870076910855362,1.4492583723884747,1.3181393373352905,,,0.6547956803312163,inf,,,0.9442079469691022
33,,0.0,0.0,0.9901966808905186,0.9561026847070158,0.7986268002727397,2.4611009411184215,1.9497477883281156,,,0.62595550513784,inf,,,0.9436320573932435
34,,0.0,0.0,1.0443496055527446,0.9998202567776685,0.7438137940562213,2.3470087448300734,1.9551330263273847,,,0.6380535849069913,inf,,,0.9453736524447521
35,,0.0,0.0,1.1649520727950191,1.1464290781754731,0.8178132276056121,1.8925768366162272,1.4507772663800447,,,0.6528756675646988,inf,,,0.9400371912888905
36,,0.0,0.0,0.9916866304490147,0.9958246377774438,0.7375935769173902,2.1387634560371342,1.5080103439325518,,,0.6403206450210053,inf,,,0.9014839118425775
37,,0.0,0.0,1.3611897999938367,1.3167165428537444,0.8278535470457187,2.1685907782127445,1.9149491257294327,,,0.6509067234006624,inf,,,0.9057554576834701
38,,0.0,0.0,1.2431808055849358,1.1964789495390666,0.8464541415476152,2.4214490389661867,1.9120176368542166,,,0.6357360191111145,inf,,,0.9503737000660695
39,,0.0,0.0,1.0838984511378702,1.0585047457656587,0.7364786115959724,2.210728864704643,1.8183425604625527,,,0.6309483474627791,inf,,,0.8569029458618506
40,,0.0,0.0,1.0921661271573004,1.0657483657000901,0.7124106661229863,1.7495384744720859,1.5066376122841172,,,0.6403206450210053,inf,,,0.9333452336058466
41,,0.0,0.0,1.0130185465946702,0.9958058390466722,0.7179738760815827,2.097161513705445,1.7164515885000928,,,0.6584896970785714,inf,,,0.9044793516934129
42,,0.0,0.0,0.9148894403555763,0.9057191258661922,0.7734462408742819,1.3355311476900817,1.0363862247804434,,,0.6284777104787076,inf,,,0.7684596931537857
43,,0.0,0.0,0.8574872793095349,0.7916462092568924,0.7371347044888971,1.6011280793748313,1.2292878516898955,,,0.6584896970785714,inf,,,0.9240389875709295
44,,0.0,0.0,1.2021359585464084,1.189016226183652,0.8004423546927543,3.245624240291259,3.117035155920892,,,0.6447042257417027,inf,,,0.9315204443927599
45,,0.0,0.0,0.738304950751305,0.7088352281971457,0.7459033572885235,1.702480643360474,1.2751178250091133,,,0.62595550513784,inf,,,0.9417518834922265
46,,0.0,0.0,1.047389386531648,0.9819264458362752,0.782857884023978,1.312586106063944,1.193462535867057,,,0.6668815377411301,inf,,,0.9454921262368214
47,,0.0,0.0,0.5622728660870293,0.5497817764037799,0.6033449242804082,1.3071747194597523,0.9903450461894452,,,0.6380535849069913,inf,,,0.9527798905007367
48,,0.0,0.0,0.785934974278157,0.7426442654799996,0.7489856994589963,1.436134228137661,1.076514284914862,,,0.6380535849069913,inf,,,0.8577939939212452
49,,0.0,0.0,0.9734172078993875,0.9486250033163485,0.7705072022663028,2.0655070712839283,1.4952441697426129,,,0.6284777104787076,inf,,,0.8991533788966549
50,,0.0,0.0,0.6762919773576858,0.665148198865014,0.5998923688471911,1.465238884020378,1.3034172914452917,,,0.6333676938231112,inf,,,0.8839509505549108
51,,0.0,0.0,0.9773747393084846,0.9278009235460594,0.8320772915323286,1.7367124594152432,1.5695570113838142,,,0.6233814453054027,inf,,,0.9085408708159775
52,,0.0,0.0,0.7615169949388102,0.6739642010548736,0.7794846619579445,1.004200686022288,0.7746816948466455,,,0.5915533975974677,inf,,,0.9133457258882088
53,,0.0,0.0,0.4219278349422323,0.34988346081855276,0.6961601620031371,1.5041489085369253,1.0922640529851404,,,0.6233814453054027,inf,,,0.9437807717291222
54,,0.0,0.0,0.7975788327551248,0.7687328271257133,0.682932990113215,1.6194275192714296,1.38400357561665,,,0.6284777104787076,inf,,,0.8990569431996637
55,,0.0,0.0,0.8338825099054996,0.8196370589052332,0.6725463562195361,0.913390938512088,0.651374580922703,,,0.648888643467878,inf,,,0.9060412989584882
56,,0.0,0.0,0.9885848263424611,0.9435912918845213,0.7794708854509834,1.235185597937393,1.1025522894112765,,,0.6008849035917525,inf,,,0.9380627958134551
57,,0.0,0.0,1.0881713486739772,1.0738895110302806,0.710822123276041,1.488906039384922,1.241938343020214,,,0.6584896970785714,inf,,,0.924114777993564
58,,0.0,0.0,1.089482210698562,1.0757543931133051,0.7789715922284318,1.866808381331735,1.7572309816794,,,0.6068309995095971,inf,,,0.9037015607454217
59,,0.0,0.0,0.5363751524351538,0.5031379801215939,0.6481542199773699,1.831288002881948,1.5353164124693242,,,0.6468212168108125,inf,,,0.9164004863994457
60,,0.0,0.0,1.0031088914879993,0.9719754714145686,0.6965789107070881,0.9029200079664844,0.7516277081923001,,,0.62595550513784,inf,,,0.9323720562294308
61,,0.0,0.0,0.5875466904703252,0.5572406670188432,0.7604920533558839,0.9773680541335436,0.907426587777556,,,0.6125606311107803,inf,,,0.9358928744854922
62,,0.0,0.0,1.0394985548675033,1.0099029878921568,0.7291014574940307,0.8423305980227705,0.6310487365243704,,,0.6547956803312163,inf,,,0.9182607088592027
63,,0.0,0.0,0.7677604688071153,0.6900274626892621,0.6997768341627246,0.8933462286490379,0.6980822176290719,,,0.5978297680564633,inf,,,0.8904374392629479
64,,0.0,0.0,1.1016357768124048,1.066387272267163,0.8279195141244146,1.4059788829800488,1.4455617572781825,,,0.581717464821069,inf,,,0.8785212894252715
65,,0.0,0.0,0.9547029761106806,0.8848269841335771,0.7956161810165358,1.3270135422164961,1.6626092906544176,,,0.5915533975974677,inf,,,0.8695886975728534
66,,0.0,0.0,0.5344781181538073,0.4962754319792007,0.7154116061044998,1.5634093341434128,1.0379596418117643,,,0.6233814453054027,inf,,,0.6490786156617525
67,3.912023005428146,-0.013040076684760487,0.0,0.5273812636683872,0.4780438351009784,0.43478338617638623,1.3677316662794792,0.8845019064740649,,,0.6357360191111145,9.615805480084347,inf,,0.8724189022185327
68,1.9661128563728327,-0.006553709521242776,0.0,0.8462708541049957,0.7793368713501214,0.674265859825262,1.6240292272317645,1.371420467331685,,,0.6180765742263259,7.669895331029034,inf,,0.6790808398524733
69,1.182405098777774,-0.01182405098777774,0.0,0.7008393768317657,0.6667882679667834,0.5752229557308144,1.7211849182372667,1.0348208847477518,,,0.6357360191111145,5.700454684563526,inf,,0.7178280611542102
70,,0.0,0.0,0.4163996051380652,0.3900735750648583,0.49871964502054833,0.8448344626020888,0.9385459909695585,,,0.6008849035917525,inf,,,0.9348993106407297
71,1.9764224999742006,-0.013176149999828003,0.0,0.8284792944444486,0.7835422581684697,0.7878145404994195,1.9978071724900321,1.0311868311008505,,,0.6509067234006624,6.9767481504690885,inf,,0.7337042989361984
72,1.6404172443205234,-0.016404172443205235,0.0,0.7676321070808172,0.7074251260154617,0.7354787534914311,1.7739591358023523,1.279449003263989,,,0.6309483474627791,6.214608098422191,inf,,0.8670413746133148
73,,0.0,0.0,1.3001543429864628,1.2689929329882004,0.8566981832386555,0.7458994380959347,0.7375232025249283,,,0.6309483474627791,inf,,,0.8382213820394517
74,,0.0,0.0,0.4512955761728361,0.4075025336750424,0.6192319834725678,0.9200501513450092,0.8070689360355225,,,0.6207552362147116,inf,,,0.7237724096681266
75,,0.0,0.0,1.2781568861145276,1.260357311309287,0.8098967076147854,0.5138931613898772,0.6799506681918185,,,0.6097226960127671,inf,,,0.8086854910863845
76,,0.0,0.0,1.6186124790241163,1.5937367400923783,0.9097349251749163,0.7120328789389896,1.0628442658063357,,,0.5370774965580548,inf,,,0.81598591168189
77,,0.0,0.0,1.710183203599564,1.69349489104751,0.8986521139207816,0.7548603690378477,1.1555632233111646,,,0.5641709578113449,inf,,,0.8224759439048903
78,,0.0,0.0,1.6081802838435144,1.5842575884112273,0.8724565357972262,0.7918611124370731,1.2699907129887158,,,0.5748741956352443,inf,,,0.8056567417427499
79,,0.0,0.0,1.6085469469083482,1.5835239210482304,0.8868486870858588,0.8687876864494842,1.2982609916364185,,,0.581717464821069,inf,,,0.7866715733133421
80,,0.0,0.0,1.737001510856414,1.7007537540939581,0.9202117572442731,0.9864146183439955,1.6474794901085676,,,0.524519217297268,inf,,,0.7752734208960522
81,,0.0,0.0,1.6118739898576977,1.5812889176268319,0.8681446713365664,0.7070000249314599,1.0448968495432847,,,0.5783247308855777,inf,,,0.7998754155883783
82,,0.0,0.0,0.2583197561569447,0.1798831081071678,0.5910783511539464,1.035523122717515,1.066021675767548,,,0.6528756675646988,inf,,,0.72331392371581
83,,0.0,0.0,1.4979425068094654,1.4755098033897514,0.8719509357341713,0.797585721271691,0.9323080869299301,,,0.6233814453054027,inf,,,0.8405126910653595
84,,0.0,0.0,1.4396419009000019,1.4317860658760302,0.8566327235234559,0.8208107720561499,0.9618788652485744,,,0.6180765742263259,inf,,,0.9004757074971598
85,,0.0,0.0,1.437867740120659,1.4012713559527248,0.828595993999078,0.7126945850132413,0.8122139939652756,,,0.6125606311107803,inf,,,0.8827245130184238
86,,0.0,0.0,0.4558682490996651,0.44704666925677,0.6766782212295542,0.8830369741720444,1.0176784907371066,,,0.6468212168108125,inf,,,0.9115437140024707
87,,0.0,0.0,1.3744774497916405,1.3589625378836037,0.7526045582981306,0.7606671312958831,0.899815903644332,,,0.6447042257417027,inf,,,0.8953553859171633
88,,0.0,0.0,1.4501561059121113,1.4403457302080778,0.8198556291339664,0.7319788435406804,0.8362395572613412,,,0.6284777104787076,inf,,,0.8292205833420702
89,,0.0,0.0,0.8425611508102046,0.8327514821609128,0.7172705593514013,1.0145216540124813,0.949475368564993,,,0.6713451011121618,inf,,,0.8615975513276349
90,,0.0,0.0,1.3734342721726538,1.3473593586665331,0.8213954264061347,0.9172245482224007,0.8953559643967208,,,0.6699045166045591,inf,,,0.8552897337980615
91,,0.0,0.0,1.3045327886616356,1.2782912753911706,0.8020743454591114,0.9550297755960073,0.9095970527421716,,,0.6602640781246099,inf,,,0.8605735914464436
92,,0.0,0.0,1.4574191764956421,1.4436157649641461,0.8638761911643972,0.9859601067256677,1.0762332069478702,,,0.6425374456860184,inf,,,0.8442400665378212
93,,0.0,0.0,1.4570076469396334,1.427493408975486,0.8507730250493903,0.8749657169902775,0.9903069410011344,,,0.6309483474627791,inf,,,0.8486042999157201
94,,0.0,0.0,1.563514838249886,1.5675591523655419,0.8734538074537341,0.9085109803748952,1.2081044670793881,,,0.6547956803312163,inf,,,0.8557169333802701
95,,0.0,0.0,1.1829185082389935,1.1490169970782855,0.8450684938324805,0.6979306091278863,0.7820219379503471,,,0.6425374456860184,inf,,,0.8607719403553484
96,,0.0,0.0,0.6846883204161266,0.6370792719911157,0.2915356563801543,0.5947463576599935,0.728752703991287,,,0.6584896970785714,inf,,,0.9599411713856312
97,,0.0,0.0,1.118495861260226,1.0732595344005047,0.9055780886204862,0.36874269914572394,0.4391253805958455,,,0.585052858160615,inf,,,0.8286231358600267
98,,0.0,0.0,1.4130662739540683,1.3885650225753778,0.882550729598345,0.1654461423995069,0.2742595603425373,,,0.6357360191111145,inf,,,0.7590522324790983
99,,0.0,0.0,0.14516110362951753,0.10836633334852513,0.5749923130536981,0.25193193466191255,0.3158775655434967,,,0.62595550513784,inf,,,0.9096121712255085
100,,0.0,0.0,0.24137394552797656,0.19981363668499597,0.3991118670974007,0.21238943863937929,0.2913978809676806,,,0.5604843169999094,inf,,,0.9471259814344709
101,,0.0,0.0,0.7461055711034312,0.7368327540962827,0.6885407156500378,0.5903338070269988,0.6695400293094599,,,0.62595550513784,inf,,,0.9428129917095898
102,,0.0,0.0,0.29874863549611025,0.2547689032258667,0.48148339503075527,0.42776896374451545,0.4180838946176386,,,0.6097226960127671,inf,,,0.9469547747299536
103,,0.0,0.0,1.2389794974830919,1.2103606954830748,0.8189354374045266,0.1296903946905047,0.2037979704778088,,,0.6309483474627791,inf,,,0.7874683497356157
104,,0.0,0.0,0.9370635137142627,0.9036266797247442,0.788285616512229,0.23219172717190945,0.3254912159962897,,,0.6528756675646988,inf,,,0.8333998483243739
105,,0.0,0.0,1.1963943119489497,1.1718335188274724,0.7830327004406228,0.13480571969002034,0.20181263604910338,,,0.6233814453054027,inf,,,0.7905552766143064
106,,0.0,0.0,1.1842810108061625,1.1493368919880296,0.8315373519253283,0.1505451621382323,0.22547788649062186,,,0.6097226960127671,inf,,,0.7851469211633356
107,,0.0,0.0,0.10696905971831198,0.07573505558866503,0.3642878741026596,0.2602547030650875,0.30603155858660613,,,0.6008849035917525,inf,,,0.6944836405114845
108,,0.0,0.0,0.9664703191638032,0.9345807750918286,0.8601840601586741,0.7078161089501068,0.8500464786316693,,,0.6528756675646988,inf,,,0.7587436916522872
109,,0.0,0.0,1.514075738499444,1.5116544080365968,0.8880349297248308,0.7660218983785995,1.1171005270265224,,,0.6180765742263259,inf,,,0.8602909074330151
110,,0.0,0.0,1.4995676858500582,1.4885014040196172,0.8597771003238277,0.5794906912326616,0.8220335429770591,,,0.5677978065141052,inf,,,0.7943007874108848
111,,0.0,0.0,0.15643652800837793,0.13496100400112604,0.34877459072557926,0.37287412720720586,0.3721515251886789,,,0.6153451465759925,inf,,,0.9229443681033722
112,,0.0,0.0,1.5603650086912348,1.5390324036112206,0.7886064903772984,0.14722344113487085,0.24442223039933575,,,0.6068309995095971,inf,,,0.801796071589003
113,,0.0,0.0,0.407710450922397,0.36660756637021563,0.7975685553335599,0.24107965375729312,0.3106818695726631,,,0.6038851895711802,inf,,,0.9240872626307096
114,,0.0,0.0,0.9224327563061533,0.9278494964587413,0.709751416805651,1.872229505622885,1.1212668861000086,,,0.6153451465759925,inf,,,0.9282701371973572
115,,0.0,0.0,1.0831894921156586,0.972970843280258,0.7382538415817584,1.6333476691178435,1.5935100625976955,,,0.5783247308855777,inf,,,0.8699986909405816
116,,0.0,0.0,0.3943472455130873,0.3602214051806477,0.6892307011468349,0.6665750900760496,0.5855078741919983,,,0.6403206450210053,inf,,,0.9531591675124397
117,,0.0,0.0,0.9776067592819375,0.9668739110878398,0.8345633168703037,0.5666210465538718,0.5998035483252774,,,0.6425374456860184,inf,,,0.7354321848184532
118,,0.0,0.0,0.9056543452578326,0.8493415477164047,0.7285425805759196,1.0691470373923346,1.230940003096765,,,0.5783247308855777,inf,,,0.917842044402778
119,,0.0,0.0,0.5601398370994604,0.5379526624635566,0.7138853823217503,0.5911083125286642,0.48286243543912255,,,0.6180765742263259,inf,,,0.9359177821503072
120,,0.0,0.0,0.7392344656010718,0.7050588009963411,0.6708744561639769,0.625919303779488,0.8406613227917222,,,0.6528756675646988,inf,,,0.9167892802199423
121,,0.0,0.0,0.5335829578177741,0.49405274700983387,0.5966276541184673,0.7105588489556524,0.8766994324168362,,,0.6357360191111145,inf,,,0.9029843686968666
122,,0.0,0.0,0.8378337609322665,0.8293088370893669,0.7926621290475704,0.28454640440191525,0.4139698569442814,,,0.6207552362147116,inf,,,0.7617819790856416
123,,0.0,0.0,1.5548160736217025,1.5268424142638533,0.8745723271667541,0.18691638766000393,0.3375616902964721,,,0.6097226960127671,inf,,,0.8127132788940795
124,,0.0,0.0,1.5204766915509191,1.4801451184024634,0.8846154189221707,0.2099102022593732,0.33168798935602783,,,0.5748741956352443,inf,,,0.8398233501124736
125,,0.0,0.0,1.3639771917864072,1.3494267396012276,0.8339172569178416,0.2284152490351195,0.35638210488490996,,,0.6068309995095971,inf,,,0.8271625684823082
126,,0.0,0.0,1.4723753866215181,1.437269625877578,0.832996529526934,0.12675641268469048,0.21455233591782677,,,0.6153451465759925,inf,,,0.738945124517088
127,,0.0,0.0,1.442308072844657,1.4032361277153378,0.8680823406697924,0.14424486431929778,0.23499511998819622,,,0.6068309995095971,inf,,,0.7604415821867961
128,,0.0,0.0,0.6051095568865799,0.5487526282054015,0.6646407479030809,0.700034681030825,0.5722430011293799,,,0.6180765742263259,inf,,,0.8887599291064282
129,1.3910764199464842,-0.06027997819768099,0.0,1.1929089788590304,0.9929774669345534,0.7594033922818388,1.8457248921814995,1.334203629968851,,,0.6180765742263259,4.126179285742119,inf,,0.6543698081739147
130,0.5503598770494983,-0.03982212689673454,-0.004206663267225318,1.5978028963086188,1.5857033496749453,0.8813960204930439,4.668740694530904,14.04808434158793,4.107548130244901,,0.6619902821573977,2.8744984087398744,4.090415284082211,inf,0.6738275082273711
131,1.0362978190109442,-0.05872354307728684,0.0,1.138861387829061,1.1231170420983227,0.7702820451389731,4.442933695719685,8.52213652304929,,,0.6447042257417027,3.633970481952208,inf,,0.9367018006059962
132,1.0460070010303664,-0.09065394008929842,0.0,1.4899388532730105,1.4733667042095655,0.8512671973342558,5.183294755224406,7.006111773873147,,,0.6668815377411301,3.103812533748989,inf,,0.9113413072311752
133,1.0218380272394154,-0.06471640839182964,0.0,1.5794875327838453,1.5396326783791696,0.8808259960066187,4.528180893825945,6.666144577499742,,,0.6509067234006624,3.4914868530096164,inf,,0.8646673058996646
134,0.25704510298989114,-0.0008568170099663038,0.0,0.7593445932448524,0.6972086415197719,0.6072117883144525,0.8372577403393793,0.7311966130276468,,,0.6207552362147116,5.960827577646092,inf,,0.8626757039179447
135,,0.0,0.0,0.3476184827122292,0.23965849225740046,0.43302512360475687,0.619238820360227,0.5337818669817267,,,0.6309483474627791,inf,,,0.9394228457227227
136,,0.0,0.0,0.728084702631036,0.6860615301743124,0.7512240458175081,0.43647316918011736,0.5589190240751813,,,0.6357360191111145,inf,,,0.8848872719959167
137,,0.0,0.0,0.20815691547802762,0.18393570983840435,0.5187183820349481,0.47807655476719807,0.5446214691864899,,,0.62595550513784,inf,,,0.9052946411464261
138,,0.0,0.0,1.3908193426323245,1.3713311897896667,0.893358115857507,0.35845961999618936,0.481665250987821,,,0.6309483474627791,inf,,,0.773474510750023
139,,0.0,0.0,1.1497665235906722,1.1408945656847134,0.9003533884242402,0.38647988768259617,0.5124909644370567,,,0.6468212168108125,inf,,,0.8410775438407122
140,,0.0,0.0,0.55811228216695,0.49978419254962525,0.7366472662944923,0.8184624450372988,0.7340421671882664,,,0.5641709578113449,inf,,,0.9463404386334677
141,,0.0,0.0,0.6983511422120023,0.6532220413828644,0.8367036213222044,1.7268916368741298,1.538361525582064,,,0.5947193981915972,inf,,,0.9453171605722216
142,,0.0,0.0,0.589580053750693,0.5102244103536864,0.717163432356722,0.5949078693788925,0.45311626889615886,,,0.6380535849069913,inf,,,0.9448169519216887
143,2.9311937524164198,-0.009770645841388067,0.0,0.45437131562253136,0.41847650744039044,0.725581333181198,2.2266598867618503,1.615215943838407,,,0.581717464821069,8.63497622707262,inf,,0.8170339393956566
144,,0.0,0.0,0.3980663047016575,0.32177799464924633,0.5221006815469014,0.43815046796627066,0.31432087408528253,,,0.6547956803312163,inf,,,0.9108418983050032
145,,0.0,0.0,1.3899653972079897,1.3227276276084945,0.9274656464880688,0.2639527107142951,0.3934368127586707,,,0.6125606311107803,inf,,,0.8331306873062491
146,,0.0,0.0,1.558777558731324,1.541265680910278,0.8645822235204413,0.41173684651829345,0.5621448982679403,,,0.6008849035917525,inf,,,0.8401622340760913
147,,0.0,0.0,1.4416777108415881,1.4194423956518396,0.7989768562210987,0.3405401389813269,0.5123604639271037,,,0.5883313578629602,inf,,,0.8052040069231482
148,,0.0,0.0,1.5759537424776295,1.5613914071586943,0.7268300151681769,0.3201391797438069,0.4977247095485378,,,0.5677978065141052,inf,,,0.844186399419782
149,,0.0,0.0,0.34582804303842074,0.2532305775493506,0.5626609810266519,0.6987794370965627,0.6271335538355831,,,0.6097226960127671,inf,,,0.9376925252355051
150,,0.0,0.0,0.2968598972146867,0.25931765258076295,0.675952844402332,0.5515174196605687,0.6235001596005835,,,0.6125606311107803,inf,,,0.9529370736430287
151,,0.0,0.0,0.22490934442804392,0.17657488713543865,0.6592368178070412,0.5553061442095053,0.5609297296987544,,,0.6180765742263259,inf,,,0.9530768824630264
152,,0.0,0.0,0.7000132801019895,0.581582937430072,0.6088778735345037,1.0008098787160533,0.6093452751759123,,,0.6357360191111145,inf,,,0.9549092704940743
153,,0.0,0.0,0.6293603308698391,0.47419164650398216,0.6736937568708026,0.9266105372861373,1.01552014595089,,,0.6068309995095971,inf,,,0.8990360706285481
154,,0.0,0.0,0.5391864043560664,0.4840722893983229,0.656711471209581,1.3972387165396298,1.2729884683386097,,,0.6125606311107803,inf,,,0.9398715946648906
155,,0.0,0.0,0.6848076388013258,0.6772428689232133,0.7632505458560593,1.8954846651569637,1.6495121090198648,,,0.6068309995095971,inf,,,0.7076580679276341
156,,0.0,0.0,0.6332365275958795,0.5909962959315539,0.6193303847583603,2.4159707132086274,1.903135485424868,,,0.6425374456860184,inf,,,0.9571006861396895
157,,0.0,0.0,0.5505568646971462,0.46447802446056513,0.6508247601962501,1.4703642360380558,1.3331996525436436,,,0.6357360191111145,inf,,,0.75215053677664
158,,0.0,0.0,1.2765413833721206,1.251030750363748,0.658514387611987,2.1913860749575744,1.9440159618307726,,,0.6233814453054027,inf,,,0.9506929949326629
159,,0.0,0.0,1.1347774115640672,1.1207846672302682,0.8236601997160069,2.1398787028236423,1.9231815746105285,,,0.648888643467878,inf,,,0.9533449303781201
160,,0.0,0.0,0.77266690034165,0.7362979658027349,0.7776631430324449,1.1186200799023005,0.8437427590085531,,,0.6403206450210053,inf,,,0.9474632126331392
161,,0.0,0.0,1.0766288572630205,1.0169205714204879,0.8152846478982386,2.6103548135047423,2.359279190409536,,,0.6668815377411301,inf,,,0.9360002309963251
162,,0.0,0.0,0.8785500324674758,0.8326863905814953,0.7386592426395895,2.4070380594627796,2.074772640666897,,,0.6284777104787076,inf,,,0.9330364706754927
163,,0.0,0.0,1.1529490180600883,1.0989723334088328,0.7588035078382457,2.102055890324112,1.3951563713662103,,,0.648888643467878,inf,,,0.9307807090341226
164,,0.0,0.0,0.9258913971769452,0.9101655065961338,0.7233461957633907,2.297507818771511,2.0341897304308882,,,0.6468212168108125,inf,,,0.9531317008156761
165,,0.0,0.0,1.3016210801915382,1.2852970608618106,0.8920003987171026,2.1323855400848064,1.8171596718510354,,,0.62595550513784,inf,,,0.9468760033665635
166,,0.0,0.0,0.9119246233805115,0.8965117037013048,0.8277299974409874,2.115584233768718,1.692308477649342,,,0.6038851895711802,inf,,,0.9437405869141053
167,,0.0,0.0,1.2976740929096588,1.273462563203766,0.7993348693205962,2.0209598919522223,1.545736822783104,,,0.6403206450210053,inf,,,0.9438091059166775
168,,0.0,0.0,1.2124615936041123,1.1756596643008455,0.8071402117798651,1.6664470402752547,1.1223861804665325,,,0.6447042257417027,inf,,,0.9453005302292442
169,,0.0,0.0,1.1426558173130035,1.1121282731342235,0.8403273516456651,2.2543917532936435,2.087569648153555,,,0.676637947632344,inf,,,0.9484526660068852
170,,0.0,0.0,1.0317237264684112,1.0062339217967107,0.7267184307814731,1.7080754741236976,1.4253957639981956,,,0.6699045166045591,inf,,,0.9543644746495978
171,,0.0,0.0,1.026039190756644,1.00232345427406,0.7769603068346591,1.7582324162202445,1.3965662054723957,,,0.6619902821573977,inf,,,0.9529645429442338
172,,0.0,0.0,0.552371288736648,0.5240879052588941,0.6778773380690902,1.5573883055574362,1.5153994366430052,,,0.6309483474627791,inf,,,0.9497508568633312
173,,0.0,0.0,0.867573460837808,0.7994977227407227,0.8019559955918824,1.1795278742646975,1.1545277157151033,,,0.6468212168108125,inf,,,0.9434450074800595
174,,0.0,0.0,1.0412659862962754,1.0145173186239005,0.8940231833239636,1.6463944518887998,1.55612036812672,,,0.6097226960127671,inf,,,0.9493476440722941
175,,0.0,0.0,0.6423316884578254,0.6127598653470988,0.8000042254751148,1.4161375035970198,1.134177912840906,,,0.6309483474627791,inf,,,0.9219861537251924
176,,0.0,0.0,0.9521916441075043,0.8924289809080409,0.8265066905719382,1.2954356000280645,1.151750645314934,,,0.6180765742263259,inf,,,0.9166029494609805
177,,0.0,0.0,0.7988973478089479,0.7703151297463158,0.7319483158643528,1.2249822722817316,0.8317968395811617,,,0.6547956803312163,inf,,,0.9459489974794082
178,,0.0,0.0,0.5720629391543259,0.5314647305262641,0.7927551559079947,0.830514540232837,0.72214381357469,,,0.5978297680564633,inf,,,0.926890032555723
179,,0.0,0.0,0.45532982386116677,0.42229532143236465,0.796173839816726,0.6562685744764788,0.4948845219777106,,,0.552929491858785,inf,,,0.947156761323665
180,,0.0,0.0,0.7755392419689652,0.7410987464014253,0.6602844107591881,1.3888548758202157,1.0313429874281306,,,0.6357360191111145,inf,,,0.9451594695852008
181,,0.0,0.0,0.4444379338012615,0.37534859632886175,0.7046370610709057,0.5105140859649887,0.46364910107990165,,,0.675384900321601,inf,,,0.8729922670135373
182,,0.0,0.0,0.7875107305611536,0.7306803403524528,0.6711261705630296,0.7964658476539069,0.4893558778741942,,,0.6380535849069913,inf,,,0.8460222720248569
183,,0.0,0.0,0.5997848104311647,0.5290984566234912,0.7694221555970993,0.6263849231790933,0.4185538525739745,,,0.6357360191111145,inf,,,0.8463068988130102
184,,0.0,0.0,1.0597642879781133,1.0108471919713486,0.8120323000227262,1.4058232284632062,1.1936518092938138,,,0.6447042257417027,inf,,,0.9426778929273487
185,,0.0,0.0,0.7682729034384588,0.7362555557587537,0.8079880641114198,1.2008437532326317,1.0102984059259223,,,0.6403206450210053,inf,,,0.9492207965418199
186,,0.0,0.0,1.1137491040742271,1.0921059374617945,0.7207951907092832,1.5269956134040013,1.5430425787814146,,,0.6509067234006624,inf,,,0.9299703939271584
187,,0.0,0.0,0.9382434856715688,0.8928469915859564,0.7574452014387301,2.0082105832991126,1.7007185055635912,,,0.6038851895711802,inf,,,0.9363425230637836
188,,0.0,0.0,0.9709696782581341,0.9317378728455917,0.7806730216753489,1.2273877166521328,0.9133249479219281,,,0.6207552362147116,inf,,,0.951597880936373
189,,0.0,0.0,0.569813173141393,0.5482875887621146,0.6344558411470775,1.0466661240661366,0.6793917283225241,,,0.6309483474627791,inf,,,0.9466171438178439
190,,0.0,0.0,0.9779073655595376,0.8974292502606492,0.7846264243997463,1.114304930193286,0.698032499638521,,,0.648888643467878,inf,,,0.954812789482274
191,,0.0,0.0,0.9339242413807923,0.8935162307103169,0.8354075170339222,1.7645136047518062,1.1457323410089102,,,0.6602640781246099,inf,,,0.9488590117851703
192,,0.0,0.0,1.0908113423911467,1.0535788553439949,0.7628070903292535,1.9228485411374412,1.2540339740934747,,,0.6207552362147116,inf,,,0.9402074169547054
193,,0.0,0.0,0.9344603604254831,0.8852369666169639,0.6756931174398368,1.4419919764268836,0.9681631616441293,,,0.6153451465759925,inf,,,0.951863973778027
194,,0.0,0.0,1.0727546528991239,1.0450509138378994,0.6756683856842621,1.9644268020540274,1.441328294936887,,,0.6584896970785714,inf,,,0.7856011694324748
195,,0.0,0.0,1.0941847521709325,1.078777308415115,0.8627198706138131,2.4820199220793966,1.8172661174402696,,,0.6584896970785714,inf,,,0.9054386184497156
196,,0.0,0.0,1.073780595349023,1.048950999700132,0.7857432286349213,2.1153181930396308,1.6995327949727295,,,0.6403206450210053,inf,,,0.9507708223868427
197,,0.0,0.0,0.9029237615992504,0.8321255435340474,0.8294432698115092,1.26700025566748,1.0197748478052828,,,0.6468212168108125,inf,,,0.9445375279277188
198,,0.0,0.0,0.8335679647854355,0.7689294221883336,0.7631585506614169,1.8657087263400718,1.475443066271375,,,0.6425374456860184,inf,,,0.9482270906345559
199,,0.0,0.0,0.8221889605404497,0.8040065846677185,0.8230532182867468,1.5848677821447263,1.2264642133919763,,,0.6778444222523095,inf,,,0.9551106765076238
200,,0.0,0.0,1.09718341029843,1.0521754920802564,0.906866514151518,2.0898854057674323,1.5780288175218287,,,0.6727386042041725,inf,,,0.9565240417892634
201,,0.0,0.0,0.6741085607766101,0.5791070386252947,0.7317000890677091,0.7357516222527486,0.6252310211835095,,,0.6547956803312163,inf,,,0.953183099745668
202,,0.0,0.0,0.6614794946786453,0.646768179597889,0.8565124116521954,1.3703308581730813,1.0382918536965349,,,0.6699045166045591,inf,,,0.9450388313524749
203,,0.0,0.0,0.7778094825157598,0.7502015923111544,0.8419727207799539,1.1543976559430569,0.7789496628022021,,,0.648888643467878,inf,,,0.9518027267423961
204,,0.0,0.0,0.804843337636476,0.7113639962541696,0.7794568239051798,1.6145059094574419,1.2599193858141138,,,0.6602640781246099,inf,,,0.826120932628383
205,,0.0,0.0,0.9059227432756757,0.8554363381580926,0.7489075028432607,1.3840798160923773,0.8566036383967015,,,0.6528756675646988,inf,,,0.8222485756516882
206,,0.0,0.0,1.0907996811449125,1.0393237825966104,0.8608634921113579,1.6281053126813172,1.1292788714857431,,,0.6547956803312163,inf,,,0.8934866512227957
207,,0.0,0.0,0.9146440968128269,0.8686758904834037,0.7757129942920792,1.751896392442763,0.997543576423028,,,0.6357360191111145,inf,,,0.9455069536765311
208,,0.0,0.0,1.0235041779857617,1.013595632053313,0.8079010425727752,1.6352912791337642,1.1205634305291752,,,0.6468212168108125,inf,,,0.9478366691584165
209,,0.0,0.0,1.0652333697136278,1.0239969850904296,0.7495232484261926,1.5367401928587239,1.0193327771374823,,,0.6684167106117298,inf,,,0.9526292469249645
210,,0.0,0.0,0.9449890764603579,0.9040943840853441,0.7885436361302748,1.997414966083532,1.3628009725820587,,,0.663668482632973,inf,,,0.9323220966300183
211,,0.0,0.0,1.010772484754113,0.985298362393395,0.8007433454993294,1.543528609655452,1.053325913262976,,,0.6425374456860184,inf,,,0.9530249647615509
212,,0.0,0.0,1.0725256400471708,1.0460525298868082,0.7508627179131824,1.730442859338503,1.1189806845549435,,,0.6284777104787076,inf,,,0.9260628657350392
213,,0.0,0.0,1.0794457914402822,1.0421204952576133,0.8969685709458026,1.5498605358923538,1.2886881547390432,,,0.6652988471865258,inf,,,0.8738140638301598
214,,0.0,0.0,1.0675591861546108,0.9757449060327966,0.7682551797539824,1.9227569633971782,1.3787153940540497,,,0.6357360191111145,inf,,,0.68106973079369
215,,0.0,0.0,0.7593150271340132,0.7014567420605403,0.802297297703575,1.2189880486033988,0.7955651421056313,,,0.6584896970785714,inf,,,0.9579648196187586
216,,0.0,0.0,0.8537088501019131,0.8215994829083162,0.8153776327966796,1.5409145947686134,0.8803660988355444,,,0.6668815377411301,inf,,,0.9520340328089117
217,,0.0,0.0,0.735367700774395,0.6604841027813947,0.8052915058713046,1.2690311893327124,0.8777391837839295,,,0.6233814453054027,inf,,,0.95401970132481
218,,0.0,0.0,0.6454009924695305,0.6516989701343718,0.7658654534770507,1.4560373658807289,1.0936675703991603,,,0.6447042257417027,inf,,,0.9436856342351486
219,,0.0,0.0,0.6864700843105814,0.6553200952033623,0.8851287444558238,1.161121197709985,0.8627609542841319,,,0.6403206450210053,inf,,,0.9361856491108402
220,,0.0,0.0,0.8116918022859907,0.7839828178773883,0.847378077770932,0.7894312560647403,0.611021122553225,,,0.6509067234006624,inf,,,0.9213318177721855
221,,0.0,0.0,1.0634186703013881,0.9802910840749622,0.7524471640634365,1.764476345183758,1.082383358783456,,,0.62595550513784,inf,,,0.9440524288465894
222,,0.0,0.0,0.5142569814321251,0.48409251809063236,0.8302241536479333,0.7294476152988467,0.5416231206775568,,,0.6425374456860184,inf,,,0.8575522897360205
223,,0.0,0.0,0.5299330196929408,0.47689798715713616,0.768849851233239,0.6827688931822935,0.5895827065365948,,,0.6403206450210053,inf,,,0.9503731062745631
224,,0.0,0.0,0.8351604235913116,0.7268309243639498,0.8607789087718,0.8372586794537293,0.5923756442895329,,,0.6652988471865258,inf,,,0.9556637085652185
225,,0.0,0.0,0.5954951815423586,0.5496257251782417,0.8356778686517214,0.4503540959613906,0.3967596032973859,,,0.6309483474627791,inf,,,0.9348721148869787
226,,0.0,0.0,1.076206644462649,1.0184188613851342,0.7414092093449431,1.0223708990478568,0.7077395960866157,,,0.6668815377411301,inf,,,0.9494859180213208
227,,0.0,0.0,1.0729635143117915,1.0533466781628034,0.8522250912420399,0.5388527418293731,0.5582460105576356,,,0.6357360191111145,inf,,,0.8687989241619843
228,,0.0,0.0,0.874829661148802,0.825814630379926,0.7676156554688419,1.3806870777506295,0.9726052989244498,,,0.6602640781246099,inf,,,0.956640297446288
229,,0.0,0.0,0.6573775677121225,0.5993833648941096,0.8318809164115895,0.737533235606904,0.603785426572347,,,0.6207552362147116,inf,,,0.9552774184441759
230,,0.0,0.0,0.9211306473456188,0.8792765773731929,0.8713800717031018,0.7029908132868835,0.5979453030863997,,,0.6425374456860184,inf,,,0.9544739330841373
231,,0.0,0.0,0.7390259693629561,0.7317723896698006,0.7323257507784056,0.5022887656460638,0.4041191620303467,,,0.6207552362147116,inf,,,0.9556059059172957
232,,0.0,0.0,0.27979550255740415,0.24157484538361518,0.777849230246063,0.6131145885454197,0.5612779766344718,,,0.6425374456860184,inf,,,0.9469361247406626
233,,0.0,0.0,0.6707466747781011,0.654478396790534,0.8140387513058718,0.8695369930051078,0.6252241090046142,,,0.6309483474627791,inf,,,0.9467191405001683
234,,0.0,0.0,0.7403973050846993,0.7106676554370505,0.6835179067176783,0.8980260891405911,0.6831826070750203,,,0.6619902821573977,inf,,,0.9593756860227468
235,,0.0,0.0,0.9497931735721639,0.9230046536468074,0.8418209084551249,0.9234904646858083,0.7413775308014787,,,0.6284777104787076,inf,,,0.9450760785592935
236,,0.0,0.0,0.6965325102447901,0.6772707577145914,0.7419359126786139,0.8350858760858805,0.6432426894880158,,,0.6713451011121618,inf,,,0.9155893130350327
237,,0.0,0.0,0.8947514027970092,0.8740880555424293,0.8636802312468909,1.3157814036639774,0.9322096090100673,,,0.62595550513784,inf,,,0.912869058888799
238,,0.0,0.0,0.899382692782354,0.8529297675944013,0.7806090047418913,0.9264353847179846,0.6284159702303005,,,0.6425374456860184,inf,,,0.8765060665767159
239,,0.0,0.0,0.6663125339730381,0.6176157598174651,0.8720072319909161,0.741649643708502,0.5801016672628534,,,0.6333676938231112,inf,,,0.9567312466574013
240,,0.0,0.0,0.6913086147457197,0.6738942675692774,0.7757912547133528,0.769283992697563,0.49602194711489234,,,0.6153451465759925,inf,,,0.9547945706216532
241,,0.0,0.0,0.4277650560724663,0.41888220291140366,0.6808584399443351,0.28190249533177114,0.25327509720160174,,,0.6207552362147116,inf,,,0.8641860402607738
242,,0.0,0.0,0.7008683698025733,0.6574933155931022,0.6476080254969891,1.2380990165751602,0.7962552318710094,,,0.675384900321601,inf,,,0.9541686131847091
243,,0.0,0.0,0.6502376657464757,0.5624656384269029,0.8836270265781054,1.0832008648109124,0.7467736103109288,,,0.648888643467878,inf,,,0.939268642926622
244,,0.0,0.0,0.6293254257153009,0.6077180256506847,0.7558397924715704,0.5945239018198375,0.5508724764317879,,,0.648888643467878,inf,,,0.9528849296663803
245,,0.0,0.0,0.4108355719301386,0.3717489576945466,0.5777200468680528,0.3933285216532141,0.3606841816738798,,,0.6425374456860184,inf,,,0.9550943902064764
246,,0.0,0.0,0.2516641926927463,0.21475987350741246,0.7663947488302971,0.4056818582027687,0.35630928069839124,,,0.6284777104787076,inf,,,0.9477609341843021
247,,0.0,0.0,0.8155796131603353,0.7899896810335872,0.9254257236720115,0.6295491576329936,0.6045167979796702,,,0.6233814453054027,inf,,,0.9511602630765739
248,,0.0,0.0,0.6482795159609337,0.5888181412477732,0.8869844231209862,0.8253337023441284,0.7730167522722241,,,0.6425374456860184,inf,,,0.9482182431551662
249,,0.0,0.0,0.850098500517831,0.8027474396360348,0.8365687965741614,1.130209099441554,0.917844299272526,,,0.6380535849069913,inf,,,0.9486316036419622
250,,0.0,0.0,0.7332749294060517,0.7096544866091341,0.8336023388918445,0.794244157520082,0.6241089433832859,,,0.5915533975974677,inf,,,0.9445349971333078
251,,0.0,0.0,0.9180232616456097,0.8888413694700292,0.8077391890199969,1.4825232603190226,1.2116431456888186,,,0.6097226960127671,inf,,,0.957690449396088
252,,0.0,0.0,0.7166830871280968,0.6733699415613944,0.8149838587729668,1.0608055274006873,0.8346563977312988,,,0.6468212168108125,inf,,,0.954730916962094
253,,0.0,0.0,0.9200658054688564,0.8461059324141638,0.8336577733759718,1.5848092895007948,1.015122978894233,,,0.6509067234006624,inf,,,0.9564204454565903
254,,0.0,0.0,0.763462162184128,0.6762261045240217,0.8110513131676959,0.8789429462339549,0.5993488890970418,,,0.6602640781246099,inf,,,0.949555231745091
255,,0.0,0.0,0.707451829094202,0.6808466654117545,0.8444997315598174,0.9097713507099612,0.7488472899163303,,,0.6468212168108125,inf,,,0.9388964776765618
256,,0.0,0.0,0.9048323787557848,0.8462852130580485,0.8181244004701269,0.720667721335067,0.5708097390630688,,,0.6447042257417027,inf,,,0.9279754606362397
257,,0.0,0.0,0.32690308098251686,0.30456832059891387,0.8564397945124248,0.5713050169898122,0.554009550962619,,,0.6425374456860184,inf,,,0.9590337505196134
258,,0.0,0.0,1.087306731468647,1.079973500765497,0.8286014994283485,1.2657712700602162,1.0658940591563764,,,0.6380535849069913,inf,,,0.8797026810857116
259,,0.0,0.0,0.9839367132759632,0.9437794000649206,0.8043283662651525,1.3420731372784436,1.051715456958539,,,0.6602640781246099,inf,,,0.9196147872727337
260,,0.0,0.0,0.9622910058934604,0.8963626073081361,0.7242410740191219,1.3795142009348955,0.8695472380155749,,,0.6180765742263259,inf,,,0.9349358790490825
261,,0.0,0.0,1.147125832300057,1.10367360074556,0.7457599813814664,1.519150518297564,0.8794114378395825,,,0.6425374456860184,inf,,,0.9449923420284959
262,,0.0,0.0,0.9211656672378544,0.8867934725474685,0.8112426970786493,1.339378447028979,0.9376199397777834,,,0.6547956803312163,inf,,,0.9385586392389136
263,,0.0,0.0,0.9438321781142025,0.9006331719054999,0.7607697909908426,1.385675184278727,0.8115069034755198,,,0.6509067234006624,inf,,,0.9470122087035594
264,,0.0,0.0,1.021378671327055,0.978414270715074,0.8032659234665055,1.411838884014866,0.694484849007196,,,0.6468212168108125,inf,,,0.9509707824805229
265,,0.0,0.0,0.49554769976450325,0.45720749891520057,0.7851057900870575,0.9034563699260154,0.7143769491414057,,,0.6547956803312163,inf,,,0.957250000148797
266,,0.0,0.0,0.941884681339701,0.878454571300676,0.8748047134971952,1.332764116465469,0.8269992988900614,,,0.6509067234006624,inf,,,0.9492829393073592
267,,0.0,0.0,1.023371292513272,1.0138565891741527,0.7335392831113525,1.5438128701504277,0.9031486526729895,,,0.6619902821573977,inf,,,0.9514182855807317
268,,0.0,0.0,0.9638682471517015,0.9447895523482955,0.8679094661969711,1.4988474160483858,1.2260851286841115,,,0.6284777104787076,inf,,,0.9505676565112859
269,,0.0,0.0,0.8402669236639919,0.8171535937878129,0.8707617841501101,1.339301206911458,1.1659136151005338,,,0.648888643467878,inf,,,0.9536576458084466
270,,0.0,0.0,1.204030569260018,1.1596059623483501,0.8896221668259875,1.7878035258280554,1.192403416895898,,,0.6403206450210053,inf,,,0.9521875528108761
271,,0.0,0.0,1.0662100245736594,1.0690798748480161,0.8190137983888045,0.9072186594866537,0.6753726996292562,,,0.6008849035917525,inf,,,0.9525314139954387
272,,0.0,0.0,0.45309308030322704,0.39637635115073827,0.6717235051245177,0.6018121049135869,0.46660645813243373,,,0.6684167106117298,inf,,,0.9492903224851752
273,,0.0,0.0,1.0594721664166484,1.0029043730621057,0.8686050924319876,1.0994102910426184,0.6866359566721774,,,0.6509067234006624,inf,,,0.9311714707271924
274,,0.0,0.0,0.7928151339896161,0.7094640581266445,0.8713105624904957,1.4834139826679493,1.246615152152392,,,0.6584896970785714,inf,,,0.9297773963333263
275,,0.0,0.0,1.2461022603356577,1.2142828883079309,0.7128874936768029,1.5215269966637572,1.0482623854470927,,,0.6740851607140061,inf,,,0.9531487890008327
276,,0.0,0.0,0.9939162711537939,0.9487528511222094,0.8116801820853786,1.693239022715099,1.0753535118528026,,,0.6284777104787076,inf,,,0.9336584026719306
277,,0.0,0.0,0.7914909569898226,0.742030830071877,0.8558733959709893,1.5038706119862533,1.0760234019305401,,,0.6528756675646988,inf,,,0.9220131702561848
278,,0.0,0.0,1.0579141403946883,1.0410377705050387,0.8876948391271026,1.729154355587953,1.7149338544522372,,,0.6447042257417027,inf,,,0.9545257785117406
279,,0.0,0.0,0.7679091960976014,0.744616873447465,0.7920715467978848,1.9952310394785828,1.965206339135541,,,0.6547956803312163,inf,,,0.9525448942439613
280,,0.0,0.0,0.870190040668285,0.8276953112520277,0.8334476896720775,1.513715214338122,1.0983688013116601,,,0.6740851607140061,inf,,,0.9462078075350319
281,,0.0,0.0,0.5416983555092005,0.5106436901675772,0.8793058444434335,1.346291835594825,1.1720505764334808,,,0.6284777104787076,inf,,,0.9275807883347229
282,,0.0,0.0,1.0652276608187916,1.0652126389136123,0.8302274536329631,1.3459826740710492,1.2254507847367246,,,0.6284777104787076,inf,,,0.9147290291449345
283,,0.0,0.0,1.0135213281333426,1.0145358315087976,0.8547188441024576,1.2052793117997054,0.8908870456305273,,,0.6153451465759925,inf,,,0.917870871245155
284,,0.0,0.0,0.792280490214389,0.760326794723161,0.7908364256036615,1.3207766500456555,1.0319196229425278,,,0.6602640781246099,inf,,,0.923703354455853
285,,0.0,0.0,0.7935573332666735,0.7580222034081433,0.7154169693532728,1.1110718560646553,0.8617839287835312,,,0.6468212168108125,inf,,,0.9540209244489986
286,,0.0,0.0,1.1940303755381998,1.1467326768418347,0.7959516791206616,1.6290699120967573,1.38575452015371,,,0.62595550513784,inf,,,0.8880030711658409
287,,0.0,0.0,0.9312590044819112,0.9141958222777891,0.8820810222780671,1.7125573196218338,1.5776963328136975,,,0.6447042257417027,inf,,,0.8814017279073687
288,,0.0,0.0,0.5339629113374911,0.4803166150537465,0.7412258026061866,1.2564157805228717,1.1994830685233762,,,0.6180765742263259,inf,,,0.9458276808441438
289,,0.0,0.0,0.5069361977805473,0.4654399046722064,0.7004059738711758,1.1621295451887907,0.9063882070805309,,,0.6233814453054027,inf,,,0.9554599345976953
290,,0.0,0.0,0.2772338192589956,0.24157706209249313,0.7161859901342607,0.5550613166844649,0.4573613137966087,,,0.6447042257417027,inf,,,0.9158481729562252
291,,0.0,0.0,0.736220380971645,0.7228103540875471,0.7103389228164159,0.6825326072786229,0.7421386930525169,,,0.6153451465759925,inf,,,0.9057795528204386
292,,0.0,0.0,0.4996273533468646,0.46989704030972335,0.6473811182864306,1.2001478552229228,1.0518611614574525,,,0.648888643467878,inf,,,0.7106960820918599
293,,0.0,0.0,0.7282320564728826,0.6996448729099537,0.8612155439085671,0.9595451670415444,0.8245301655787548,,,0.5978297680564633,inf,,,0.9311137694478803
294,,0.0,0.0,1.1183220705336447,1.0254116888227636,0.839030109865784,1.4759483170191703,0.9614147389527625,,,0.6425374456860184,inf,,,0.9522973525343322
295,,0.0,0.0,0.46562166212032446,0.43381131822707897,0.662455574918459,0.8601605222869398,0.6350509083115462,,,0.6125606311107803,inf,,,0.9367355662303667
296,,0.0,0.0,0.929324841653053,0.925734946021275,0.7992443188928149,0.8813473658251646,0.9170795610830739,,,0.6333676938231112,inf,,,0.9081723268806309
297,,0.0,0.0,0.6667141414025821,0.6164002724768913,0.7784587610379683,1.4719592409826832,1.3259263923480094,,,0.6309483474627791,inf,,,0.9391199586734686
298,,0.0,0.0,1.1347310539032778,1.108137804548422,0.7589649750685221,1.7251345322155462,1.4731272289693764,,,0.6468212168108125,inf,,,0.9443902300832618
299,,0.0,0.0,0.857808705148904,0.8296996525548112,0.5849617930744413,1.8433217395868722,1.5742414946761876,,,0.6528756675646988,inf,,,0.8438403784247798
300,,0.0,0.0,1.0513571612692116,1.0332888528081532,0.9069929041843112,1.258676393183615,1.0547562759073374,,,0.6233814453054027,inf,,,0.9226020782630223
301,,0.0,0.0,1.1898365435282854,1.0740584067453058,0.9249002106997022,1.612703612350917,1.2153969981612245,,,0.6509067234006624,inf,,,0.9245986135322507
302,,0.0,0.0,0.8794834326764669,0.8829634685202825,0.8737396556647362,1.6891323938370102,1.3608409862041868,,,0.6357360191111145,inf,,,0.9419597417642684
303,,0.0,0.0,0.9390037097028138,0.8982599666107484,0.8174849802134907,1.519698900618743,1.3541117536690799,,,0.648888643467878,inf,,,0.9192150070442625
304,,0.0,0.0,1.285719641847378,1.2848928192551463,0.865889153777574,1.7046702982394728,1.1637263062221317,,,0.6528756675646988,inf,,,0.9211055850505484
305,,0.0,0.0,1.0659251796278666,1.0459501398008109,0.8119601619860088,1.9472804789023093,1.8590337824803773,,,0.6357360191111145,inf,,,0.9502249001204679
306,,0.0,0.0,1.073328611779463,1.0550082234009022,0.8923670510919153,1.705728179174891,1.524993956124002,,,0.6309483474627791,inf,,,0.9342548956496514
307,,0.0,0.0,1.131674203582358,1.088474976081794,0.9076718415796917,1.9229900534394337,1.6980744107233088,,,0.6233814453054027,inf,,,0.9317611753503265
308,,0.0,0.0,0.9260613249375725,0.9071896368241001,0.754840191864905,2.048040048481404,1.8184013030683857,,,0.6547956803312163,inf,,,0.9507241278993094
309,,0.0,0.0,0.7150787496863529,0.6898818925348397,0.7620102942811626,1.651492814143896,1.3831676792220569,,,0.648888643467878,inf,,,0.9526495983789508
310,,0.0,0.0,0.9611886413662405,0.9428011432622546,0.8297995048403671,1.694632833209156,1.3766312344231686,,,0.6584896970785714,inf,,,0.9541829059580039
311,,0.0,0.0,0.7925199739824179,0.7358120864266378,0.8234394694609124,1.6317673784164421,1.2604565702812633,,,0.6528756675646988,inf,,,0.9374592047888484
312,,0.0,0.0,1.0932082024741274,1.044830194252874,0.8321172116151132,1.7273458989299433,1.4469376509748548,,,0.6447042257417027,inf,,,0.9302211204864291
313,,0.0,0.0,0.8883281416318176,0.8057517824135186,0.8201376186738547,0.5786306132804869,0.5082644115516425,,,0.6207552362147116,inf,,,0.8946386114832308
314,,0.0,0.0,0.8047543106487024,0.7107922905168108,0.7520713332685631,0.6087273828384461,0.4499390555847632,,,0.6097226960127671,inf,,,0.9564823427552183
315,,0.0,0.0,0.9843515757765555,0.949554457274159,0.7998675322855627,1.005861711392088,0.6871805669760035,,,0.6509067234006624,inf,,,0.9450014833157511
316,2.870569130599985,-0.009568563768666617,0.0,0.3715645354598,0.3601378947013546,0.4162793815945903,1.2334899907437067,1.092498187306794,,,0.6468212168108125,8.574351605256187,inf,,0.7283431954878278
317,,0.0,0.0,0.5707246735734858,0.512313940282306,0.7381836131445801,1.2159688303338396,0.9656619660291152,,,0.6284777104787076,inf,,,0.9511106731225076
318,,0.0,0.0,0.35339138236332307,0.291915731312265,0.8422341139038986,0.9841107429128508,0.8883613107531165,,,0.648888643467878,inf,,,0.9528562888254949
319,,0.0,0.0,0.43969846136430607,0.3815137188133756,0.7396626739103209,0.6813734918982588,0.5767809739108642,,,0.5748741956352443,inf,,,0.9567125190619601
320,,0.0,0.0,0.8228987015281385,0.7793275093108586,0.7122535356234329,1.0756401284710764,0.840839881811319,,,0.6528756675646988,inf,,,0.9293590729272003
321,,0.0,0.0,1.1347175820649436,1.1128025669468602,0.8554141034103832,1.4697093608403755,1.319307708727401,,,0.6333676938231112,inf,,,0.932813456828118
322,,0.0,0.0,1.2134418004466716,1.2150922104588384,0.772715570385548,1.378189557532159,1.378428918096112,,,0.6566669596287297,inf,,,0.9496001167422665
323,,0.0,0.0,1.0674116543494023,1.0457865655096505,0.7990179032446364,1.5313699550505475,1.356576859292773,,,0.6528756675646988,inf,,,0.9389718949060023
324,,0.0,0.0,0.8898885117987024,0.8560953779216388,0.8218914890996168,1.7316133836826373,1.783619685460093,,,0.6547956803312163,inf,,,0.928392421703312
325,,0.0,0.0,0.8682788131966228,0.837405487496238,0.8017175544198423,1.491020329125184,1.025563539612697,,,0.675384900321601,inf,,,0.9294704919231318
326,,0.0,0.0,1.0759672401937688,1.0425241903061722,0.8560900620562251,1.6002174000015674,1.2348440898598776,,,0.663668482632973,inf,,,0.9441481582345637
327,,0.0,0.0,1.2028547275776638,1.1594319732642306,0.8926995513265473,1.8340367056176594,1.4103657128739342,,,0.6447042257417027,inf,,,0.9226900067503613
328,,0.0,0.0,1.0910412696528369,1.085110884774793,0.9073970304308852,2.036228752778586,2.0371767047195792,,,0.6652988471865258,inf,,,0.8960011666792064
329,,0.0,0.0,1.2640454442490647,1.2015643023619484,0.9238112402637854,1.8281546557272708,1.427091557732361,,,0.6403206450210053,inf,,,0.9442353149025751
330,,0.0,0.0,1.352933667159704,1.3071444111915538,0.8799713065734016,2.1511734037524004,2.0552532593618844,,,0.648888643467878,inf,,,0.9281872267686193
331,,0.0,0.0,1.2548733371759324,1.23110149893707,0.8814339111061836,2.2697450087075297,1.9641759625819581,,,0.6403206450210053,inf,,,0.9338246217039102
332,,0.0,0.0,1.177436992259269,1.1308517546089931,0.7531203707520088,1.985897041739488,1.7888055195118606,,,0.6425374456860184,inf,,,0.951713015275268
333,,0.0,0.0,0.8446557095818498,0.7769189870109291,0.7956722666351062,1.7620686586727026,1.783684387912717,,,0.6566669596287297,inf,,,0.9467996226131353
334,,0.0,0.0,1.0639052373053823,1.0324233639866158,0.7457189735669731,0.9232851378989828,1.2804751550060676,,,0.6425374456860184,inf,,,0.9398410250623518
335,,0.0,0.0,1.7303270073960388,1.704670712535254,0.9436926348694824,0.8319991813007291,1.4323827876947273,,,0.5947193981915972,inf,,,0.8798491649096437
336,,0.0,0.0,0.7017015466021314,0.5949901053676733,0.6204493015709798,1.2260868260155093,1.4193625884692107,,,0.524519217297268,inf,,,0.7273549963216595
337,,0.0,0.0,1.726451648115095,1.7044638473672107,0.8859461566826203,0.8555678103380241,1.6214665490034155,,,0.6425374456860184,inf,,,0.880596906751685
338,,0.0,0.0,0.1868316548269977,0.1453853828933606,0.5483672537337656,1.089944607064743,1.5150837352621598,,,0.5947193981915972,inf,,,0.9512154696331623
339,4.020134559662964,-0.00773586839087231,-0.019065028673547448,0.8938340760627521,0.8271437356403963,0.5206858491934467,1.5078085042609415,1.137359771067564,3.394519579131126,,0.6425374456860184,8.006367567650246,3.4011973816621555,inf,0.821673268364304
340,,0.0,0.0,0.6688098371013642,0.6590297440178089,0.6110693485841855,1.185587751585596,1.4979840156339024,,,0.6038851895711802,inf,,,0.9501926419502228
341,,0.0,0.0,1.6737560276929253,1.6520773924199652,0.9112248592475691,1.155653645665479,1.6376295975406383,,,0.5947193981915972,inf,,,0.8839693666729224
342,,0.0,0.0,1.0548889172577387,1.0353335641212889,0.8755529944783642,0.6614822055781083,0.9209071378452164,,,0.5604843169999094,inf,,,0.8579611654737552
343,,0.0,0.0,1.7478893347464886,1.7328013458477298,0.9071260558811455,0.9101544235528181,1.5353836255762126,,,0.5713653840954815,inf,,,0.800379242233645
344,,0.0,0.0,1.7759478361883947,1.7737822487732915,0.9253412271400046,1.2154495952412094,2.2321451703650528,,,0.5370774965580548,inf,,,0.8572087768111346
345,,0.0,0.0,1.779512016789434,1.7396800030000106,0.9380452228089046,1.7029250709167199,2.808570393132282,,,0.5713653840954815,inf,,,0.8602060240555085
346,,0.0,0.0,1.7713804610197144,1.764226386652203,0.9216886202527401,1.6784138688937769,3.446543284560702,,,0.49759852643134905,inf,,,0.8641707702933098
347,,0.0,0.0,1.7783794981219565,1.7468567459640822,0.9215885952345338,1.5750579022313176,2.434924513882069,,,0.6207552362147116,inf,,,0.8386211109818328
348,,0.0,0.0,1.7689793803428757,1.7532686931729244,0.8779635304256821,1.1863696303107352,1.8490078393182847,,,0.552929491858785,inf,,,0.8231480708505932
349,,0.0,0.0,1.7341417858765034,1.6895384018953712,0.8892922858611918,1.3217389200437326,1.8748060345606046,,,0.5713653840954815,inf,,,0.8734309956458636
350,,0.0,0.0,0.39024994825246945,0.3494162540359137,0.6477676116552255,1.0941923819739374,1.3959903688130677,,,0.5604843169999094,inf,,,0.9031826459394569
351,,0.0,0.0,1.575132258144969,1.4730813542587406,0.8810179487192903,0.4596131770840537,0.6738906808830847,,,0.5677978065141052,inf,,,0.7700919986318889
352,,0.0,0.0,1.7463653177663458,1.708183713532614,0.8938223736144103,0.6051678178693629,1.0433258893030937,,,0.5713653840954815,inf,,,0.8386449523168781
353,,0.0,0.0,1.675355847081826,1.6365928271002599,0.9071040421820398,0.5962261933143905,1.020277469802354,,,0.5202020156036558,inf,,,0.852182526063983
354,,0.0,0.0,1.5599950214424634,1.480116822257974,0.7385815384626448,0.8547991945078238,1.2075240108889846,,,0.5915533975974677,inf,,,0.8328891160932768
355,,0.0,0.0,0.8672714848481692,0.8503446623816063,0.8204891596468638,0.9872632652398483,0.9041893288989235,,,0.5783247308855777,inf,,,0.9061744144448655
356,,0.0,0.0,1.1008348802224863,1.0699437146238726,0.838020851844034,0.37319942391379907,0.5400823499649788,,,0.5947193981915972,inf,,,0.8302552433109749
357,,0.0,0.0,1.5888479103255424,1.581705992929966,0.8697407334279197,0.3752886622433065,0.5799281196081374,,,0.585052858160615,inf,,,0.7961361279728628
358,,0.0,0.0,1.5416742885209085,1.521273260601505,0.784095017961323,0.3536157144415961,0.5343947958075415,,,0.5915533975974677,inf,,,0.7981301958671146
359,,0.0,0.0,1.3618036300294087,1.3601902307187093,0.8043838104469863,0.2764079704647105,0.4256838830138602,,,0.6207552362147116,inf,,,0.8179899932036926
360,,0.0,0.0,1.5352786070648745,1.4951243532902867,0.9185605171794816,0.27419905868085226,0.3988924156032021,,,0.6125606311107803,inf,,,0.8417504611556147
361,,0.0,0.0,1.475853646227692,1.4609043440960354,0.8610952289517999,0.15428317209810333,0.2475992943896384,,,0.6357360191111145,inf,,,0.7974305298262886
362,,0.0,0.0,1.3054140504299572,1.2736218776843435,0.8650816670984927,0.31737417806009177,0.4535501635322622,,,0.6566669596287297,inf,,,0.8559376028018263
363,,0.0,0.0,1.501734481838007,1.485330277114383,0.8817744798167101,0.3597587770181348,0.5219119403458077,,,0.62595550513784,inf,,,0.8548966693036553
364,,0.0,0.0,1.4032003316560817,1.3682564806030144,0.8494479243594927,0.37375070187140363,0.5564406710933755,,,0.6547956803312163,inf,,,0.8536750309408405
365,,0.0,0.0,0.6022459938313189,0.5873312970502695,0.5461574281337324,0.4823674030099919,0.592603945967862,,,0.6125606311107803,inf,,,0.940513428242571
366,,0.0,0.0,0.7056637097249714,0.6267551021929811,0.8215477566821655,0.4144578712946465,0.5902659894894876,,,0.6447042257417027,inf,,,0.8744171924421124
367,,0.0,0.0,1.4949007434249504,1.4820090637380017,0.8217856313501708,0.22829617842450128,0.3647021370167949,,,0.6038851895711802,inf,,,0.7963757613085116
368,,0.0,0.0,1.508210062598907,1.4871985528357439,0.8458090561993495,0.19812589683580564,0.31076227205348433,,,0.6333676938231112,inf,,,0.7769364107808263
369,,0.0,0.0,1.1175178874298177,1.110560201858463,0.8195546627538335,0.18382838519353414,0.2773526158708441,,,0.6153451465759925,inf,,,0.7377884431683975
370,,0.0,0.0,1.3276009079448676,1.3041119723064472,0.8629083475869113,0.2117604454156347,0.3360195463762557,,,0.5713653840954815,inf,,,0.7509679148125183
371,,0.0,0.0,1.3698407642018018,1.3416405445612596,0.8413988702822061,0.1706040165815608,0.2940801543715035,,,0.6547956803312163,inf,,,0.7210577015723441
372,,0.0,0.0,1.281061624532828,1.2374514969643338,0.7811499832924825,0.24331038228112253,0.3808140869079735,,,0.6233814453054027,inf,,,0.7234826999248187
373,,0.0,0.0,1.3047664840292201,1.300607451615633,0.9107502862082261,0.19420157012958592,0.30025028250171903,,,0.648888643467878,inf,,,0.7776817762811647
374,,0.0,0.0,1.0858653409272547,1.0450147613881062,0.8249080521126413,0.32508301436171494,0.42573516620273216,,,0.5947193981915972,inf,,,0.7662649084523204
375,,0.0,0.0,0.5110276542323784,0.4043860812922848,0.7072034140148294,0.6774395433851286,0.5660252462621186,,,0.6333676938231112,inf,,,0.9155803581136142
376,,0.0,0.0,0.6863921523587446,0.6338571109653168,0.6430644812745144,0.8201060666309921,0.9987303861698146,,,0.6097226960127671,inf,,,0.9054527994488589
377,,0.0,0.0,0.8518299750256495,0.8333927144905355,0.7574063577822856,0.6278372506260246,0.7799961527432467,,,0.5783247308855777,inf,,,0.8769645045950109
378,,0.0,0.0,1.542730012235525,1.5052346043988751,0.913667789813105,0.7024943899123243,0.9286889197780381,,,0.5915533975974677,inf,,,0.8687123712344819
379,,0.0,0.0,1.5076196555080716,1.481222735999049,0.9034850512266513,0.5309064176634424,0.7051751251113412,,,0.6097226960127671,inf,,,0.8630453807136224
380,,0.0,0.0,1.1583762950645293,1.1517685292950095,0.846941512607222,0.4459764045873296,0.6474337609946466,,,0.5748741956352443,inf,,,0.8655055725709857
381,,0.0,0.0,1.2330198912323342,1.2166767394260802,0.8317351240233215,0.44860566284538217,0.5738608753134908,,,0.6447042257417027,inf,,,0.8829510090138647
382,,0.0,0.0,1.1702459103021878,1.1494571753439262,0.8678340240844038,0.3480212556755426,0.45912808158060436,,,0.6468212168108125,inf,,,0.773183628470833
383,,0.0,0.0,1.330312412984194,1.3039990029932846,0.7898736411431961,0.31472328504397135,0.43135091323273805,,,0.6425374456860184,inf,,,0.800615927323022
384,,0.0,0.0,1.4100635104112635,1.4208539985885014,0.8445084743145288,0.27839797174041525,0.4238708677748981,,,0.6447042257417027,inf,,,0.7371632028628939
385,,0.0,0.0,0.12932326130896363,0.09374715188995549,0.30322905447125764,0.3055087530910891,0.42973259098614863,,,0.5883313578629602,inf,,,0.9330923457922248
386,,0.0,0.0,1.23599215006143,1.2002739723272262,0.7842744904355673,1.007837594267398,1.3420462455287963,,,0.6403206450210053,inf,,,0.8418093850060328
387,,0.0,0.0,1.507836110130385,1.489423136819216,0.870891695409643,1.0113020935377288,1.3600848099966434,,,0.6180765742263259,inf,,,0.8285576998556189
388,,0.0,0.0,1.4974547023825957,1.5009692362174696,0.8627893664846358,0.9486859039458905,1.3206726355782954,,,0.6309483474627791,inf,,,0.8547517061313417
389,,0.0,0.0,1.484204117507746,1.4490729478925883,0.8320754120242025,0.9867422875166076,1.4501755855637901,,,0.6207552362147116,inf,,,0.8405484744916024
390,,0.0,0.0,1.5367066819669968,1.5336990219783588,0.8472838292230552,0.9458971213505694,1.3811577781712399,,,0.6380535849069913,inf,,,0.7914296742860378
391,,0.0,0.0,1.5241887152732532,1.5246972845326712,0.8702558071045995,1.0995448601188234,1.365036711986755,,,0.6380535849069913,inf,,,0.8114475562937234
392,,0.0,0.0,1.5293673946714073,1.5052282848101448,0.850681755347846,0.8793922554130461,1.2591020626034592,,,0.6097226960127671,inf,,,0.8350988144990441
393,,0.0,0.0,0.6485895264822534,0.5808260585513711,0.7994310906707147,1.3001983573475684,1.3446032413440117,,,0.6180765742263259,inf,,,0.8927891201046153
394,,0.0,0.0,1.5415223768539685,1.500008296990268,0.8626290967123027,1.8179588433691298,2.1340070916279643,,,0.5947193981915972,inf,,,0.8683589342829454
395,,0.0,0.0,1.6138486883396075,1.6054540283415488,0.9001413182927955,2.0637643070994485,2.3482849419534566,,,0.5978297680564633,inf,,,0.8765403617492317
396,,0.0,0.0,1.2128046062942626,1.172891328290438,0.7272588134979926,1.856122680298423,1.9188649537112772,,,0.541134803179459,inf,,,0.8974076048355752
397,,0.0,0.0,1.2794763067510055,1.259291288491791,0.8532945903795781,0.8536967413930734,1.152728516892056,,,0.6180765742263259,inf,,,0.8899028867923027
398,,0.0,0.0,1.2480974720902236,1.2162690077121916,0.8600463149246289,0.6761080495042784,1.020741073489666,,,0.6403206450210053,inf,,,0.8746262787115231
399,,0.0,0.0,1.2255808518537046,1.1765828280635875,0.7936922150907131,0.7896337446388488,1.0621222692609775,,,0.6403206450210053,inf,,,0.8615625524951425
400,,0.0,0.0,1.3440462606511188,1.3287991949361158,0.8173204964576272,0.8674539188966922,1.1351008595348455,,,0.6097226960127671,inf,,,0.8961705167133711
401,,0.0,0.0,1.4061808677409087,1.373632059586976,0.8643188440038904,0.5835298047783695,0.8092222243172409,,,0.62595550513784,inf,,,0.8538379623622148
402,,0.0,0.0,1.3014066121696102,1.2464689705873249,0.8377686650608333,0.859254570773857,1.0709077152016304,,,0.6333676938231112,inf,,,0.8946086284908676
403,,0.0,0.0,1.5630126803535878,1.5215349740681103,0.8906110870218861,0.5583906068338743,0.7701319374756851,,,0.648888643467878,inf,,,0.7788950061554468
404,,0.0,0.0,1.5009777343637447,1.4554605871005815,0.8891014380875812,0.7550206278097328,0.9817848349328044,,,0.6602640781246099,inf,,,0.8160431793892574
405,,0.0,0.0,1.4840364580907373,1.4492230057472673,0.8813040519267344,0.6398444531563745,0.868808917308632,,,0.6447042257417027,inf,,,0.7725794486318535
406,,0.0,0.0,0.4932277241073278,0.4698837548418254,0.6642717136793956,0.5851516895770442,0.792205180365387,,,0.6097226960127671,inf,,,0.9030760995270325
407,,0.0,0.0,0.7620553183426458,0.74208385148969,0.7142907877617941,0.5139426275346725,0.7411130873886643,,,0.6038851895711802,inf,,,0.8869309289063528
408,,0.0,0.0,1.0380803319024066,0.9965679014224987,0.7983876856786987,0.44569504575611163,0.715357147416894,,,0.552929491858785,inf,,,0.8153657162376252
409,,0.0,0.0,1.2364700702717548,1.2210090240865947,0.8287326097259294,0.5274427714712691,0.7377779416403166,,,0.5978297680564633,inf,,,0.8158925567947002
410,,0.0,0.0,0.6072716024401669,0.5770577769373864,0.7372125503072108,0.6928582442547834,0.8562734073044355,,,0.6447042257417027,inf,,,0.8561626674472258
411,,0.0,0.0,1.0854390338974766,1.0664078331448728,0.7735315448166148,0.8544180837768254,1.107422700815726,,,0.6357360191111145,inf,,,0.8478799283323976
412,,0.0,0.0,1.156812622093931,1.1357436248612314,0.7415747331416173,0.6734232498653504,0.9686446527986394,,,0.5677978065141052,inf,,,0.8161289419230793
413,,0.0,0.0,1.1617592483141337,1.114136688341652,0.8124739108723906,0.8600768617008531,1.29469043591562,,,0.5978297680564633,inf,,,0.8703453837297738
414,,0.0,0.0,0.38720681248322236,0.33042202481448857,0.5141844122364274,0.6774071495480304,0.9158897491292475,,,0.5978297680564633,inf,,,0.9103766147360514
415,,0.0,0.0,1.206409639539833,1.2060792336285306,0.8257856190569509,0.7282191860189234,0.975100340642394,,,0.5947193981915972,inf,,,0.8055008250970819
416,,0.0,0.0,1.1567200651855964,1.124392953031652,0.7770883381991399,0.6612817828498309,0.9185908680172205,,,0.6097226960127671,inf,,,0.8151272672644583
417,,0.0,0.0,0.1070503374570581,0.09120112980647926,0.4902168095866689,0.7426586724918167,1.0137897794541932,,,0.5947193981915972,inf,,,0.633173472201125
418,,0.0,0.0,1.2435761986778482,1.2273709049282386,0.8341207694144975,0.6863751861717512,0.9861522431812334,,,0.62595550513784,inf,,,0.8424343973564978
419,,0.0,0.0,0.5487734851778556,0.457558630202553,0.5807888036921368,1.2563548582840223,0.9478821602834366,,,0.62595550513784,inf,,,0.8014916959159445
420,,0.0,0.0,0.4338635971467,0.3226643537471183,0.38490143973267144,0.7788997546975388,0.8341743008121143,,,0.6068309995095971,inf,,,0.7390094059301687
421,,0.0,0.0,0.2701259385638843,0.1518110959481592,0.4735317877749335,0.7580879538314342,0.8028818613812179,,,0.6425374456860184,inf,,,0.9491830767179231
422,,0.0,0.0,0.9862545913828544,0.9559568371791133,0.8189171508836535,1.0090755640692683,0.9604089336860242,,,0.5947193981915972,inf,,,0.8668841451619441
423,,0.0,0.0,1.0940171686605746,1.0534889446235112,0.7761718019052188,0.893149124748289,1.1379270575294567,,,0.6068309995095971,inf,,,0.8806659938124162
424,,0.0,0.0,0.6140829968114748,0.6090580176369105,0.7121167057109382,1.0801541935173185,1.206690157868045,,,0.5915533975974677,inf,,,0.9119778148231802
425,,0.0,0.0,1.5554086124131834,1.5365762096272721,0.8621952321087561,0.7489801205553264,0.9841430369794018,,,0.6425374456860184,inf,,,0.8765027089616348
426,,0.0,0.0,1.6653413853073693,1.6646808805522277,0.8853604816346761,0.8419376214971946,1.2425990729029064,,,0.5978297680564633,inf,,,0.8660752130896312
427,,0.0,0.0,1.5492879227401473,1.5042034719892259,0.8812369661582312,0.7367348667230249,0.9996722845644627,,,0.5947193981915972,inf,,,0.8468570727827872
428,,0.0,0.0,1.6260384437239768,1.5992590007222551,0.8643077850844207,0.6392390412111306,0.9937560725610795,,,0.6097226960127671,inf,,,0.8452083064188103
429,,0.0,0.0,1.5888858868866507,1.5567447898828728,0.8973368818920483,0.8626623408729631,1.1000001688019863,,,0.581717464821069,inf,,,0.8756696979010328
430,,0.0,0.0,1.6701919823847389,1.6324319609169369,0.887676455213764,1.0550221272577145,1.6144816007686809,,,0.6125606311107803,inf,,,0.798034512519853
431,2.0940591622106113,-0.03490098603684352,0.0,0.988422456621654,0.9044866502896127,0.6809998134368405,1.871917712951956,1.9780431574942863,,,0.6284777104787076,5.605446573935339,inf,,0.8860867388762185
432,1.1506219604744499,-0.026847845744403832,0.0,1.459952749770809,1.441385027595535,0.8631049495311011,3.8901943031237454,3.446552818129981,,,0.6509067234006624,4.321663484946791,inf,,0.8819591304674439
433,1.4296444588853898,-0.05718577835541559,0.0,1.5177657296387852,1.5019704845165835,0.876070740643589,4.295457970833821,4.276170752368967,,,0.6425374456860184,3.968005640179083,inf,,0.9413807190151297
434,1.5376911661959587,-0.061507646647838345,0.0,1.3515216629680082,1.2560221129513855,0.8228643970686766,1.6434214122803361,1.155803517983251,,,0.6284777104787076,4.30836320575931,inf,,0.8839762897570269
435,,0.0,0.0,0.7206618783481297,0.6920773626306319,0.7239951719519372,0.6570547353814326,0.8925745108503207,,,0.6309483474627791,inf,,,0.9057935642295006
436,,0.0,0.0,0.6418472979433097,0.6031023158709051,0.622239039018849,0.7263470003098708,0.8968513460402242,,,0.5883313578629602,inf,,,0.9242047945780476
437,1.6784307839210517,-0.005594769279736839,0.0,0.9555428373208802,0.7652323806584106,0.6800566794848505,1.7349898699024981,1.1154682986745699,,,0.6528756675646988,7.382213258577253,inf,,0.7716315911495638
438,,0.0,0.0,1.0771516610395306,1.0416361803781118,0.8735832621984344,1.5585043438112296,1.281794318338861,,,0.62595550513784,inf,,,0.9213821077980711
439,,0.0,0.0,0.5650582122478297,0.5360024550735684,0.7077175067407623,0.758296870629933,0.6476659624281099,,,0.6153451465759925,inf,,,0.9414814379182388
440,,0.0,0.0,0.6892971264371646,0.6373478710455632,0.6782526804887609,0.5712919814682194,0.4509854477745283,,,0.6333676938231112,inf,,,0.8306697885430179
441,,0.0,0.0,0.5454625342969446,0.47610676203789665,0.8611454322548756,1.1737809637114602,0.9920708651480963,,,0.6740851607140061,inf,,,0.9207483478006181
442,,0.0,0.0,0.9249365860496194,0.902897195222946,0.9097745033210825,1.1998245217746504,0.9218095285996286,,,0.6357360191111145,inf,,,0.9542332429529461
443,,0.0,0.0,0.9495428696104188,0.9053201516328195,0.8204448615207918,1.3931389347883179,1.0746358054184628,,,0.6713451011121618,inf,,,0.9144977590896036
444,,0.0,0.0,1.2603407150978743,1.2201154575937099,0.866245243036537,1.3913371279859206,1.1779553287166158,,,0.6547956803312163,inf,,,0.8879151037862913
445,,0.0,0.0,0.6430301870091572,0.598826080884768,0.870433794586911,0.7262287439752694,0.5845059557888397,,,0.6547956803312163,inf,,,0.9311768706745741
446,,0.0,0.0,0.9159097933821087,0.8596864373655457,0.917463088705968,1.3461744416948909,1.1757069390994879,,,0.6668815377411301,inf,,,0.9514893698301773
447,,0.0,0.0,0.8454018084782388,0.7994009379231619,0.8509008192093686,1.2716587534815116,1.119831253023395,,,0.6619902821573977,inf,,,0.9545439632074296
448,,0.0,0.0,0.8044272711071794,0.7573410157323804,0.8746211278563615,1.0991946016603789,0.965476354823877,,,0.6699045166045591,inf,,,0.9394878372478271
449,,0.0,0.0,0.7557669760119832,0.7209010693569469,0.795605112746644,1.6702920073579548,1.3421134919034008,,,0.648888643467878,inf,,,0.9491888950214848
450,,0.0,0.0,0.9542353827886316,0.945672124626284,0.7260725724078226,1.9821745956695414,1.671509589503529,,,0.6333676938231112,inf,,,0.9113718191475522
451,,0.0,0.0,1.0481590869901358,1.0076272214368673,0.8678408192363977,1.4913653425094406,1.059079089858107,,,0.6425374456860184,inf,,,0.8803824053044021
452,,0.0,0.0,0.8207118096971399,0.7741107244010457,0.8298313486634357,1.1754586831502747,0.7898224069582833,,,0.6284777104787076,inf,,,0.9337024336830941
453,,0.0,0.0,1.2834337838655867,1.271821010162881,0.793083691481464,2.091037167520879,1.037532700681436,,,0.6180765742263259,inf,,,0.947749509788199
454,,0.0,0.0,0.9660041834526482,0.9381039865862957,0.8049701641706201,1.9365932854016605,1.299852059803193,,,0.6668815377411301,inf,,,0.9043556923684928
455,,0.0,0.0,0.8308976676354517,0.8138565214440467,0.8483298335987604,1.4989692436145654,1.2020954974033657,,,0.62595550513784,inf,,,0.9441730852265948
456,,0.0,0.0,0.501570023019025,0.44971892766627397,0.8019039738964607,1.5770304985754053,1.25130860731933,,,0.6425374456860184,inf,,,0.9367304378080359
457,,0.0,0.0,0.8538572963982978,0.8069467206420328,0.8309069491946312,2.0356457655648064,1.7722156172120842,,,0.6509067234006624,inf,,,0.9479368253847885
458,,0.0,0.0,0.7309023617318879,0.6877747030259952,0.8734128520486862,1.324006374338488,1.0942040115851326,,,0.6207552362147116,inf,,,0.9406810842636513
459,,0.0,0.0,1.0113027614729588,0.9416037645597705,0.8267930752018949,1.082476552821277,0.7656112958191363,,,0.6380535849069913,inf,,,0.9124345767111611
460,,0.0,0.0,0.7227203022238106,0.6536594973699201,0.8528037243421324,0.9018996389915407,0.8095238572680509,,,0.6447042257417027,inf,,,0.8521380513110806
461,,0.0,0.0,1.2344411368346495,1.2185407807319995,0.832191750854806,1.4124824972500456,0.9052789432936077,,,0.62595550513784,inf,,,0.9490513583809421
462,,0.0,0.0,0.37426855492877625,0.3404234315370904,0.6785568119233737,2.2743518721679026,1.6285908942155443,,,0.6447042257417027,inf,,,0.9448397497470636
463,,0.0,0.0,0.4719045661774746,0.44140566689872424,0.6789745637212322,1.9392963953866291,1.523875368139786,,,0.6668815377411301,inf,,,0.9562695066710072
464,,0.0,0.0,0.7636746733134405,0.7383835266786171,0.6686540744302444,1.3524326734481864,1.1342997785371134,,,0.6566669596287297,inf,,,0.9478545593700306
465,,0.0,0.0,1.2154508550022567,1.1820903690188909,0.7994088986434644,1.3701420774616715,1.1894011816750905,,,0.6584896970785714,inf,,,0.9475976412074126
466,,0.0,0.0,0.2534680367230719,0.23591141146314223,0.47157710508764833,1.8160093771567007,1.4878081493966928,,,0.6468212168108125,inf,,,0.7223487211808868
467,1.7919595092387248,-0.011946396728258165,0.0,0.5007994574591951,0.42691116006141,0.6515061719982509,2.055419862282588,1.5927389961666822,,,0.6652988471865258,6.802394763324311,inf,,0.7049978918547612
468,,0.0,0.0,1.0648113986149659,1.0323525591240919,0.6235858983725723,1.6720654539368947,1.0998280210371723,,,0.6097226960127671,inf,,,0.9543500148075155
469,,0.0,0.0,0.353697333266,0.31157205653482495,0.7547282825913905,1.4831284097532083,1.234373662673845,,,0.6509067234006624,inf,,,0.7574132586745346
470,,0.0,0.0,0.9772538592457062,0.9242734272633876,0.8303006743911056,1.616639759165189,1.285027474171994,,,0.6309483474627791,inf,,,0.9522950488255726
471,,0.0,0.0,0.8275337231280682,0.8008466057985544,0.904095764163179,1.8005178752284965,1.2541001899814694,,,0.5978297680564633,inf,,,0.9449462458790022
472,,0.0,0.0,0.85830998042327,0.773379912510782,0.8751011716839215,1.7407692423595054,1.4321983158934317,,,0.6284777104787076,inf,,,0.9474057235870865
473,,0.0,0.0,0.8694849027261898,0.8148268989893981,0.6261116357506091,1.672845051691443,1.2934891688158197,,,0.6380535849069913,inf,,,0.647722252176122
474,,0.0,0.0,1.0445768508969642,1.0179548482138516,0.7704852102711017,1.106182552702158,0.7802249041288432,,,0.6333676938231112,inf,,,0.9488479203334909
475,,0.0,0.0,0.8439001920395162,0.7857819516288912,0.8059743783958381,1.103846830844401,0.8563588705401668,,,0.6284777104787076,inf,,,0.94274757277975
476,,0.0,0.0,1.032248034852357,1.0063691755037085,0.8346838189485926,1.7739692705525452,1.4670769281788592,,,0.6097226960127671,inf,,,0.9481375832801446
477,,0.0,0.0,1.0744059650791564,1.02005622973525,0.8782999876325298,1.5398281994924812,1.1566707549851651,,,0.6619902821573977,inf,,,0.9507194608828594
478,,0.0,0.0,0.5597154564782084,0.5183429899180018,0.7999657680397595,1.7801564990260506,1.23582324970242,,,0.6333676938231112,inf,,,0.9173639275587775
479,,0.0,0.0,0.7652176528473459,0.7475952156191233,0.6937263815387836,1.902080695389042,1.5384863613498867,,,0.6547956803312163,inf,,,0.9167306534422281
480,,0.0,0.0,1.004404209109714,0.9437121510792552,0.8448901777798181,1.7686718764444427,1.312959742530191,,,0.6380535849069913,inf,,,0.9580584401398169
481,,0.0,0.0,0.4934591063182315,0.44513103116183567,0.8719595519417138,0.7277520973213656,0.646920731647217,,,0.6284777104787076,inf,,,0.944174324285074
482,,0.0,0.0,0.7330813819898074,0.6658179491865965,0.8214860398898696,0.8467074274673921,0.6791453626924255,,,0.6528756675646988,inf,,,0.8937885710237932
483,,0.0,0.0,0.8140928140413237,0.7711941463948475,0.9194349096292804,1.5735883787690774,1.3336811621147187,,,0.6509067234006624,inf,,,0.9181994948216112
484,,0.0,0.0,1.0599669277525303,1.0377936615553416,0.780585636216913,1.5832154055704253,1.176402693454536,,,0.6284777104787076,inf,,,0.9483824778023057
485,,0.0,0.0,0.7006562604576136,0.5878945524429854,0.7874251762827117,1.0804672234526018,0.800231747169901,,,0.6403206450210053,inf,,,0.9539921673246535
486,,0.0,0.0,1.1980195074764335,1.1526084333952824,0.841982115795043,2.4208287441140186,2.2629072385202593,,,0.6357360191111145,inf,,,0.9495556735167678
487,,0.0,0.0,0.9576494322780734,0.9507461214323593,0.8047342484923787,1.3050284884088008,1.0319001949898112,,,0.6447042257417027,inf,,,0.9546230887849488
488,,0.0,0.0,0.9911014258286942,0.9452953504793552,0.9084502216662256,1.6401556208036376,1.4021106470959563,,,0.6425374456860184,inf,,,0.9529731534293293
489,,0.0,0.0,1.3220462923773908,1.3166214629659996,0.8938139130335265,2.3286331943290497,1.6547819871063782,,,0.6180765742263259,inf,,,0.9446345856880178
490,,0.0,0.0,0.746720145970462,0.7116488424530228,0.7569509570971062,1.2386588630264417,0.8631483278678589,,,0.6602640781246099,inf,,,0.939275108845403
491,,0.0,0.0,0.2256559932866077,0.20364085813838692,0.4495594201420945,0.7661864706773165,0.656677733850001,,,0.6584896970785714,inf,,,0.8951084997197206
492,,0.0,0.0,1.0471049931861656,0.9996959024656197,0.8375539669091083,1.9154749742831945,1.5886947646344363,,,0.6528756675646988,inf,,,0.8980105913908959
493,,0.0,0.0,0.4228833856670221,0.37204400251956354,0.8627581098310205,1.3570852813125172,1.1600495877509527,,,0.6447042257417027,inf,,,0.9067846625134912
494,,0.0,0.0,1.004189443684307,0.9829032615906161,0.7103869463610433,1.6804211641774525,1.2663908014310248,,,0.6619902821573977,inf,,,0.9488280227642325
495,,0.0,0.0,1.0710608460783857,1.0227138257557369,0.7689406239797602,1.9433632399090874,1.591977969801002,,,0.6333676938231112,inf,,,0.9571673455713529
496,,0.0,0.0,0.7086199688781649,0.6636767897322425,0.7802357411242454,1.045334453681817,0.7219191378671459,,,0.6584896970785714,inf,,,0.9499321442808543
497,,0.0,0.0,0.9929417596640511,0.9562634417298569,0.8512865306610484,1.8272179777218456,1.4152635895155676,,,0.6425374456860184,inf,,,0.9315772394915637
498,,0.0,0.0,1.0146247744877226,1.0013286918548732,0.7343159520195568,1.667599464225523,1.2019795234824937,,,0.6652988471865258,inf,,,0.9310795278466847
499,,0.0,0.0,1.2280974978153782,1.2356398290087676,0.7932100564926894,1.9587975535873494,1.3129094427063506,,,0.6619902821573977,inf,,,0.9528434568217967
500,,0.0,0.0,0.7667821091934915,0.7226866705173822,0.7930082184570233,0.9587705310020798,0.7997920460479644,,,0.6547956803312163,inf,,,0.9546489270378467
501,,0.0,0.0,0.8746374535800213,0.7852594578031635,0.7833463512140033,1.2968498880281576,0.8065634999050304,,,0.6125606311107803,inf,,,0.9416487194219387
502,,0.0,0.0,0.8659081098818514,0.804542455588618,0.776620092693213,1.0419319455046256,0.7595348262771322,,,0.6284777104787076,inf,,,0.9363673598746527
503,,0.0,0.0,0.376788720914396,0.33300962827351127,0.7623145857137333,0.8847404185628037,0.7217486126113588,,,0.6380535849069913,inf,,,0.9528848493787873
504,,0.0,0.0,0.6983457859810138,0.667532327322812,0.7694421939382714,1.3504698168580875,0.929350941191714,,,0.6447042257417027,inf,,,0.916957909925331
505,,0.0,0.0,0.6567016493076844,0.6432162625128793,0.6664457298490152,1.2200012913546943,0.8385889014283339,,,0.6425374456860184,inf,,,0.9426519049799801
506,,0.0,0.0,1.1368878579223647,1.0980792295897435,0.7413436363474954,1.993001090069271,1.5774549656160448,,,0.6509067234006624,inf,,,0.9596205456222443
507,,0.0,0.0,0.7973466733046443,0.788671543139572,0.6894455257018052,0.7024446528012073,0.6907973093798465,,,0.6403206450210053,inf,,,0.8953151404297608
508,,0.0,0.0,0.8260003865421285,0.804716077366062,0.4772519787226241,0.9859552831063897,0.9096754872935222,,,0.6333676938231112,inf,,,0.921721476059844
509,,0.0,0.0,0.7107421553699661,0.6859497383552198,0.8204486883666984,1.894986461011463,1.7411516318107458,,,0.6207552362147116,inf,,,0.94052980456498
510,,0.0,0.0,0.7203247503800009,0.6403787078936407,0.7044349665473062,1.603967942471527,1.3411109897643847,,,0.6038851895711802,inf,,,0.9580701390652246
511,,0.0,0.0,0.73573100864944,0.7028355041903179,0.8391507048749406,1.7139431638374631,1.4918924025180442,,,0.648888643467878,inf,,,0.9256169607169917
512,,0.0,0.0,1.0928262211525082,1.0538645723028777,0.7969322968848875,1.6816609397827011,1.5830383215018777,,,0.6652988471865258,inf,,,0.8817922379831161
513,,0.0,0.0,0.7161531597010939,0.6730842628603902,0.6495794243304359,1.751397113565083,1.5851898125170252,,,0.648888643467878,inf,,,0.8964563857873257
514,,0.0,0.0,0.8859917841999199,0.8311206755345988,0.8457106912599252,1.3277387021689624,1.1080017180756885,,,0.6357360191111145,inf,,,0.9103762172351413
515,,0.0,0.0,1.1935961185464887,1.200623317037391,0.7750712949892586,1.7598957109007378,1.357985610255369,,,0.6357360191111145,inf,,,0.9053359458845083
516,,0.0,0.0,1.0083804753454726,0.9816956677370002,0.8232755872821943,1.4950114618676034,1.1472906252214101,,,0.6447042257417027,inf,,,0.8982556461278193
517,,0.0,0.0,1.187654780021657,1.1705607905590945,0.800051601874398,2.2973029473458038,2.0522882540293668,,,0.6727386042041725,inf,,,0.9421415938776925
518,,0.0,0.0,1.1758308052603001,1.1157616684141523,0.8606637025472398,1.5426369274851182,1.5111289361010845,,,0.6652988471865258,inf,,,0.9410476063179826
519,,0.0,0.0,1.0347636917479373,0.9759607896399096,0.6552204992229166,1.3659928534093029,1.1387967348853572,,,0.6425374456860184,inf,,,0.9489025358649038
520,,0.0,0.0,0.8528939914123862,0.8143602818026165,0.7188267406496879,1.7184974667769881,1.4818300288472137,,,0.680118107274185,inf,,,0.9361433170749249
521,,0.0,0.0,1.2796081151301553,1.2398991987495258,0.809337873856894,2.091302666860414,1.7175608159942395,,,0.6207552362147116,inf,,,0.9417301097529629
522,,0.0,0.0,0.7636724217371237,0.7367129549187901,0.7785455625704306,1.3462300140867078,1.3144912398319786,,,0.6357360191111145,inf,,,0.9466678190445628
523,,0.0,0.0,0.8284651440628135,0.8111612778470073,0.6953223341932253,0.975535394850667,0.7809059534130529,,,0.6509067234006624,inf,,,0.936592147302418
524,,0.0,0.0,0.9737613493000485,0.8798104518010978,0.7791580144910908,1.4928309370605326,1.0912277133449122,,,0.6180765742263259,inf,,,0.9596623655543635
525,,0.0,0.0,1.0583093664739305,1.0414853300160853,0.7762509343626955,1.7877172761591127,1.4893802183364482,,,0.6309483474627791,inf,,,0.945281118303228
526,2.70805020110221,-0.009026834003674034,0.0,0.6358186793210047,0.6011453807365945,0.6459367539446891,1.7572268590366587,1.4590786478774636,,,0.6566669596287297,8.411832675758411,inf,,0.6417921550925666
527,,0.0,0.0,0.4564714619028108,0.43897804480350705,0.479546057644312,1.2674081230612522,0.7635904204353317,,,0.6284777104787076,inf,,,0.6420102477362071
528,4.605170185988091,-0.01535056728662697,0.0,0.916047586747091,0.9071077088722157,0.5592019855797622,1.9703728515540342,1.575188194744593,,,0.6357360191111145,10.308952660644293,inf,,0.8140940586147635
529,,0.0,0.0,1.1653880870615698,1.1475183233481459,0.8505919098181286,1.6390834978506195,1.0453156540628048,,,0.6566669596287297,inf,,,0.897046838276526
530,,0.0,0.0,0.7825247811616065,0.7259012940914765,0.7547534354721107,1.634388567853263,1.3131967417078878,,,0.6468212168108125,inf,,,0.9506364287890852
531,,0.0,0.0,1.0959855332326602,1.0601794267547633,0.8151204875884861,1.3505297007464732,1.027910303612841,,,0.6309483474627791,inf,,,0.9489585254539675
532,,0.0,0.0,0.6418977618309148,0.5876522196054562,0.8360074748185985,1.5571842200600612,1.3027434547174768,,,0.6619902821573977,inf,,,0.9326317301501628
533,2.9462321568274232,-0.039283095424365644,0.0,0.41786542825024625,0.38489329941635464,0.6439131658314833,1.3739787126553689,0.9060092163807372,,,0.648888643467878,7.233177679416765,inf,,0.8044799454245823
534,3.3058872018578307,-0.011019624006192769,0.0,0.3590483436899016,0.21476295529722106,0.5001543569223464,0.9801140125703058,0.6616309891528354,,,0.6038851895711802,9.009669676514031,inf,,0.8501441346489588
535,2.4849066497880004,-0.008283022165960002,0.0,0.5595494485155664,0.42705199914140746,0.637791959129808,1.1510697136354946,0.8126587339206879,,,0.663668482632973,8.1886891244442,inf,,0.9289480962137022
536,,0.0,0.0,0.7171938482347808,0.6655238891241446,0.8110984111106482,1.6602898799159775,1.303770937713768,,,0.6566669596287297,inf,,,0.951786835625037
537,,0.0,0.0,0.6503076565284289,0.6347679149929386,0.6957173954068803,1.64713341421267,1.1106961754857374,,,0.6699045166045591,inf,,,0.9532823427163808
538,,0.0,0.0,0.9107459614995368,0.8669765484065088,0.7375214584849984,1.355886124532965,0.9072776980045318,,,0.6068309995095971,inf,,,0.933718834464361
539,,0.0,0.0,0.31068113357082516,0.2857027664672868,0.6467369700361791,0.816242649916401,0.6569396519980899,,,0.6528756675646988,inf,,,0.954692900884482
540,,0.0,0.0,0.703180644866382,0.6821999029000035,0.7538432352208045,0.9635389671551073,0.7289580542867914,,,0.6547956803312163,inf,,,0.9551060994850579
541,,0.0,0.0,0.7675150795415631,0.7393723479977571,0.7412887091772669,1.3969923107818056,1.028165376767032,,,0.6584896970785714,inf,,,0.9372295906124107
542,,0.0,0.0,0.5565314128793358,0.5286729372213453,0.7321364209076026,0.3863239631484779,0.36534536286459884,,,0.6566669596287297,inf,,,0.9401978186832749
543,,0.0,0.0,0.9476693872757996,0.9319847257066405,0.5440975039258561,0.3886479960607758,0.288565017607563,,,0.6309483474627791,inf,,,0.9474423158877586
544,2.3418662542455966,-0.015612441694970643,0.0,0.3818630369794841,0.32827838695575057,0.4916462434927011,1.604194038563229,1.1201900507244085,,,0.6447042257417027,7.347121938765983,inf,,0.7035383599181342
545,1.0986122886681098,-0.0036620409622270325,0.0,0.45332086118707776,0.4016532807732839,0.5833676339758775,1.9050038794740147,1.0771556636110866,,,0.6233814453054027,6.802394763324311,inf,,0.6950514982610054
546,,0.0,0.0,0.493395081564443,0.4089693910467823,0.5126577764613937,1.2625663303008337,0.7514464507403289,,,0.6668815377411301,inf,,,0.7257782692788999
547,,0.0,0.0,1.0881414320930325,0.9875809768902828,0.7447525432514576,1.7905572416486504,1.2172714169059144,,,0.6038851895711802,inf,,,0.8360210756204375
548,,0.0,0.0,0.46709484115948285,0.44632291125096735,0.6027572528523649,1.36692170718083,0.8662733033789327,,,0.6380535849069913,inf,,,0.8184334790718183
549,2.2847966861475637,-0.022847966861475638,0.0,0.558959577916821,0.4623248634657758,0.6473731358633966,1.8899028054831768,1.4165779047084988,,,0.6233814453054027,6.254273354814623,inf,,0.8609829338887917
550,2.14074312997354,-0.07849391476569646,0.0,0.7405818183850695,0.6745798493146148,0.6465984981570901,2.616605997893352,1.6161942942839924,,,0.6380535849069913,4.693394419402931,inf,,0.8534803728493617
551,2.840549180588539,-0.02840549180588539,0.0,0.7957076900857446,0.771614573155349,0.7182429926453331,2.323804180123247,1.4855593513960228,,,0.6097226960127671,7.418580902748128,inf,,0.9438143277192228
552,,0.0,0.0,1.158788119996019,1.1040174697843288,0.8449009445005249,1.8049233752981038,1.2921608770702122,,,0.6447042257417027,inf,,,0.9213219077157803
553,1.818912039965006,-0.054567361198950184,0.0,0.8815325217026568,0.8084047356727874,0.669258829995819,2.588835135336007,1.7839541326740465,,,0.6652988471865258,5.179053945721219,inf,,0.7619400199015283
554,,0.0,0.0,0.9599445692838385,0.9045324935907859,0.7337540014718461,1.8469869849913814,1.7061995531075782,,,0.6333676938231112,inf,,,0.917335876543949
555,,0.0,0.0,0.476410072419707,0.4331330989422513,0.7595486236005895,1.8315089823478,1.5517860329271067,,,0.6309483474627791,inf,,,0.6941188598018395
556,,0.0,0.0,0.8483983064864723,0.8317032552240632,0.7839869369688914,1.8229995140337518,1.4604124183856568,,,0.6509067234006624,inf,,,0.9597392141545938
557,,0.0,0.0,0.9465352242740483,0.9011913270766188,0.7758154153159724,1.8284440767744192,1.25066845044153,,,0.6309483474627791,inf,,,0.7739203963223289
558,,0.0,0.0,0.9877198151603871,0.930522067175595,0.8474605512674551,1.7226770269377893,1.062022160709588,,,0.6284777104787076,inf,,,0.9554211767689411
559,,0.0,0.0,0.771544767179534,0.7309767731868972,0.843310638765251,1.5666611853988075,1.2850984798793992,,,0.6566669596287297,inf,,,0.8895988851351972
560,,0.0,0.0,0.45824953515364925,0.4394584094837229,0.7224614266139314,1.5672905213418205,1.2234169854442292,,,0.6425374456860184,inf,,,0.9117930441483539
561,,0.0,0.0,0.7055331329327816,0.6817038571010634,0.8303740539692885,1.2879705509861492,1.1414356994188124,,,0.6509067234006624,inf,,,0.9450259976065203
562,,0.0,0.0,0.6867431769644704,0.6604935038036225,0.8968172475286122,1.4714150692037065,1.5171582414055984,,,0.6447042257417027,inf,,,0.919823456053241
563,,0.0,0.0,1.0672559845448841,1.0402328111828152,0.7293906044895304,2.588402950992601,2.7022873030199044,,,0.6333676938231112,inf,,,0.948915846370223
564,,0.0,0.0,1.2647378503678075,1.2651262204487617,0.867184785723159,2.742286826533743,2.697951300401474,,,0.6309483474627791,inf,,,0.7882450395418003
565,,0.0,0.0,1.013547351478281,0.9996341649729066,0.7522852059929968,2.018634837285528,1.5925996209688318,,,0.6380535849069913,inf,,,0.918835825591987
566,,0.0,0.0,1.3668991518970801,1.3148948981437059,0.8007693040697537,3.038807464563183,2.540325463532559,,,0.6425374456860184,inf,,,0.9358360286416054
567,,0.0,0.0,1.021586392651979,0.9934293888939058,0.7460565770998036,2.74762188973131,2.0826936899650854,,,0.6309483474627791,inf,,,0.9328268977567798
568,2.7593434954897607,-0.009197811651632536,0.0,1.0065855602649394,0.9722063702624668,0.6701061138196135,2.4585425182235188,1.69637076772397,,,0.6509067234006624,8.463125970145962,inf,,0.9012617318770809
569,2.0661963149298153,-0.006887321049766051,0.0,0.8906132247716855,0.8826569498529345,0.7320339315667092,2.51780631869811,2.2996863972576675,,,0.6447042257417027,7.769978789586016,inf,,0.7379124197346958
570,2.2380465718564744,-0.007460155239521581,0.0,0.8032960047681934,0.7389805034564189,0.5619987166359525,1.5497361614501612,0.8997449877222303,,,0.6309483474627791,7.941829046512676,inf,,0.7324648695875011
571,,0.0,0.0,0.6946901092021538,0.654998645310262,0.7530393091877733,0.788029754854706,0.5871656668568778,,,0.6509067234006624,inf,,,0.9474685138537737
572,,0.0,0.0,0.7309733556931681,0.6867282036728647,0.8069454237728293,0.8680823355494006,0.6721431736940576,,,0.6333676938231112,inf,,,0.9479219101276902
573,,0.0,0.0,0.816298017268492,0.7665847016513204,0.6767462968026661,0.9684908116819353,0.6257452797727131,,,0.6180765742263259,inf,,,0.9516477590311231
574,,0.0,0.0,0.7192090528606054,0.6998441210535229,0.6758008741553931,0.7385003496981998,0.7088038204429135,,,0.6153451465759925,inf,,,0.9387025396627029
575,,0.0,0.0,0.3650568312637122,0.32611289360186896,0.7513132618102425,0.9343292250351798,0.8070943290379733,,,0.663668482632973,inf,,,0.9425958481854231
576,,0.0,0.0,0.7494086733140326,0.7277410119928858,0.7370647166043027,0.730449211184773,0.516287367425263,,,0.6284777104787076,inf,,,0.830327811033711
577,,0.0,0.0,0.5870020709503674,0.5684252635214383,0.7692453996789264,0.8096368547218309,0.7853990112695564,,,0.6380535849069913,inf,,,0.6028838505591857
578,,0.0,0.0,0.31626651444066706,0.2665052226498659,0.7678901332018737,1.1040283836251414,0.7768485381593995,,,0.6233814453054027,inf,,,0.7537982501269294
579,,0.0,0.0,0.6427259259567982,0.5369210768118162,0.6720723208316575,1.1118234832501994,0.6806687022409375,,,0.6284777104787076,inf,,,0.7488020833260837
580,,0.0,0.0,0.709731449583406,0.6986096347595756,0.5118788238138441,1.9609970658805096,1.5074837968727055,,,0.648888643467878,inf,,,0.814282303889927
581,,0.0,0.0,0.781233925034495,0.7536023902951506,0.6819033934319603,1.7923973341303265,1.2945492460614971,,,0.6468212168108125,inf,,,0.941109310722038
582,,0.0,0.0,0.7817630559534222,0.7488598292370998,0.6323798626010211,1.2870210374367248,0.8142344221087336,,,0.6547956803312163,inf,,,0.9256974169355594
583,,0.0,0.0,0.8902053823201217,0.8746107359992821,0.8242085967917123,1.3129317147586606,0.9292716906699465,,,0.6566669596287297,inf,,,0.9448897861060865
584,,0.0,0.0,0.7292005557275754,0.625357558633624,0.7858431637075599,0.8363345548252344,0.4981781621396547,,,0.6602640781246099,inf,,,0.7019401548317046
585,,0.0,0.0,0.8020672034933096,0.7135265733902426,0.7748637910792474,1.1062774438062453,0.7651021717522946,,,0.6684167106117298,inf,,,0.9486331554634586
586,,0.0,0.0,0.4489257627263688,0.4158291096141166,0.6675529329812818,0.771406872407192,0.6769329261287205,,,0.5978297680564633,inf,,,0.9587601094087452
587,,0.0,0.0,0.4599936956328644,0.4178678984068094,0.5116017253944213,0.8781112152871811,0.5840319802307059,,,0.6447042257417027,inf,,,0.8639385859863022
588,2.3206589443829255,-0.023206589443829254,0.0,0.3630796936810834,0.3340758912091572,0.7734378999896626,1.7086371055383838,1.2201851613758157,,,0.6468212168108125,6.54775254495073,inf,,0.6303839230802168
589,,0.0,0.0,0.4628366035857589,0.4132705578224967,0.655836362199625,1.0067813158644732,0.6932097089098719,,,0.6180765742263259,inf,,,0.9553486878240848
590,,0.0,0.0,0.40252716863140964,0.3645195051016535,0.6870498879961912,0.8724132180949951,0.8029714844715322,,,0.6447042257417027,inf,,,0.938907989115547
591,,0.0,0.0,0.3425698686240414,0.2803142973776276,0.6153419808125794,0.35899977583838655,0.3202313721511031,,,0.6233814453054027,inf,,,0.9401356787405061
592,,0.0,0.0,0.7463114314244879,0.7030024066852455,0.7004171285602621,0.5752960873062174,0.6048363160434806,,,0.6153451465759925,inf,,,0.8709037722831243
593,,0.0,0.0,0.625815257598251,0.5865583440821426,0.6154682690498806,1.0696315742248867,0.9525056496268645,,,0.6528756675646988,inf,,,0.9278109087457986
594,,0.0,0.0,0.9936726771645835,0.9665164388882335,0.7757278283213905,0.9858297740634244,0.860477123196992,,,0.6547956803312163,inf,,,0.9432853819953503
595,,0.0,0.0,0.5013167555214817,0.4316367892206391,0.6436711863161765,1.2143884064005752,1.0575515731223586,,,0.6468212168108125,inf,,,0.9519938509370787
596,,0.0,0.0,0.8421262426346595,0.7850949761107037,0.705815722865843,1.0792982407595837,0.7799756193423544,,,0.6180765742263259,inf,,,0.8096646620682989
597,,0.0,0.0,0.9623977908832829,0.9462524133630947,0.8063827579256809,1.270522812661652,1.051443661984588,,,0.6602640781246099,inf,,,0.9443387335424027
598,,0.0,0.0,0.722575520919875,0.6850515782050894,0.6026738597567611,0.581015404698194,0.5511222477429856,,,0.6652988471865258,inf,,,0.9127178331561991
599,,0.0,0.0,0.7471607559142283,0.7390533178387045,0.6387126801395221,0.5557235104007995,0.46215767019211695,,,0.6333676938231112,inf,,,0.8904762376449581
600,,0.0,0.0,1.1553674230172701,1.1134544267420736,0.8618193063438289,1.693093712479821,1.275583386085124,,,0.648888643467878,inf,,,0.9472431910492233
601,,0.0,0.0,0.5050127281100302,0.4617911981845471,0.6227154882028534,0.45068843235850486,0.5869827921079187,,,0.6038851895711802,inf,,,0.8459282212827862
602,,0.0,0.0,1.6301552886160522,1.6301077620659483,0.847596284651688,0.8908883328311495,1.3419156076352592,,,0.5677978065141052,inf,,,0.8091927363017256
603,,0.0,0.0,0.18508749434778257,0.17497195390667702,0.6471951435307999,1.3416464893960363,1.6421004762683025,,,0.5713653840954815,inf,,,0.7592920034015469
604,,0.0,0.0,1.652213887833047,1.6186033968593014,0.9091178822726912,1.1867475038592845,1.761495536900783,,,0.6068309995095971,inf,,,0.8106635550655678
605,,0.0,0.0,1.5081937522102475,1.4940650606334949,0.7971115484529134,1.2788595949357644,1.7911203865557188,,,0.6153451465759925,inf,,,0.8335958504036409
606,,0.0,0.0,0.6204461894733415,0.5781592125791761,0.6773180916324958,1.3650516927543443,1.5295814579223066,,,0.585052858160615,inf,,,0.9069401949503454
607,,0.0,0.0,0.5963005054182936,0.5173167660501089,0.7189505578339532,0.5626169658555996,0.6514816697688095,,,0.5947193981915972,inf,,,0.8575329456970089
608,,0.0,0.0,1.655160940586124,1.630693715383159,0.8671464724826272,0.4360874316682905,0.6507060494889467,,,0.5641709578113449,inf,,,0.7627852320513471
609,,0.0,0.0,1.4351483300008645,1.4013732635817773,0.880095091753291,0.22165302654727867,0.3665754626931321,,,0.6097226960127671,inf,,,0.7551979495205636
610,,0.0,0.0,1.4078264789612707,1.3957462802453318,0.7768271323268545,0.234337460540366,0.36487367879336197,,,0.5677978065141052,inf,,,0.7640391222721923
611,,0.0,0.0,0.8911401326249228,0.8415767654319893,0.7785805139913883,0.4043826876700148,0.5459802763555668,,,0.6097226960127671,inf,,,0.8938285173138727
612,,0.0,0.0,1.5654168891381215,1.5430812559042255,0.8901722624917823,0.30730686623112013,0.5195277147406985,,,0.6097226960127671,inf,,,0.8335025442384452
613,,0.0,0.0,1.6814064355908935,1.657009346976255,0.8754074414113494,0.32215873840646425,0.5396883326552544,,,0.6125606311107803,inf,,,0.8374662337231313
614,,0.0,0.0,1.609306530309228,1.5975150345128033,0.8626588267637583,0.3468070668845743,0.5304170451252007,,,0.5883313578629602,inf,,,0.8141537634623208
615,,0.0,0.0,1.620499522481274,1.572699821208626,0.867459308089078,0.30190521804218096,0.49386888533703605,,,0.5677978065141052,inf,,,0.7919497745354022
616,,0.0,0.0,1.290468972190539,1.2539669734844385,0.8204420127551619,0.24506005948836318,0.3883940887143714,,,0.6180765742263259,inf,,,0.7637366897700086
617,,0.0,0.0,1.2124492852348157,1.1860333072844025,0.7719532635176966,0.13343717512458533,0.22064575638932082,,,0.6528756675646988,inf,,,0.7675884371569608
618,,0.0,0.0,1.5746335647062932,1.5512167612694894,0.9107164266743811,0.16409381209695637,0.28555464502912553,,,0.6008849035917525,inf,,,0.8160990677951225
619,,0.0,0.0,1.6113135393705562,1.6344495795520788,0.806008289984219,0.22496076725106448,0.40477790152918286,,,0.5370774965580548,inf,,,0.8216157718678173
620,,0.0,0.0,0.9223351503120077,0.8881734483417382,0.7499921812044249,0.42815352289210984,0.45797111957000464,,,0.5947193981915972,inf,,,0.8770234698860905
621,,0.0,0.0,1.5634562954100875,1.5220336106745982,0.8277254255894269,0.6628813344562647,0.8916537168439636,,,0.5604843169999094,inf,,,0.81945383235955
622,,0.0,0.0,1.7033139617630026,1.6740411059434448,0.9034602707139066,0.7555695979066062,1.188126386583236,,,0.5641709578113449,inf,,,0.823360262997685
623,,0.0,0.0,0.7655138134586658,0.7113731394863085,0.7715937836820899,0.7324777137463584,0.7915062734119452,,,0.5641709578113449,inf,,,0.9038098526288894
624,,0.0,0.0,1.6224708409098678,1.5206123112965677,0.9049548513464456,0.3752372690944936,0.5617569678335772,,,0.524519217297268,inf,,,0.8687918943211198
625,,0.0,0.0,1.5296546588240887,1.4795308231561815,0.8749654056337202,1.5248252595039367,1.579028096934261,,,0.5947193981915972,inf,,,0.9283564879930466
626,,0.0,0.0,0.7269751077052607,0.6875266785647073,0.7291835186480466,0.7089488423776027,0.6616892905856925,,,0.5978297680564633,inf,,,0.8986794301314907
627,,0.0,0.0,1.1351009771765335,1.1107918165513955,0.7888807601484965,0.24512338676049583,0.37838799700687675,,,0.5641709578113449,inf,,,0.8402807206246713
628,,0.0,0.0,0.12925332146056012,0.08700493086425895,0.5480514556478187,0.3149067313093409,0.39607957506204466,,,0.5451288209179292,inf,,,0.9038954227028301
629,,0.0,0.0,1.3376621051698294,1.3015426343518284,0.8776192752369324,0.2190275526442945,0.38534174622976725,,,0.6380535849069913,inf,,,0.6827205593805658
630,,0.0,0.0,1.3970597378391616,1.3829325887830526,0.8792105818381349,0.22948810149103685,0.4120567989988925,,,0.5713653840954815,inf,,,0.7503030977115495
631,,0.0,0.0,1.3696441597169746,1.3899526307393193,0.8708370816203271,0.2380041431728582,0.4139309468864125,,,0.552929491858785,inf,,,0.735468505431046
632,,0.0,0.0,0.7914056723672532,0.7547241913721583,0.6830557164203126,0.30412444869949967,0.40335991920319564,,,0.5915533975974677,inf,,,0.8959745128472512
633,,0.0,0.0,1.07246340752238,1.00906165911059,0.7859232449725171,0.7317555096033675,0.8735028731138169,,,0.6380535849069913,inf,,,0.8869374049087813
634,,0.0,0.0,0.6803096831049226,0.6783022589402845,0.4902542378982953,0.6894127095488439,0.9599709256688804,,,0.5947193981915972,inf,,,0.8802864275050039
635,,0.0,0.0,1.3540023890459263,1.3595231109903496,0.8095131431417564,0.7670460870128643,1.0108620758771307,,,0.5947193981915972,inf,,,0.8007620576911224
636,,0.0,0.0,1.4125862661643742,1.3727505438032674,0.820913285965265,0.7167523143427501,0.9782631552283485,,,0.648888643467878,inf,,,0.8445067767725428
637,,0.0,0.0,0.6225089597830946,0.6071801688125051,0.5271715481762747,0.6394460698061268,0.8363580956414828,,,0.6425374456860184,inf,,,0.9116470263307082
638,,0.0,0.0,0.8053353723211486,0.7790738369872829,0.7364524109460111,0.5820154766132891,0.8441449199868275,,,0.6153451465759925,inf,,,0.8166953456906801
639,,0.0,0.0,1.3931367897937292,1.364107942441782,0.7618127235812687,0.47833720128016105,0.7058278943163085,,,0.6233814453054027,inf,,,0.7981463356585364
640,,0.0,0.0,0.3291209816049105,0.26672445908051196,0.700416961583946,0.6564956332021381,0.8126995486265172,,,0.6097226960127671,inf,,,0.8948623430080757
641,,0.0,0.0,0.5997895349137918,0.5826341452290336,0.5098614624326065,0.5730427156255394,0.6710605448012816,,,0.62595550513784,inf,,,0.8784322745229058
642,,0.0,0.0,1.3612944701509593,1.3496797172313797,0.8617584582147284,0.3361001905187565,0.4981239742935733,,,0.6233814453054027,inf,,,0.8104543361747171
643,,0.0,0.0,1.4757976091992357,1.4565298007909167,0.787935721246957,0.2569515897975845,0.4030206182638492,,,0.5883313578629602,inf,,,0.7622193274243981
644,,0.0,0.0,1.3973508210584014,1.37008388389826,0.9129130233558104,0.3081798587777917,0.4580051709820738,,,0.5883313578629602,inf,,,0.7935118522115961
645,,0.0,0.0,1.458592234732544,1.425394266561829,0.8748648538442594,0.2593818943930366,0.4180028442287121,,,0.6068309995095971,inf,,,0.7923027606467926
646,,0.0,0.0,1.353238607090942,1.3310472348228142,0.9154829593289836,0.331352082383339,0.4946794627088685,,,0.6207552362147116,inf,,,0.8479636645390923
647,,0.0,0.0,1.4976660005302311,1.4692741518100374,0.8477897023045085,0.24929860835905157,0.38457689192361344,,,0.6309483474627791,inf,,,0.7855600736443934
648,,0.0,0.0,1.588133340100705,1.5710582243025053,0.8977724107825015,0.30699572258548,0.4403099482788856,,,0.6528756675646988,inf,,,0.8087154990525891
649,,0.0,0.0,1.450038628064535,1.4361370006850223,0.8818025837714589,0.3249126943787189,0.4441377221826412,,,0.6403206450210053,inf,,,0.8457332471736686
650,,0.0,0.0,1.4581926925594695,1.4492648214380675,0.8529821453300055,0.3234624609280623,0.46767227154728125,,,0.6180765742263259,inf,,,0.8379294377989824
651,,0.0,0.0,1.4278544614476145,1.406038034410378,0.810934479001095,0.35443607947386235,0.5022641372285161,,,0.6097226960127671,inf,,,0.8700501395577533
652,,0.0,0.0,1.4523189211261907,1.432495866165012,0.7653225369029175,0.28752865104729713,0.4170264931431819,,,0.6125606311107803,inf,,,0.8070473687751081
653,,0.0,0.0,1.4937454445785916,1.4637128327964923,0.8714636867887879,0.34687957847525236,0.4856300986769759,,,0.6309483474627791,inf,,,0.8021664727260789
654,,0.0,0.0,0.2583197561569447,0.19352659109714246,0.7236293437018392,0.6102739404277842,0.5733241471672843,,,0.6403206450210053,inf,,,0.9017072794706912
655,,0.0,0.0,1.100924269486611,1.056022618091963,0.814763196501647,0.3270321689917497,0.44359194379805106,,,0.6333676938231112,inf,,,0.7579806009224992
656,,0.0,0.0,1.4005816960251634,1.392147519928868,0.8919009550607677,0.20502976787084978,0.31327614272103527,,,0.6528756675646988,inf,,,0.807469949137874
657,,0.0,0.0,1.361032331713,1.3560785113165361,0.8410191297865621,0.2431204071425314,0.36056167182915244,,,0.6180765742263259,inf,,,0.8496096447381802
658,,0.0,0.0,1.3962063251254615,1.3288242941520299,0.8358315305172748,0.14775341861681857,0.25150543153751537,,,0.6068309995095971,inf,,,0.7706372509893734
659,,0.0,0.0,0.9464972312092463,0.8305874741520141,0.7622762682007652,0.9256146985366708,0.831053065482049,,,0.6468212168108125,inf,,,0.9452515034402306
660,,0.0,0.0,0.2995334833849547,0.21939156000949211,0.7968745929587409,0.8477618692204819,0.7498905494452327,,,0.6097226960127671,inf,,,0.9472578618514947
661,,0.0,0.0,0.8911519298356678,0.8517624282027049,0.8367134801858104,0.3703421577614981,0.5306382331194641,,,0.6233814453054027,inf,,,0.8109777337470702
662,,0.0,0.0,0.18592973281183492,0.1720189714121596,0.5135464068354452,0.8736738282109953,0.9745110154952001,,,0.6333676938231112,inf,,,0.9468973292420809
663,,0.0,0.0,1.624334683771742,1.607150012856659,0.8757543652212522,1.1775855811096725,1.3391355166192245,,,0.5329562494928909,inf,,,0.8291633106663782
664,,0.0,0.0,1.5903278301362644,1.5851121923166038,0.8900005732040884,1.3948099084355252,1.8027825407048896,,,0.5947193981915972,inf,,,0.866922799971831
665,,0.0,0.0,1.4014929456125098,1.3683311946126695,0.8175707885391974,1.5266692099057677,2.1407422337789583,,,0.6097226960127671,inf,,,0.8533906954979397
666,,0.0,0.0,1.6297211487811807,1.6053406712063212,0.881718665935338,1.6499468866122886,2.086463135172699,,,0.5883313578629602,inf,,,0.8764924899432435
667,,0.0,0.0,1.635601816272368,1.599204474711657,0.8904344639712413,1.1891087354314367,1.639102951266519,,,0.5748741956352443,inf,,,0.8127765418822975
668,,0.0,0.0,1.7302476604298431,1.7201549000713874,0.9323356256595704,1.2662418781442557,1.5850206084498284,,,0.5713653840954815,inf,,,0.8217092091719054
669,,0.0,0.0,0.7864598665601222,0.7172004053649829,0.748327833125674,1.473491333493641,1.4608951322389585,,,0.6619902821573977,inf,,,0.9347758980337297
670,,0.0,0.0,1.649956563022832,1.6210993021280928,0.8812801350569822,1.1319522845193735,1.553055060318468,,,0.585052858160615,inf,,,0.8805148400180458
671,,0.0,0.0,1.5493227282656377,1.5401016332034827,0.8762243227865092,1.844651831393595,2.548477402075072,,,0.5287703885177266,inf,,,0.8867172593309097
672,,0.0,0.0,1.6104917725133894,1.5953991055094132,0.8837538668472511,2.013252416527042,2.821672346327972,,,0.6380535849069913,inf,,,0.8499696130489016
673,,0.0,0.0,1.7449792818076975,1.6803945888546976,0.9230901092678041,2.1174680456374437,2.658516185807883,,,0.5783247308855777,inf,,,0.8594450493766463
674,,0.0,0.0,1.7466678973613714,1.7081727675624732,0.9202640512079512,1.7664687275834419,2.5130516819458437,,,0.5451288209179292,inf,,,0.8638119844108426
675,,0.0,0.0,1.416386511135756,1.3863521840178903,0.8578181094776507,1.1642064605323594,1.872315918501028,,,0.5713653840954815,inf,,,0.8698791895731963
676,,0.0,0.0,0.3859769365986326,0.33371985362903805,0.5177097622630125,1.262952334248699,2.0117418702575325,,,0.6008849035917525,inf,,,0.8718347174116635
677,,0.0,0.0,0.8691273365275078,0.8306365948142671,0.7806757655857616,1.3056511330533345,1.34657473393697,,,0.6153451465759925,inf,,,0.8893197999131496
678,,0.0,0.0,1.3474493969123948,1.3249893173278586,0.7867318549082747,0.6750830326897728,0.9147716764562099,,,0.6333676938231112,inf,,,0.8261332887089933
679,,0.0,0.0,0.8407840748980231,0.7787215163560336,0.7683088757711982,1.4177180977752668,1.2114277526457893,,,0.6447042257417027,inf,,,0.9552409201637803
680,,0.0,0.0,0.8425135919625938,0.8100656582153785,0.7839419720460281,1.720387843550143,1.7131291131954034,,,0.6566669596287297,inf,,,0.9592270587317481
681,,0.0,0.0,0.5432490923265497,0.4956046170369148,0.6631102456011233,1.693454704160604,1.479163441985112,,,0.6153451465759925,inf,,,0.9613747927121451
682,,0.0,0.0,0.6934945575159037,0.6433973711233925,0.7578169063886538,1.9488231713320916,1.3565805397126596,,,0.6309483474627791,inf,,,0.9566010948315197
683,,0.0,0.0,1.1624006393628075,1.1293926987952883,0.8474170488493755,2.4470775028447145,2.3696542531610216,,,0.6468212168108125,inf,,,0.9475699580964603
684,,0.0,0.0,1.04511439210253,0.9875647104102204,0.7990074986678383,1.8402011941644518,1.624275933889431,,,0.6403206450210053,inf,,,0.9537201090990919
685,,0.0,0.0,1.185744238788417,1.178419937413682,0.804851094460939,1.8248203348980188,1.6394469562537746,,,0.62595550513784,inf,,,0.9496414732960498
686,,0.0,0.0,0.9269979408667799,0.8780320048330501,0.7874847952706125,2.2081779966813,2.1244735501444807,,,0.6468212168108125,inf,,,0.9583361133715711
687,,0.0,0.0,1.1332598087591725,1.036375626001873,0.8077857280770032,1.3273518841115388,0.9481060960340426,,,0.6425374456860184,inf,,,0.955603096574971
688,,0.0,0.0,1.0714336504086364,1.0074982907711607,0.7658848396798468,1.3382476840127822,0.9829108833799556,,,0.6380535849069913,inf,,,0.9487447567730826
689,,0.0,0.0,0.6719223145117036,0.6393565816865522,0.7454903723445294,1.6000622285024,1.2062664753241559,,,0.6547956803312163,inf,,,0.9533993467241882
690,,0.0,0.0,0.6251518137396233,0.6008693879274751,0.7147622244420473,1.7142094111857242,1.1012323588295334,,,0.6284777104787076,inf,,,0.9491499349356894
691,,0.0,0.0,0.9828079029033209,0.9450373304536287,0.8116860544425183,1.0688762300455807,0.9768669021653587,,,0.6584896970785714,inf,,,0.9497363920406983
692,,0.0,0.0,1.1485865863482445,1.0941345743115514,0.9269977166190109,1.8024646731910425,1.5983007293848792,,,0.6403206450210053,inf,,,0.9507747097946336
693,,0.0,0.0,0.9024629781041501,0.8550491733189015,0.7735043566204289,1.6362236180388083,1.2632414550466906,,,0.6447042257417027,inf,,,0.9506125388853797
694,,0.0,0.0,0.6727004359464884,0.6335268420542337,0.7364829385671771,1.3674381958972668,1.0938982139305293,,,0.6153451465759925,inf,,,0.9478394738736737
695,,0.0,0.0,0.8412096947958859,0.8379660781475056,0.870765150126741,1.3080520418773363,1.2655895514956292,,,0.6468212168108125,inf,,,0.9511850112774075
696,,0.0,0.0,0.9295497003026499,0.8792543901186728,0.8371175258111845,1.7071594589805812,1.484801857375859,,,0.6309483474627791,inf,,,0.8958990434776116
697,,0.0,0.0,1.3292674452188726,1.2950886663277656,0.8678235429463022,2.313032367421254,1.7579501770746417,,,0.6468212168108125,inf,,,0.8874053735011311
698,,0.0,0.0,0.7402546303691325,0.6689671136574104,0.7767063519663913,1.6873788580710032,1.4169432095860692,,,0.6380535849069913,inf,,,0.9475032514224926
699,,0.0,0.0,0.25239391199048244,0.18429052461425327,0.42241201396755246,1.6524459380936936,1.4552606125811178,,,0.6180765742263259,inf,,,0.6015738880232835
700,,0.0,0.0,0.7734183633503525,0.7005436686632986,0.842944740570151,2.2884686987611937,1.9975299234808572,,,0.6727386042041725,inf,,,0.9283683592085179
701,3.3058872018578307,-0.011019624006192769,0.0,0.8618136092838976,0.8077309997096463,0.7038786349879068,2.523834244098819,1.7787885890821937,,,0.6333676938231112,9.009669676514031,inf,,0.7517665164890625
702,1.9902104079518934,-0.006634034693172978,0.0,0.8364484408517325,0.8123320305743884,0.6800149414084259,3.1587496649757334,2.340685466459323,,,0.6284777104787076,7.693992882608094,inf,,0.7757872450708798
703,,0.0,0.0,0.8298476254165571,0.8055985079921177,0.7414538231023907,2.2474083316757754,2.0279385805164485,,,0.6207552362147116,inf,,,0.9241011992510163
704,,0.0,0.0,0.8035537206280007,0.7956891479003975,0.6383195530561357,2.7994576924183847,2.6687308631865614,,,0.6447042257417027,inf,,,0.9390542579234472
705,,0.0,0.0,0.7403389626916215,0.723227603788363,0.7394759573346645,1.9375704360347332,1.3482414595917371,,,0.6403206450210053,inf,,,0.646357619602469
706,,0.0,0.0,1.2362201639888932,1.1601839038270565,0.82432566078319,1.700781389841266,1.0230648814798957,,,0.6380535849069913,inf,,,0.9455818772903597
707,,0.0,0.0,1.1674413736868194,1.1155164675655256,0.7635731038221673,1.683299020013818,1.0158836938734255,,,0.6509067234006624,inf,,,0.9525768020435053
708,,0.0,0.0,1.009769569381724,0.9512105212237768,0.7810680134985675,2.1218494742098857,1.2323624693919841,,,0.6284777104787076,inf,,,0.9487624017501607
709,,0.0,0.0,0.8420428920035877,0.8187959736255079,0.7392662174181613,1.9643653748509682,1.3847349809082723,,,0.648888643467878,inf,,,0.8638527990190704
710,2.576919358810912,-0.02576919358810912,0.0,0.8287852257372846,0.8128270310723311,0.7352922361781136,2.6887402338173008,1.4843239713303968,,,0.6380535849069913,7.173458444715143,inf,,0.8040832716077799
711,2.4857072904714874,-0.016571381936476583,0.0,0.9415477939958377,0.8547886216969798,0.7248281463757538,2.969292687903393,2.1996742491860775,,,0.6333676938231112,7.495541943884256,inf,,0.6095007733594096
712,2.5682882587270512,-0.008560960862423504,0.0,1.1780323874592633,1.158491230444783,0.7883445196974012,3.34106414305755,2.5149615446551024,,,0.6740851607140061,8.272070733383252,inf,,0.6953683287118808
713,2.70805020110221,-0.009026834003674034,0.0,0.9535915011119211,0.893808056289998,0.7504021330874072,2.2185975429605205,1.3930908394636536,,,0.6547956803312163,8.411832675758411,inf,,0.6610127804542165
714,2.026281514103573,-0.013508543427357154,0.0,0.8147517350503001,0.7875323294522241,0.6889372811398428,2.278000968699817,1.3103489636016805,,,0.6468212168108125,6.896705442795552,inf,,0.7910682725968167
715,2.4079456086518722,-0.008026485362172908,0.0,0.8289589245529423,0.79279169842924,0.627977088171255,2.2906600947430142,1.3438937109981626,,,0.6357360191111145,8.111728083308073,inf,,0.6235490935827454
716,2.968670755148835,-0.04947784591914725,0.0,0.7035855788600865,0.6684046774476949,0.6260592044264239,2.2716354289278295,1.4093520741710193,,,0.6357360191111145,6.671366500917907,inf,,0.5789406860531587
717,2.7593434954897607,-0.009197811651632536,0.0,0.8308568789422838,0.7982118501577642,0.7977016722538626,2.2173346272748886,1.2480732046222371,,,0.6233814453054027,8.463125970145962,inf,,0.6608781783793809
718,2.2569542973548833,-0.01504636198236589,0.0,0.6018155688072472,0.5554485374449504,0.7482499336615902,2.4768469824272534,1.956338530510732,,,0.6699045166045591,7.264430222920869,inf,,0.5887758764902203
719,2.798483289592697,-0.03731311052790263,0.0,0.5599404217130749,0.5081053695108252,0.6810184601071411,1.4962469564897432,1.1237478398491703,,,0.6584896970785714,7.1034998561082325,inf,,0.6004240667766118
720,3.277767342696392,-0.021851782284642615,0.0,0.898285063413809,0.8530589739710636,0.660626601350002,1.9658709898739897,1.0815208000278527,,,0.6380535849069913,7.824046010856292,inf,,0.6925694180932678
721,,0.0,0.0,0.7636354065093234,0.7309845155209724,0.6977339008954777,1.5340131587401318,0.8726117559410189,,,0.6425374456860184,inf,,,0.9175342405120847
722,3.050763021960439,-0.06101526043920879,0.0,0.9454445957149767,0.8734815765372569,0.7938222219803545,2.680771834541949,1.5395477241222695,,,0.6858323589451731,6.782592136028131,inf,,0.9273606025171671
723,3.4883740752345442,-0.023255827168230294,0.0,0.5784704378503362,0.5522932603463196,0.723399067193792,2.0713658162303243,1.574137441665688,,,0.6207552362147116,8.411832675758411,inf,,0.6390257337699737
724,3.1918422142330627,-0.021278948094887083,0.0,0.5297897537482528,0.5005727573791984,0.6472540380083235,1.8459811056629263,1.0413955216315398,,,0.6468212168108125,7.669895331029034,inf,,0.8351742247790646
725,,0.0,0.0,0.8209962827615531,0.7883695407335722,0.6581410689607027,1.8162396678152422,1.3128751501661493,,,0.6357360191111145,inf,,,0.8641338260180943
726,1.3997173814520312,-0.004665724604840104,0.0,0.7658191643152202,0.739177876892081,0.6092706758871721,2.448777990860753,1.7086863257108864,,,0.6602640781246099,7.1034998561082325,inf,,0.6958414894093861
727,,0.0,0.0,0.9006153243402208,0.8742104096666731,0.6459892538485609,2.392964536702711,1.8927284771958823,,,0.6566669596287297,inf,,,0.8059247107292618
728,,0.0,0.0,0.9583670944412255,0.9394939455860167,0.8227235113300511,1.8688393503308627,1.290408178670248,,,0.6602640781246099,inf,,,0.9404920669477611
729,,0.0,0.0,0.9126368638300779,0.8571915007318821,0.7291560455404853,1.9464207367499455,1.045729261317996,,,0.6357360191111145,inf,,,0.9505244171858093
730,,0.0,0.0,0.5642492662270988,0.5102150357039437,0.6984135180723497,1.2257485048745256,0.9851627949869142,,,0.6468212168108125,inf,,,0.6901340144149558
731,,0.0,0.0,0.5992139786391422,0.5740419117864999,0.7361974409243038,1.6245985610977638,0.9676264112687536,,,0.6380535849069913,inf,,,0.6924275059733884
732,1.875141078167106,-0.0062504702605570206,0.0,0.6383261802927818,0.599921327478232,0.5830270729255955,1.643215171250235,0.9570461314110483,,,0.6566669596287297,7.578923552823307,inf,,0.7193344120225519
733,,0.0,0.0,0.44344527014050794,0.375605049073668,0.4860572863159259,2.327936858997187,1.8597341409595587,,,0.6699045166045591,inf,,,0.7700622570414991
734,2.8134107167600364,-0.009378035722533455,0.0,0.8861291194259443,0.8587608078017811,0.6604824781849373,2.9529115116963323,1.8287713586895693,,,0.6180765742263259,8.517193191416238,inf,,0.8649532371414818
735,,0.0,0.0,0.7259294935951415,0.6695521311586115,0.6545906457152824,1.682955231159791,1.131574928785377,,,0.6584896970785714,inf,,,0.9552520272780158
736,2.1066562046933393,-0.021066562046933395,0.0,1.0513625312349568,0.9719740862517474,0.6083534648583737,3.036448959533109,2.2819427930653595,,,0.62595550513784,6.319968614080018,inf,,0.726634487443962
737,,0.0,0.0,0.9538885611866796,0.8612929889142271,0.8349485934114144,2.7540608973897034,2.082332552783229,,,0.6380535849069913,inf,,,0.8595653126792112
738,2.4857072904714874,-0.016571381936476583,0.0,0.3786529541956727,0.34222304806037723,0.568829383208065,2.3906321689664933,2.086439037506131,,,0.6207552362147116,7.495541943884256,inf,,0.6887691767657725
739,1.0498221244986778,-0.0034994070816622594,0.0,0.9183747898786747,0.9059658363165379,0.7533487274542184,2.583116897883042,2.2107006590630407,,,0.6509067234006624,6.753604599154879,inf,,0.6444121173461906
740,,0.0,0.0,0.600773548883485,0.5545429560069367,0.6235060085979526,2.188601850670142,1.6094212742230107,,,0.6547956803312163,inf,,,0.6563714241642407
741,,0.0,0.0,0.7618560848034853,0.7198449729747731,0.7818137839214252,1.6767208176483979,1.0799576348987399,,,0.6584896970785714,inf,,,0.6991531609170643
742,2.336486644669727,-0.007788288815565757,0.0,0.7764318914648987,0.7331853702851155,0.7411938636326454,2.3366952124117715,1.5621628781025483,,,0.6233814453054027,8.040269119325927,inf,,0.8911922761800927
743,,0.0,0.0,1.1547641796582548,1.1476566488853854,0.7275407300558112,2.528848070922478,2.234319175023938,,,0.6233814453054027,inf,,,0.9534757502939637
744,,0.0,0.0,1.2493298648046873,1.21980709485623,0.8890349174105799,2.24401883226653,1.7194910531803798,,,0.6333676938231112,inf,,,0.946316811038811
745,2.1216381085947114,-0.01233370170244456,-0.008882679383502554,0.6685910981748753,0.6164775206341616,0.6620540140571023,1.9306317518723057,1.2414099276101032,2.4062553476318818,,0.5915533975974677,6.509725149361491,1.8533173622274883,inf,0.7035350694050369
746,,0.0,0.0,0.6783535263141334,0.6205690108622748,0.5198763377902612,1.063149343621165,0.7583017627697737,,,0.5947193981915972,inf,,,0.91392500269839
747,1.192922968139351,-0.003976409893797836,0.0,0.25072527410623685,0.20395896588925577,0.5141176724231182,1.3825819236190868,0.9519556659755948,,,0.6008849035917525,6.896705442795552,inf,,0.7392346157108973
748,,0.0,0.0,0.496946783295898,0.4197621379653406,0.7183755239813793,1.1078377947205347,0.83906650928254,,,0.6668815377411301,inf,,,0.8092975082260715
749,,0.0,0.0,1.0577310045528538,0.9835076909323202,0.8009910234900536,1.8860737493496107,1.2389801199855783,,,0.6699045166045591,inf,,,0.9030653337268039
750,,0.0,0.0,1.0613363503982738,1.039743557290295,0.7380372400000841,1.6746694292452604,0.9893908410928225,,,0.5748741956352443,inf,,,0.9446997237853325
751,,0.0,0.0,0.679463013131354,0.6622383055842092,0.729843391801483,1.9392911603975318,1.1862789278513453,,,0.6284777104787076,inf,,,0.9072401744996771
752,,0.0,0.0,0.6455640460324833,0.6268520226621266,0.7290989931207745,2.44553957724667,1.4500962393877277,,,0.6380535849069913,inf,,,0.8142997763038805
753,,0.0,0.0,1.119285781198553,1.1030432313045917,0.8657779277365205,1.7758376012306494,1.4788196375699048,,,0.62595550513784,inf,,,0.9380929287957724
754,,0.0,0.0,1.208269940752375,1.1867040477697552,0.8409270356308591,2.4433465589045946,2.273757703901402,,,0.6584896970785714,inf,,,0.95568501892585
755,3.986788872413628,-0.02657859248275752,0.0,0.855677154396396,0.767399846533965,0.5653606090656206,2.5377384781967285,1.8158578458743966,,,0.6153451465759925,7.941829046512676,inf,,0.8518432629221825
