,hr+bvp_XAp0,hr+bvp_XAp1,hr+bvp_XAp2,hr+bvp_XCond1,hr+bvp_XCond2,hr+bvp_XDist,hr+bvp_XFuzz1,hr+bvp_XFuzz2,hr+bvp_XK2_1,hr+bvp_XK2_2,hr+bvp_XPermEn,hr+bvp_XSamp0,hr+bvp_XSamp1,hr+bvp_XSamp2,hr+bvp_XSpec
0,,0.0,0.0,0.8221072888067821,0.7777812090107494,0.5880693657250861,1.2826408117468415,1.3739277081505468,,,0.6153451465759925,inf,,,0.9057324427144261
1,,0.0,0.0,1.082323670227571,1.0714040277298833,0.8404550481116391,2.260681294477444,2.9710031529129406,,,0.62595550513784,inf,,,0.9240879823864708
2,,0.0,0.0,0.7366630067745461,0.6998561565261415,0.7821875592624061,2.338633896430478,2.5507736659236344,,,0.6357360191111145,inf,,,0.9110816094868124
3,,0.0,0.0,0.3441494199558571,0.24925270260481674,0.4830484533123248,1.8285055134980077,2.226591967785883,,,0.6380535849069913,inf,,,0.9480895045694735
4,,0.0,0.0,1.2661560528144296,1.2236503190717287,0.8022900752599668,2.8035712437977764,2.5209226950894807,,,0.648888643467878,inf,,,0.8953816608400107
5,,0.0,0.0,0.9004764894440207,0.8575114834495329,0.657291345816923,2.4553486938499915,2.2712479073699567,,,0.6566669596287297,inf,,,0.8491313970673434
6,,0.0,0.0,0.37805483866249,0.338923335871014,0.6288929283098132,2.5230308135005473,5.662708666563034,,,0.6425374456860184,inf,,,0.7269180701325505
7,,0.0,0.0,0.4678866052523524,0.39481613622427986,0.47030418357899667,2.007934297362068,4.052956749993747,,,0.6180765742263259,inf,,,0.9165000200857601
8,,0.0,0.0,0.28550353201875855,0.24318544997542454,0.49712539868065625,2.2123705269316787,3.4784547861444604,,,0.5641709578113449,inf,,,0.7884698322625527
9,,0.0,0.0,0.7476271185917834,0.7187549351363185,0.56727989336857,1.711014119096564,1.7210683407191028,,,0.6068309995095971,inf,,,0.7938588453150963
10,,0.0,0.0,0.46638152025186014,0.405122120360571,0.5027012676457324,1.8159152098128797,2.2758505946985284,,,0.5490601803369085,inf,,,0.6781319985488496
11,,0.0,0.0,0.7607714307820853,0.7376919694704637,0.7972618858533053,1.8902200171127383,2.0808894230116555,,,0.5947193981915972,inf,,,0.9481241483283328
12,2.120263536200091,-0.00706754512066697,0.0,0.2400665695721527,0.17682186557610483,0.6054681373430582,1.2731744483671217,1.5610042732616956,,,0.6309483474627791,7.824046010856292,inf,,0.7205246889606335
13,,0.0,0.0,1.6551191991233989,1.6229080444464292,0.8821925881779035,0.5025583429217979,0.9577781132481554,,,0.468121228110369,inf,,,0.8937457431323951
14,,0.0,0.0,1.684149132682251,1.6369239981948935,0.9296058677314427,0.2633189531699262,0.49066179469596083,,,0.5113665138247345,inf,,,0.8709550873674493
15,,0.0,0.0,1.5856606446196913,1.5733998007650944,0.938201910877119,0.30361429091594067,0.6194941145489086,,,0.4880666971167561,inf,,,0.8577195343506506
16,,0.0,0.0,1.3618025161274208,1.3523523138295677,0.8495420923996534,0.48900177972419423,0.910371011897544,,,0.5490601803369085,inf,,,0.8168116706290239
17,,0.0,0.0,0.9425710392196327,0.9121634656883852,0.7681586720297509,0.4036940439024688,0.7000925040750163,,,0.5490601803369085,inf,,,0.8631557143825583
18,,0.0,0.0,1.7826083952350287,1.8141131510192927,0.8497163475413475,0.9570339424262095,1.9135863360142922,,,0.5947193981915972,inf,,,0.8859590263147764
19,,0.0,0.0,1.7772070420440254,1.7355422669286247,0.9301738239318169,0.9617301785219982,1.769494526226628,,,0.6068309995095971,inf,,,0.9017505836063001
20,,0.0,0.0,1.7712469489903786,1.7319204651929911,0.9575460998227331,1.058842268078759,1.753161470439406,,,0.6233814453054027,inf,,,0.8960204515281077
21,,0.0,0.0,1.7848571630632422,1.7507349406649684,0.94123239118409,1.1701389118075591,2.607567741722602,,,0.6153451465759925,inf,,,0.8838708978902048
22,,0.0,0.0,1.7811504219383103,1.7482384178021477,0.8873963497440978,1.2899576621381899,2.982497186450888,,,0.6309483474627791,inf,,,0.8726739805507381
23,,0.0,0.0,1.7857612274674888,1.754868899683578,0.9083067619459724,1.5313107320640573,2.241845112804917,,,0.6713451011121618,inf,,,0.8516203853803461
24,,0.0,0.0,0.15530386776307528,0.10484370878752049,0.6094055106712604,1.3354676560321341,1.3048203830127076,,,0.6566669596287297,inf,,,0.6596092287730394
25,,0.0,0.0,1.541641785840947,1.539642460962784,0.8753515692795297,1.2200717876819644,1.0925437088122831,,,0.6822068148872973,inf,,,0.9221380469021887
26,,0.0,0.0,0.3685773936172741,0.3171539470459005,0.483867590008026,1.6231566621325524,1.2098988156435602,,,0.676637947632344,inf,,,0.6545935637922348
27,,0.0,0.0,1.591347001648388,1.5828266964396516,0.8590173597155553,2.1113266728292865,2.117317877710562,,,0.6528756675646988,inf,,,0.9119769797302141
28,,0.0,0.0,1.7586246625449085,1.7385158455783607,0.8414180457002126,2.132140042289574,2.36104032222532,,,0.6699045166045591,inf,,,0.9127531782014243
29,,0.0,0.0,1.7678136582634283,1.7078275511320329,0.9124686268362007,2.1005699078394366,2.9429745625018215,,,0.675384900321601,inf,,,0.926529966915926
30,,0.0,0.0,1.7161364693660954,1.678637410750734,0.8654001574316944,2.1531212161306734,2.53265435384751,,,0.6447042257417027,inf,,,0.9290813487003181
31,,0.0,0.0,0.5211847214041972,0.48363260297568555,0.7284301377797295,1.3865031793760347,1.209818316955838,,,0.6333676938231112,inf,,,0.9323466542438736
32,,0.0,0.0,1.239138143064194,1.183700250753452,0.7634744563122363,0.9094994902116097,1.0520242464522207,,,0.6097226960127671,inf,,,0.9061816534883902
33,,0.0,0.0,0.5430403416653675,0.5009174660029687,0.6577379898072188,1.036732390677515,1.021433011392414,,,0.6153451465759925,inf,,,0.9465825400992877
34,,0.0,0.0,0.4933032317730968,0.4590541146636319,0.6423776519429794,2.4215082074875807,1.7355323849656425,,,0.6713451011121618,inf,,,0.9519740318979103
35,,0.0,0.0,0.7085071705831156,0.6792573675632322,0.582127989872815,1.4519085772729194,2.1091476179217556,,,0.5370774965580548,inf,,,0.942199406853575
36,,0.0,0.0,1.7426246551440188,1.7196203690491394,0.9192006538399538,1.650951374967763,2.331781639459897,,,0.5022576003740722,inf,,,0.8898929817061619
37,,0.0,0.0,1.7625296122538245,1.7308749029880846,0.9276973298983904,1.927300520294342,2.656834679802455,,,0.5451288209179292,inf,,,0.9072560196721077
38,,0.0,0.0,1.7774393644808368,1.7531618857037166,0.9341063765143995,2.0948220787131913,2.455855594754015,,,0.5370774965580548,inf,,,0.8839103284046799
39,,0.0,0.0,0.2828141130530993,0.2267771036827319,0.4999340566460173,0.8276691595372079,0.41922989012919154,,,0.5915533975974677,inf,,,0.9517915627304642
40,,0.0,0.0,1.6874682684877786,1.622522386574311,0.9044241525402704,0.2249431973174805,0.4164701129102588,,,0.5329562494928909,inf,,,0.8949003274262466
41,,0.0,0.0,1.7607222660476736,1.682006266084411,0.8757192334782231,0.6907661983371445,0.6810662540226337,,,0.6668815377411301,inf,,,0.9024712120899521
42,,0.0,0.0,1.7900002255238388,1.7540943296016756,0.9130504444023342,0.8126097617719408,1.3119565363687975,,,0.6468212168108125,inf,,,0.9009918971836335
43,,0.0,0.0,1.780740410231783,1.7438733225823289,0.9593091357442418,0.7425664852152508,1.203342234596244,,,0.6584896970785714,inf,,,0.884837760888034
44,,0.0,0.0,1.324450932422475,1.2938907580888257,0.9274481475346643,0.4052290412708777,0.5471981606091415,,,0.6125606311107803,inf,,,0.9395622658212944
45,,0.0,0.0,1.7866260334405677,1.7392822379350301,0.9566436421593596,0.4950236054132025,0.7950675722656522,,,0.6153451465759925,inf,,,0.873248876820645
46,,0.0,0.0,0.23810219477118838,0.16922012894310864,0.6558950791220316,0.4033618606387265,0.480406988988862,,,0.6097226960127671,inf,,,0.964122808341185
47,,0.0,0.0,1.6136988977508722,1.6042301052274928,0.9244052777838975,0.38025998524646376,0.44591319964955306,,,0.6547956803312163,inf,,,0.9024855630867675
48,,0.0,0.0,0.18508749434778257,0.14403166584271612,0.6645792484798425,0.8131235935626232,0.846748988462693,,,0.6425374456860184,inf,,,0.9382645331253884
49,,0.0,0.0,1.7745182666179762,1.768402578614928,0.8689953145942813,1.0122226491764315,0.901051153050515,,,0.676637947632344,inf,,,0.8615488392401024
50,,0.0,0.0,1.76276961603644,1.7597138480171757,0.8941303136623215,0.621284944539765,0.908296350557458,,,0.6309483474627791,inf,,,0.91515447905881
51,,0.0,0.0,0.15530386776307525,0.09915938817431687,0.7573431661143664,0.8582820240803427,1.0676827047068391,,,0.6097226960127671,inf,,,0.9491044229540698
52,,0.0,0.0,1.782753442157656,1.7267283129915945,0.9074468742214684,1.452132217888298,1.612498251442828,,,0.6668815377411301,inf,,,0.8680939929825915
53,,0.0,0.0,1.786515269726256,1.7483101065812172,0.8636724734840734,1.2719395862020781,1.9437304083836942,,,0.675384900321601,inf,,,0.8979060858931152
54,,0.0,0.0,0.3782133637254023,0.3044645867425468,0.799214548778481,1.3035339857143298,1.0869767208532561,,,0.6684167106117298,inf,,,0.959516810142641
55,,0.0,0.0,1.7756562211847688,1.7371118554288243,0.9173630922953234,1.8088217261105302,2.7895025144342913,,,0.6357360191111145,inf,,,0.9180945056857566
56,,0.0,0.0,0.39535130103941407,0.3558632824791268,0.6458403436711319,1.3588905331103946,1.0424576032600903,,,0.6684167106117298,inf,,,0.949515012355559
57,,0.0,0.0,1.6898573506052708,1.6776563410486083,0.593760160010481,0.1575672964661371,0.30896492012930576,,,0.47824363442641393,inf,,,0.9086635727306899
58,,0.0,0.0,0.7273445384488472,0.7176260754578967,0.7300717983783236,0.11507736006986434,0.21414995331132847,,,0.5567373465730988,inf,,,0.7963604530659378
59,,0.0,0.0,0.18880655353635273,0.13772365813710735,0.6253205215116366,0.15691084134099023,0.2285751186078558,,,0.5022576003740722,inf,,,0.9089739249252499
60,,0.0,0.0,1.7629866043765179,1.7261499836725571,0.9676932091260937,0.2205850629739426,0.48043574861880733,,,0.4928685327679205,inf,,,0.8769867142475725
61,,0.0,0.0,1.7639799874420454,1.7311275603497256,0.9125173960134413,0.286384735952914,0.6395872157945666,,,0.5641709578113449,inf,,,0.8670083361221872
62,,0.0,0.0,1.7704490810073157,1.7417005770046239,0.9207976174232319,0.37891208762203266,0.8498906174369557,,,0.585052858160615,inf,,,0.8183583176954173
63,,0.0,0.0,0.5913967943086064,0.5587177621368823,0.64536824917242,0.40302162083660575,0.6595272574396605,,,0.5748741956352443,inf,,,0.9686924932062085
64,,0.0,0.0,0.5173404436157826,0.45713898638047046,0.7964585433940058,0.46499364133338494,0.6101423526788441,,,0.5915533975974677,inf,,,0.9453733743581153
65,,0.0,0.0,1.7417871532045393,1.723275595279293,0.8654084729601773,0.5092936075735421,0.8628703516398818,,,0.5287703885177266,inf,,,0.8724249527133325
66,,0.0,0.0,0.08467349851939517,0.06386563299007435,0.7307701020460909,0.26174134105354524,0.34543094810390096,,,0.5370774965580548,inf,,,0.9612005585556094
67,,0.0,0.0,1.7033646072984912,1.6733353484838052,0.9639826235693885,0.08667797363624992,0.19130209382090058,,,0.524519217297268,inf,,,0.8687735939585882
68,,0.0,0.0,1.5505839781862052,1.5431619760615134,0.9303651260716883,0.148853696268295,0.3016795133246222,,,0.4732203808476458,inf,,,0.8797379513550019
69,,0.0,0.0,1.766622520307703,1.7374434126210554,0.9407407855866766,0.25473276332176825,0.5169485344128357,,,0.524519217297268,inf,,,0.8913677983235794
70,,0.0,0.0,1.771051132645792,1.8001519728241249,0.7630146202898286,0.27627015664950055,0.5845618985126818,,,0.5202020156036558,inf,,,0.86259169216929
71,,0.0,0.0,1.0322889365010788,1.019594515156267,0.8430514831562502,0.31814183515241595,0.6404886771060785,,,0.524519217297268,inf,,,0.9059624720897449
72,,0.0,0.0,0.41383175975687725,0.3661840465401267,0.5694443407766852,0.4281088858147491,0.5068478915965429,,,0.6008849035917525,inf,,,0.9550649265488766
73,,0.0,0.0,0.19517169521930086,0.13700675597705342,0.7115703269945026,0.3725766338009963,0.49630276320725164,,,0.5068466436745385,inf,,,0.9498579062238375
74,,0.0,0.0,1.6061996776924896,1.5738517227317421,0.940752886772246,0.674710683624279,1.1942585806017374,,,0.5915533975974677,inf,,,0.8906958465031157
75,,0.0,0.0,0.7548981803481469,0.7279989858533537,0.7252914165327929,0.46523547051156294,0.6257948219143008,,,0.6153451465759925,inf,,,0.9526358883820821
76,,0.0,0.0,0.19804851594381867,0.15893364306638863,0.6583102948488393,0.31627222780802833,0.4007992060690187,,,0.524519217297268,inf,,,0.9627657282595186
77,,0.0,0.0,1.7148172954348908,1.6790174870124832,0.957068229039962,0.3553229394129654,0.6148298027816874,,,0.5490601803369085,inf,,,0.8540540877636654
78,,0.0,0.0,1.7654078415678163,1.744404204847349,0.9205186162518252,0.4732628809772595,0.9351270766718981,,,0.5158180382284114,inf,,,0.8376214363208278
79,,0.0,0.0,0.10696905971831198,0.08121007474753786,0.47213433553721734,0.25158379832424194,0.3057691031310707,,,0.6038851895711802,inf,,,0.9724010643616666
80,,0.0,0.0,0.12288817977761199,0.06710715430201813,0.6097366421675043,0.137638214563368,0.18115781248027354,,,0.5915533975974677,inf,,,0.9641043554343106
81,,0.0,0.0,1.6616055763487578,1.6244460586907672,0.8833462267075348,0.1472070165876717,0.31056473673764584,,,0.5022576003740722,inf,,,0.8657001486378952
82,,0.0,0.0,1.710691820407272,1.7065514536749782,0.8817673490870479,0.18783571154709083,0.41588855171624217,,,0.5158180382284114,inf,,,0.8599120574648317
83,,0.0,0.0,0.8084123020720124,0.7418045805228254,0.7976974813010783,1.6623379693263243,1.1070744582493055,,,0.6528756675646988,inf,,,0.9576916070328689
84,,0.0,0.0,0.8477699880067269,0.8182879436872087,0.7721900255028922,1.6208222340813896,1.2330636471188627,,,0.6447042257417027,inf,,,0.9541310705230376
85,,0.0,0.0,0.5931320710449873,0.5398002734622436,0.782276038166901,1.075990262585975,0.8107085463133277,,,0.6547956803312163,inf,,,0.9549576927094293
86,,0.0,0.0,0.6821651800248362,0.6518050573679786,0.8186945998310171,1.2041637631268853,1.0609271016860096,,,0.6468212168108125,inf,,,0.9498279556915673
87,,0.0,0.0,0.9997787842403466,0.9730483703697539,0.7696830912263349,1.3693470524858866,1.112698268177636,,,0.6380535849069913,inf,,,0.9390516234587071
88,,0.0,0.0,0.5788903028000126,0.5369480243175327,0.8650334996326363,1.1997307027941264,1.0680658724258043,,,0.6584896970785714,inf,,,0.9450988978168943
89,,0.0,0.0,0.5241151066378492,0.48289554439872207,0.7587912266634099,1.132081868128677,0.921362491580108,,,0.6684167106117298,inf,,,0.9478948531750823
90,,0.0,0.0,0.9623994202136121,0.9143871023102308,0.7940638611578534,1.562668628081656,1.189762436910907,,,0.663668482632973,inf,,,0.9645113832491886
91,,0.0,0.0,0.7690576516796981,0.7532654588823614,0.7442972769983754,1.949589657006036,1.464588337679685,,,0.6566669596287297,inf,,,0.9371943187757187
92,,0.0,0.0,0.6575999688218978,0.619272797895349,0.6935192464620257,2.0890903564778265,1.950584909592032,,,0.6447042257417027,inf,,,0.7484069707927196
93,,0.0,0.0,0.773154728349274,0.7124885376078397,0.8116199910764856,1.7417042443465625,1.8223736986242443,,,0.6403206450210053,inf,,,0.6011868024996764
94,,0.0,0.0,0.30667374100099976,0.28710741759158026,0.7403390373290186,1.582343790332074,2.000152114480918,,,0.663668482632973,inf,,,0.7731764271337914
95,,0.0,0.0,0.8189014980708503,0.7940232814505904,0.7043317346161929,2.541693518484422,1.9277941508358158,,,0.6468212168108125,inf,,,0.8595528813545422
96,,0.0,0.0,0.9508634513931394,0.9043230624819587,0.7646183661468343,1.9524252768994237,2.180732910892732,,,0.6684167106117298,inf,,,0.9464273291748924
97,,0.0,0.0,0.9625536842415587,0.9230336791653427,0.8408545961280451,1.326539198029985,1.0534636348011301,,,0.6153451465759925,inf,,,0.9497731088077976
98,,0.0,0.0,0.5153357100267952,0.4877968315487706,0.6423482434368266,0.9772030869372123,0.6774451374246097,,,0.6447042257417027,inf,,,0.9536217069639774
99,,0.0,0.0,0.7113311402598893,0.689627333849455,0.6986887285017849,1.1573597502641892,0.7860008363364117,,,0.6584896970785714,inf,,,0.9432883909600553
100,,0.0,0.0,0.9083801432371691,0.8618317063512654,0.7338454254388324,1.5115886144663808,1.312298007687317,,,0.6468212168108125,inf,,,0.9401566132006132
101,,0.0,0.0,0.6492884376299715,0.5852403317513719,0.7975498225895622,1.4230977850172926,1.0903050677904549,,,0.6284777104787076,inf,,,0.9635246079857722
102,,0.0,0.0,0.42962396014864823,0.4178669783539048,0.6718111158908483,1.038453652931538,0.7995340506102684,,,0.6447042257417027,inf,,,0.9690697496164841
103,,0.0,0.0,0.7377741338611103,0.6856449984965276,0.7944403976202916,0.9493825524373256,0.5867772354503834,,,0.6509067234006624,inf,,,0.9555279916379784
104,,0.0,0.0,0.7171758735329533,0.6762371167773681,0.7900341634305802,1.655821935880458,1.1324353686882906,,,0.6602640781246099,inf,,,0.9080670182097257
105,,0.0,0.0,1.1077347084577034,1.088176440338005,0.8713336457915495,1.9875604492655556,1.529284718389961,,,0.648888643467878,inf,,,0.9127784039638325
106,,0.0,0.0,0.873809368390449,0.847285003255591,0.844736678415713,1.8603194482794505,1.4188495887187833,,,0.6602640781246099,inf,,,0.9138617731692873
107,,0.0,0.0,0.4362646122119963,0.3638325958292538,0.6188827346557113,0.742285844854381,0.5739552069512497,,,0.6380535849069913,inf,,,0.9379260842307874
108,,0.0,0.0,0.5993702751994476,0.5523899524157556,0.8357481871008654,0.45653774167283595,0.41350429639895053,,,0.6447042257417027,inf,,,0.9539352495531849
109,,0.0,0.0,0.899269258698869,0.775360515943633,0.7558340526386542,0.9874461902864624,0.6649889252668532,,,0.6684167106117298,inf,,,0.8653297338811516
110,,0.0,0.0,0.6756853736154995,0.5834469032495139,0.8683297944313662,1.5580792009953994,1.3314197899793356,,,0.6509067234006624,inf,,,0.9081840455768048
111,,0.0,0.0,0.6039389328984558,0.5003668593381656,0.7964425667546638,1.4499650842191338,0.7737813350252689,,,0.6468212168108125,inf,,,0.9389191925339515
112,,0.0,0.0,1.1619706684775923,1.1246186109833345,0.8265633844552713,1.7989750597865972,1.5078324319582226,,,0.6380535849069913,inf,,,0.9351618174594938
113,,0.0,0.0,0.21741154249979316,0.17699188212070832,0.6859196880436109,0.8867970928570973,0.6642783330389459,,,0.6333676938231112,inf,,,0.6581500209679644
114,,0.0,0.0,1.125506191144849,1.1205319158497136,0.8310767099785016,0.9672071492732985,1.046051972201199,,,0.6509067234006624,inf,,,0.9346768211790858
115,,0.0,0.0,0.713776752550465,0.6903092976232889,0.7411436151107873,1.336233693600454,0.9884164970740845,,,0.6284777104787076,inf,,,0.9472421338602287
116,,0.0,0.0,0.3589260611032323,0.330457369629063,0.6375870110166949,0.884285762784495,0.43106019250518857,,,0.6380535849069913,inf,,,0.955168104260884
117,2.4079456086518722,-0.008026485362172908,0.0,0.8063903601837183,0.7906594147324641,0.6449299535465722,1.9531567412663264,0.9449615713951272,,,0.6602640781246099,8.111728083308073,inf,,0.7552748043421776
118,2.700605894855335,-0.018004039299035567,0.0,0.5762053042157935,0.5129859085248655,0.7494122367028986,1.4090979047698757,0.6735153780018273,,,0.6447042257417027,7.64636483361884,inf,,0.8232544273450689
119,0.5738837597331276,-0.0019129458657770918,0.0,1.1045468019290317,1.044157140615525,0.780613598675804,2.503723429029509,1.7226754548050933,,,0.6097226960127671,6.277666234389328,inf,,0.6450305225704325
120,,0.0,0.0,0.6715161538139414,0.6325951331490779,0.49128230814714874,1.15257368603889,0.6960770427264913,,,0.6309483474627791,inf,,,0.9172357450556574
121,,0.0,0.0,0.8051941709898258,0.7790046163067209,0.6229209637792406,1.2787051613730733,0.7171437697815763,,,0.6468212168108125,inf,,,0.6857517670265721
122,,0.0,0.0,1.0812702509789183,1.0467315763178113,0.88696786383925,0.7269194764285585,0.6862090616183598,,,0.663668482632973,inf,,,0.9478200043807897
123,,0.0,0.0,0.40920771757934815,0.34726760189581446,0.7305566571677873,0.46240567806420063,0.4856777129900497,,,0.6153451465759925,inf,,,0.9548024940594779
124,,0.0,0.0,0.6302996521147199,0.6092820343556775,0.6625332778087198,0.8117428281271536,0.921689163949162,,,0.6068309995095971,inf,,,0.9373387535442534
125,,0.0,0.0,0.5491156319687858,0.49203945594254506,0.6664719555604063,0.9946542749542485,0.9213971364125252,,,0.6547956803312163,inf,,,0.9479525215017762
126,,0.0,0.0,0.462668972966836,0.4175815930278679,0.7231389007940816,1.129254711799618,1.0014828668273914,,,0.6180765742263259,inf,,,0.9499427656618941
127,,0.0,0.0,0.122888179777612,0.10323181715125158,0.4686143076834196,1.1196614236979814,1.2361395013422305,,,0.6153451465759925,inf,,,0.9625799138535939
128,1.2264456601779945,-0.004088152200593315,0.0,0.6324164953847959,0.5297131670044201,0.6374345182109663,1.246289618353265,0.7867239992085897,,,0.6153451465759925,6.930228134834196,inf,,0.8119940768616489
129,,0.0,0.0,0.2730027592884021,0.21964073130165285,0.5585826626798477,0.3305815770111163,0.31269172389533606,,,0.6468212168108125,inf,,,0.9511346399224622
130,,0.0,0.0,0.15818068848759306,0.12660709783571825,0.5826489769692161,0.143737223340209,0.1820967242839571,,,0.6380535849069913,inf,,,0.943598918004963
131,,0.0,0.0,1.4642790739041907,1.4591449309531102,0.9343456035201976,0.06341664688774987,0.10931453190865603,,,0.6097226960127671,inf,,,0.8750046904834804
132,,0.0,0.0,1.5006570292174601,1.4895800782398083,0.8986300903146629,0.06089655988992138,0.11683606973928468,,,0.6038851895711802,inf,,,0.8969119866925223
133,,0.0,0.0,1.1445185680011083,1.1409196382970324,0.8923105921203033,0.06989414738434312,0.12767379383408284,,,0.581717464821069,inf,,,0.864445159248601
134,,0.0,0.0,0.4032981570755061,0.34138316010131786,0.7012959357028677,1.03959783650082,1.0533370589793507,,,0.5915533975974677,inf,,,0.8949255596477315
135,,0.0,0.0,0.5216473641247608,0.4981516474542698,0.40696451736706063,0.8255174717386169,0.9730202843105281,,,0.5677978065141052,inf,,,0.9088349610128759
136,,0.0,0.0,0.43351149446569087,0.3760601785087579,0.5115405474058266,0.6002744904701056,0.5409555346706841,,,0.5490601803369085,inf,,,0.94354577515486
137,,0.0,0.0,1.0881932950351398,1.0634484836900149,0.8420773004528324,0.08097930149284267,0.135560246821848,,,0.6528756675646988,inf,,,0.790287213741229
138,,0.0,0.0,1.363315438599037,1.3184890766193877,0.9127032941841585,0.10508152063027204,0.17589379546106348,,,0.6068309995095971,inf,,,0.8871077519248646
139,,0.0,0.0,1.410059747836314,1.3670241089140505,0.9093159097545567,0.1272485331637165,0.195518031961301,,,0.5641709578113449,inf,,,0.8811718312987332
140,,0.0,0.0,0.12288817977761199,0.1049644189966563,0.4777030249245707,0.5811236414604234,0.6578010011448271,,,0.5567373465730988,inf,,,0.9459949588387457
141,,0.0,0.0,0.35284147125441817,0.2575668571665832,0.5910732207362833,1.1598531361590758,1.174945219409631,,,0.6097226960127671,inf,,,0.9579169426767049
142,,0.0,0.0,0.4595499637092131,0.37797305753903476,0.7352981817843947,0.6642355407749995,0.5447872268282404,,,0.6233814453054027,inf,,,0.961819194575451
143,,0.0,0.0,1.582844195123244,1.4620916635109544,0.9478063816983441,0.6839825451586659,0.8410846699613754,,,0.6207552362147116,inf,,,0.9328079935873432
144,,0.0,0.0,0.7710718280538469,0.7262527671874066,0.8569294267591215,0.1930087576209531,0.2375770636774922,,,0.6380535849069913,inf,,,0.9251941663856987
145,,0.0,0.0,1.6362697672504538,1.6243100105115533,0.921045916066023,0.16626545045868577,0.21537110841687512,,,0.6811855325194978,inf,,,0.8992569247911542
146,,0.0,0.0,1.6614872642677598,1.6526572368854342,0.9137397380731048,0.12961094075925403,0.1848410786689546,,,0.6380535849069913,inf,,,0.8823641988505047
147,,0.0,0.0,1.4831815116925104,1.4480219693887737,0.9500042116556874,0.12038662968821019,0.19649604444569468,,,0.6309483474627791,inf,,,0.9372008855029035
148,,0.0,0.0,1.5126794596633568,1.4889581742140048,0.9375248712201931,0.1109196718928394,0.20615831669520246,,,0.5915533975974677,inf,,,0.9023745598166409
149,,0.0,0.0,1.615796853840903,1.6281687267544938,0.9419839267066107,0.12105833173761103,0.21564278708651116,,,0.585052858160615,inf,,,0.9044299574103611
150,,0.0,0.0,1.5326028839268344,1.3982841073130965,0.8498547369878166,0.32128376059413316,0.36144480057204753,,,0.6038851895711802,inf,,,0.9221929600790109
151,,0.0,0.0,1.7287295591873098,1.69667174250517,0.9051056518527177,0.42939678247855856,0.5804206873726095,,,0.6097226960127671,inf,,,0.9000087844577733
152,,0.0,0.0,0.7914056723672531,0.7542299636691736,0.830425589794831,0.21644185037085206,0.26010012494450335,,,0.6038851895711802,inf,,,0.9494271714441205
153,,0.0,0.0,1.5966889142258152,1.549827911512936,0.9223237458830134,0.12574304088119762,0.23613926786226752,,,0.5783247308855777,inf,,,0.86944692430945
154,,0.0,0.0,0.1824414118534046,0.14546086397855054,0.6982934430929745,0.18384685288367353,0.2830242027082738,,,0.5783247308855777,inf,,,0.931706559315895
155,,0.0,0.0,1.6473445938975866,1.602250869711115,0.9507173572784223,0.2533008975662789,0.4229455306642617,,,0.5677978065141052,inf,,,0.9102851812375012
156,,0.0,0.0,1.7622536147444572,1.7291422723969787,0.9237236196265475,0.3780153502096421,0.6935687089581466,,,0.5713653840954815,inf,,,0.8918007721066985
157,,0.0,0.0,1.7595075282734882,1.723917246015914,0.8922073910348406,0.3603892197306942,0.6920885041565121,,,0.585052858160615,inf,,,0.8784630930689336
158,,0.0,0.0,1.2387067682919797,1.2320610000378307,0.8425588739984463,0.29983936171639386,0.43492911896832237,,,0.6233814453054027,inf,,,0.9263204832937342
159,,0.0,0.0,0.6903788765193296,0.6485976717927681,0.761265320328651,0.1736258481512619,0.25873733956166206,,,0.5947193981915972,inf,,,0.9218556377235004
160,,0.0,0.0,1.7621194070094361,1.7265247156561863,0.82425399923419,0.380719407630065,0.7076316534717018,,,0.5947193981915972,inf,,,0.8572208079421163
161,,0.0,0.0,0.8097373144988526,0.7594886454341248,0.8356834649414423,0.35924180938037437,0.5401277822829197,,,0.6284777104787076,inf,,,0.9502491622908054
162,,0.0,0.0,0.06698765724152846,0.04516597016751238,0.5316054177666513,0.16693162217739327,0.24319975302980762,,,0.5978297680564633,inf,,,0.9695926237749547
163,,0.0,0.0,1.4816257392846566,1.4616226585544814,0.8969474441224987,0.09974712940171215,0.19773462896220684,,,0.5451288209179292,inf,,,0.8991514512225244
164,,0.0,0.0,0.3426359977067818,0.3162811219775766,0.7081276307906953,0.2696956406333757,0.30755981978613667,,,0.6008849035917525,inf,,,0.9451947834690552
165,,0.0,0.0,1.5766863414565835,1.5040020752909646,0.9143230295525083,0.27693139551947754,0.44992582651945084,,,0.5677978065141052,inf,,,0.880045121854316
166,,0.0,0.0,1.521027751971943,1.466152115202889,0.8928390830825607,0.5689186224779195,1.011793735511246,,,0.5490601803369085,inf,,,0.8682389892305811
167,,0.0,0.0,0.8061788982004021,0.7465121951811289,0.8356889808348847,0.7790542070366486,0.6028603676216701,,,0.5947193981915972,inf,,,0.9500723071929847
168,,0.0,0.0,0.582914217936777,0.5530844575429711,0.6142507178874981,0.07749212801927347,0.09621615091008917,,,0.5947193981915972,inf,,,0.9250243296763575
169,,0.0,0.0,1.4133884067226987,1.3534995629427193,0.9000114212861662,0.04641429354242063,0.07792081908976312,,,0.5947193981915972,inf,,,0.7964052545164284
170,,0.0,0.0,1.3453357549995542,1.3069070588496756,0.8553595062054514,0.04399633950264243,0.0682692612202137,,,0.6425374456860184,inf,,,0.7687074918184262
171,,0.0,0.0,1.1841261769066844,1.1588129861322973,0.8632478264458648,0.058493446421898077,0.09478659041976625,,,0.6038851895711802,inf,,,0.7933099314049733
172,,0.0,0.0,0.6955590256145429,0.6713446638394902,0.8296539688977987,0.06401627808439116,0.0972830294511724,,,0.6125606311107803,inf,,,0.8217692134986253
173,,0.0,0.0,1.5615738873827079,1.316619454479899,0.9343564748292634,0.34418010898044055,0.4650912425954867,,,0.5567373465730988,inf,,,0.8683506900115409
174,,0.0,0.0,1.3520622663710378,1.321400323644755,0.8845287790766709,0.17857438282499738,0.3125871000838566,,,0.49759852643134905,inf,,,0.8297441219336115
175,,0.0,0.0,1.5808710106434953,1.5682034467322445,0.9243431698988822,0.16130173504183817,0.30484905255031824,,,0.468121228110369,inf,,,0.8499337022428607
176,,0.0,0.0,1.6248176509466725,1.6210067996130348,0.734935292265556,0.11676904511151352,0.22555645702715316,,,0.5641709578113449,inf,,,0.8341833428416383
177,,0.0,0.0,0.3302536418502132,0.3077173507490595,0.718412776474105,0.27362599148319583,0.30570118898633203,,,0.6207552362147116,inf,,,0.8370485461064767
178,,0.0,0.0,0.1804308202057063,0.15694921699944145,0.6487437755965056,0.12731419838569472,0.16201754253836936,,,0.5677978065141052,inf,,,0.7712994771912872
179,,0.0,0.0,0.1914526360307307,0.16482663159926272,0.7752583945383156,0.256579713546639,0.3613448097479231,,,0.5158180382284114,inf,,,0.9421728825317859
180,,0.0,0.0,0.5069811766912112,0.4468804606001033,0.8102351838398284,0.2176322607040202,0.3049640815339661,,,0.5783247308855777,inf,,,0.8723114882425169
181,,0.0,0.0,1.441793972217575,1.429357004134499,0.9392282201741986,0.3487112852461606,0.666514287580223,,,0.5022576003740722,inf,,,0.9077305269894921
182,,0.0,0.0,1.7202580884950622,1.695417199060108,0.8517786209063433,0.18592603447071737,0.38625279513895094,,,0.4629450596409901,inf,,,0.8514876931901892
183,,0.0,0.0,0.3228811643939279,0.2974511388671667,0.8462558957675287,0.2293990600590297,0.4261926397830792,,,0.5287703885177266,inf,,,0.6764356974585121
184,,0.0,0.0,0.391232717594698,0.2951228611137812,0.7753385905425121,0.36331329405801227,0.4126160264135821,,,0.5783247308855777,inf,,,0.8425507374986925
185,,0.0,0.0,1.1260015019226168,1.065573889787164,0.8418816067843068,0.3582558154801054,0.548561733844665,,,0.5490601803369085,inf,,,0.9173069206976939
186,,0.0,0.0,1.3163921948017279,1.2909842284906121,0.8854159572887064,0.4521801015497225,0.6654436375306994,,,0.5604843169999094,inf,,,0.9168634860600584
187,,0.0,0.0,0.5915221615982252,0.479784588864326,0.7205512538986495,0.6133980172847311,0.33085158074011867,,,0.6509067234006624,inf,,,0.9397976303336658
188,,0.0,0.0,0.9217447000522851,0.8174417709633702,0.7969037235662353,0.3463360066418471,0.5000574158484413,,,0.5567373465730988,inf,,,0.850906684516869
189,,0.0,0.0,0.1824414118534046,0.10495371577370194,0.6745578568748241,0.22372288170039475,0.2798144682287199,,,0.6008849035917525,inf,,,0.9483534432714428
190,,0.0,0.0,0.9117832252866555,0.8893252984427218,0.7614504299424636,0.1305285358985078,0.1612520102049321,,,0.6153451465759925,inf,,,0.9048614556621433
191,,0.0,0.0,0.9011936611873544,0.8731915602062159,0.8518901292430292,0.0900039925766956,0.1394705465705141,,,0.6153451465759925,inf,,,0.8668022211850013
192,,0.0,0.0,1.185785743830917,1.1382181502641575,0.9066474290293657,0.11809493799414968,0.17380632036950505,,,0.6309483474627791,inf,,,0.8744628238180211
193,,0.0,0.0,0.20443785628945746,0.12727177173502358,0.6293897838753353,0.18608449681241956,0.20040040679414678,,,0.6125606311107803,inf,,,0.9646974191143665
194,,0.0,0.0,0.34279426695424653,0.17036794727190926,0.6080045648627512,0.20894028598468295,0.17721570807453288,,,0.62595550513784,inf,,,0.9530184480150851
195,,0.0,0.0,0.9268969426286024,0.8410141787572448,0.8065975274891095,0.364014452885773,0.27223911912996673,,,0.6180765742263259,inf,,,0.9488324453220787
196,,0.0,0.0,0.5781665913085003,0.565751842635289,0.8484487433932859,0.14489003852663512,0.2276191671247438,,,0.6309483474627791,inf,,,0.9475573730319158
197,,0.0,0.0,0.4776303913146993,0.4602556913465207,0.6853566115472582,0.2086942466058839,0.22382274264591073,,,0.5915533975974677,inf,,,0.958999686025733
198,,0.0,0.0,1.2070115906071128,1.1534287716163616,0.9415316200275226,0.1118865883667491,0.14403008540611734,,,0.6380535849069913,inf,,,0.9305499697194847
199,,0.0,0.0,1.37780932083785,1.3775083959497312,0.7633726222727184,0.0616132641693331,0.11184832998079228,,,0.585052858160615,inf,,,0.9156483297748331
200,,0.0,0.0,1.379244380836817,1.2941835946809035,0.9606831739868325,0.13633831931013146,0.20802818183846294,,,0.6125606311107803,inf,,,0.8956703001918044
201,,0.0,0.0,0.670396584887326,0.6192687440841571,0.8294493608965605,0.2197746760152281,0.2579575017523176,,,0.6309483474627791,inf,,,0.8469817637993633
202,,0.0,0.0,1.153273160585912,1.124483769073045,0.8155149857832837,0.4553741105182999,0.5355253568925609,,,0.6008849035917525,inf,,,0.8869820068692994
203,,0.0,0.0,0.982950870098267,0.9433707118736337,0.82565101190789,0.45933293513365747,0.537800212748641,,,0.6509067234006624,inf,,,0.8823157811086034
204,,0.0,0.0,1.1816456806409574,1.1308721711629612,0.8419942547735043,0.4543440320489977,0.5341709629686735,,,0.6652988471865258,inf,,,0.8492990150969271
205,,0.0,0.0,1.443893202332137,1.414500845838896,0.863674563185472,0.4586037176746839,0.6281979172156421,,,0.6468212168108125,inf,,,0.8561405034162024
206,,0.0,0.0,0.8042290071958217,0.6998220935036207,0.6300213352433752,0.49651128378178383,0.6151246070650769,,,0.5713653840954815,inf,,,0.937821804603187
207,,0.0,0.0,0.2700312213237379,0.2320869441970865,0.5238170373048594,0.19840943521871196,0.2876858791334347,,,0.5604843169999094,inf,,,0.9569291573568229
208,,0.0,0.0,0.9643531397138315,0.9231863700773087,0.8296952004852247,0.033228963415811066,0.05586898827783477,,,0.6284777104787076,inf,,,0.83382429291176
209,,0.0,0.0,0.37943480340877395,0.2850717902883838,0.708548832531788,0.1765596110514636,0.17734989968267276,,,0.5978297680564633,inf,,,0.9473222085943768
210,,0.0,0.0,1.3057550456143685,1.297611492390777,0.5537430669071436,0.09987791369947156,0.16930618771605543,,,0.6309483474627791,inf,,,0.824076503781418
211,,0.0,0.0,0.9471963897141503,0.9164204231986867,0.8529436918387657,0.09410473798303838,0.11927150772007644,,,0.6068309995095971,inf,,,0.8681804383094294
212,,0.0,0.0,0.08467349851939517,0.06480033511497027,0.851441975575196,0.0793978581272974,0.12084107188506678,,,0.6233814453054027,inf,,,0.9018726815241115
213,,0.0,0.0,0.6121017100252494,0.5234305847750399,0.8142650502345941,0.6766306636576094,0.5492343662501908,,,0.6125606311107803,inf,,,0.9228304489081829
214,,0.0,0.0,0.6725695336959928,0.654296370258035,0.8620570156628453,0.796370789078132,0.744046258780621,,,0.6125606311107803,inf,,,0.9143374362929073
215,,0.0,0.0,0.8008742888605002,0.7332269432210621,0.7371640673163806,1.5524327363301056,0.9526618360542476,,,0.6333676938231112,inf,,,0.9497075234129855
216,,0.0,0.0,0.9770565360890694,0.9313389796641083,0.8261705014445039,1.64715120647122,1.034603131187546,,,0.6547956803312163,inf,,,0.9647223364489992
217,,0.0,0.0,0.5268815724471215,0.4856044969066177,0.7203938135588266,1.964802865162886,1.3167385600739643,,,0.6425374456860184,inf,,,0.9384408895059017
218,,0.0,0.0,0.27825589959769326,0.24577996031960622,0.7129528052182876,1.5581807482972168,0.9981358574188748,,,0.6333676938231112,inf,,,0.9412821713347844
219,,0.0,0.0,0.578436781130574,0.42121482417218703,0.6074249373499482,1.8164464337663695,1.6021974344252659,,,0.6468212168108125,inf,,,0.8501494529154218
220,,0.0,0.0,1.537222244895359,1.5016678355657822,0.8455207287253811,1.4731794051383373,1.765084421003826,,,0.6333676938231112,inf,,,0.9158102472897958
221,,0.0,0.0,0.7269408053156586,0.6983286337087047,0.8859566069282386,1.201068204998088,1.449234264068355,,,0.6380535849069913,inf,,,0.9042407843707821
222,,0.0,0.0,1.2337612891705874,1.218500209960101,0.6568054910553949,1.0474994778272055,1.278426417081241,,,0.6333676938231112,inf,,,0.9015903148399614
223,,0.0,0.0,1.3223102583770345,1.307237947797127,0.6559624621491013,1.1166787853745894,1.3035559447812606,,,0.585052858160615,inf,,,0.9001180310359873
224,,0.0,0.0,1.1567294636025405,1.1493945012326037,0.5932123849028776,0.9227909363855472,1.0668465178547168,,,0.6425374456860184,inf,,,0.948906705980516
225,,0.0,0.0,1.2884411405263894,1.2667942065795905,0.8753676307995201,1.1397744226943147,1.0727555862122846,,,0.663668482632973,inf,,,0.9472670737354302
226,,0.0,0.0,1.180654089461894,1.162188033457258,0.5389746167733854,1.0033010798685784,0.9404047940590976,,,0.6468212168108125,inf,,,0.9274499709911819
227,,0.0,0.0,0.8716116768394071,0.8517969681385261,0.8781905797094309,0.7296633409990559,0.8336058613287415,,,0.5947193981915972,inf,,,0.9272142096199805
228,,0.0,0.0,0.500922988045584,0.41810630825076645,0.7454108700617474,1.1481272655039265,1.024511094609702,,,0.6468212168108125,inf,,,0.9569740341388301
229,,0.0,0.0,0.5354583046174165,0.5107899313019442,0.8401739388556769,1.7540631942564813,1.3027185834778583,,,0.6713451011121618,inf,,,0.9650894961051625
230,,0.0,0.0,1.1168835978695775,1.067679480179877,0.8785654420871584,1.5207328052291775,1.2797246865241687,,,0.6547956803312163,inf,,,0.953658792504446
231,3.3058872018578307,-0.011019624006192769,0.0,0.5656920339094522,0.5523948272891464,0.5382607760243344,2.075595623052732,1.904435343757426,,,0.6038851895711802,9.009669676514031,inf,,0.8747172426997321
232,,0.0,0.0,1.2399194552957744,1.226892938275778,0.8704531802596416,2.4285042944874045,2.2824521173027263,,,0.6699045166045591,inf,,,0.923868523182003
233,,0.0,0.0,1.1795624975979646,1.103268060340567,0.8232928459775075,2.023459052963409,1.0371700165462587,,,0.648888643467878,inf,,,0.9436016330814122
234,,0.0,0.0,1.240635997645967,1.2166580565629594,0.8956080961262997,2.3396826553029344,2.347035630167054,,,0.6566669596287297,inf,,,0.9424386374690671
235,,0.0,0.0,0.8258255256229989,0.8057639740906607,0.761964979884342,1.7942039101267488,1.626805293133237,,,0.6528756675646988,inf,,,0.9399718451252514
236,,0.0,0.0,0.981667560827213,0.9475739614677573,0.8696825693751536,1.7799782345118882,1.3914857857065241,,,0.6684167106117298,inf,,,0.9416900093751936
237,,0.0,0.0,1.19330664250693,1.180271347891021,0.8143304982577703,2.1062115103546577,2.0420718472153974,,,0.675384900321601,inf,,,0.9493654826173249
238,,0.0,0.0,0.267340685656489,0.24621717037257773,0.523052338791067,1.630344210559069,1.4368395252041433,,,0.6584896970785714,inf,,,0.7309354230779019
239,,0.0,0.0,1.2658455188202211,1.2156843171072829,0.8282569711865483,1.9668154009658532,1.6493573133879056,,,0.663668482632973,inf,,,0.9021154147135895
240,,0.0,0.0,0.21731486237733605,0.15624341707113584,0.6752938114074802,1.2565866565277355,1.2207032729204577,,,0.6509067234006624,inf,,,0.7927666453399043
241,,0.0,0.0,1.487892948906444,1.451491691570479,0.8598465075282246,0.8120633402865001,0.993407864990233,,,0.6403206450210053,inf,,,0.9257564193746521
242,,0.0,0.0,0.9630201503861638,0.9566463030926109,0.6983494397050057,1.2481414174526801,1.0023319746458081,,,0.6357360191111145,inf,,,0.688122701830259
243,,0.0,0.0,0.7434465956455305,0.6874263349340034,0.723537986559276,1.09339294273894,0.584904496032814,,,0.6403206450210053,inf,,,0.6544420706240747
244,,0.0,0.0,0.5361170077833227,0.4779458905538396,0.8160999298189476,0.9550477591402978,0.850685607459407,,,0.6566669596287297,inf,,,0.9129101124991669
245,1.7147984280919266,-0.005715994760306422,0.0,0.7990331282460629,0.755242436683158,0.7598102403994327,2.076891161912024,0.8931464551299384,,,0.6468212168108125,7.418580902748128,inf,,0.7757190575700028
246,,0.0,0.0,1.1228481272106263,1.1058130780902833,0.774361513069742,2.5703034831846177,2.460068525091937,,,0.676637947632344,inf,,,0.9510829471540808
247,,0.0,0.0,0.9185393360874068,0.8600954137351167,0.7229069220844866,1.4506761428282382,0.9425031171935738,,,0.6602640781246099,inf,,,0.9356730887031594
248,,0.0,0.0,0.8832302045184773,0.8553583291967903,0.8273102890215484,0.7732370064018873,0.719744886195723,,,0.6713451011121618,inf,,,0.9530751398616366
249,,0.0,0.0,0.765357186179819,0.7478315677566244,0.7407922373042638,1.502538948106607,1.235729002365192,,,0.6380535849069913,inf,,,0.9535541149062392
250,,0.0,0.0,0.6697835971883295,0.6173844430401533,0.8233532342712359,1.8963992245986352,1.410881527346022,,,0.6380535849069913,inf,,,0.9371397917161713
251,,0.0,0.0,0.4340987069103599,0.4242391084921862,0.7919863871506662,0.43055009759047275,0.48838041522556824,,,0.6357360191111145,inf,,,0.9296124811194567
252,,0.0,0.0,0.9494239563316569,0.9261084157742612,0.6843188988562707,1.348749628600733,0.9839461045140534,,,0.6528756675646988,inf,,,0.9585521710440829
253,,0.0,0.0,0.7039897344169037,0.6838952921106133,0.5979886399323384,2.448127607130879,2.0580519778362376,,,0.6333676938231112,inf,,,0.6985522808200552
254,,0.0,0.0,1.1873424258705985,1.1800779607490115,0.9130971002465722,2.1785727319041803,2.1348719165753076,,,0.6699045166045591,inf,,,0.9403567131788398
255,,0.0,0.0,0.9846344089142645,0.9655039988381573,0.7683463469565458,1.9241812058411298,2.065349924890751,,,0.6811855325194978,inf,,,0.9235788295252005
256,,0.0,0.0,0.6211640725369194,0.5523528866163545,0.7202666512206335,1.7981461542408845,1.2534860807111623,,,0.6584896970785714,inf,,,0.9518903435260838
257,,0.0,0.0,0.7678396664722205,0.7042810820708144,0.8703616309016828,1.8094676230957458,1.6325376446767954,,,0.6380535849069913,inf,,,0.9299803361655333
258,,0.0,0.0,0.6434123881675116,0.6396898189965988,0.7411311054859802,1.2026699964716656,1.1502395090598116,,,0.648888643467878,inf,,,0.9367503734176716
259,,0.0,0.0,0.6139070459730126,0.5867560219888855,0.6655920316585624,0.9762538290868088,0.7638456212857578,,,0.6097226960127671,inf,,,0.9486789960571214
260,,0.0,0.0,0.4414382209272042,0.40063394180686396,0.6861589781262472,1.4098442006672784,1.444708543643185,,,0.5748741956352443,inf,,,0.9497953739515957
261,,0.0,0.0,1.0324135895400395,0.9552974514151744,0.753189215524047,1.5759849440040168,1.1053360189901005,,,0.6357360191111145,inf,,,0.9339187669529404
262,,0.0,0.0,0.8410754211253021,0.7754135816058347,0.7720590314794427,1.0748260147584663,0.8205774467774858,,,0.6309483474627791,inf,,,0.9232364079468206
263,,0.0,0.0,0.5027604284893619,0.4721580586498265,0.7913641859676365,0.7793600219971942,0.60543379638909,,,0.6357360191111145,inf,,,0.9542360639456713
264,,0.0,0.0,0.9056423867660938,0.8567818305812539,0.6352636127251675,0.7535857682677222,0.51747602493005,,,0.6468212168108125,inf,,,0.9552769699122943
265,,0.0,0.0,0.6080355320924218,0.5590432509815415,0.6077454117547234,0.6719419196180637,0.5826207422234339,,,0.6509067234006624,inf,,,0.8839484282357992
266,,0.0,0.0,1.0038836690770903,0.9604006724328771,0.7909762097285147,1.6667223431047125,1.586016045876565,,,0.6584896970785714,inf,,,0.9080658137792531
267,,0.0,0.0,1.02199410799637,0.9302532958911461,0.9067596104891383,0.991733993741332,0.8257460659912197,,,0.6468212168108125,inf,,,0.9240484126155388
268,,0.0,0.0,1.0550266383629643,1.00857263938199,0.8591960482687043,0.6141408086536345,0.5818272594922904,,,0.6180765742263259,inf,,,0.9436793799133918
269,,0.0,0.0,0.4625118578531371,0.4151210987884824,0.7179836701523288,0.7230793210909054,0.597108956715122,,,0.6425374456860184,inf,,,0.9310173176444518
270,,0.0,0.0,0.8357424529006048,0.8145499604071876,0.7847095071181968,0.9925086676551133,0.8969079619699553,,,0.6380535849069913,inf,,,0.938038646714372
271,,0.0,0.0,0.6166757928268218,0.5748330831154526,0.7546327056099812,0.5394768834852051,0.42077783880699615,,,0.6097226960127671,inf,,,0.9516350878934254
272,,0.0,0.0,0.5908983721934851,0.49239685158632684,0.5498865066017221,1.2415165488917963,0.6112455097512319,,,0.6468212168108125,inf,,,0.9580364860323264
273,,0.0,0.0,0.6296514209678418,0.5739274836944431,0.7070780033363736,1.1386768918590056,0.7581365179325545,,,0.6468212168108125,inf,,,0.949338235987788
274,,0.0,0.0,0.8473156466356216,0.8068893103610932,0.6971526646871278,0.8986494785015201,0.6465165250836559,,,0.6547956803312163,inf,,,0.9443850334314843
275,,0.0,0.0,0.4402756097103302,0.4011225360520909,0.6437984221706606,0.7272695112778987,0.5285965751893763,,,0.6357360191111145,inf,,,0.9546194665476029
276,,0.0,0.0,1.0664986385890751,1.0631297039951784,0.7798823523843228,1.1040483971514305,0.6755542025814649,,,0.6333676938231112,inf,,,0.9527339744768623
277,,0.0,0.0,0.6892758760767236,0.6205171761861737,0.7022251645221489,1.0057524653951562,0.7288528722441965,,,0.6584896970785714,inf,,,0.9575240372433276
278,,0.0,0.0,0.7167641058875276,0.6628609341244217,0.8289984951155573,1.111159884612771,0.6872179746374658,,,0.6652988471865258,inf,,,0.9498701886481772
279,,0.0,0.0,1.336141298026881,1.2718072077576539,0.7859641919415012,3.073583201557179,2.9386936950582143,,,0.6425374456860184,inf,,,0.9529144084026178
280,,0.0,0.0,1.00715469036343,0.9460828324820979,0.8008074275861753,2.2073004599253876,1.8642935729442938,,,0.6425374456860184,inf,,,0.9576889226753984
281,,0.0,0.0,0.7000132801019895,0.6627391633960199,0.7799699914754018,1.9591109766922299,1.3949543939269415,,,0.663668482632973,inf,,,0.7264906458814774
282,,0.0,0.0,0.7558898978564775,0.7220072937877471,0.8148171103201524,1.483989636278584,1.2315008551008833,,,0.6619902821573977,inf,,,0.9514970172373616
283,,0.0,0.0,0.7115421304177166,0.6820848272890013,0.6988929049228212,1.1686251918945398,0.6285659876590541,,,0.6652988471865258,inf,,,0.9048258004728076
284,,0.0,0.0,0.5930139706398034,0.5208552243022467,0.5698358150369329,1.4311766821894882,0.8023275685668094,,,0.6528756675646988,inf,,,0.846107368604251
285,,0.0,0.0,0.9217437240467026,0.9111943461914485,0.6595209579561169,2.337135933055551,1.4596042938619198,,,0.6652988471865258,inf,,,0.8745077408696188
286,,0.0,0.0,0.08467349851939517,0.06675193956230227,0.46383887690609105,1.033758079519517,0.7233330166611414,,,0.6547956803312163,inf,,,0.9640797089221695
287,,0.0,0.0,0.7099732203514685,0.6809594366862888,0.7585109287154893,1.022447365777827,0.6648775065177572,,,0.663668482632973,inf,,,0.9302776520058821
288,,0.0,0.0,0.838668621184283,0.7632901903299578,0.7421929894814764,1.3384604916265088,0.6942903273917858,,,0.6528756675646988,inf,,,0.9548360144863899
289,,0.0,0.0,0.21302129952620005,0.18359423986452603,0.6642764927452512,1.4354956297971946,1.0593452799531968,,,0.6447042257417027,inf,,,0.6307098412168896
290,,0.0,0.0,0.8940146637002085,0.8676379065842335,0.9014842244367729,1.6832902630077167,1.5135845021361876,,,0.648888643467878,inf,,,0.960830762000234
291,,0.0,0.0,0.3190334136545234,0.29255602239440753,0.42882584457047707,0.9409015635521427,0.582273780535878,,,0.6684167106117298,inf,,,0.6836310741617462
292,,0.0,0.0,0.2256559932866077,0.19948603352447913,0.5701984038826399,1.1017947798724197,0.9096635920542515,,,0.6403206450210053,inf,,,0.9586332969925954
293,,0.0,0.0,0.880627937037216,0.8012849400051306,0.8112861998997453,1.275432855457619,0.9916021275919826,,,0.648888643467878,inf,,,0.9109417441200212
294,,0.0,0.0,0.7681068991295797,0.7033809974615627,0.7716408276930127,1.028851059941252,0.6893895776353804,,,0.6584896970785714,inf,,,0.9198109989852999
295,,0.0,0.0,0.7834530416521712,0.6822737429852138,0.8289867697104325,1.338608510983518,0.9506347616117419,,,0.648888643467878,inf,,,0.9551423115078411
296,,0.0,0.0,0.7942578614076622,0.7011088112496769,0.7548002813391084,1.553658000298738,0.7729309458466815,,,0.6584896970785714,inf,,,0.927268400219559
297,,0.0,0.0,0.7989343947353829,0.740888856546837,0.6717839112679016,1.2449806755000368,0.6595110210395141,,,0.6684167106117298,inf,,,0.839214003266938
298,,0.0,0.0,0.9554307034451457,0.8973313098146249,0.7712826546670071,1.2574689045919298,0.8997784100568242,,,0.6233814453054027,inf,,,0.9488241461462664
299,,0.0,0.0,0.8068481873174024,0.7395224212279354,0.7837155884034188,1.0363172370037297,0.7947163138499067,,,0.6403206450210053,inf,,,0.9474054642007361
300,1.4842747694800944,-0.004947582564933648,0.0,0.4200826565094404,0.3751364479668816,0.663167430567362,1.5078012006182187,0.9671750364292007,,,0.6509067234006624,7.188057244136296,inf,,0.83770435610816
301,,0.0,0.0,0.6736351557899876,0.6620412376729995,0.6039439287247885,2.0839602284502643,1.5884515708100113,,,0.6528756675646988,inf,,,0.944505656971613
302,,0.0,0.0,1.1539626057337249,1.1104109835229479,0.8494906311153979,2.6091531913199897,2.110869153864297,,,0.6619902821573977,inf,,,0.9486441370938019
303,,0.0,0.0,0.8967982228293795,0.8868147636520408,0.7067161186840007,1.8948339420444804,1.2411216205975404,,,0.62595550513784,inf,,,0.9530541977034218
304,,0.0,0.0,0.7343106827090369,0.6691539587038013,0.7933241636865307,1.5755827721666458,1.130766656343238,,,0.6357360191111145,inf,,,0.816700254432335
305,,0.0,0.0,0.9817303798122894,0.9424617378114702,0.7990417444088754,1.3136002543025216,0.7647054614210609,,,0.6333676938231112,inf,,,0.9113505967463071
306,,0.0,0.0,0.8283607904460352,0.7713688209445013,0.8262194887957705,1.9084938100267044,1.4013266943385678,,,0.6357360191111145,inf,,,0.6808565557812317
307,,0.0,0.0,0.8143604064947586,0.7917602195035577,0.8601756205735498,2.626709481137537,2.6590130393716636,,,0.6668815377411301,inf,,,0.7325932365686179
308,,0.0,0.0,1.0844735475836187,0.9853591802231894,0.8769833860723358,2.2484865031478667,1.9876961721306752,,,0.6233814453054027,inf,,,0.9042512391878009
309,,0.0,0.0,1.1423636073622694,1.0801447842741019,0.8349075778414539,1.984032656452043,0.9962964987612004,,,0.6713451011121618,inf,,,0.9531249462484788
310,,0.0,0.0,0.9536254681643043,0.8838730740279913,0.7579966335608295,2.0205189552692078,1.224906796414328,,,0.6790044388599258,inf,,,0.9541564546747501
311,,0.0,0.0,0.7781514780008968,0.6913985438325703,0.8183764157820939,1.1198433052185603,1.0648302572185937,,,0.6509067234006624,inf,,,0.9622210899274255
312,,0.0,0.0,0.9912816136051191,0.9654527349765843,0.6995312077853597,2.111110684212281,1.6983218823604624,,,0.6684167106117298,inf,,,0.9524454704729699
313,,0.0,0.0,1.3126025543003383,1.297887297708481,0.8299648138358746,2.835825970318365,2.7105980244581285,,,0.6602640781246099,inf,,,0.9440992292663347
314,,0.0,0.0,1.0906409367422258,1.0653460817735212,0.8570483594330182,2.4162539069224973,2.066713686884074,,,0.6584896970785714,inf,,,0.9389577690444887
315,,0.0,0.0,1.149537281652656,1.1070545209118032,0.7960744472237677,2.3611394816333044,2.7212261946510234,,,0.6284777104787076,inf,,,0.9464783609086256
316,,0.0,0.0,0.7352106341133661,0.6420788231857196,0.7932897686269866,1.3358136379893955,1.1470072130394449,,,0.6528756675646988,inf,,,0.9473150604210347
317,,0.0,0.0,0.962663469219425,0.9133674681346631,0.7187263537742676,2.025207221484429,1.4429053631941953,,,0.6309483474627791,inf,,,0.7408099182715089
318,,0.0,0.0,0.4468099415942183,0.40062406481178786,0.6441528837197905,2.0160144793856616,2.033852725043565,,,0.6380535849069913,inf,,,0.8535078499680728
319,,0.0,0.0,0.759055402793124,0.7425718758974053,0.47422754625819713,1.8276685852162537,1.199863412609393,,,0.6727386042041725,inf,,,0.5964582458975443
320,,0.0,0.0,0.9117966428238514,0.8860072965458623,0.8849821307770376,1.3820726525899816,1.4025760500401558,,,0.6584896970785714,inf,,,0.9533702496030966
321,,0.0,0.0,1.0441479698401306,1.014756792843679,0.7120159246217302,1.6788473963109045,1.7805353125684906,,,0.6468212168108125,inf,,,0.9509169370973687
322,,0.0,0.0,1.094820405130521,1.015605790002455,0.690263145135597,2.399124027691054,2.0775307271750654,,,0.6403206450210053,inf,,,0.8628060593431948
323,,0.0,0.0,1.0195939473497155,0.98695027750155,0.8203843530637301,1.8912534463778279,1.8117019169879958,,,0.663668482632973,inf,,,0.8966828404203392
324,,0.0,0.0,0.9186558015569055,0.9049865120910893,0.831529535983768,1.2541336381156643,0.9731347553398939,,,0.6790044388599258,inf,,,0.9455000083399323
325,,0.0,0.0,0.7759686149326845,0.7407765296487753,0.6286656781132349,1.7974065802554366,1.6771106175805894,,,0.6566669596287297,inf,,,0.9530406570348949
326,2.870569130599985,-0.009568563768666617,0.0,0.44965313119034983,0.4353666576182091,0.524272411056508,2.082555123912489,1.7708026343367118,,,0.648888643467878,8.574351605256187,inf,,0.7651644913372035
327,,0.0,0.0,0.7332622980846307,0.6660073246774508,0.741638493775652,1.7930872394468849,1.375028481779164,,,0.6333676938231112,inf,,,0.9396767444240893
328,,0.0,0.0,0.5419646349215843,0.48663856303650926,0.7666675883662275,1.3928178154395703,0.9051013986341594,,,0.6699045166045591,inf,,,0.9514502196218714
329,,0.0,0.0,0.7854543160825624,0.7656113403731205,0.8717447036854185,0.9183807989063271,0.8626046676362313,,,0.62595550513784,inf,,,0.9497684832999874
330,,0.0,0.0,1.0288695240910821,0.9798064783551469,0.7722833589007972,1.1596740519849906,0.9922494198818457,,,0.6528756675646988,inf,,,0.9507737416993768
331,,0.0,0.0,1.0400902468249542,1.023366638318637,0.8311444477074535,1.090936258805595,0.8680046412768483,,,0.6309483474627791,inf,,,0.9471069074743141
332,,0.0,0.0,0.7944787666457811,0.7192790961099086,0.747197792773187,0.7197154556063615,0.77034672130501,,,0.6333676938231112,inf,,,0.9552961462453785
333,,0.0,0.0,0.870204809654195,0.791012489110712,0.8352015764522727,1.0044852866539125,0.964965156434473,,,0.6619902821573977,inf,,,0.9480270496792751
334,,0.0,0.0,0.6005427447812008,0.5261728340329953,0.7746693875857618,1.2777146875344705,1.129519222239786,,,0.680118107274185,inf,,,0.9407798148150444
335,,0.0,0.0,0.6378402413503375,0.5776739477733768,0.737435662736884,1.5471250081675645,1.3349877559500947,,,0.6403206450210053,inf,,,0.9470835811854975
336,,0.0,0.0,0.8189014980708503,0.7831799279477767,0.7314981061008062,1.6584257285467712,1.0652469253127603,,,0.6652988471865258,inf,,,0.9360084409481776
337,,0.0,0.0,0.542146470086475,0.48660061509333613,0.6663618686418795,1.538758196094727,1.1020279333447391,,,0.6468212168108125,inf,,,0.9210432236933105
338,,0.0,0.0,1.1497955055600841,1.1403882492965327,0.8429503369469963,2.082925943398414,1.7510138676197005,,,0.6468212168108125,inf,,,0.9321132997119538
339,,0.0,0.0,1.0690984930711391,1.0460408995649217,0.9177315437017856,2.532250356491513,2.2018885197067206,,,0.6566669596287297,inf,,,0.9118965899988726
340,,0.0,0.0,0.34102260279914126,0.29931075850470534,0.8070165427555931,1.5333872526862968,1.28764511609301,,,0.648888643467878,inf,,,0.9309855244908543
341,,0.0,0.0,1.165516512859294,1.1129605257172546,0.8748409246141157,1.3757504667368987,1.2594383641851388,,,0.6425374456860184,inf,,,0.9520280653150458
342,,0.0,0.0,0.5136298859710372,0.39606276182024097,0.7723569263496408,1.186794969977551,1.0260545363518332,,,0.6180765742263259,inf,,,0.9486266588459951
343,,0.0,0.0,0.5788448596389066,0.5270085057932306,0.6911123690032979,1.601224303776666,1.1626722071558637,,,0.6509067234006624,inf,,,0.7982928215742383
344,,0.0,0.0,1.0329124764667488,1.0042026880837387,0.7249952875052126,1.9150394630550331,1.3287451435501412,,,0.6713451011121618,inf,,,0.932969420571593
345,,0.0,0.0,0.9936054242664087,0.9686883144001891,0.7957934758490091,1.782853729166516,1.5158905037683348,,,0.680118107274185,inf,,,0.95387241106847
346,,0.0,0.0,0.6790567679564361,0.6258012952949766,0.7061221597793403,1.9540904366618985,1.3701596135928742,,,0.648888643467878,inf,,,0.9531587686550991
347,,0.0,0.0,0.25251842945491937,0.2261659550386901,0.5630410709539809,1.687679537828196,1.6312272898862343,,,0.6380535849069913,inf,,,0.6337265489699928
348,,0.0,0.0,1.2088484213324053,1.1530969620923708,0.8859528325301206,1.8337360081988914,1.7497958134228007,,,0.6357360191111145,inf,,,0.9065048676379264
349,3.0069687014800204,-0.0200464580098668,0.0,0.5651413797559585,0.5292430528900534,0.7328499603743838,2.402150967519855,1.5751972771946763,,,0.6699045166045591,7.941829046512676,inf,,0.6270251513062924
350,,0.0,0.0,0.5663884309169291,0.5575617281942225,0.7144835343705485,1.9608769482593498,1.4252556554485158,,,0.648888643467878,inf,,,0.9470130879230142
351,,0.0,0.0,0.8252705384472195,0.7409566842321416,0.7601821413644948,1.5352749582374723,0.9986505512801207,,,0.6468212168108125,inf,,,0.9465171581742278
352,,0.0,0.0,0.8619470709455159,0.8153376133603469,0.9248172350183431,1.1443211754225866,1.1135821980984957,,,0.6566669596287297,inf,,,0.9465231962803433
353,,0.0,0.0,0.35473155617010393,0.30752006476863075,0.7341760847564855,1.232057893030126,1.0085100282865325,,,0.6509067234006624,inf,,,0.7589143280573647
354,,0.0,0.0,0.7443360201821471,0.7396063063698304,0.6978835685456865,0.9680195324523577,0.7115781345060788,,,0.6713451011121618,inf,,,0.9564769164835296
355,,0.0,0.0,0.8608439289534475,0.806070551907351,0.7649529902435187,1.8599658653363849,1.4672101706704364,,,0.6403206450210053,inf,,,0.9480829659468731
356,,0.0,0.0,0.8805655611034812,0.8458178124149816,0.7892988391279496,1.9544208188241838,1.6689703760269425,,,0.6509067234006624,inf,,,0.9503818183645696
357,,0.0,0.0,0.3745531330033298,0.36133005862568224,0.7196387059713735,2.1643943527924785,1.6303719770159217,,,0.6713451011121618,inf,,,0.6732674864463223
358,,0.0,0.0,1.1170177295833479,1.0098955938406478,0.9110184099956566,1.8414045916214516,1.6812648002440806,,,0.6652988471865258,inf,,,0.9552523066995133
359,,0.0,0.0,0.6577971704383887,0.567773361422461,0.444446806418733,1.540328857963424,1.1241635279243731,,,0.6547956803312163,inf,,,0.6797519775643988
360,2.3861866490308854,-0.03181582198707847,0.0,0.8075588483546907,0.7615671071392965,0.6257509702823937,2.803183758190235,2.7078488930529554,,,0.6468212168108125,6.403618643366943,inf,,0.8192426236570844
361,,0.0,0.0,0.8671679011614768,0.816540786054994,0.8847037023861626,1.7453951437896136,1.4840131104064485,,,0.6602640781246099,inf,,,0.9567308723556899
362,,0.0,0.0,0.4435352165094831,0.4144172571038325,0.7273150034840313,1.521017669756262,1.1803984706920814,,,0.663668482632973,inf,,,0.9450497486097025
363,,0.0,0.0,0.6852719628721583,0.6327900593364623,0.7826270326733648,1.7720885773690824,1.4592870426302555,,,0.6380535849069913,inf,,,0.9243479659500053
364,,0.0,0.0,0.8197871865723734,0.7838974027161884,0.827537949412895,2.2646622714432567,2.0863646407969805,,,0.6652988471865258,inf,,,0.944424591073554
365,,0.0,0.0,1.1411526599193964,1.1088793822630403,0.7597045553085248,2.4313453108897622,1.4879623941190694,,,0.675384900321601,inf,,,0.9547978339172316
366,,0.0,0.0,0.9656033772812657,0.9407170435980543,0.8921026384718217,1.8824142451450843,1.4843681402646962,,,0.6566669596287297,inf,,,0.9512401733011175
367,2.0661963149298153,-0.006887321049766051,0.0,0.4253206825704049,0.36758463393425345,0.6321699888593435,2.0288309523331103,1.5081619042026269,,,0.663668482632973,7.769978789586016,inf,,0.633771297062952
368,,0.0,0.0,0.7367116028513805,0.7219399160803454,0.5972049800773188,1.687576391618091,1.5181841443239021,,,0.6447042257417027,inf,,,0.8808455462149811
369,,0.0,0.0,0.9393018257008248,0.8794974921585873,0.8055362057610731,2.003526420789947,1.6896471480718263,,,0.6403206450210053,inf,,,0.9461283064177627
370,,0.0,0.0,0.7035314525549716,0.6604354001689998,0.7140324951220927,1.9349906663966454,1.7352317607903909,,,0.6425374456860184,inf,,,0.6320049504052643
371,,0.0,0.0,0.7890343160088527,0.7576012203572287,0.8870416431902549,1.4353265623299198,1.2521843622497797,,,0.6740851607140061,inf,,,0.9265880498496862
372,,0.0,0.0,0.6078741959779373,0.5660292915746221,0.7383792459603606,1.5717744050272722,1.1677798496367564,,,0.6584896970785714,inf,,,0.9503804815772762
373,,0.0,0.0,1.3965550622137395,1.3746234004291056,0.9210746123606377,2.0461168937461442,1.7015026802683155,,,0.6468212168108125,inf,,,0.948024568587855
374,,0.0,0.0,0.9674785021066683,0.9367155279677284,0.7651404087322969,2.1226284972586504,1.8189742412094563,,,0.6740851607140061,inf,,,0.913241536820559
375,,0.0,0.0,0.6638951803975326,0.6541387129138508,0.6556172010664335,1.5581867508604144,1.586446504384704,,,0.6528756675646988,inf,,,0.9527189768404808
376,,0.0,0.0,0.712470652413187,0.6296615123134633,0.8279476081774155,1.929544214470084,1.8455874142292361,,,0.6699045166045591,inf,,,0.9540249387799216
377,,0.0,0.0,0.9089081500055619,0.8883600446664441,0.8303970747660206,2.25542175075041,1.939317440255155,,,0.6652988471865258,inf,,,0.9127182843975084
378,,0.0,0.0,0.9809746933787489,0.9431564948049969,0.7859918077462875,2.1455955384802996,1.6877005967333725,,,0.6727386042041725,inf,,,0.9084748999759127
379,,0.0,0.0,0.6323896946963673,0.5612968172138639,0.6370186786405958,1.9167987129983384,1.1903648295592633,,,0.6602640781246099,inf,,,0.9147034403925143
380,,0.0,0.0,0.5151867775619526,0.3774673351762643,0.7586574449658755,1.3100131386180978,1.0971304595223612,,,0.6602640781246099,inf,,,0.915227779394858
381,,0.0,0.0,0.845445976982359,0.8163399940863512,0.7341022515525978,2.06792679148247,1.798042180831109,,,0.6528756675646988,inf,,,0.9105616760742828
382,2.17742195004004,-0.007258073166800133,0.0,0.8164663607252944,0.7333530579282008,0.7009280197891277,2.6419381297422118,2.314657951507401,,,0.6668815377411301,7.881204424696241,inf,,0.6084756522921315
383,,0.0,0.0,0.7939191988754358,0.7693045511426175,0.811610556825803,2.3435356041027617,1.8911432352328172,,,0.6684167106117298,inf,,,0.7628832939727795
384,,0.0,0.0,0.18508749434778254,0.14811400218428086,0.4570551633779988,2.075205476282909,1.7179965192291915,,,0.6619902821573977,inf,,,0.6667771846495745
385,,0.0,0.0,0.6100950978669211,0.6035879882736679,0.7871443928924702,1.3437060010058908,1.1337224944205393,,,0.6380535849069913,inf,,,0.9412087436963222
386,,0.0,0.0,0.45925652043737636,0.4252379707140435,0.6121912672467459,2.3022451247277225,2.1780074589317886,,,0.6652988471865258,inf,,,0.8182981604851917
387,,0.0,0.0,1.058210840600868,1.022639864404935,0.8482525001396379,1.6526831850409662,1.2655310293709723,,,0.6509067234006624,inf,,,0.9436440631647782
388,,0.0,0.0,0.9650466870406186,0.9458858635999144,0.7245099482480545,2.454644433799931,2.5719056816921078,,,0.648888643467878,inf,,,0.9511248862000833
389,,0.0,0.0,1.356118977206587,1.3370174341587961,0.855954504695366,2.31853702944602,2.1123728446238794,,,0.6619902821573977,inf,,,0.9480177663574234
390,,0.0,0.0,0.8710844817739122,0.8124382079567474,0.8142788769196437,2.00339997885807,1.5058568196183306,,,0.6447042257417027,inf,,,0.9471814311757659
391,,0.0,0.0,0.4645533459105574,0.437022257713486,0.7645600537914876,1.9014795665776452,1.5630799486669624,,,0.6584896970785714,inf,,,0.9484251886070498
392,,0.0,0.0,1.0870861501903244,1.0365577694669827,0.8398571102445599,1.6399184108167524,1.7212933107146449,,,0.6233814453054027,inf,,,0.9422848847562129
393,,0.0,0.0,0.8673689546115306,0.8353444759662517,0.8182983750555064,1.7465396080720947,1.9476503164365446,,,0.6566669596287297,inf,,,0.9509840719840494
394,,0.0,0.0,0.709956654798497,0.677469854274358,0.645271509604657,1.1103028991863146,0.539592710304055,,,0.6528756675646988,inf,,,0.9508787162981946
395,1.4867679995784666,-0.009911786663856444,0.0,0.8443445685280393,0.7618111863485911,0.6886065086949555,1.8861145901196419,1.316591729516963,,,0.648888643467878,6.396929655216146,inf,,0.9255144132300619
396,,0.0,0.0,1.1330203331889814,1.0946126404330148,0.6699920572509235,1.7179789294198708,1.2055083697314546,,,0.6068309995095971,inf,,,0.7286068382357931
397,,0.0,0.0,1.0252129049571097,1.0005825199287115,0.7791994126162918,2.7668526747536792,1.9405283352083535,,,0.6468212168108125,inf,,,0.9201447477291127
398,1.6433394641097818,-0.0054777982136992726,0.0,0.4825881937576758,0.4722017630461713,0.5530610172105812,1.9054486434422022,1.1099359023758166,,,0.6403206450210053,7.347121938765983,inf,,0.854535753854484
399,,0.0,0.0,1.0335829076980818,0.9934474238010367,0.8453832395127144,1.6897813559479962,0.9699106887094449,,,0.6380535849069913,inf,,,0.8415189976682849
400,,0.0,0.0,0.5057812180840343,0.26651621341373366,0.6137645592029043,0.6561297551514674,0.4035786902416878,,,0.6380535849069913,inf,,,0.8220144194031916
401,,0.0,0.0,0.3458280430384208,0.29734442246209786,0.8024445364078217,0.29033436788807176,0.39228391661416984,,,0.6425374456860184,inf,,,0.9331980979128738
402,3.624340932976365,-0.01208113644325455,0.0,0.2026936958102423,0.14372717294368842,0.5988160062071826,0.8326500133844393,0.732470276186733,,,0.6333676938231112,9.328123407632566,inf,,0.9645830364889333
403,,0.0,0.0,0.2127778966817606,0.17226527585464294,0.7096960085746298,0.18283478862839692,0.20761189888382514,,,0.5490601803369085,inf,,,0.9529087293561739
404,,0.0,0.0,0.2703566767940242,0.2226182083463134,0.8355096678427687,0.0993004294113142,0.12238250014427675,,,0.6333676938231112,inf,,,0.945585257847793
405,,0.0,0.0,0.7869245334008617,0.7586375929468098,0.9208241144909688,0.07807144606824294,0.14786491934735302,,,0.648888643467878,inf,,,0.8864248128598545
406,,0.0,0.0,1.473088986570825,1.4786163450056757,0.63505173504486,0.14876680387356814,0.19281998937839812,,,0.648888643467878,inf,,,0.8808932899526427
407,,0.0,0.0,1.42946726103765,1.4094885524342708,0.5976560739585385,0.16566501339423062,0.15460363627826273,,,0.6425374456860184,inf,,,0.8719816802033441
408,,0.0,0.0,1.4004518663381835,1.3875841457071545,0.9281683087189335,0.05285421151063293,0.13295663488027393,,,0.6153451465759925,inf,,,0.8519381428946672
409,,0.0,0.0,1.504196146701078,1.486706261453626,0.92645038828603,0.05245447471039328,0.1329514034708552,,,0.6097226960127671,inf,,,0.8525222314105014
410,,0.0,0.0,1.6193087277206981,1.600332970202516,0.728532265957475,0.29381516094868954,0.29219951891418194,,,0.62595550513784,inf,,,0.8501165457284372
411,,0.0,0.0,1.5500905160687164,1.5241418464260001,0.9169431235199013,0.09761562114575767,0.16656746849996132,,,0.6038851895711802,inf,,,0.8764604435079782
412,,0.0,0.0,0.5089560754005663,0.44230538979509865,0.6316192582447149,0.4943531042345666,0.33350300644803843,,,0.5883313578629602,inf,,,0.9564138072574828
413,,0.0,0.0,1.185843046322847,1.1343696447330116,0.8106441022965077,0.01809609119943425,0.036359784073196864,,,0.6403206450210053,inf,,,0.8367850894185295
414,,0.0,0.0,0.4240750436583659,0.3840298516245175,0.8036389936764815,0.12877671165514118,0.10776723711080746,,,0.6068309995095971,inf,,,0.9538560081274
415,,0.0,0.0,1.4956037594776153,1.3949266354721503,0.8700073931425978,0.04965647887556652,0.10274342355498861,,,0.5713653840954815,inf,,,0.853268623387626
416,,0.0,0.0,0.1515848085745051,0.12623043554809718,0.48177234786179823,0.16065407595370457,0.20758221831741897,,,0.5158180382284114,inf,,,0.9411538822820871
417,,0.0,0.0,0.3108102892920412,0.2826545386730611,0.7742748676835494,0.20350430230945507,0.2603698677605003,,,0.5713653840954815,inf,,,0.9007907930499895
418,,0.0,0.0,1.6913773731040336,1.6742745451167569,0.9443160417550062,0.31885964870061234,0.5952441318441597,,,0.5677978065141052,inf,,,0.9114560788490268
419,,0.0,0.0,0.791928284246723,0.7792678662321322,0.8433465315530408,0.23200915632820382,0.4126452703013256,,,0.5567373465730988,inf,,,0.9085901291945458
420,,0.0,0.0,0.8917307134842992,0.8428432341276175,0.7108068706522781,0.7943157369469532,0.839059852968276,,,0.49759852643134905,inf,,,0.8895362184198815
421,,0.0,0.0,1.5051638802789715,1.4463320201403673,0.8505831393992209,0.9182887319106613,0.9654658136519811,,,0.5370774965580548,inf,,,0.8674338206512425
422,,0.0,0.0,0.7330222804401697,0.6716594236143675,0.7219720914623277,0.16837375022647447,0.12397981400805766,,,0.6008849035917525,inf,,,0.9135151128371634
423,,0.0,0.0,1.3508256999331087,1.3289953202321176,0.9009478843215345,0.03845228398640997,0.0739295458434211,,,0.5783247308855777,inf,,,0.8726745895124706
424,,0.0,0.0,1.5733633564242855,1.5494196303790266,0.8985310751792684,0.049788218210891445,0.10622138685350731,,,0.5370774965580548,inf,,,0.8535026048426007
425,,0.0,0.0,1.6265999147038523,1.5492945372538431,0.9275429273421631,0.17084972527260853,0.3024365767888806,,,0.5370774965580548,inf,,,0.8732711078645186
426,,0.0,0.0,1.6256285570772526,1.5629571898552739,0.862874904320895,0.05939211638184834,0.12404714794494508,,,0.5490601803369085,inf,,,0.8787281407866027
427,,0.0,0.0,1.3210178693405736,1.2965628918531198,0.8604513520464099,0.05679027060483424,0.10768334632071254,,,0.5202020156036558,inf,,,0.8733766088027822
428,,0.0,0.0,1.0508948027137277,0.9912041256370626,0.8983074519710377,0.22142027431969333,0.27199104575089916,,,0.5748741956352443,inf,,,0.8282785817951555
429,,0.0,0.0,1.282159726941839,1.2387492388661911,0.8384265284395733,0.32600754520221203,0.3899091266966269,,,0.5604843169999094,inf,,,0.8532754553119432
430,,0.0,0.0,0.579972604152922,0.5063680405574019,0.7873214721779038,0.17074737227165415,0.16871156721992767,,,0.5783247308855777,inf,,,0.9438074882245725
431,,0.0,0.0,1.6193416993691618,1.5950336550409778,0.904624351844686,0.026806732697955363,0.062202075977678906,,,0.5677978065141052,inf,,,0.8850948422196447
432,,0.0,0.0,1.5725895102963496,1.543706744308594,0.9488869202208972,0.0354097759477418,0.07370127282006714,,,0.5713653840954815,inf,,,0.8625869113057963
433,,0.0,0.0,1.5469846437310615,1.2896839619914822,0.8353457864632466,0.24608557665993394,0.2953393764532376,,,0.5604843169999094,inf,,,0.9121349909220584
434,,0.0,0.0,1.7251678861083186,1.6952450797457967,0.8923600133925884,0.41207219369771114,0.7511189973316961,,,0.5748741956352443,inf,,,0.8944067330413911
435,,0.0,0.0,0.7730710355543084,0.644673164537737,0.6833011981815454,0.17045660692120093,0.24324937146630313,,,0.581717464821069,inf,,,0.9407148283501757
436,,0.0,0.0,0.7373554316759601,0.7220663802289248,0.7426251546781113,0.032132422157857866,0.03686340409533335,,,0.6284777104787076,inf,,,0.9041783736996323
437,,0.0,0.0,0.9628429746904732,0.9341442867634685,0.9289606949547339,0.03310093947518946,0.0694140791167609,,,0.6125606311107803,inf,,,0.8472637783031086
438,,0.0,0.0,0.2602946548662997,0.20594343766259549,0.7049886155698198,0.16362631654508175,0.16306596952701458,,,0.6425374456860184,inf,,,0.9018001975220175
439,,0.0,0.0,1.5157485564873745,1.501707474700013,0.8977922084935688,0.12769380059419044,0.21440122215949617,,,0.6008849035917525,inf,,,0.920858699951497
440,,0.0,0.0,1.4925485366776727,1.4903183257585233,0.876484503806369,0.10514059088526873,0.16780105513456156,,,0.6207552362147116,inf,,,0.9007444991940288
441,,0.0,0.0,1.5584398564214386,1.5262686372562997,0.9189219419150833,0.07190356936523008,0.10884016911344328,,,0.648888643467878,inf,,,0.8752499398592736
442,,0.0,0.0,0.25831975615694475,0.20454058740062456,0.8793924250354971,0.1298327079565986,0.13314328896856198,,,0.62595550513784,inf,,,0.9459479625630174
443,,0.0,0.0,1.3178199056284556,1.3143171182987272,0.9023777316538782,0.07242962781244118,0.09186031762718318,,,0.6333676938231112,inf,,,0.8587421338888954
444,,0.0,0.0,0.35248946034816026,0.2670856889009132,0.7371224156903321,0.287450185274462,0.31432216199986557,,,0.62595550513784,inf,,,0.9048546707111834
445,,0.0,0.0,1.150377070593072,1.0243749512525788,0.751707869660152,0.17917597508999428,0.3077246024809511,,,0.5677978065141052,inf,,,0.7342668154427895
446,,0.0,0.0,1.5993574883538555,1.4408047560345407,0.8525749173622114,0.6557842297855467,0.7536163186915956,,,0.5068466436745385,inf,,,0.8545436425967736
447,,0.0,0.0,0.5421173887448081,0.498288420336626,0.7408150706293656,1.2055298063962705,0.695564937045809,,,0.62595550513784,inf,,,0.9471158346285012
448,,0.0,0.0,0.9366141814566293,0.8934451364584648,0.6215468508161572,0.23629974630326628,0.2704842595932634,,,0.676637947632344,inf,,,0.8910671544686702
449,,0.0,0.0,1.5892185967395238,1.569786151506033,0.9254154850783582,0.31132930630631184,0.354587936839442,,,0.676637947632344,inf,,,0.9032175639695863
450,,0.0,0.0,1.404145236640979,1.3919192856990326,0.8898334974734309,0.2799336099040355,0.2833326811307893,,,0.6740851607140061,inf,,,0.8679310598241323
451,,0.0,0.0,1.4446385012511285,1.4307939160206768,0.8911444381382595,0.31724006979817265,0.3599702661953111,,,0.6740851607140061,inf,,,0.8494596684219994
452,,0.0,0.0,0.8466789765321407,0.7883267442583817,0.8374961833758114,0.24807094712382202,0.2381109824643573,,,0.6713451011121618,inf,,,0.8816214023503859
453,,0.0,0.0,1.5180573120149463,1.504335546586677,0.911660956607494,0.3015459460804602,0.3667654824423259,,,0.6668815377411301,inf,,,0.892594789810114
454,,0.0,0.0,1.5395909077408059,1.5305601982388313,0.8750262958205722,0.2912798584460112,0.36823604436043933,,,0.6468212168108125,inf,,,0.886112513908314
455,,0.0,0.0,0.6328729354364413,0.6171864019622476,0.4628593527308609,0.37767548151441077,0.4458108631984383,,,0.6153451465759925,inf,,,0.9531839985602059
456,,0.0,0.0,0.8584115148314475,0.8360355427959262,0.7946339662731058,0.5327217639038916,0.6452452907648841,,,0.5883313578629602,inf,,,0.8887935480104466
457,,0.0,0.0,0.18880655353635273,0.16900301425989295,0.5932638966980469,0.0956920753534097,0.09464620670262623,,,0.6153451465759925,inf,,,0.9585025945781213
458,,0.0,0.0,1.1073838548473631,1.0908672931673329,0.9205819637839169,0.026985088279398713,0.05002824896691509,,,0.5604843169999094,inf,,,0.8454633268402089
459,,0.0,0.0,0.2205191014544508,0.18397717140950487,0.6780673937328996,0.07777430718251231,0.07468816270272466,,,0.6125606311107803,inf,,,0.9495570005241765
460,,0.0,0.0,0.20466859451959732,0.18160052617987743,0.5868929190509817,0.18148875651223098,0.21913611970554198,,,0.6180765742263259,inf,,,0.9050403164398148
461,,0.0,0.0,1.4124795056047037,1.370754038858643,0.8812969447733626,0.22304508729928438,0.35632220023364203,,,0.5947193981915972,inf,,,0.8113034188812023
462,,0.0,0.0,0.21103373620254542,0.16620035741724523,0.6763419338009553,0.33669966365158327,0.37008254279945224,,,0.6447042257417027,inf,,,0.9392980641657559
463,,0.0,0.0,1.2884037479004466,1.253328673745975,0.8852752999465162,0.1950361983012903,0.25701592393901396,,,0.6584896970785714,inf,,,0.8568634715010919
464,,0.0,0.0,1.3343834008200501,1.3043144242044056,0.8941228585000073,0.21905169352243367,0.24316896303060556,,,0.6668815377411301,inf,,,0.8767867838192523
465,,0.0,0.0,1.2415437294478076,1.2295996394686834,0.8328902987365879,0.20039047162534776,0.23149942497558618,,,0.6547956803312163,inf,,,0.8652946972492451
466,,0.0,0.0,1.4770330481568565,1.4400049829855102,0.900436321234929,0.28403319199646376,0.3570800488131679,,,0.6403206450210053,inf,,,0.8939314281941229
467,,0.0,0.0,1.5330210208829826,1.5167345447682974,0.924436438541732,0.4953851936626742,0.6643347602970083,,,0.6097226960127671,inf,,,0.9254967872124731
468,,0.0,0.0,0.32690308098251686,0.2372845677544156,0.5388300256024064,0.3628544063027385,0.35257957174468074,,,0.6309483474627791,inf,,,0.9418546509033695
469,,0.0,0.0,0.99417024256274,0.9280492895299701,0.855315404222375,0.7668980550746582,0.5987100807755354,,,0.6097226960127671,inf,,,0.8879624952764408
470,,0.0,0.0,1.518395744932509,1.4737105350646278,0.8062652030012433,0.6577592632124719,1.003872880805918,,,0.5202020156036558,inf,,,0.8177333603342195
471,,0.0,0.0,1.6414769066074149,1.5817064413358923,0.9481436908313359,0.7737357118762994,0.97628572241907,,,0.4928685327679205,inf,,,0.9100259241152476
472,,0.0,0.0,0.2876740664894276,0.18172784963707436,0.6705686856726987,0.18603039116279071,0.1651406158924128,,,0.6284777104787076,inf,,,0.8969368920284742
473,,0.0,0.0,1.1494329383654136,1.1383495852119554,0.9087454269056376,0.08912006753848493,0.14009740987954616,,,0.5947193981915972,inf,,,0.843804494563963
474,,0.0,0.0,1.4519770228007278,1.4194814091301764,0.9407751089013047,0.0883670691435519,0.16674759990175192,,,0.5713653840954815,inf,,,0.8238690513218102
475,,0.0,0.0,0.12932326130896363,0.11102852129718084,0.3621472693618269,0.41197541626780465,0.39833094797126,,,0.5947193981915972,inf,,,0.6038658611079635
476,,0.0,0.0,0.6882863204235998,0.5607286789709333,0.8370132158877807,0.7612783812691107,0.6589476097397148,,,0.5915533975974677,inf,,,0.8657417370293922
477,,0.0,0.0,1.6918521209893331,1.6618821638543204,0.8980875651146458,0.6854804237700877,0.9116886696938173,,,0.5451288209179292,inf,,,0.8865983139850062
478,,0.0,0.0,1.230842580839612,1.1677391733254605,0.8600152854653672,0.7348742463259574,0.8880899301070406,,,0.524519217297268,inf,,,0.8743028226139377
479,,0.0,0.0,0.8536577571906325,0.7640196962317114,0.6750130341142964,0.4071788443885256,0.5392806650544228,,,0.5329562494928909,inf,,,0.8808030645072132
480,,0.0,0.0,0.10060391803536385,0.07264288513230016,0.4594737127343783,0.4119347558662501,0.46514058122037605,,,0.6180765742263259,inf,,,0.9691771315922185
481,,0.0,0.0,0.5921704697332622,0.5326166679697717,0.6601201091482826,0.8584724877175769,0.7386810414686117,,,0.6097226960127671,inf,,,0.9547084848830706
482,4.605170185988091,-0.01535056728662697,0.0,0.24617879408116716,0.20202617089962535,0.5711507208847525,1.3125629415187767,1.3652786165742452,,,0.6509067234006624,10.308952660644293,inf,,0.6146654331731505
483,1.8504760176741026,-0.004168122050817749,-0.008168384733676268,0.36964757372504325,0.3283221314397079,0.5239353329722091,1.7897013219121396,1.4541442633164319,1.3387945640686063,,0.6602640781246099,6.843216757844566,1.3062516534463542,inf,0.7203451352518071
484,,0.0,0.0,1.0387835391362898,1.0010099597496822,0.8551799636047421,1.509749256065091,1.2376256203713665,,,0.6727386042041725,inf,,,0.9386314672141413
485,,0.0,0.0,0.7885347158784071,0.7708597474592793,0.6999845704156922,2.530310919760217,3.0183802022616475,,,0.6822068148872973,inf,,,0.6751154292879304
486,,0.0,0.0,1.4510925276447797,1.3757435491357242,0.8630653748815785,2.0122985394257147,1.7008750322131898,,,0.6447042257417027,inf,,,0.932491929732003
487,,0.0,0.0,1.4146616210029905,1.3688775867073824,0.8365949627240232,1.2949349771870156,1.6939027542717087,,,0.6180765742263259,inf,,,0.879079033798008
488,,0.0,0.0,1.350282377229102,1.3190760085723683,0.907966467010305,0.6434896124266197,0.791157884509767,,,0.6068309995095971,inf,,,0.8195721136660098
489,,0.0,0.0,1.4510442937939927,1.4569197802844236,0.49333149907710233,0.7776170291535202,0.6840821633810201,,,0.6468212168108125,inf,,,0.9419275593949693
490,,0.0,0.0,0.9826758049950146,0.9639909405720107,0.5666277708462637,0.7264146761222878,0.6896062260593524,,,0.6180765742263259,inf,,,0.9315246187584889
491,,0.0,0.0,0.9789431710079888,0.9573224532768198,0.8483755244984694,1.0411193116200927,1.1161185229466444,,,0.6403206450210053,inf,,,0.9453547671824423
492,,0.0,0.0,0.7191188557436381,0.6484877306634261,0.9365856793289683,0.911740525546224,1.123149619674312,,,0.6380535849069913,inf,,,0.9546453800577007
493,,0.0,0.0,1.075371223479316,1.067196509462886,0.8505701245473192,0.46956654987017105,0.6237690822633817,,,0.62595550513784,inf,,,0.918482000467144
494,,0.0,0.0,0.8156985265568724,0.7935951405261168,0.808205655865012,0.6155963029052163,0.6772492423162552,,,0.6233814453054027,inf,,,0.9562780574496763
495,,0.0,0.0,0.8823752094801147,0.7758859995167845,0.7545614021369811,1.1839483927562384,0.7040482985463878,,,0.6447042257417027,inf,,,0.9564654562539406
496,,0.0,0.0,1.0058392390872475,0.9879040402460431,0.8240526187723365,2.000676091566781,1.6753773228113082,,,0.6509067234006624,inf,,,0.7461715255315898
497,2.2302944785884917,-0.01486862985725661,0.0,0.3425926612355005,0.321848004725807,0.5962924155387849,1.6431144591916411,1.3875103499486752,,,0.6584896970785714,7.217910207285977,inf,,0.5258104567436971
498,,0.0,0.0,1.1116874561139596,1.0858990676133036,0.7800038438647382,1.9002074488696126,1.6756170246008852,,,0.6425374456860184,inf,,,0.9453822499997566
499,,0.0,0.0,0.7504941604897457,0.7168268966184893,0.7445461855849255,1.6671764330872227,1.286674901237738,,,0.6584896970785714,inf,,,0.9425573688549853
500,,0.0,0.0,1.0348605097521162,0.993639763732218,0.843605928199121,2.48414274197135,2.119555036236397,,,0.6447042257417027,inf,,,0.9372749464038501
501,,0.0,0.0,1.0135530516566893,0.9782164499256631,0.8355948784764059,2.045142856539896,1.4480166761950812,,,0.6684167106117298,inf,,,0.9468144743905101
502,,0.0,0.0,0.6400303676336208,0.6005687099164059,0.760888455130205,1.6752800923677569,1.4276824222562525,,,0.6357360191111145,inf,,,0.9485040199509638
503,,0.0,0.0,0.9261629336429326,0.8475653449854142,0.8186176960821653,2.519965242695346,1.9154139318129153,,,0.663668482632973,inf,,,0.9489287636593345
504,,0.0,0.0,0.8761874465411669,0.8223593027648577,0.7098622171650912,1.714126402014599,1.5231201026733403,,,0.6309483474627791,inf,,,0.9466170373270018
505,,0.0,0.0,0.4987426503901187,0.46844060586063185,0.5741287824290017,1.8972868950310102,1.3207360820704024,,,0.6425374456860184,inf,,,0.6818780939411149
506,,0.0,0.0,1.0455214157004102,0.9970486186260432,0.6894993945594203,2.29820649757693,2.264710429852586,,,0.6584896970785714,inf,,,0.6072154727792259
507,,0.0,0.0,0.7052254733221265,0.6814114934331119,0.7683556846397748,1.8767672193138623,1.686594283042258,,,0.6284777104787076,inf,,,0.9509509523086549
508,,0.0,0.0,0.9736943672631846,0.8983381349421935,0.8228382889779325,2.114637650721057,1.9438378631172246,,,0.6528756675646988,inf,,,0.9525322522453148
509,,0.0,0.0,0.4313961977487184,0.4019644082198381,0.7238918521346311,1.6034666042714907,1.335936786337505,,,0.6547956803312163,inf,,,0.6691231309268144
510,,0.0,0.0,0.6688098371013642,0.622904893099215,0.8777252351794759,1.0335554946768404,0.98467477246998,,,0.6619902821573977,inf,,,0.9498916217593967
511,,0.0,0.0,1.2472478361526995,1.215729821952655,0.8112957130428301,2.050473674535319,2.1678229096134944,,,0.6713451011121618,inf,,,0.8918482225073994
512,,0.0,0.0,0.744715876392748,0.7097525759833383,0.7321741575755253,1.6783607114783743,1.3093342734682287,,,0.6584896970785714,inf,,,0.8401477883992596
513,4.605170185988091,-0.01535056728662697,0.0,0.8170250267935221,0.7752193716357142,0.6869508640463963,2.2693699381892256,1.5802361671724787,,,0.6284777104787076,10.308952660644293,inf,,0.7937925010034244
514,,0.0,0.0,0.5400792858211495,0.5128718766560587,0.6814890897909914,2.2253055643584965,1.6749213036914243,,,0.6468212168108125,inf,,,0.8401486460257378
515,,0.0,0.0,1.147175107073832,1.1233457562595224,0.752389801649432,1.7637168207293508,1.4043471690364386,,,0.6547956803312163,inf,,,0.9366001965636689
516,,0.0,0.0,0.6955265764304456,0.64422114410098,0.8635923905922224,1.5234794707136268,1.4840324739661734,,,0.6403206450210053,inf,,,0.9515886190668851
517,,0.0,0.0,0.822892947560789,0.8049734378357687,0.7686374196957544,1.5522185958194763,1.3415792096743404,,,0.6652988471865258,inf,,,0.9527320845141312
518,,0.0,0.0,0.5813136018550918,0.49311936627424985,0.7968319097747111,1.0284527611069583,0.8731356560826979,,,0.6403206450210053,inf,,,0.9510290344598687
519,,0.0,0.0,0.9615621464778321,0.9417596202660271,0.8332148845833729,1.7270890752582244,1.193858340381936,,,0.648888643467878,inf,,,0.8994904697873992
520,,0.0,0.0,0.8543051268950584,0.8273590026744156,0.8103787220475136,2.0768989736753434,1.4715496310000238,,,0.6403206450210053,inf,,,0.8879241489572401
521,,0.0,0.0,1.0151593756367507,0.997457297081872,0.8849082677653399,2.014922938863326,1.783735868993904,,,0.6602640781246099,inf,,,0.9422278868363354
522,,0.0,0.0,0.8093770919582901,0.7659826485044459,0.6713895992357437,2.4789298815235186,2.195591589245547,,,0.6566669596287297,inf,,,0.6523201516708035
523,,0.0,0.0,0.31677554363971727,0.2594501471086124,0.6382952566621724,1.133966699211939,0.9579288244972617,,,0.6528756675646988,inf,,,0.7145381069067486
524,,0.0,0.0,0.9263484820840217,0.8822986601204005,0.7593205046411529,1.2430897953558429,0.8861826720415433,,,0.6619902821573977,inf,,,0.9559497877582511
525,,0.0,0.0,0.634167207458079,0.6130344266958265,0.7556475255470723,1.1361206721879669,1.0590354851485795,,,0.6652988471865258,inf,,,0.9521248196217408
526,,0.0,0.0,0.9104220207004698,0.8825347409782898,0.8282656339625292,1.7175583640244203,1.9689530561302513,,,0.6566669596287297,inf,,,0.9594958726202126
527,,0.0,0.0,1.340657581129959,1.3135593034520225,0.8720850159556448,1.4137419883550315,1.4027271814572835,,,0.6547956803312163,inf,,,0.9584016546574142
528,,0.0,0.0,0.7163950904987126,0.7014106420286516,0.7675879526928437,1.2186397623902065,1.0462174941945006,,,0.6619902821573977,inf,,,0.9640652153574456
529,,0.0,0.0,1.059044934038182,1.019985701963673,0.8045232362926249,1.2652835437081735,1.2835970524316553,,,0.6233814453054027,inf,,,0.9538608230723574
530,,0.0,0.0,1.2209023448920446,1.2236350881430815,0.8898456773128608,1.981412057358664,1.7508620950044331,,,0.6403206450210053,inf,,,0.9232961485218475
531,,0.0,0.0,1.0332249968652683,0.9831070645216222,0.8743956310601494,1.8035926485751,1.2309779267635383,,,0.6207552362147116,inf,,,0.9398868347385589
532,,0.0,0.0,0.9471858748488281,0.8932616708645604,0.7113630398889331,1.3836323407837166,1.1674645428728132,,,0.6509067234006624,inf,,,0.9393743898944051
533,,0.0,0.0,0.6066486233165438,0.5446686966128308,0.7124693291400139,1.146056680498014,1.038806699568312,,,0.6233814453054027,inf,,,0.9446024594336673
534,,0.0,0.0,0.9103306560111576,0.8921468741974408,0.8248243419962044,0.8770617957856377,0.6865439831063251,,,0.6125606311107803,inf,,,0.8783745365456199
535,,0.0,0.0,0.6076673903087473,0.5493956869534447,0.6773838616344313,0.7966012672071142,0.6086685767797086,,,0.6207552362147116,inf,,,0.8944337657958611
536,,0.0,0.0,1.1096893492101152,1.0878169401020603,0.7470341367473787,1.6921584345495637,1.3435690939725968,,,0.6528756675646988,inf,,,0.9488988938127084
537,,0.0,0.0,0.7773444781746487,0.7276145383733228,0.7839632620647934,0.5694585302626296,0.32864745617962554,,,0.6778444222523095,inf,,,0.9476699180160916
538,,0.0,0.0,1.0190845722774193,0.9189313503007552,0.8627377235657234,1.2868737609403362,0.9312932102895284,,,0.6584896970785714,inf,,,0.8579585496652742
539,,0.0,0.0,0.4064216816961138,0.3568058287522178,0.6278089343500894,0.9806333361270705,0.8193715897956806,,,0.6447042257417027,inf,,,0.9322611190954814
540,,0.0,0.0,0.9639510432673867,0.8927727711964872,0.8409033699106001,1.3105610685003197,0.9931688312251872,,,0.6447042257417027,inf,,,0.9511967175918767
541,,0.0,0.0,1.0466135947517512,1.0104164576952468,0.9062107821716893,1.173817386078968,1.0439957497722223,,,0.648888643467878,inf,,,0.9339301693414773
542,,0.0,0.0,0.9920275330743402,0.9511926251504499,0.836424013852906,1.031185572737489,0.8022498355775805,,,0.6528756675646988,inf,,,0.9363277264881654
543,,0.0,0.0,0.7582652204727112,0.6876315375075424,0.8561197216780735,0.9967724535791456,0.8148731936829552,,,0.6468212168108125,inf,,,0.9523982867694752
544,,0.0,0.0,0.8119224389581186,0.797014247631553,0.7160402425503186,0.9012968006564108,0.6592205515733253,,,0.6447042257417027,inf,,,0.94839274216726
545,,0.0,0.0,0.7793175403966732,0.7427406581822507,0.812000675791383,1.333918562767522,0.9959015255355401,,,0.6309483474627791,inf,,,0.9485128578157109
546,,0.0,0.0,0.7709621229969064,0.7421939859909504,0.7556686249009311,1.3107797917698192,0.8773839185589027,,,0.6584896970785714,inf,,,0.956210871733999
547,,0.0,0.0,0.9210202328212928,0.8954214985250313,0.6835711281247464,1.7098499626101382,1.2771622626807024,,,0.6547956803312163,inf,,,0.9534903214713106
548,,0.0,0.0,0.8457703648102267,0.7858051415441729,0.7138713957804707,1.898057047386004,1.2997743253886203,,,0.6509067234006624,inf,,,0.9634980932364958
549,,0.0,0.0,0.9015446072815313,0.8981624041491354,0.7758375905403317,1.194777529000308,1.0192176012609446,,,0.5641709578113449,inf,,,0.9544856695906733
550,,0.0,0.0,1.003127808831655,0.9866224019174903,0.7861120867363794,1.7360534359008992,1.2977830971485407,,,0.6699045166045591,inf,,,0.9549724701800051
551,,0.0,0.0,0.7030959746874121,0.5252759897418594,0.7673391196388133,1.202286432113119,0.9920971729742543,,,0.6447042257417027,inf,,,0.9252864097017918
552,,0.0,0.0,0.8658413742315566,0.8260704155942802,0.7178258438562356,1.3696089644317766,1.0202838714572235,,,0.6403206450210053,inf,,,0.8946132311404077
553,,0.0,0.0,1.3518736599491687,1.3473813981149971,0.890040726574134,3.320369458502966,4.4833130437262065,,,0.6468212168108125,inf,,,0.9289526635924542
554,,0.0,0.0,1.3796373649150413,1.3494815090661205,0.9219555896722014,2.3083664827318584,1.6235885713502354,,,0.6547956803312163,inf,,,0.9331871351688856
555,,0.0,0.0,0.9705683923121566,0.952224418740211,0.9127794347522502,1.9479453978661838,1.8051564621865854,,,0.6602640781246099,inf,,,0.9419643963917601
556,,0.0,0.0,0.9277201357779592,0.9005450733777386,0.6847683901953274,2.874623614118677,2.492265290489606,,,0.6468212168108125,inf,,,0.8587339043726993
557,,0.0,0.0,0.6559799020561301,0.6403975352539418,0.6556778344001051,2.192011539379814,2.4944432113349477,,,0.6447042257417027,inf,,,0.9420633987836161
558,,0.0,0.0,0.625208079196306,0.5820488834141724,0.7382316314916204,2.130354106390008,2.1149550229662055,,,0.6652988471865258,inf,,,0.956317942823975
559,,0.0,0.0,0.9014759152225174,0.8613673431606759,0.8033434818652525,2.2452688144733957,2.1248764653610017,,,0.6727386042041725,inf,,,0.9482809047622214
560,,0.0,0.0,0.8923256994809002,0.8325415074986069,0.8240337740448676,2.0295525767807807,1.714112590992499,,,0.675384900321601,inf,,,0.9495032879934654
561,,0.0,0.0,0.8389881109112464,0.7682771855663323,0.8654649676882661,1.0965601374304275,0.7925814891535865,,,0.6528756675646988,inf,,,0.9341744914077278
562,,0.0,0.0,1.2488848018287921,1.2155496065047426,0.8419397164022394,1.2141338446981493,1.3792978408152439,,,0.6180765742263259,inf,,,0.9475981569246558
563,,0.0,0.0,0.9971694593618219,0.9259230958690498,0.79789002450483,0.8882315678562838,1.0429846699368288,,,0.6153451465759925,inf,,,0.8781216996757564
564,,0.0,0.0,0.8110775453531394,0.7950816769867455,0.6594549560661663,0.6213241251205226,0.6081608791745329,,,0.6357360191111145,inf,,,0.8742417028354496
565,,0.0,0.0,0.9435098825323462,0.9272073933985566,0.7359791853609847,0.8544707646549677,0.6156502735862448,,,0.6403206450210053,inf,,,0.9528686466076677
566,,0.0,0.0,0.7775638987586514,0.7418293181569975,0.6100802776703522,1.2846256425284273,0.9995461840523698,,,0.6528756675646988,inf,,,0.953862750919299
567,,0.0,0.0,0.622194867420554,0.5415195335398885,0.5220938723200856,0.8885701657871246,0.6334700721788513,,,0.6357360191111145,inf,,,0.9548780292021547
568,,0.0,0.0,0.22976106386191675,0.18170385696716834,0.6296107574123959,0.8758147382173628,0.8748216287600463,,,0.6180765742263259,inf,,,0.6980218174349916
569,,0.0,0.0,0.22733628620625645,0.19545490679351693,0.547978653627574,1.6601011445599727,1.3828602594580708,,,0.6097226960127671,inf,,,0.596752506957412
570,,0.0,0.0,0.606593259863417,0.5756070806438434,0.7139930207931826,0.888281787030353,0.5698291794768664,,,0.6333676938231112,inf,,,0.9417524253407682
571,,0.0,0.0,0.9742909131512215,0.9075639260164052,0.7756648792439315,1.1235623180558836,0.7851552115590525,,,0.6357360191111145,inf,,,0.9520843480348089
572,,0.0,0.0,0.5888389226328256,0.5506351532687807,0.8334735907209114,0.7701726076930594,0.7814826262668136,,,0.648888643467878,inf,,,0.9097057761362846
573,1.9902104079518934,-0.006634034693172978,0.0,0.7296979125872002,0.6640015848716947,0.570688525061981,1.432647461506614,1.3242795219722683,,,0.6584896970785714,7.693992882608094,inf,,0.8003489005293629
574,,0.0,0.0,0.884860740482128,0.8168687138016695,0.7282424934797114,1.3889274728220273,1.1419797937011003,,,0.6509067234006624,inf,,,0.891985555135219
575,,0.0,0.0,0.8724083350992655,0.8184581337209281,0.6968875904577644,0.9656157863650235,0.783812334234934,,,0.663668482632973,inf,,,0.9356861686545005
576,,0.0,0.0,0.6235307526596301,0.5974691631251907,0.8601999368434291,1.108772611253399,0.7078508248724513,,,0.6333676938231112,inf,,,0.9213794069866682
577,,0.0,0.0,1.2645008007921843,1.2603066655194106,0.8907791509272376,1.4627344851788995,0.9879688586016722,,,0.6684167106117298,inf,,,0.9270212801562931
578,,0.0,0.0,1.0758397043851344,1.0450961050489056,0.8926959807217392,1.770429754840278,1.3614381824565618,,,0.6528756675646988,inf,,,0.9457028925932335
579,,0.0,0.0,1.084908611454149,1.0541833667514968,0.8425409393160143,2.1760002100612525,1.4384993087223275,,,0.6468212168108125,inf,,,0.945777015299085
580,,0.0,0.0,0.9964904491189581,0.9831357819233189,0.8140102609050716,2.1700653577629083,1.2216920261573265,,,0.6509067234006624,inf,,,0.9639295239160234
581,,0.0,0.0,0.8777582909668507,0.8058117164951736,0.7256454112082223,1.4324451586817775,0.8649416034701178,,,0.6699045166045591,inf,,,0.8663245794540566
582,,0.0,0.0,0.7003038241418641,0.6914653248463445,0.7163224008706978,1.996198028627796,1.4847129074074878,,,0.6727386042041725,inf,,,0.8631089101914473
583,,0.0,0.0,0.7775737176850768,0.7127501936624542,0.8327305488015093,1.3678755356905326,1.2887941646545062,,,0.6668815377411301,inf,,,0.9426928219579014
584,,0.0,0.0,0.8141538449742102,0.7779274496954343,0.7455769528642613,1.9337761614699478,1.6027527854320314,,,0.6528756675646988,inf,,,0.6989709271451465
585,,0.0,0.0,1.1033038361461613,1.0466060049761443,0.8197024651831785,1.9344362448893877,1.3507341675929525,,,0.6357360191111145,inf,,,0.9326274017869184
586,,0.0,0.0,1.0801296021388114,1.0249182770183471,0.8406093490339162,1.8411131716691957,1.4914312426981786,,,0.6468212168108125,inf,,,0.9197164561361401
587,,0.0,0.0,0.7525168959957611,0.7427523166510028,0.7374316463214283,1.7192357807361063,1.6454482568179924,,,0.6380535849069913,inf,,,0.9136636776124434
588,,0.0,0.0,0.865097756688704,0.8057857001641023,0.8490656046453716,2.222433359940364,1.999490770989249,,,0.6447042257417027,inf,,,0.9535528141814366
589,,0.0,0.0,0.6242025265344481,0.5398135233797712,0.6434857426491404,1.6467912656394708,0.9435884102299321,,,0.6425374456860184,inf,,,0.8505141780572818
590,,0.0,0.0,0.719933723685222,0.6818821435702475,0.6464291248962091,1.7888219617556849,1.182967381416939,,,0.6584896970785714,inf,,,0.7596712699186968
591,,0.0,0.0,0.8128159216303923,0.7560951919842606,0.7540364069842994,1.621249001629802,1.0340858808667355,,,0.6602640781246099,inf,,,0.946919746879251
592,,0.0,0.0,0.8852587267919169,0.8910343691998484,0.6395163195438726,1.468681725007486,1.2734114655248836,,,0.6425374456860184,inf,,,0.9428362811999034
593,,0.0,0.0,0.8367713463046854,0.7632162060547113,0.7940246207006076,0.7559392789236071,0.5056948154131448,,,0.648888643467878,inf,,,0.9171338147639927
594,,0.0,0.0,0.7924436141153309,0.7394391964499605,0.8351979679598298,0.770591157544404,0.61286180443056,,,0.6333676938231112,inf,,,0.8366489919871557
595,,0.0,0.0,0.38174366987726327,0.3484987717309903,0.45720571672252525,1.4634908160411095,0.9660964615890113,,,0.6468212168108125,inf,,,0.930114174970305
596,,0.0,0.0,0.6049164064480911,0.5148226119951976,0.7368153338946881,1.4440626011641566,1.3642202025211663,,,0.6233814453054027,inf,,,0.6862031772967127
597,,0.0,0.0,0.9167746737031315,0.8813135324771343,0.8926528412026554,2.1858771300396254,1.8163458942696034,,,0.6509067234006624,inf,,,0.9550320313508556
598,,0.0,0.0,0.83872399322366,0.8165599462014209,0.7892932633854857,2.4960089157683116,1.4480057580277261,,,0.6699045166045591,inf,,,0.9542879301762534
599,2.7593434954897607,-0.009197811651632536,0.0,0.5437863239908558,0.5004214697690027,0.5095644156892727,2.2238128841550204,1.5661355476106191,,,0.6425374456860184,8.463125970145962,inf,,0.7693847203419601
600,2.1484344131667874,-0.0071614480438892915,0.0,0.7054632982591948,0.6672171668569084,0.706037838472699,1.0932725176314375,0.8662548871686295,,,0.6284777104787076,7.852216887822989,inf,,0.7102464660601945
601,,0.0,0.0,0.5469638377651903,0.5059143948614874,0.6462090575109986,1.4160655909284396,1.0115209687811684,,,0.6699045166045591,inf,,,0.955616747063503
602,,0.0,0.0,0.35515268492040003,0.32294405132171966,0.4883267037031174,1.3081897477339088,1.012231614329853,,,0.648888643467878,inf,,,0.700082086113406
603,,0.0,0.0,0.8865786024531852,0.8338165194556315,0.8581189743967109,1.0386468624050873,0.9017009387794648,,,0.6468212168108125,inf,,,0.9026311299381805
604,,0.0,0.0,0.9930405445772478,0.9706467473142291,0.7695923478178243,1.080784487396901,0.8227398732209259,,,0.6403206450210053,inf,,,0.9540952614418309
605,,0.0,0.0,1.0777531157940654,1.0344313709613622,0.768718832796399,1.7260261694321273,1.2274277431767842,,,0.648888643467878,inf,,,0.948651395343857
606,,0.0,0.0,0.7955301443872409,0.7529442672662511,0.7772178064066254,1.1933517124570598,1.0288716521219619,,,0.6097226960127671,inf,,,0.932360434071757
607,,0.0,0.0,0.9599741321760705,0.9130547381740919,0.8861275809203984,0.9769654616108381,0.8240937304879382,,,0.6425374456860184,inf,,,0.9025995884624537
608,,0.0,0.0,1.1842340503500068,1.136462382720418,0.8221452440653021,1.3252095388994516,1.0969712746506344,,,0.6309483474627791,inf,,,0.929127546833207
609,,0.0,0.0,0.9409088277861046,0.920538788841718,0.7707692961818545,1.3928517857293672,0.9681156703625384,,,0.6584896970785714,inf,,,0.9444612464346277
610,,0.0,0.0,0.8891236160436351,0.861497212958953,0.714536121684845,1.8893887778901295,1.2011183422387495,,,0.6447042257417027,inf,,,0.9404359979686122
611,,0.0,0.0,0.5535098198287273,0.5018930386827184,0.7153278477091498,1.4480950318311359,1.121904961398237,,,0.6509067234006624,inf,,,0.9183526194419727
612,,0.0,0.0,0.9197627525316145,0.8912528380097687,0.8696798873939504,1.1321083817659603,0.8943667454547515,,,0.6602640781246099,inf,,,0.9347743344308341
613,,0.0,0.0,0.4326405966788749,0.3861762754330278,0.8519004874059539,1.167168286862747,1.0023254191592363,,,0.663668482632973,inf,,,0.950228532741124
614,,0.0,0.0,0.7366002412892805,0.7140732272136239,0.7280493808390863,1.8896289048793258,1.2286491106823108,,,0.663668482632973,inf,,,0.9385118756919882
615,,0.0,0.0,1.1818142081712688,1.154796180637683,0.8252998059082632,1.8736875427706328,1.0591347007596563,,,0.6309483474627791,inf,,,0.9397036506117252
616,,0.0,0.0,0.9393704251519115,0.9144354778549809,0.8232306561612169,1.4859793174389762,1.3296543479895198,,,0.6309483474627791,inf,,,0.9453101797178178
617,,0.0,0.0,0.5739527309312391,0.5528468573453582,0.6299608223861995,1.036289524781753,1.0273546277016066,,,0.6425374456860184,inf,,,0.694157024193264
618,2.4849066497880004,-0.008283022165960002,0.0,0.37678872091439597,0.34405211117397005,0.65145968911068,1.4853622749638973,1.125380573003962,,,0.648888643467878,8.1886891244442,inf,,0.8851188944306342
619,,0.0,0.0,0.6088920438420867,0.5860360720338782,0.8416410180701599,1.807234751911112,1.3297496424047286,,,0.6403206450210053,inf,,,0.9552999250170393
620,,0.0,0.0,0.9014526115732528,0.8363144341877329,0.7663869272738802,2.2081578047430077,1.5145618202826387,,,0.663668482632973,inf,,,0.9607836300472974
621,,0.0,0.0,0.9809927894990411,0.8744828492189304,0.8749295677098868,1.611654737521732,1.4165182558409959,,,0.6727386042041725,inf,,,0.9563421461340493
622,,0.0,0.0,0.7094939677042162,0.6977545967106357,0.7183590275383392,2.108984725102336,1.4178179996244622,,,0.6566669596287297,inf,,,0.9558264434100425
623,,0.0,0.0,1.2073545378682649,1.1695067252479645,0.9077594973447296,2.296696323488254,2.005016299919081,,,0.648888643467878,inf,,,0.9429669468572638
624,,0.0,0.0,0.8990335915667595,0.8513624961633366,0.8224562951255239,1.8529983831280543,1.4789495555024923,,,0.6284777104787076,inf,,,0.9406049353045144
625,,0.0,0.0,1.2300317871080664,1.1841562943808468,0.9154355482286612,2.1658240561254987,1.8127256382589296,,,0.6447042257417027,inf,,,0.9465523953929473
626,,0.0,0.0,1.0022176423520286,0.9423099568012044,0.8631187718549036,2.2255934108812827,2.3647733009234857,,,0.6619902821573977,inf,,,0.9567878073779098
627,,0.0,0.0,1.0613278924509821,1.0436326438077204,0.8219881579203673,2.0911792168662116,1.8508936005271162,,,0.6602640781246099,inf,,,0.919078825725207
628,,0.0,0.0,0.6246773687472468,0.605300061572381,0.7394045049521076,1.4829183868480236,1.080188526787387,,,0.6652988471865258,inf,,,0.9060467137442254
629,,0.0,0.0,0.4820738115309481,0.45670504034276016,0.8231929542912365,1.1459472766216192,1.084225909408068,,,0.6509067234006624,inf,,,0.9598309430278492
630,,0.0,0.0,0.9080429782563653,0.8150056563398694,0.8041613043217091,2.312632391743008,1.5346905097805879,,,0.6652988471865258,inf,,,0.9530679168149747
631,,0.0,0.0,0.7575047626823728,0.7311848739772469,0.7674621470512032,2.003045548948599,1.8222484106067875,,,0.6528756675646988,inf,,,0.9524364694481008
632,,0.0,0.0,0.7186873041622042,0.6717231554593681,0.6406221497709017,1.948162326522603,1.3121176514510282,,,0.6468212168108125,inf,,,0.6782353877021977
633,,0.0,0.0,0.5729764294760008,0.5479090192869542,0.7372762660179972,2.4335630423282066,3.098388534834803,,,0.6125606311107803,inf,,,0.9412504377545226
634,,0.0,0.0,1.2311815986699721,1.1920249263293212,0.858427933587342,2.1208220802631232,2.234145076798201,,,0.6447042257417027,inf,,,0.9481462161210787
635,,0.0,0.0,0.7121304770093138,0.6474735917169556,0.8177498948381791,0.9666069749249273,0.8804167674677161,,,0.6619902821573977,inf,,,0.9338803697956517
636,1.3645518051500212,-0.009097012034333475,0.0,0.2730027592884021,0.18628037768869035,0.7484503398107103,0.8056215431331543,0.6511570655564065,,,0.6584896970785714,6.260070472498949,inf,,0.6696880351639087
637,3.4011973816621555,-0.011337324605540518,0.0,0.5833646960315261,0.5583666891644727,0.8802162567263476,2.4920496608900686,2.1021240028253683,,,0.6790044388599258,9.104979856318357,inf,,0.6083931840021451
638,,0.0,0.0,0.7934066415934083,0.7112725490450474,0.7874359619954933,1.875467961905184,1.0904450506448584,,,0.6566669596287297,inf,,,0.9543692128938136
639,,0.0,0.0,0.8612532489380093,0.8194266970552209,0.7535916764493278,0.7746277458542131,0.5739958308779017,,,0.6284777104787076,inf,,,0.9446405954998826
640,,0.0,0.0,0.7798948362090832,0.7342942129666451,0.763905137908001,1.707840980506596,1.6210885424390562,,,0.6652988471865258,inf,,,0.8453020792078358
641,,0.0,0.0,0.7542708275000579,0.7311950453532883,0.812371925009968,1.964543164548484,1.7227996191598913,,,0.6713451011121618,inf,,,0.8683734255341847
642,,0.0,0.0,0.4347634767166876,0.4052826644501812,0.6896910906046974,2.1816909850683133,1.800914228883208,,,0.6097226960127671,inf,,,0.6797061598745655
643,,0.0,0.0,1.0244611408953497,0.9737687689991755,0.8413056265357222,1.2506238013190938,0.7876271654696165,,,0.6468212168108125,inf,,,0.9292166064873815
644,,0.0,0.0,1.0409287055773833,0.9363561887671888,0.8590721950731931,1.3682147726632026,0.8085610290616798,,,0.6699045166045591,inf,,,0.9598246132404331
645,,0.0,0.0,0.47341762344005384,0.43794312633606913,0.8223626028843208,0.6160337348135986,0.47419683739983176,,,0.6357360191111145,inf,,,0.9539358242953722
646,,0.0,0.0,0.9163636736382358,0.8878147377963264,0.7906336147889805,1.1705736833715967,0.6500506193169886,,,0.6602640781246099,inf,,,0.9427124711885512
647,,0.0,0.0,0.9623464775225026,0.9341253714924407,0.6717196380767919,2.444981846538896,2.4750101241987665,,,0.663668482632973,inf,,,0.7344582048417971
648,,0.0,0.0,1.0477655717656142,1.023339163175611,0.7953157295305053,2.058400601888379,1.1324028261360009,,,0.663668482632973,inf,,,0.9332863676741221
649,,0.0,0.0,0.8638981379570667,0.8491008550460353,0.8132668485131671,2.034792636132889,1.1752725491674525,,,0.6547956803312163,inf,,,0.9052326658021498
650,,0.0,0.0,0.9769681451772717,0.9552399833602108,0.7998661917495032,2.0766527881374643,1.2586748293734629,,,0.6447042257417027,inf,,,0.9069126987578234
651,,0.0,0.0,1.0921425680288868,1.034876985284522,0.768203434743357,2.561457794899201,1.814691308119079,,,0.6668815377411301,inf,,,0.9455106845300596
652,,0.0,0.0,1.3900776333732827,1.3677672243264891,0.8929693819754242,0.34451376999332867,0.6079960634990663,,,0.5748741956352443,inf,,,0.9144018255976786
653,,0.0,0.0,0.3003896726702448,0.25509496950744687,0.8288316630590767,0.2524161969119458,0.4095354165269016,,,0.5287703885177266,inf,,,0.9182739309905574
654,,0.0,0.0,0.2624754478523473,0.23262992069889274,0.6866449332795134,0.21838039546821927,0.3105086065808076,,,0.6097226960127671,inf,,,0.9571204338638915
655,,0.0,0.0,1.5380211062347902,1.5091449988805898,0.9236736350036702,0.1161757274132034,0.21480248453384188,,,0.5915533975974677,inf,,,0.8468326721899271
656,,0.0,0.0,1.4845114737974956,1.4296267827704807,0.9413805245378928,0.193201597458784,0.303014998490888,,,0.5677978065141052,inf,,,0.8977536431631171
657,,0.0,0.0,0.7890281101878377,0.774344360696317,0.7591038219368058,0.12805509484829783,0.19378157878082944,,,0.6153451465759925,inf,,,0.887361964110512
658,,0.0,0.0,0.9784720125616775,0.9631296754362372,0.8095065698703856,0.1850632612113331,0.3006097420259058,,,0.581717464821069,inf,,,0.9068132237305243
659,,0.0,0.0,1.2992388022010097,1.3001398874077736,0.9043431785228812,0.22687592607624169,0.31373934266940323,,,0.6038851895711802,inf,,,0.8904250263849669
660,,0.0,0.0,0.6521188360077138,0.5565865070907715,0.6564709504529435,1.0794995604243691,0.5559774252928051,,,0.5915533975974677,inf,,,0.953714174248996
661,,0.0,0.0,0.30115508928204365,0.24275039581815325,0.7268252535226183,0.35847685117426814,0.4477246907586123,,,0.6068309995095971,inf,,,0.9115863354968556
662,,0.0,0.0,1.160351333425135,1.125721032437706,0.9080261482500106,0.06625579790203415,0.07610239745741051,,,0.6713451011121618,inf,,,0.8042832524991851
663,,0.0,0.0,1.2397769619843835,1.2354149518444821,0.8337042356196924,0.024787507395212474,0.03211810356151809,,,0.6566669596287297,inf,,,0.8257952280341856
664,,0.0,0.0,1.555891602964314,1.5314773314965895,0.8617264893873317,0.019541981050509742,0.02965828430470117,,,0.6447042257417027,inf,,,0.8157537360473972
665,,0.0,0.0,1.0581874337991366,1.0418099868587876,0.9070727498440533,0.041969094368098335,0.06638906121076824,,,0.6668815377411301,inf,,,0.877629025424331
666,,0.0,0.0,1.4567633214618243,1.4453157541999875,0.8755787562189516,0.13573898782622243,0.17529473919532618,,,0.6284777104787076,inf,,,0.8646997798894435
667,,0.0,0.0,1.4920159637173263,1.4968437552306804,0.7607690934168135,0.11139310603903324,0.16686470378413218,,,0.6425374456860184,inf,,,0.8406409381065173
668,,0.0,0.0,0.5345171297210175,0.5028485564065354,0.7038612576744183,0.18620714964429944,0.14934301879337425,,,0.6566669596287297,inf,,,0.9472539134861946
669,,0.0,0.0,1.273107219388734,1.2140626266625623,0.9372431627292789,0.16583342128745898,0.2476657932096852,,,0.585052858160615,inf,,,0.887052200523712
670,,0.0,0.0,1.0450597150394676,1.0074320939116181,0.8871751074615448,0.12387766714208615,0.13962825257507933,,,0.6380535849069913,inf,,,0.8568733182901395
671,,0.0,0.0,0.2876284545017464,0.20066049313147957,0.8699043884930916,0.10475541302038713,0.13296811723957377,,,0.5783247308855777,inf,,,0.9095897368944121
672,,0.0,0.0,0.19804851594381867,0.16893735190043707,0.6270521672771203,0.1768264745954412,0.21941289495463048,,,0.5978297680564633,inf,,,0.9629974956576132
673,,0.0,0.0,0.12463234025682715,0.11000162631446951,0.6450023178842628,0.1546305310187076,0.18783162485508584,,,0.6233814453054027,inf,,,0.9353614802407524
674,,0.0,0.0,0.3318267476503989,0.2839628940242471,0.7365804392283698,0.30442537816421866,0.23321032782296292,,,0.6652988471865258,inf,,,0.9393226820999189
675,,0.0,0.0,1.426316031175216,1.4143607425627853,0.8748693386216893,0.17410032990836138,0.22856716233611962,,,0.6284777104787076,inf,,,0.8609273873509806
676,,0.0,0.0,1.386262938522482,1.336560396073358,0.9458782149626697,0.22367755718156576,0.2817029068076692,,,0.6333676938231112,inf,,,0.8742140086127652
677,,0.0,0.0,0.33554641996253404,0.2928395613087102,0.41421100190321714,0.2672579916206636,0.2507275185795191,,,0.6380535849069913,inf,,,0.9681870134039173
678,,0.0,0.0,1.4576726517108138,1.4492311276118388,0.8405566110027722,0.09696626550595999,0.12160216306591079,,,0.6566669596287297,inf,,,0.8222669276647647
679,,0.0,0.0,0.2662476963723145,0.13184408529564517,0.4636563873943426,0.34946501211952025,0.21331884868405698,,,0.6357360191111145,inf,,,0.961610480426931
680,,0.0,0.0,0.18592973281183492,0.1482516476829333,0.49841464296626786,0.30621706117410025,0.3760978272507974,,,0.5677978065141052,inf,,,0.8243473677992355
681,,0.0,0.0,0.2286284036166141,0.13505227000307826,0.571663931796436,0.19503740685534918,0.2158501234355279,,,0.6425374456860184,inf,,,0.6895652904044544
682,,0.0,0.0,1.4041299511634628,1.3789619851195174,0.8997768341273225,0.07533739242635751,0.11279585352527544,,,0.6207552362147116,inf,,,0.8094789452366379
683,,0.0,0.0,1.2915844640363028,1.2818321766138923,0.8929228411683952,0.09643832663423393,0.14314959077229125,,,0.6180765742263259,inf,,,0.8194154037965652
684,,0.0,0.0,0.8255088192837646,0.8046115587968284,0.8623388961509675,0.10280598440555416,0.15087318606529393,,,0.6097226960127671,inf,,,0.8499949043367816
685,,0.0,0.0,1.3117454892505371,1.2986887857663476,0.8849353362022013,0.1162191231856699,0.1841416963973308,,,0.62595550513784,inf,,,0.8400942721141484
686,,0.0,0.0,1.3955201530186199,1.3748781822924925,0.8984345123932672,0.18092057062167707,0.26984157118507873,,,0.6038851895711802,inf,,,0.8699567923412069
687,,0.0,0.0,1.6833680662815835,1.6710566984407622,0.8731991644570063,0.40811142046446114,0.705355228769331,,,0.5978297680564633,inf,,,0.9042125239295217
688,,0.0,0.0,1.643454154182038,1.6278595006144432,0.9605443387030148,0.27686249441286753,0.5084514523702317,,,0.5158180382284114,inf,,,0.8917566074000812
689,,0.0,0.0,0.4584321161726652,0.3627923068320181,0.7325650559295637,0.26508683692664203,0.27939362336623785,,,0.6233814453054027,inf,,,0.927155292098225
690,,0.0,0.0,1.4431373857202905,1.4230121406345582,0.9271830385824157,0.2437234901966272,0.3647220408459802,,,0.6125606311107803,inf,,,0.881417678460195
691,,0.0,0.0,0.22490934442804392,0.11616017291422155,0.7551342257580749,0.14375254172498614,0.1538161143329253,,,0.6284777104787076,inf,,,0.943371274429859
692,,0.0,0.0,0.06698765724152844,0.056671074209918945,0.4873683827206495,0.3277756818184331,0.35472215841013194,,,0.6008849035917525,inf,,,0.9676790226240154
693,,0.0,0.0,1.5730825761221168,1.5725355245544383,0.9347346958063648,0.4433096298609792,0.6744161409507023,,,0.6180765742263259,inf,,,0.8904517777794863
694,,0.0,0.0,1.3537485000550467,1.3473924487082596,0.8745093508975704,0.48352685512218113,0.7328103142809108,,,0.5677978065141052,inf,,,0.9155670432313712
695,,0.0,0.0,1.5770292792054208,1.5525879046206708,0.9041023601111151,0.44768998356945217,0.5808328788999986,,,0.6180765742263259,inf,,,0.9046066686604113
696,,0.0,0.0,1.6133127191355945,1.5913031470092946,0.8903435769724991,0.5065340250393515,0.6944485172867956,,,0.6207552362147116,inf,,,0.9075358127949594
697,,0.0,0.0,0.6443065871671804,0.6170601014105384,0.7298854524371614,1.3836131087856491,1.0327292083264905,,,0.6333676938231112,inf,,,0.751690285581046
698,,0.0,0.0,1.1504929299067654,1.1132588073862109,0.868009526508739,2.242539914728769,3.200854688178611,,,0.6153451465759925,inf,,,0.9456415752534985
699,,0.0,0.0,0.9132451029710159,0.9098163744596223,0.731818390747974,1.74640905114487,2.5088861414211037,,,0.6068309995095971,inf,,,0.9088754287386394
700,,0.0,0.0,0.5908911537949354,0.5845206272991378,0.5669635719879111,0.4625111880653612,0.5320499655336917,,,0.6038851895711802,inf,,,0.6337666625170684
701,,0.0,0.0,0.3126285286042901,0.2596342110424317,0.5159058212910844,0.6770620985186199,0.5146777801698778,,,0.6125606311107803,inf,,,0.8566906548577595
702,,0.0,0.0,0.8585772655649464,0.8008957821992235,0.7795413070855273,1.2023952633113906,1.062363798278425,,,0.6284777104787076,inf,,,0.9491492110213816
703,,0.0,0.0,0.9184633396894966,0.8599217191018758,0.7002574043249786,2.1475195747064957,2.340159857090492,,,0.6180765742263259,inf,,,0.9372909442493177
704,,0.0,0.0,0.5051998275799943,0.4665319861549333,0.47041188696776304,1.739757760467252,2.0969454383512467,,,0.5677978065141052,inf,,,0.9502806183078428
705,,0.0,0.0,0.9564809915055689,0.9351418803752746,0.7730886887690772,1.2559263366048143,0.7970867491010243,,,0.6602640781246099,inf,,,0.9383589723994019
706,,0.0,0.0,0.9945602272388062,0.938627658672088,0.868681944208438,0.9162052828962426,0.6087824545602329,,,0.663668482632973,inf,,,0.9512039103273081
707,,0.0,0.0,0.8853055656956516,0.8600716347670402,0.8765639289827398,0.48723338375111286,0.4889088903773079,,,0.6357360191111145,inf,,,0.9430901912439402
708,,0.0,0.0,0.6835314616267181,0.6625208640879523,0.7212322725607709,1.2035427078827632,0.8912049773439874,,,0.6547956803312163,inf,,,0.9400455612073274
709,,0.0,0.0,0.7201268207795889,0.6723227851365551,0.8308751114516945,1.3522063632193564,0.9789505800780627,,,0.6509067234006624,inf,,,0.930755676366712
710,,0.0,0.0,0.386099784800495,0.34495297998127616,0.7244002060276127,1.1515543537634163,0.9027086371605075,,,0.6684167106117298,inf,,,0.9416329557594577
711,,0.0,0.0,0.767683073327905,0.7316101653378042,0.8681806296594144,0.7060221901056489,0.6320680387476507,,,0.6357360191111145,inf,,,0.9455061196484323
712,,0.0,0.0,0.6878881697561332,0.6591091599761443,0.8687060068418722,1.210638012336429,0.7966856931135604,,,0.6652988471865258,inf,,,0.9543666208400474
713,,0.0,0.0,0.5490052732415311,0.5426545527581677,0.763344689465597,0.5653267577780701,0.4528553599444536,,,0.6180765742263259,inf,,,0.9354909493299445
714,,0.0,0.0,0.8507882860627182,0.8278652516372654,0.8204552915670552,1.3145301402979261,0.7276767902289907,,,0.6509067234006624,inf,,,0.9441599447005382
715,,0.0,0.0,0.894871152655134,0.8535017863868167,0.8308361279054565,1.9013970018096835,1.9266920796508258,,,0.6447042257417027,inf,,,0.9355500956638301
716,,0.0,0.0,0.6365431802940682,0.6007201068096328,0.7292258845085157,1.560044131296876,1.2750422208852974,,,0.6447042257417027,inf,,,0.947807061918955
717,,0.0,0.0,0.7677513068347375,0.7477663412227252,0.6952259647299113,1.6156665368657779,1.6345845524669733,,,0.62595550513784,inf,,,0.9597904419109095
718,,0.0,0.0,0.43802945564703205,0.3766347722703744,0.657214821492195,1.1545462857879443,1.019427589382345,,,0.6068309995095971,inf,,,0.9093136451225883
719,,0.0,0.0,0.8310913466967208,0.7969193360228948,0.7444560520733464,1.886101936201479,1.8947795794670697,,,0.6380535849069913,inf,,,0.9253793598076206
720,,0.0,0.0,1.0703880797646301,1.0159288502595798,0.865356696229099,2.2201091450854156,2.090115229407991,,,0.6602640781246099,inf,,,0.9499197650232114
721,,0.0,0.0,0.7321932876843659,0.667703996855049,0.7735941406386285,1.590168672056931,1.4775775154295745,,,0.6153451465759925,inf,,,0.9578900096829575
722,,0.0,0.0,0.5338302673221924,0.4443301744765354,0.6243182126187433,0.552785012765393,0.4798126405253489,,,0.5883313578629602,inf,,,0.9511943138620194
723,,0.0,0.0,0.6025034575516518,0.5378776101878653,0.8272504116441783,1.0729852054129305,1.2027160630218903,,,0.6038851895711802,inf,,,0.9164423117245517
724,,0.0,0.0,0.5139044749568962,0.4721458913729651,0.7360979280767633,0.5594588804099442,0.6794027821842452,,,0.6068309995095971,inf,,,0.9466134865537728
725,1.9357889303042572,-0.019357889303042573,0.0,0.6943180455140143,0.6604463288604826,0.5515799839708991,2.5222009189336427,2.23754976927031,,,0.6528756675646988,6.289571136895647,inf,,0.776525288857819
726,,0.0,0.0,1.0538828060159828,1.0328135530959124,0.7438475542843753,3.1316344159740463,3.3118411278866358,,,0.6425374456860184,inf,,,0.9016911173786719
727,,0.0,0.0,1.0630531983399238,1.0055153735004063,0.8042853955883735,2.426082994088383,1.7525565306332824,,,0.6509067234006624,inf,,,0.9469584493969688
728,,0.0,0.0,0.7016878273375602,0.6129335550884109,0.7152084539493766,1.4013506976386365,0.9795378924794904,,,0.6668815377411301,inf,,,0.9649135072641013
729,2.187678951075506,-0.04662165387019253,-0.01171645149182096,0.6589947752375498,0.54909442488267,0.5711070854226887,1.280494768367697,0.8465426992552749,3.8540519085095664,,0.648888643467878,5.755075769043752,3.455264602932431,inf,0.7112424182249529
730,,0.0,0.0,0.9209204065867366,0.8933810854154314,0.6952486884887678,1.2888957092987383,1.2552370040825909,,,0.6284777104787076,inf,,,0.9410098238970692
731,2.5257286443082556,-0.008419095481027518,0.0,0.8629391924847126,0.7926347335969144,0.7906015968907791,2.3094379287662803,1.7231829600439221,,,0.6284777104787076,8.229511118964457,inf,,0.770756865067756
732,,0.0,0.0,0.7071144995045952,0.6809134117061348,0.7271838291313206,1.8480307596665233,1.7201246474929688,,,0.6309483474627791,inf,,,0.9455808629250018
733,3.1674922649257815,-0.031674922649257815,0.0,1.1795799662067843,1.1576591495144082,0.7692564319325053,3.0359316204714952,2.0512609481475734,,,0.6528756675646988,7.217910207285977,inf,,0.7556775246146129
734,1.9661128563728327,-0.006553709521242776,0.0,1.0746998947198527,1.0369533169947573,0.7611315975607366,2.8023203890439574,1.908710236870879,,,0.6380535849069913,7.669895331029034,inf,,0.7877704742604825
735,,0.0,0.0,1.007498208264596,0.9480498839937711,0.6923845537880728,2.576716576757991,1.747138438970346,,,0.6425374456860184,inf,,,0.9300915157787956
736,,0.0,0.0,1.0512298948986536,1.040218814367772,0.5836352901171966,2.5479286349137906,1.7853183177185987,,,0.6528756675646988,inf,,,0.7675684485459371
737,,0.0,0.0,1.1071541449041906,1.0978625480484583,0.7324865820094986,2.8367972129938717,2.334311195874618,,,0.6528756675646988,inf,,,0.7557859365158139
738,,0.0,0.0,1.0364672158086234,0.9711295888572664,0.7831593385404774,2.068428364181542,1.232409325723678,,,0.6790044388599258,inf,,,0.9538841676307083
739,,0.0,0.0,0.7543314694912056,0.6762291592510344,0.6605298761541523,2.274441547269196,2.542152728738319,,,0.648888643467878,inf,,,0.72872164943381
740,,0.0,0.0,0.6649368630732582,0.6169855353790632,0.7782917729812302,1.7628117849663536,1.3131932135419453,,,0.6652988471865258,inf,,,0.9593178813765737
741,,0.0,0.0,1.1931516913636722,1.1620514508551116,0.7440362208771291,2.9416779640152364,4.009015575148068,,,0.6684167106117298,inf,,,0.9482036023464845
742,,0.0,0.0,0.9570226296043829,0.9330781678434797,0.8385886352960941,1.826959304503474,1.6990562553908637,,,0.6357360191111145,inf,,,0.8961915245336817
743,,0.0,0.0,0.6963637227095995,0.6564252557411722,0.6889060353147249,2.544913725693433,1.7640143919383546,,,0.6602640781246099,inf,,,0.8866488758418891
744,1.91959284073794,-0.0063986428024597995,0.0,1.0525241254218618,1.0103947034459333,0.6649987454956185,3.6099146017100217,3.4550120539693725,,,0.6566669596287297,7.623375315394141,inf,,0.7959353918812567
745,3.624340932976365,-0.01208113644325455,0.0,0.8536772871230094,0.8200782142891323,0.6064171840714775,2.8508032261484217,2.0416181529046913,,,0.6309483474627791,9.328123407632566,inf,,0.8961584660051922
746,,0.0,0.0,0.8781661393573829,0.7828367417141576,0.8254777139724587,2.07819292334174,1.4064930157997635,,,0.6125606311107803,inf,,,0.8950856985040426
747,,0.0,0.0,1.0458297323328731,1.0189478961463192,0.7974729947171595,2.187802043207195,1.7688511661992137,,,0.648888643467878,inf,,,0.9522870414597499
748,,0.0,0.0,0.9419444268575705,0.9102812825626962,0.7372595508145507,1.8354126075544386,1.3251431589937062,,,0.6602640781246099,inf,,,0.9321465345113413
749,,0.0,0.0,0.7160432995502372,0.6650595895655086,0.632803872507894,2.503093217913333,1.9462747204930193,,,0.6403206450210053,inf,,,0.6054729020859918
750,,0.0,0.0,1.2405031989368318,1.2090732047099373,0.7593404787699284,2.3908765512945145,0.9247520872719877,,,0.6668815377411301,inf,,,0.9269591844354926
751,,0.0,0.0,1.007629372195988,0.9713516497378979,0.7812349598351397,1.7934614230145214,0.8750862293665631,,,0.6684167106117298,inf,,,0.9533697904491348
752,,0.0,0.0,0.8077195799468418,0.7397777180159613,0.7702087169605704,1.775304798963062,1.3836445702903193,,,0.6652988471865258,inf,,,0.9208315768129006
753,,0.0,0.0,0.3954715276748812,0.3350339986558251,0.6861388659364782,1.4451035208299956,1.0235961045462745,,,0.6468212168108125,inf,,,0.8958986644685766
754,,0.0,0.0,1.0459947552039865,1.0195770771132506,0.8466636775730587,1.5851822130112312,1.0729032516855872,,,0.6727386042041725,inf,,,0.921383321691798
755,,0.0,0.0,0.8582697342897505,0.8253905709475817,0.8048681343128135,1.151157471297713,0.9423759424594809,,,0.6447042257417027,inf,,,0.8928474457687156
756,,0.0,0.0,1.1771877499757024,1.0837789489217455,0.8298733358795142,1.8378199842508065,1.1415230290564748,,,0.6357360191111145,inf,,,0.9351533084491672
757,,0.0,0.0,0.8306460790819647,0.7485332315082346,0.753011760847994,1.9333991259203251,1.252004030138365,,,0.6668815377411301,inf,,,0.9458587350568145
758,,0.0,0.0,1.0492556518310008,1.0031271260989572,0.761727559838497,1.484618676895095,1.0357433491176264,,,0.648888643467878,inf,,,0.931836111420491
759,,0.0,0.0,0.8990085454735299,0.8426581113169831,0.7667930970071399,1.6540735095091266,1.0880201131733243,,,0.6584896970785714,inf,,,0.9000708973467413
760,,0.0,0.0,0.90075551001562,0.8527466764272993,0.8226020796145871,1.7876304860320347,1.466709136454001,,,0.6180765742263259,inf,,,0.935555266112776
761,,0.0,0.0,0.5994976271669097,0.544776725472005,0.7720515181384917,1.2528586754877769,0.8420419461712438,,,0.6528756675646988,inf,,,0.9534879939976298
762,,0.0,0.0,0.7540941796621596,0.7077906479077323,0.77220236823568,1.6261812661590223,0.7655116836973253,,,0.6447042257417027,inf,,,0.912298705614286
