,hr+bvp_XAp0,hr+bvp_XAp1,hr+bvp_XAp2,hr+bvp_XCond1,hr+bvp_XCond2,hr+bvp_XDist,hr+bvp_XFuzz1,hr+bvp_XFuzz2,hr+bvp_XK2_1,hr+bvp_XK2_2,hr+bvp_XPermEn,hr+bvp_XSamp0,hr+bvp_XSamp1,hr+bvp_XSamp2,hr+bvp_XSpec
0,,0.0,0.0,1.5572787715778444,1.525496184955975,0.966930320378699,0.15483283700312,0.38952919015676646,,,0.6528756675646988,inf,,,0.9405395912664827
1,1.9069184856946617,-0.057207554570839855,0.0,1.2182360111764916,1.1719878983555025,0.7690798875043731,4.5640521875221935,3.0138114540766967,,,0.6566669596287297,4.992467990140807,inf,,0.8722860407932576
2,1.6048567642059985,-0.021398090189413313,0.0,1.0765471454933766,1.0719938593665048,0.7608637394194696,3.4293278060983554,4.947119416914243,,,0.6509067234006624,5.645513566532225,inf,,0.6871824443868977
3,1.996641955118211,-0.0665547318372737,0.0,0.8483476756890339,0.816121605836341,0.658049257079606,3.642684331928115,5.800169338330991,,,0.6727386042041725,5.235864351901487,inf,,0.8570908345824914
4,2.082453628298,-0.020824536282979998,0.0,1.1799935251592197,1.156649059365756,0.7646544192927663,3.5028751360268373,3.6095726153736902,,,0.6727386042041725,5.952243833954701,inf,,0.6147732106576885
5,2.9311937524164198,-0.009770645841388067,0.0,0.9164271484934031,0.8693900570503955,0.7584537287556625,2.7788635974969735,3.0288169872074584,,,0.648888643467878,8.63497622707262,inf,,0.8351571503390851
6,2.9311937524164198,-0.019541291682776133,0.0,0.7506673022909707,0.7385345069345377,0.6068712713337019,2.8097258071125095,2.4814627764387787,,,0.6068309995095971,7.941829046512676,inf,,0.6206797724011921
7,0.07257069283483537,-0.00024190230944945125,0.0,1.0246254868964002,1.0064884111140082,0.6093666597754549,3.06335642420198,5.860807570955512,,,0.6403206450210053,5.7763531674910364,inf,,0.7530478876654341
8,2.750080910450745,-0.0366677454726766,0.0,0.9712974388415141,0.9390725065588271,0.7174084990853263,3.64111199161902,23.05189412881518,,,0.6309483474627791,7.025538314638521,inf,,0.7206883990062213
9,1.9602664335654498,-0.03267110722609083,0.0,0.916156250551715,0.8701083392841652,0.6807979506283984,3.6729554977612797,2.679738531006594,,,0.6447042257417027,5.697137931937532,inf,,0.743760974017067
10,1.726351394000245,-0.028772523233337417,0.0,0.925328716304172,0.8896210028027921,0.6941178603435133,3.4769768848050995,4.158776703779967,,,0.6619902821573977,5.7411382611999695,inf,,0.7329327999512497
11,1.9998918566855575,-0.08666198045637415,0.0,1.1097791436947302,1.0733694913442184,0.728569462470654,3.9189677045875766,13.003526062303804,,,0.6528756675646988,4.979459676627806,inf,,0.5167257506590938
12,0.7795758620559746,-0.028584448275385737,0.0,1.1628743536297261,1.1163050703793311,0.73653333690909,2.0233491400096404,1.037888341374123,,,0.6584896970785714,3.8464433597821643,inf,,0.6416589558949111
13,0.5233295860129148,-0.008722159766881914,0.0,0.9212918411051063,0.8333614531148595,0.7305999687790994,2.0678379061910324,1.487871256397772,,,0.6333676938231112,4.563815000306177,inf,,0.5903698053844321
14,2.860321487219606,-0.04767202478699343,0.0,0.558653499148466,0.5195921898611533,0.5598817251070125,4.094582653624032,7.733408295775623,,,0.6652988471865258,6.753604599154879,inf,,0.7490139701321635
15,2.426589411817116,-0.049040297973930454,-0.007580121635135586,0.7097314495834058,0.6770771909946133,0.6029144078311695,2.186583945643022,1.6323771941444192,2.2669197535897645,,0.6468212168108125,6.089444955468186,1.8841327893590702,inf,0.6358732214890352
16,1.3353317684914596,-0.08610220034315065,-0.007371023451251526,1.351058116808096,1.2693453366448395,0.809596186758933,3.104147842071914,1.69903672520726,4.41816882932578,,0.6509067234006624,3.8046644871076465,4.106392900738275,inf,0.8220869761645564
17,1.5042308307131962,-0.0401128221523519,0.0,1.1561427368183876,1.0864946075875404,0.727766506447712,3.0076842084754616,3.132262446091763,,,0.6566669596287297,5.051457288616511,inf,,0.6102745728682106
18,1.6436793136062278,-0.05478931045354093,0.0,0.8321304170606086,0.8116109367968276,0.7328283500857548,3.902793875740437,2.851953611424289,,,0.6333676938231112,4.775563171916772,inf,,0.6530157399109094
19,2.1444667012413023,-0.07863044571218109,0.0,1.1151332479813547,1.0549550721227676,0.8076514786570621,2.9584907047407136,1.8701163356179151,,,0.6468212168108125,5.088596835565967,inf,,0.5907930641590067
20,1.3686865911179058,-0.10601505302553443,-0.008042162900957717,1.130188055606839,1.0717471103007588,0.8217608458087681,3.0613806881771457,2.4831700984318203,4.372942092112288,,0.6547956803312163,3.7698485166476035,4.341879566660469,inf,0.5126404002605097
21,2.6086247717296276,-0.017390831811530852,0.0,1.061935865052034,0.9988546163125359,0.7070517574341783,3.157132797377016,3.5225849845846584,,,0.6180765742263259,7.173458444715143,inf,,0.7891230529304761
22,1.0462117278591747,-0.027898979409577994,0.0,0.8568742400829483,0.8119018071859655,0.6820196734051593,3.753056966113101,5.9280782730221695,,,0.6233814453054027,4.574533216526201,inf,,0.8653851163355788
23,0.2425518653841905,-0.0016170124358946033,0.0,0.653650628744733,0.615256548635818,0.6135210927025053,2.6733324124883335,6.064718189686836,,,0.6153451465759925,5.250585963726847,inf,,0.5295660834145114
24,1.667803979512387,-0.027796732991873116,0.0,0.9940083583980482,0.8382353642646372,0.7341844928199996,1.997218366041336,1.5548849802941571,,,0.6207552362147116,5.596423956335702,inf,,0.6078265323449555
25,0.4319879439828824,-0.004319879439828824,0.0,0.5186644001602366,0.4795465279775125,0.610257065310765,2.0276071919408376,2.6418478566919954,,,0.5490601803369085,5.0106352940962555,inf,,0.8090752447905881
26,1.6454144577638052,-0.12066372690267904,0.0,1.3280857549794665,1.2837850085186742,0.8004294675274642,4.377178577734191,2.38886108673678,,,0.6602640781246099,4.173387769562553,inf,,0.5820787977619812
27,1.9082040899371358,-0.08859789035886,-0.00681231413799679,1.1870970279828272,1.1612904393978345,0.7414786678381388,3.33265746463475,3.5533955186723536,3.07631091602019,,0.6547956803312163,4.7982157061450215,2.945787597037734,inf,0.8494326501881702
28,1.817857826182336,-0.05453573478547008,0.0,1.1419466127160103,1.0456491344257852,0.7936711553373827,3.565268754193418,2.3353722085433937,,,0.6584896970785714,5.291672823829368,inf,,0.6264107150162012
29,0.7557120170481171,-0.032747520738751736,0.0,1.4221512662015816,1.4301663561746214,0.7910517840901395,4.405105521550408,9.6932752587179,,,0.6584896970785714,3.754070039651149,inf,,0.5751528647581289
30,1.2306178850054645,-0.05332677501690346,0.0,1.3782137922214601,1.318577885409503,0.8596514773515257,4.655378322513848,3.0927056412288554,,,0.6447042257417027,3.6716946293598354,inf,,0.7708862238792896
31,1.8921855770746792,-0.12614570513831194,0.0,1.181325987272957,1.1205255326461452,0.7718384944636703,3.0481024648157993,2.824264337717264,,,0.6668815377411301,4.045554398052668,inf,,0.6637571625610624
32,5.0106352940962555,-0.016702117646987518,0.0,1.0999856496026161,1.0794779556859553,0.7814853676840554,3.269341386409777,2.091248147084854,,,0.648888643467878,10.714417768752456,inf,,0.5697107610906497
33,1.5279599904861545,-0.040745599746297455,0.0,1.0604178845783576,1.0411637023174858,0.7122650471405719,2.6434972233949305,1.5552865140773537,,,0.6403206450210053,5.008970014777194,inf,,0.8504579637154428
34,1.5808281175363428,-0.021077708233817903,0.0,0.5334253106945177,0.46876607429591705,0.6719022873339098,1.9792268724748512,1.319862459835792,,,0.6447042257417027,5.7763531674910364,inf,,0.7385723739640582
35,,0.0,0.0,0.8873058581128046,0.8650091163135222,0.5492616009901473,2.4050906424976333,2.6769769265713714,,,0.6309483474627791,inf,,,0.835244100954389
36,,0.0,0.0,0.7444914128415634,0.7275385376162495,0.6568171190575582,2.155418908383709,2.2308309601843592,,,0.6528756675646988,inf,,,0.8599870139937911
37,0.7693085415255093,-0.002564361805085031,0.0,0.6818169280130839,0.6023766731914227,0.6355227773947212,2.3194114308573726,1.7006647840670577,,,0.6403206450210053,6.47309101618171,inf,,0.6795599956447982
38,1.4483184566709324,-0.047843106437982355,-0.0052619036399518225,0.9333498548609038,0.9157991123148927,0.6575244330829146,2.602342187418344,1.442324513246597,5.699324428863485,,0.6528756675646988,4.602950429249779,2.677480135017532,inf,0.8522198696158656
39,1.6930890386479491,-0.07901082180357095,0.0,1.0614554393732143,0.9943288416922906,0.7153219108069939,3.4447203547479166,2.4668834100056536,,,0.6468212168108125,4.570232134626811,inf,,0.7135823925994726
40,1.643004847403983,-0.0383367797727596,0.0,1.2070364584631843,1.1643889771276343,0.7442581716641682,3.4492803906484193,1.6964413910871925,,,0.6284777104787076,5.19295685089021,inf,,0.6345145085978919
41,1.45913591500601,-0.02431893191676683,0.0,1.254099279213772,1.212829891341507,0.7987579333650221,4.410752812435945,4.749084414203502,,,0.6528756675646988,5.42867918441128,inf,,0.5670847658769126
42,2.4755609704427175,-0.0330074796059029,0.0,0.835798693881035,0.8173643022558007,0.7467175770205161,2.767259116454514,1.3898194722191923,,,0.6566669596287297,6.571283042360924,inf,,0.8720075643979147
43,1.2880428300881321,-0.09445647420646301,0.0,1.3323280734109662,1.3234397317799513,0.8115140601085953,3.7632804603528816,2.4443121115406727,,,0.6668815377411301,3.6699486664544976,inf,,0.7289572860528052
44,2.19261457217676,-0.1534830200523732,0.0,1.2599965675460325,1.2699972909071369,0.7524780707895842,3.885918245017502,7.790872361764316,,,0.6509067234006624,3.9551624980887636,inf,,0.632686816480397
45,1.4011292137148097,-0.09868512196927896,-0.018075645840288517,1.2026540175204852,1.161941259868837,0.7582559505008201,4.59301296052152,9.617722026670219,2.557813574615656,,0.6652988471865258,3.7191095927624582,2.489958325284118,inf,0.5000517267245317
46,1.631141441496018,-0.06524565765984072,0.0,1.14052508017592,1.1162350153795317,0.7751595527772466,3.2070205967624625,1.8393670369530857,,,0.6652988471865258,4.703150594348295,inf,,0.6049189103801275
47,1.299025650592056,-0.03897076951776168,0.0,1.2059073440663224,1.1655997725154494,0.8067690831432861,4.629454849486684,30.938484138213486,,,0.6357360191111145,4.629918355677286,inf,,0.5399734224279096
48,2.4847678732316396,-0.05797791704207159,0.0,1.1052280846555458,1.0765294015311113,0.7143187894911097,3.215660729262982,1.7258901241613955,,,0.6684167106117298,5.717205494988342,inf,,0.6525496053538756
49,1.8728111319640852,-0.0686697415053498,0.0,1.2119582398628066,1.2001114238988646,0.708066920655372,3.1236450657368104,2.1750038157253697,,,0.6602640781246099,4.788825965795183,inf,,0.5850891663122232
50,1.5770049122688314,-0.031540098245376624,0.0,0.9824564863277354,0.9652137682021403,0.7599427963908718,3.485760134490784,1.5614003048354754,,,0.6566669596287297,4.8283137373023015,inf,,0.4461583146561258
51,2.0999348637955104,-0.041998697275910206,0.0,0.6717948049690503,0.6455221755672088,0.6833599707580107,1.3893931381789257,0.9674247207647122,,,0.6566669596287297,5.66456176150292,inf,,0.5200620768274131
52,1.3561529574079794,-0.02260254929013299,0.0,1.0312374659632015,0.9873042483396492,0.7071676458834918,2.2980331708057573,1.5858227616517633,,,0.6468212168108125,5.41610040220442,inf,,0.526582263377281
53,3.309516311714222,-0.04412688415618962,0.0,0.8442296491294703,0.7849249620352764,0.6686113671446974,2.402108725853855,1.384235424764984,,,0.663668482632973,6.220179143471647,inf,,0.6463698205275543
54,1.621218181004545,-0.07184350238058095,-0.009217406669646308,1.3057975294769895,1.288079702869355,0.7420668622798094,2.631431051374187,1.4988134255767211,4.303673795435961,,0.6699045166045591,4.389163150243202,4.073962819902761,inf,0.6272414164572027
55,1.7323811653398316,-0.09550678382325697,-0.008436086097132912,1.2448790975032007,1.2511943342655212,0.7697166992187204,2.516531842558655,1.4423792487580993,5.698769951444233,,0.6357360191111145,4.315822834217249,3.913688284747207,inf,0.7648760028963658
56,1.965972611148903,-0.09174538852028215,0.0,1.1696733915861635,1.1962869749632221,0.7170169634559866,2.963091089393456,1.493083214707918,,,0.6699045166045591,4.6219773043044725,inf,,0.5200788853486832
57,1.7298495720471945,-0.10379097432283167,0.0,1.4183071649391963,1.3945196864672147,0.7998456416196141,6.594737906389448,15.213526177165733,,,0.6652988471865258,4.166915255056936,inf,,0.8746077952335906
58,1.6378486469762683,-0.0672084494128268,-0.003764991956144828,0.7674629483418756,0.717144664908189,0.6697840086727178,2.241244715596483,1.1529188551735414,2.366475980627179,,0.648888643467878,4.501811673000938,2.3310422978080814,inf,0.8036537915613979
59,1.7089232298357049,-0.01708923229835705,0.0,1.0516780476852214,1.0057678043721638,0.756809350102377,2.261717762557795,1.549614780036586,,,0.663668482632973,6.3016194754118215,inf,,0.6465998240100163
60,1.7566606313581419,-0.01756660631358142,0.0,0.8094966921548598,0.7664419601421938,0.6145273765355606,2.476894313891219,1.6545640085725601,,,0.6153451465759925,6.307698521488204,inf,,0.8263247812539339
61,2.4751574935765506,-0.057753674850119514,0.0,0.8571859148629164,0.8515765753004698,0.7060256992512632,3.4233131903556746,1.4660882718386126,,,0.6684167106117298,5.787164083595252,inf,,0.8090285199588897
62,1.5133693478296628,-0.02017825797106217,0.0,0.7325992310528331,0.7051965529117808,0.5863384020011319,2.4586231425934817,1.7910066733806138,,,0.648888643467878,5.602429980395914,inf,,0.6910327624206423
63,2.0065990465433194,-0.07357529837325505,0.0,0.7988950969215777,0.7443763395273946,0.6301958869889851,2.4013357236295536,1.674330708742115,,,0.663668482632973,5.14607326499136,inf,,0.5973821214736998
64,1.3824919321173454,-0.023041532201955758,0.0,1.1387273800014464,1.0798654623416641,0.6604894191731827,1.5767975039311535,0.6897309041686437,,,0.6333676938231112,5.362559635276391,inf,,0.7370295794036046
65,2.232221263246487,-0.014881475088309913,0.0,0.76996058242153,0.7598450208340188,0.6087167708890235,2.2206512243563004,1.0335932370255714,,,0.6668815377411301,7.233177679416765,inf,,0.563295320906334
66,0.769955924892745,-0.0051330394992849665,0.0,0.8707237050762983,0.7594110810673421,0.7347070222801948,2.954471011568895,1.965778734099989,,,0.6740851607140061,5.779943835621765,inf,,0.9252865290907232
67,2.0664320959658666,-0.10332160479829332,0.0,1.2722218383340966,1.240323841257739,0.7826436386456918,3.8719802735031075,8.518770369747996,,,0.62595550513784,4.494822128819226,inf,,0.6108736688973286
68,2.271961864394514,-0.03029282485859352,0.0,0.849232710145104,0.8244978146763166,0.6997799546995476,2.5938486013392406,1.4745768640569517,,,0.6468212168108125,6.4239583276040655,inf,,0.5470574551627263
69,,0.0,0.0,1.174676453426733,1.1245528471137676,0.7534253222656493,3.078396822100399,2.954473224341732,,,0.6425374456860184,inf,,,0.9293887359403846
70,1.0886619578149417,-0.0036288731927164725,0.0,0.9854416617344053,0.9361445251884946,0.7825765310967806,3.1683936885700326,4.3932042004361795,,,0.6566669596287297,6.792444432471143,inf,,0.7935282383229179
71,1.8949026863519485,-0.012632684575679657,0.0,0.9936870295000477,0.9671438863364386,0.7915402369743166,3.400897921456727,2.285399897451153,,,0.6468212168108125,6.532367626111251,inf,,0.6278137739477123
72,1.63642927330963,-0.0163642927330963,0.0,0.9698251944118984,0.9250751119282458,0.7202072845905506,3.5303203311073084,7.093343555927621,,,0.6584896970785714,5.700454684563526,inf,,0.8024107433290124
73,1.7098502321018894,-0.07644665441500519,-0.009045857190089282,1.2891635663827488,1.2474734838903427,0.7561904063678581,4.358287610819922,13.581895616386518,3.99792438419021,,0.648888643467878,4.407230489037172,4.00460218672124,inf,0.6787338047961913
74,1.745206349147356,-0.06399089946873639,0.0,1.1190770820054445,1.0490208440966942,0.7589149825008625,2.492404202293124,1.094365757054701,,,0.6740851607140061,4.971414580942975,inf,,0.7978284590908045
75,2.6377348249399954,-0.03516979766586661,0.0,0.7023623984372559,0.5946807718175603,0.7860083555303179,2.4672810090840063,2.154334633599453,,,0.6528756675646988,6.49491006357635,inf,,0.6761005600653908
76,,0.0,0.0,0.8307487166445364,0.8007335921342492,0.68951724277455,1.8078416099919243,1.904032639191451,,,0.6068309995095971,inf,,,0.9110401900418272
77,2.4117502126250154,-0.1768616822591678,0.0,1.181601131541324,1.117347936272253,0.7964004704293799,3.7732601383580056,3.0572455543545263,,,0.6528756675646988,4.636775525403422,inf,,0.558190584686645
78,1.8481204136206693,-0.03080200689367782,0.0,1.0875951317988366,1.0263809326005713,0.7304689846185187,3.182446159864521,3.168307839973617,,,0.6447042257417027,5.713832810509703,inf,,0.7240842818630334
79,1.9961912380752482,-0.03992382476150497,0.0,0.9956675911478138,0.9290311078788819,0.7643839493806868,3.3617036619909513,2.9607150059775282,,,0.6380535849069913,5.661361758772249,inf,,0.5105586807005629
80,,0.0,0.0,0.8580873126346653,0.8592890138444393,0.7182701694354554,2.8632966220272427,2.087624256703672,,,0.648888643467878,inf,,,0.7008693587528662
81,1.040343380544134,-0.0034678112684804465,0.0,1.0535708648659603,1.0300635600133243,0.8222124132758953,3.0994375192627173,2.8262539050013245,,,0.6447042257417027,6.744125855200335,inf,,0.9502104943076347
82,1.0498221244986778,-0.0034994070816622594,0.0,0.9346516737589148,0.9047749731296274,0.7117949956202251,2.4019025303575514,1.606853108262194,,,0.648888643467878,6.753604599154879,inf,,0.8034458933229766
83,,0.0,0.0,0.8971341369441798,0.863661446499292,0.5945393921035097,2.558701952652793,2.9595784141521797,,,0.6425374456860184,inf,,,0.7153317302114645
84,3.318440162423369,-0.02212293441615579,0.0,0.8362786707746057,0.7651851688210447,0.6663725573015552,2.5649215440898083,1.77963446835331,,,0.6547956803312163,7.2966910851390905,inf,,0.6048741037887557
85,1.6166760227617794,-0.07503386239324242,-0.016577778896591747,1.3198016047717493,1.2624349607195062,0.8026283406833881,3.948533212265688,1.733618050736219,3.2951702451635807,,0.6207552362147116,4.34451678592423,3.074064116823898,inf,0.7097467222998122
86,1.5179478754084414,-0.05059826251361471,0.0,1.17326997113974,1.1345319755234096,0.8547247800187283,3.3756706227128306,3.7484005778310148,,,0.6425374456860184,4.726710270522187,inf,,0.8447742099886111
87,1.98313296060749,-0.0198313296060749,0.0,0.8731853429882019,0.7978244000633583,0.7448635906737094,3.3507544885652223,3.963678604110397,,,0.6468212168108125,6.47309101618171,inf,,0.716500624301851
88,2.398376720697627,-0.06395671255193673,0.0,0.931768026344295,0.911799899929679,0.6857412485751881,2.5100299615748463,1.7826046995687,,,0.6619902821573977,5.5640205322810425,inf,,0.6856737216186141
89,0.9808460298021496,-0.039233841192085984,0.0,1.2690399334102733,1.245460549332384,0.8372077409230838,4.478904354011967,20.669486185387864,,,0.6357360191111145,3.649658740960655,inf,,0.5553727826231596
90,1.6220447855577862,-0.07569542332603002,0.0,1.2246573803686682,1.1203868742054957,0.7665432164269342,3.537953903946259,5.7505354037918295,,,0.6528756675646988,4.08109933547208,inf,,0.6148896505084223
91,1.260887091295082,-0.0820018884411521,-0.00626020794950365,1.3546810673274372,1.329582598492533,0.8069741432748622,4.369124238733942,1.9072749788716203,3.958137373408403,,0.6333676938231112,3.8051636136465836,3.773759939176723,inf,0.6720573150009352
92,1.5985901748725446,-0.07788711920861752,-0.007371023451251526,1.3285366066016855,1.2679858144443363,0.8299483142037861,3.1495553507572294,1.8782915133694558,3.723023646103162,,0.6097226960127671,4.276666119016055,3.6343912688298667,inf,0.8349971220687971
93,1.8968133815096564,-0.11705599193733991,-0.009398233496637197,1.3296939150273117,1.2492462952738832,0.7982703064580039,2.902400393199961,1.2551978738264356,,,0.6584896970785714,4.338541522734142,4.178651668682095,inf,0.6048628809292582
94,1.5809823789630624,-0.042159530105681665,0.0,0.8624224547742031,0.8248970064534858,0.6643033217244082,2.4153504611642003,1.398704691959367,,,0.6713451011121618,4.950795293740239,inf,,0.7241671386300367
95,1.0198528266628115,-0.027196075377674975,0.0,1.1210934516897646,1.0522232845796549,0.7276278317953732,2.6593020290004312,1.9188866595942926,,,0.6447042257417027,4.403590812589722,inf,,0.6737461712952239
96,0.8811495953474209,-0.026434487860422625,0.0,1.2252695059647898,1.2080964002894372,0.773029732247873,3.707515842268416,4.471445634205105,,,0.6566669596287297,4.199705077879927,inf,,0.5758845121675494
97,0.8300266695206658,-0.008300266695206658,0.0,0.8460121980672431,0.8238054022434995,0.6927110747240256,2.6988576276502942,2.355064812826858,,,0.6357360191111145,5.2548322546082975,inf,,0.8098663846257946
98,1.6944580739814572,-0.07927248018058555,-0.016746810678363686,1.163022390366076,1.1011030665608332,0.787360090526427,3.524599562671456,3.0181923957575334,,,0.62595550513784,4.179176497738799,6.535241271013659,inf,0.5152292170794233
99,1.525956369787712,-0.03502438700131469,-0.010754304092316676,1.2888424956538282,1.2578290098293647,0.7681966757891274,4.093573216728346,10.147182990372707,4.391878134094063,,0.6602640781246099,4.811784435351091,4.110873864173311,inf,0.6988067822027806
100,2.4589883806046893,-0.03278651174139586,0.0,1.214202682788152,1.1385016799456305,0.7450687638785868,3.360658057444832,7.373218553741055,,,0.6602640781246099,5.978219320357962,inf,,0.8446889234743985
101,1.407358615845781,-0.023455976930763015,0.0,0.9313433063492924,0.9020186468657533,0.7207725505159734,3.831989380223644,2.785369410189561,,,0.6153451465759925,5.3050063546988335,inf,,0.6999438644731425
102,0.9883865300403357,-0.013178487067204476,0.0,0.8796921340218333,0.802717681312041,0.5881259325648865,2.0135766550649716,1.0396451342485458,,,0.62595550513784,4.965024782844203,inf,,0.7321873200523928
103,1.823104828261028,-0.030385080471017137,0.0,1.0083956084465082,0.9487836833296868,0.730086736353665,2.6408757748761875,1.4436433359929541,,,0.6357360191111145,5.89413620314742,inf,,0.653190998333511
104,0.9380435761215624,-0.012507247681620832,0.0,1.119821141223712,1.079560210690244,0.7681303451390734,3.377408899895761,2.89614970290509,,,0.6403206450210053,4.8022670283642,inf,,0.5228175972542207
105,1.8010109103564504,-0.1140640243225752,0.0,1.1570101848514562,1.1185599342261447,0.7732985550343259,4.053964335964555,15.377761419349307,,,0.648888643467878,4.417308448818521,inf,,0.7227486279615367
106,1.4135593021025123,-0.1501199546320503,-0.00537156859922604,1.2540312602625099,1.2534875837660795,0.8191868950663636,4.5910593312866865,3.55677561565515,4.61203660856482,,0.6778444222523095,3.2923429767500734,4.020877410340228,inf,0.83289508701961
107,1.4603170856471133,-0.019470894475294844,0.0,0.47039263768868894,0.35150844777884954,0.5632801416671305,1.9286022518143442,1.703422640574805,,,0.6284777104787076,5.755075769043752,inf,,0.7799965175089246
108,2.2072749131897207,-0.007357583043965736,0.0,0.4768043233294326,0.44851335605999276,0.7782899954030494,3.5083998815558277,5.89493940877913,,,0.6740851607140061,7.911057387845922,inf,,0.8722916607920455
109,,0.0,0.0,1.7032886433604992,1.6792459840310412,0.8879991811563913,3.0481758175636844,2.67338288047142,,,0.680118107274185,inf,,,0.8861500156707185
110,2.9065724851759036,-0.029065724851759036,0.0,0.5464581072350898,0.47713643358759805,0.6413553543926588,3.30695738686166,3.7406642178282454,,,0.6713451011121618,6.636880324846738,inf,,0.846665830628011
111,1.774916959684634,-0.12424418717792438,0.0,0.8451977637471456,0.7788550408868417,0.6688482266873864,3.4364237996139395,3.4554152046016866,,,0.6509067234006624,4.258433350754996,inf,,0.5902470842545214
112,,0.0,0.0,1.468328279922112,1.4575031594833394,0.8459290269065519,2.6956348863437936,7.783262441494507,,,0.581717464821069,inf,,,0.7935355434693308
113,,0.0,0.0,1.313622667687249,1.3213846491784895,0.7702942241402808,3.0002822185639197,3.494516592476546,,,0.6153451465759925,inf,,,0.8043988561796157
114,,0.0,0.0,1.0998661720880476,1.1001371735757985,0.7985704861681056,2.329795565584586,2.5133052398703133,,,0.5783247308855777,inf,,,0.8072650229827973
115,,0.0,0.0,1.4086836460399836,1.3762000460080883,0.9245551393607485,2.429621667111314,3.1564459457543466,,,0.5677978065141052,inf,,,0.8189812932398411
116,0.5547018198731652,-0.0036980121324877682,0.0,0.40426291563730116,0.32038479063363917,0.6160315518267536,1.9323998180745539,2.3338010988560214,,,0.5748741956352443,5.546778725846536,inf,,0.6691098982168221
117,,0.0,0.0,1.0774182332591329,1.0326019652733955,0.7581521262667872,1.681675795128011,2.244598988829006,,,0.552929491858785,inf,,,0.7992434717723871
118,,0.0,0.0,1.1497874650379585,1.098579288204462,0.7275454525057446,1.4695102703436511,1.6487574446178503,,,0.6008849035917525,inf,,,0.8154882856569556
119,,0.0,0.0,1.192081830434201,1.1354740549538318,0.8238449517039417,1.2475610125455274,1.4403999697986827,,,0.5202020156036558,inf,,,0.8401879177890568
120,,0.0,0.0,1.4549682734155973,1.4312221600851947,0.894068888869875,1.1400704753858768,1.2587151309439004,,,0.5947193981915972,inf,,,0.7299519074811767
121,,0.0,0.0,1.2811918742098105,1.2394274528367386,0.8407240684459304,0.9623080245746196,1.1926096361772758,,,0.5677978065141052,inf,,,0.7687055154409984
122,,0.0,0.0,0.9571975275366938,0.9219491889117827,0.717469398149779,1.0538619003766045,1.2561769111698677,,,0.5713653840954815,inf,,,0.7982746454809928
123,,0.0,0.0,0.8738289976321811,0.8149039715205874,0.6197160684890806,1.0533877216379501,1.3100719703928017,,,0.6125606311107803,inf,,,0.776469443776623
124,,0.0,0.0,1.245088721978585,1.2062556491881637,0.8420289017872612,1.0631073184671858,1.413752184739297,,,0.6008849035917525,inf,,,0.6956726265610004
125,,0.0,0.0,0.7307433752988011,0.6970731594798711,0.6200589111445464,1.1445553722314148,1.3195411907524586,,,0.6180765742263259,inf,,,0.7905678894222536
126,,0.0,0.0,1.3422583828389707,1.3068457842311456,0.8339371024837666,0.8806657024631613,1.0607576923008923,,,0.6309483474627791,inf,,,0.7019082539668551
127,,0.0,0.0,0.576461882421219,0.5004463203389742,0.6225717369474074,1.6536097164465646,1.487414542281348,,,0.5783247308855777,inf,,,0.681263164304118
128,1.6360434608496217,-0.054534782028320725,0.0,0.9833271934478431,0.8032332723427515,0.7246848412145175,2.846465556073434,2.2630903021578117,,,0.6207552362147116,4.875230657090053,inf,,0.8246491961120694
129,,0.0,0.0,1.6858001659379485,1.6490560158108647,0.9338145689811832,2.338339415104765,2.8950444481387545,,,0.6068309995095971,inf,,,0.7272593388518057
130,,0.0,0.0,0.6560463278605391,0.6415528061685092,0.6640445543197123,2.447920338134521,2.818497363797095,,,0.6038851895711802,inf,,,0.6637860030275333
131,0.09798040836020379,-0.00032660136120067927,0.0,0.8329128242591792,0.8144635313627288,0.6688254232178243,2.188341712336844,2.529259983194144,,,0.581717464821069,5.801762883016405,inf,,0.6731475643337074
132,0.10166365377650018,-0.00033887884592166727,0.0,0.718847039080633,0.6720112968052544,0.684919982862863,1.9725745537812291,2.627726768497449,,,0.5783247308855777,5.805446128432701,inf,,0.8288734145562469
133,,0.0,0.0,1.1569110959652062,1.1064589346785823,0.8586018905340345,2.4924617928833577,2.5296033545185104,,,0.6097226960127671,inf,,,0.7833682824126524
134,,0.0,0.0,1.440521973393611,1.3947177436010787,0.8170686472482883,2.104608554764579,3.0188512523664652,,,0.5978297680564633,inf,,,0.6790498421685031
135,,0.0,0.0,0.4025484572600011,0.33255264417717295,0.4398518079909658,1.106264697366246,0.9748941010239409,,,0.6309483474627791,inf,,,0.6762296226845255
136,,0.0,0.0,0.6389761047051082,0.5822344351687546,0.6287438038238566,0.4386794022044572,0.5201218252050139,,,0.6153451465759925,inf,,,0.7984116914055153
137,,0.0,0.0,0.26334616000293776,0.21880477830510084,0.641710108054576,0.42959762300816967,0.5351936093991745,,,0.6125606311107803,inf,,,0.7995095811928764
138,,0.0,0.0,0.32036688462053936,0.2831416429585968,0.5508807506637693,0.4766561694618649,0.5816385108207426,,,0.6357360191111145,inf,,,0.8102077804224136
139,,0.0,0.0,0.23293085381488063,0.20198844682123848,0.4984100956574658,0.9873260244550363,0.9914329557661473,,,0.62595550513784,inf,,,0.5608164660457982
140,,0.0,0.0,0.6643848722507553,0.6390438944292323,0.6208769861251976,1.7160968291861805,1.6017787949899338,,,0.663668482632973,inf,,,0.7780955998645115
141,,0.0,0.0,0.44042845283144105,0.4002478465795215,0.5566011002333486,1.3270373355256346,1.5280594230929438,,,0.62595550513784,inf,,,0.7532185798923098
142,,0.0,0.0,1.1191929476809257,1.0994160544531806,0.7827154127436715,1.3982772932071086,1.4717242566630946,,,0.62595550513784,inf,,,0.7220065021008065
143,,0.0,0.0,0.8757435734218707,0.8528230526350499,0.6714137990163495,1.6421152863212498,2.027739201721441,,,0.6233814453054027,inf,,,0.8086536743481534
144,,0.0,0.0,0.685894961058833,0.6633416309417228,0.7206134460389134,1.5358588311123922,1.9050076722255953,,,0.6068309995095971,inf,,,0.8474067188730351
145,,0.0,0.0,0.5849308765062281,0.5299576204493351,0.5502542218853601,1.7410140264924021,1.4939965016035748,,,0.6097226960127671,inf,,,0.6915969492568361
146,,0.0,0.0,1.1363687859987845,1.1145414866538692,0.773697717130658,1.8081033098873946,1.7645168195609713,,,0.6425374456860184,inf,,,0.7609361562421716
147,,0.0,0.0,0.37034117318545484,0.3570100348415389,0.5336251844371035,1.8339592608972013,1.6559625825506654,,,0.648888643467878,inf,,,0.918854429882409
148,,0.0,0.0,1.005114600712211,0.9807844612819476,0.628083891117219,1.3385537668382899,1.259703227906343,,,0.6357360191111145,inf,,,0.8710109774592707
149,,0.0,0.0,0.32653121558277415,0.29477985523642297,0.4126475673877218,1.0395602662431471,1.0386914005745111,,,0.6357360191111145,inf,,,0.9259387019748367
150,,0.0,0.0,0.7025629003174756,0.6112981427046014,0.6719375760442193,1.9275184865185877,1.2157946549888745,,,0.6309483474627791,inf,,,0.6102756013064411
151,,0.0,0.0,0.8794700996304741,0.8529532132601595,0.8410931626660176,2.0250425838528794,1.7287371510975555,,,0.5641709578113449,inf,,,0.8504644849862846
152,,0.0,0.0,1.1060188806870608,1.045414428304724,0.803809211710726,1.851235869326778,1.8414876878225892,,,0.5713653840954815,inf,,,0.7263943287401154
153,,0.0,0.0,0.8048940038679475,0.7798677873777411,0.592771873249402,2.0303013604680804,2.4780979004677213,,,0.5641709578113449,inf,,,0.7711620524035334
154,,0.0,0.0,1.3621780283370557,1.308883864986502,0.7779302434290023,2.0844020966162633,2.7549535743700093,,,0.6068309995095971,inf,,,0.7165154725143702
155,,0.0,0.0,1.3488809172366376,1.3176349796004958,0.8281381893577676,1.7001169656856758,1.8164461693716976,,,0.5713653840954815,inf,,,0.7221105669680358
156,,0.0,0.0,0.3859449718024294,0.3395180901249383,0.505091059566647,1.3066179435771248,1.0752264751078022,,,0.5978297680564633,inf,,,0.6220263834213526
157,,0.0,0.0,0.2520696153350063,0.20655518697232986,0.34492826750894934,0.7551098194626324,0.6270238005758063,,,0.5947193981915972,inf,,,0.862407634678829
158,2.336486644669727,-0.007788288815565757,0.0,0.6562245991402954,0.5407331411460916,0.42864194472243106,1.5457550441260417,1.281259149205962,,,0.5883313578629602,8.040269119325927,inf,,0.6637135284097141
159,,0.0,0.0,0.2984071630395868,0.2538642412638881,0.6035049600658866,0.7319101480333797,0.8979947138742413,,,0.6180765742263259,inf,,,0.8218121541819279
160,,0.0,0.0,0.12463234025682716,0.1030447606948096,0.3692850461410574,0.7482685624923793,0.9652854547704347,,,0.6038851895711802,inf,,,0.9068328559443946
161,,0.0,0.0,0.7233835617950328,0.6559944602307992,0.6212403571812813,0.6041306973298757,0.8368361297424596,,,0.5947193981915972,inf,,,0.8560211026039987
162,,0.0,0.0,0.29474661112781414,0.2816436597286576,0.2905271124620836,0.6797549364599466,0.8141652840640836,,,0.6233814453054027,inf,,,0.9390881643078802
163,,0.0,0.0,0.335546419962534,0.31725384187246003,0.44063826133852535,0.7305481490978135,0.8532135562844927,,,0.6233814453054027,inf,,,0.9013247786051556
164,,0.0,0.0,0.6845052171898364,0.581690625191426,0.4067849611311232,1.09341246819131,1.012148806546197,,,0.6403206450210053,inf,,,0.8039190891368597
165,,0.0,0.0,0.5108857144389347,0.4835643083930157,0.5800022232120521,1.7455775615344629,1.8736568367550441,,,0.581717464821069,inf,,,0.8337653818048011
166,,0.0,0.0,0.5693355355200428,0.5598283464089856,0.6695030742645117,1.586687377578426,1.8305079321146505,,,0.6125606311107803,inf,,,0.8375402349058859
167,,0.0,0.0,0.6100823055332052,0.5874285297093096,0.705968239347405,1.8335083744106868,2.164505895682574,,,0.5947193981915972,inf,,,0.6853738369134348
168,,0.0,0.0,0.661260439286563,0.6291936178346087,0.5461989944619245,1.738941289595722,1.6627693580338891,,,0.5604843169999094,inf,,,0.7189564932077591
169,2.7497410055717353,-0.01833160670381157,0.0,0.33713994354455146,0.25373317712034593,0.4747573490108305,2.004098450612263,2.2918495561842023,,,0.5947193981915972,7.7440033031827555,inf,,0.7600836726294884
170,,0.0,0.0,1.5298286285396965,1.4866068864735067,0.8450525831905965,2.4679581980051446,2.629456183489198,,,0.6357360191111145,inf,,,0.7937530028843991
171,,0.0,0.0,0.820989867473376,0.8052324928000064,0.749013338978816,2.700956893468417,2.619727179721753,,,0.6097226960127671,inf,,,0.8454169159984268
172,,0.0,0.0,0.8497656927323263,0.7039603858813089,0.6548767862674252,2.1717293646424944,1.888760888733009,,,0.6125606311107803,inf,,,0.7949910923173723
173,,0.0,0.0,1.3927656776138608,1.3610999850316226,0.7946560637293367,0.9644870873985182,1.3867201184019726,,,0.541134803179459,inf,,,0.7308116076847375
174,,0.0,0.0,1.3788524015250267,1.3743566416276103,0.8452326332270066,0.9727929465674273,1.1613661532953086,,,0.541134803179459,inf,,,0.79660688345579
175,,0.0,0.0,0.17406567852275817,0.14297833686737488,0.49427977593232436,1.3538496807076679,1.4721959171079566,,,0.524519217297268,inf,,,0.9340342263793849
176,,0.0,0.0,1.6231338005672447,1.6104670549515614,0.9114174814211905,1.5130180506857978,1.9190707508340408,,,0.5329562494928909,inf,,,0.8475576697482028
177,,0.0,0.0,0.5688141866280298,0.48842595800684185,0.6126251046819888,2.006102579945673,1.7106959294866093,,,0.5329562494928909,inf,,,0.8979580235604717
178,,0.0,0.0,1.7023537509788707,1.6752990044241263,0.9497424452295217,3.2922374686552343,4.450116313788255,,,0.541134803179459,inf,,,0.8077488866102556
179,,0.0,0.0,1.3206407802135267,1.2973541228435537,0.8424208889964317,3.238578592290231,3.583731663777428,,,0.541134803179459,inf,,,0.8122910746801496
180,,0.0,0.0,1.675785301809071,1.6899744552184008,0.925235249165366,2.4190429731261673,2.972955565515748,,,0.62595550513784,inf,,,0.8362155506570669
181,,0.0,0.0,1.5543105743583026,1.5366447590747283,0.8799571224561329,2.5856350043642657,3.571227651695099,,,0.5947193981915972,inf,,,0.829736981460618
182,,0.0,0.0,1.5133876536797342,1.4679654347344255,0.8752607097709424,2.5181585612512527,2.46059599657196,,,0.6180765742263259,inf,,,0.8479957903005877
183,,0.0,0.0,1.5984390683345315,1.5709175633233945,0.921673623891692,2.6963990344067836,8.100385315070259,,,0.6153451465759925,inf,,,0.8248448674794051
184,2.0149030205422647,-0.006716343401807549,0.0,0.8632196127556789,0.7708446890221172,0.7305497787989567,2.9311019520008257,3.6483111719326633,,,0.581717464821069,7.718685495198466,inf,,0.7523869159566375
185,,0.0,0.0,1.3979595397781588,1.3867123459138366,0.8516688997126396,3.596514400789752,2.792812318561393,,,0.5978297680564633,inf,,,0.6834319568333109
186,,0.0,0.0,1.621962744181519,1.6053885606720304,0.9228819998712666,2.6920541247567664,4.472263941678127,,,0.5748741956352443,inf,,,0.759563465972991
187,,0.0,0.0,1.4411901330003487,1.3546319512518081,0.850300726235542,3.043698625108215,3.5541237600558997,,,0.6068309995095971,inf,,,0.8665196358823042
188,,0.0,0.0,1.4244461199914,1.3880346808441826,0.8847379861733836,3.549467504611264,11.562517082647624,,,0.5604843169999094,inf,,,0.8149007633623313
189,,0.0,0.0,1.5504316629049355,1.518278865599957,0.9222481021482839,2.841782320780983,6.566287126027564,,,0.5641709578113449,inf,,,0.7595569291271802
190,,0.0,0.0,1.4240697239212299,1.4138166152880638,0.859634849181616,2.7527415142657183,2.5008711312618663,,,0.6180765742263259,inf,,,0.821875072128071
191,,0.0,0.0,1.5776317619465425,1.572452784592496,0.8582752807095638,3.2569026392338407,5.3220375646615645,,,0.6068309995095971,inf,,,0.8022706077565788
192,,0.0,0.0,1.5576492442225593,1.5255100365659178,0.9214570708388854,3.135333350218868,6.09087393996087,,,0.5604843169999094,inf,,,0.826453033091766
193,,0.0,0.0,1.6105780159925016,1.5843843900426757,0.9397266272109949,3.1357370371762903,3.0224040369205687,,,0.6180765742263259,inf,,,0.8378679623598875
194,,0.0,0.0,1.4805634527603506,1.4572100622762125,0.9129743041898467,2.9952611698940976,5.172989718227013,,,0.5748741956352443,inf,,,0.8688349272096002
195,,0.0,0.0,1.4570474694286517,1.3941108668554467,0.8790642323985212,3.0652183577271903,2.973546153249755,,,0.62595550513784,inf,,,0.8868260198227327
196,,0.0,0.0,1.6201058536745399,1.5807303146520166,0.9441319048002905,3.337154764380527,3.5073378295235584,,,0.541134803179459,inf,,,0.8416970110533498
197,0.12783337150988489,-0.00042611123836628294,0.0,0.7243207120938189,0.695046051468247,0.6771267604818144,2.3415501635653877,3.348402026481493,,,0.468121228110369,5.831615846166086,inf,,0.869257779843084
198,,0.0,0.0,1.5974625757360585,1.5858374003000917,0.9113988609090147,2.4011232566601506,2.475172170025892,,,0.5202020156036558,inf,,,0.8249061257852205
199,,0.0,0.0,1.6818099029692086,1.651923066441549,0.9530865517923724,2.160653629941174,2.407406087739615,,,0.552929491858785,inf,,,0.8469282300949786
200,2.140290499855419,-0.056594445277046455,-0.043285778049539765,0.9607026106591121,0.9126848837906328,0.7147792017575986,3.098485391381929,2.9434718415367978,3.8302900367346195,,0.6447042257417027,5.005647752585217,3.4061849231731944,inf,0.5951307100999449
201,1.4259102284886307,-0.014259102284886306,0.0,0.5668749211042996,0.4939159136713149,0.6978709019136561,3.0643310158510007,2.6251961580130834,,,0.6125606311107803,6.018493219495901,inf,,0.8523382511185863
202,2.193240492511631,-0.029243206566821747,0.0,0.5582844521090928,0.4640404315771245,0.6031840846859589,1.921630965784753,2.02109799384996,,,0.6097226960127671,5.9870299500401165,inf,,0.8337015066820147
203,,0.0,0.0,0.8023385516286111,0.7941561606181918,0.6563010202282229,1.2194762258907983,1.2468863913306414,,,0.6008849035917525,inf,,,0.8707219410446666
204,,0.0,0.0,1.4739013052764478,1.4341460049770705,0.8363487318848305,1.150889230326424,1.2680974654001889,,,0.6153451465759925,inf,,,0.8135954859170914
205,,0.0,0.0,0.9245146008830788,0.8780565057794164,0.6484968096525084,1.185324323092584,1.2971472457269515,,,0.62595550513784,inf,,,0.8574603859869466
206,2.248148126926816,-0.03746913544878027,0.0,0.795448274712534,0.5812440880268357,0.4983010419057272,1.4127644745440389,1.2957500484135063,,,0.6403206450210053,5.73424168214091,inf,,0.9326942012373151
207,1.4013313650158958,-0.032697731850370906,0.0,1.2699336232152714,1.2685190284301293,0.8185294407879199,4.324331296864367,15.97877290326592,,,0.6584896970785714,4.626507323376223,inf,,0.6954239084752264
208,1.434108621932211,-0.01434108621932211,0.0,0.8772492352278826,0.8250355788210614,0.6879447686393968,3.2794466067448527,2.1904067722477767,,,0.6380535849069913,5.769210279978656,inf,,0.9387861528310696
209,1.5184407934201747,-0.015184407934201746,0.0,1.2548966645258646,1.1957253352754067,0.7377638096687632,2.9213949272974986,2.4349976078119004,,,0.6584896970785714,6.018493219495901,inf,,0.7618193071922389
210,1.962835638688822,-0.01962835638688822,0.0,1.115942244355905,1.082252879397266,0.7771772528550875,3.592915505017482,2.662547540855802,,,0.6380535849069913,6.124361220574413,inf,,0.7923788828276808
211,1.5147683567389432,-0.015147683567389431,0.0,0.9197160703671545,0.9053699145388844,0.6965914844922741,3.115816860197583,2.7751728845878394,,,0.6584896970785714,5.866301404153976,inf,,0.8930399872579243
212,2.995732273553991,-0.00998577424517997,0.0,0.6501172643769426,0.6248584060290682,0.6683179185203482,3.38022648921137,2.695577460070975,,,0.6584896970785714,8.699514748210191,inf,,0.8654796496390043
213,0.9644253236811848,-0.009644253236811848,0.0,1.185710781742636,1.1280960691688722,0.7065076540871528,3.4351369110675383,3.3140364389906827,,,0.663668482632973,5.426150738057921,inf,,0.5956190751992076
214,1.223612791410156,-0.00815741860940104,0.0,0.8435358955532534,0.8089989459195842,0.5166809320344489,3.349733516775487,4.798102643212488,,,0.6566669596287297,6.155291521265772,inf,,0.7563487039023067
215,,0.0,0.0,1.2121397539025838,1.1696451852191094,0.7323454640076676,2.99302096513137,2.256987237048836,,,0.6309483474627791,inf,,,0.8674104492665211
216,,0.0,0.0,0.8948241831838268,0.8640451075127766,0.638649353100068,3.42180702354071,2.521527536480255,,,0.6727386042041725,inf,,,0.7862656549756563
217,1.9085738893174267,-0.03180956482195711,0.0,1.210144897414744,1.1571076622781487,0.7719669365684838,2.9728037337307542,1.806488362021954,,,0.663668482632973,5.960827577646092,inf,,0.8021189663316222
218,,0.0,0.0,1.136451812654163,0.9501354544975955,0.9354434060981792,0.6783642264017978,0.8110267210086616,,,0.6468212168108125,inf,,,0.964475278450931
219,,0.0,0.0,1.428719490275596,1.413651350084295,0.8656984484586363,0.15687374901441756,0.31175078964656,,,0.6425374456860184,inf,,,0.9556091066811984
220,2.6783049295169192,-0.062493781688728114,0.0,0.7245233027173302,0.6224538077472708,0.6756382292666053,2.287132520577212,1.8065796846662785,,,0.6566669596287297,5.914503505971854,inf,,0.5989166666969007
221,1.2384287044947575,-0.038329036996687674,-0.007080015501453433,1.1649724713277012,1.1262499444555418,0.7499005968558059,3.724762965590955,4.430980152942878,3.4610093203999592,,0.6547956803312163,4.474141923581687,3.349904087274605,inf,0.5543542178646477
222,0.8318658725124615,-0.011091544966832819,0.0,1.1204213248059114,1.1007646209670228,0.7511589029180764,3.566026460746438,3.3784210785385103,,,0.6699045166045591,5.03937776296191,inf,,0.7464098907954946
223,1.4887285156276449,-0.01984971354170193,0.0,1.2478500391592813,1.2278403675842837,0.7613941390542132,4.2501258199009495,9.912841082476788,,,0.6619902821573977,5.426150738057921,inf,,0.7197788440570687
224,1.7123933973901122,-0.07991169187820524,0.0,1.221364654773446,1.2151532491332246,0.7404937849301796,3.3657357614119947,2.8195714164561108,,,0.6309483474627791,4.364405033324062,inf,,0.5554887671429708
225,1.6189384119308134,-0.0871420260062673,-0.015390740082684203,1.1578204459163295,1.1035471523669766,0.7988338356504583,3.8870542876511607,2.935525122631156,,,0.6333676938231112,4.0877000195034325,6.22125264114086,inf,0.6008159369821113
226,,0.0,0.0,0.5044453672142684,0.4530838163730267,0.6051281510019743,2.2882222744189766,2.546865236668182,,,0.6699045166045591,inf,,,0.8108705228066827
227,1.1179927246919117,-0.03353978174075735,0.0,1.1077070979154255,1.0494031420891161,0.7347024729898827,3.245997186572234,2.208077497972959,,,0.6566669596287297,4.581019725755808,inf,,0.5786981767424374
228,1.1871288403730076,-0.031656769076613536,0.0,1.1787112533603656,1.171723742877846,0.7611669919552972,4.252244365548933,20.597438327069206,,,0.6403206450210053,4.582104913057095,inf,,0.6933522444606542
229,2.2131618228160472,-0.11803529721685585,0.0,1.086264571884125,1.041496028032858,0.7875397868407409,3.2988750015341277,3.961122625527807,,,0.6380535849069913,5.002336491281561,inf,,0.5368856528749009
230,2.3115539433373793,-0.015410359622249195,0.0,0.7388698704766673,0.6808466730482993,0.7574657826308359,3.08156126630758,1.6773114028163207,,,0.6652988471865258,7.313220387090301,inf,,0.7640034778004837
231,2.0136176790862685,-0.06712058930287562,0.0,0.9874369322161638,0.9537085610537682,0.7414395497583329,3.4938365449439477,2.1951205238598566,,,0.6684167106117298,4.632198858376011,inf,,0.5012061364559518
232,,0.0,0.0,0.9684861981776923,0.9537813326472846,0.6629258382649534,1.9449811363802827,1.883461410783167,,,0.6547956803312163,inf,,,0.881501755275722
233,,0.0,0.0,1.1618387359098108,1.1391296693601098,0.8148874454034306,1.7474898972001085,1.7586165702419256,,,0.6309483474627791,inf,,,0.8105290381748957
234,,0.0,0.0,1.1305120550999266,1.121353866528303,0.7631867068712207,1.7978180592695352,1.8753770162651946,,,0.6547956803312163,inf,,,0.79073676252895
235,2.0515251998806847,-0.08206100799522739,0.0,1.1375674540898086,1.0746274122105453,0.7600345062565591,3.506815341456363,2.0192101059550023,,,0.6380535849069913,4.49283405659384,inf,,0.6884749841130327
236,1.7607263186205522,-0.02934543864367587,0.0,1.0086347614133049,0.9780782850131766,0.6844793178505819,3.4178701828023477,3.0070337418173856,,,0.6403206450210053,5.4621443407058266,inf,,0.7660711643175795
237,0.8731783327386495,-0.020374161097235156,0.0,1.2334057798778824,1.2017151953303056,0.7017359966848841,2.726432737562858,2.2010477846463576,,,0.6447042257417027,4.576690714666222,inf,,0.8954636516507383
238,1.6072169699780972,-0.04285911919941592,0.0,1.150046417399579,1.0683453249529806,0.7170534012538547,2.675228877962308,2.0686572419839346,,,0.6528756675646988,4.839487037900426,inf,,0.5405860798414814
239,1.0636488078416215,-0.031909464235248645,0.0,1.1466490250395116,1.1202697261015908,0.7862016978249646,4.470262673563996,9.893488508662585,,,0.6566669596287297,4.45770849431163,inf,,0.8420029053931882
240,2.043445634633667,-0.10217228173168336,0.0,1.1912271578902671,1.1769763180724244,0.7826171888960334,3.6819132767376543,6.121873783836433,,,0.6713451011121618,4.9047749033967785,inf,,0.7458687771950195
241,1.15073970380943,-0.0613727842031696,0.0,1.4406854690771747,1.4061840403558756,0.8350269681669564,4.154735985223715,6.331913332250617,,,0.6619902821573977,3.935064204574844,inf,,0.6450693789924551
242,2.356722109363297,-0.031422961458177294,0.0,1.072990878028632,1.0506079850755978,0.653850452838617,2.6779433079415202,2.5460299726221223,,,0.6068309995095971,6.16581793425276,inf,,0.6536153905080603
243,1.8536348729461425,-0.006178782909820475,0.0,0.6073365463824913,0.5712694305775046,0.6545953057279518,1.9205066518599985,1.6198951586652202,,,0.6509067234006624,7.557417347602343,inf,,0.6462704519525388
244,2.1145473408136595,-0.04229094681627319,0.0,0.8677055995923038,0.8197227717276663,0.6737883691565746,2.7604117116051055,2.0979763303290255,,,0.6509067234006624,5.812853569710563,inf,,0.7280389196976366
245,,0.0,0.0,0.37943480340877395,0.2914813035959539,0.4714583999503755,2.1332310227108433,2.076238642907397,,,0.6619902821573977,inf,,,0.9230248346753863
246,0.6297283505998512,-0.008396378007998017,0.0,0.6792457360166189,0.6458725071766684,0.5850670891455215,1.94181773141817,1.753426012596492,,,0.6357360191111145,4.835282406618394,inf,,0.6757412459449408
247,1.41332303350781,-0.004711076778359366,0.0,0.8437493593446974,0.7657854839226437,0.5441715776244845,2.105641118795739,1.4275712788386934,,,0.6468212168108125,7.117105508164011,inf,,0.9072089963477988
248,3.2188758248682006,-0.010729586082894002,0.0,0.9980583443381048,0.966941928334861,0.625961211703978,2.4577489087757582,1.7450045102853715,,,0.6425374456860184,8.922658299524402,inf,,0.803167342530605
249,3.3815870250855147,-0.022543913500570098,0.0,0.4871757679046883,0.377196112140131,0.7055897620042061,1.9398157340953734,1.6646713029927658,,,0.663668482632973,7.418580902748128,inf,,0.6560795726588075
250,1.680988334254437,-0.01120658889502958,0.0,0.5217252209350177,0.481788708237153,0.6403660640764385,2.1434214773482023,1.2468428340590707,,,0.6528756675646988,6.636880324846738,inf,,0.8656997586780982
251,0.9676609789359628,-0.006451073192906419,0.0,0.9036756685679165,0.8399363882328723,0.68960299383151,2.6925774157890174,2.2232575777679293,,,0.6403206450210053,5.947979435168243,inf,,0.6425969073987766
252,2.088863085580576,-0.013925753903870505,0.0,0.8275444919621114,0.7880897478246095,0.6278032626713956,2.566590922237177,2.104300491111007,,,0.6727386042041725,7.076831609026071,inf,,0.9090908208324627
253,,0.0,0.0,0.7348863215164955,0.7183662022726814,0.7408305620538655,1.2609405481680238,0.684550486505469,,,0.6699045166045591,inf,,,0.9450422039110807
254,,0.0,0.0,0.4236852223982557,0.2896594312478609,0.40695527820182226,0.8834313977084729,0.6794428510937015,,,0.62595550513784,inf,,,0.7556789327624145
255,2.6423409478858817,-0.03148204782373223,-0.012556967974365797,0.8498146793297175,0.792607977009653,0.7059156421069575,2.100586538655654,1.41086375655133,2.92006159953601,,0.6509067234006624,6.689066078017308,2.772588722239781,inf,0.7544403185336421
256,1.2999696320758618,-0.017332928427678158,0.0,0.9106856366707038,0.8966353110453827,0.5596179577736818,2.241072962876596,1.501461324219227,,,0.6468212168108125,5.555362469537927,inf,,0.6614749977430272
257,1.771380472991971,-0.011809203153279808,0.0,0.6564156180798842,0.6271927712205583,0.6650254622225219,1.771574483811904,1.0479664066473127,,,0.6619902821573977,6.763174050171029,inf,,0.8347244364927785
258,,0.0,0.0,0.7700007192048114,0.6860151952023352,0.6075275643281421,1.6397656219956702,1.1541098902718814,,,0.6447042257417027,inf,,,0.9443044518441025
259,1.3172455984353355,-0.017563274645804473,0.0,0.6892211167176668,0.6222488938768278,0.5434766943876547,2.9408227941830587,1.7880259917006103,,,0.663668482632973,5.543933773714305,inf,,0.7571671257041015
260,1.3217558399823195,-0.004405852799941065,0.0,1.044115375135268,1.0337032061980012,0.7571686058871981,3.217760436831766,1.7922155221253124,,,0.6668815377411301,7.025538314638521,inf,,0.6292187711174925
261,1.777157527626243,-0.008304693618999038,-0.015390740082684203,1.108676295510245,1.027481892921303,0.6734893539723529,2.8833889489466986,1.862092083621123,4.789112743065711,,0.648888643467878,5.513162115047551,4.795790545596741,inf,0.6006290081055528
262,1.979624032329604,-0.01979624032329604,0.0,1.0988916642539732,1.0799469937116286,0.7320924770241842,2.662677709631573,1.6862409171820376,,,0.6652988471865258,6.444720319052495,inf,,0.6996032684274498
263,2.5567945161763617,-0.049419788731599745,-0.010238749979182034,1.1137713845966055,1.1027980461327336,0.7304526113856595,2.4956912920508403,1.41613182370213,2.6012889400141983,,0.6699045166045591,6.160540877151916,2.6079667425452278,inf,0.7018346475001562
264,1.140619792703417,-0.01140619792703417,0.0,1.0550168966221984,1.0238410406906349,0.7498541201187705,3.621221282663812,3.8851279518229225,,,0.6468212168108125,5.674223672414657,inf,,0.6564576110153959
265,1.7693139172922012,-0.1002611219798914,0.0,1.1693718697958329,1.12967520114807,0.8054864151766452,4.297710946194907,2.279727110318393,,,0.6619902821573977,4.321663484946791,inf,,0.6980766868500119
266,1.31916370175109,-0.0527665480700436,0.0,1.1323584642323137,1.0779629591258122,0.7312951376692073,3.7804162752984505,4.682814695468183,,,0.6584896970785714,4.371416455561866,inf,,0.5394462019051668
267,1.5606477482646683,-0.005202159160882228,0.0,0.6514270316087718,0.6046218603649073,0.5881600012106657,2.403114536294936,2.6345439794831087,,,0.6380535849069913,7.264430222920869,inf,,0.8125496711394065
268,0.8662423888827915,-0.00577494925921861,0.0,0.3943472455130873,0.35542897339037677,0.47919043631002145,2.2315165401815475,1.8679042253214195,,,0.6468212168108125,5.82783512332618,inf,,0.7834829425208502
269,0.6865026378412769,-0.0022883421261375896,0.0,0.7941992266287686,0.7671356076517888,0.5889719534149918,1.9455078286753813,1.3915989517864213,,,0.6125606311107803,6.3902851124974775,inf,,0.8191910385043897
270,,0.0,0.0,0.9304690416049176,0.9106289050375208,0.5364682912778099,3.2093592765588417,4.508337267584887,,,0.6602640781246099,inf,,,0.6653908506153529
271,3.713361861392714,-0.03713361861392714,0.0,1.000496455402685,0.9547802276995025,0.7090756036461469,4.298553274959156,6.260918848796133,,,0.6790044388599258,8.316522495954086,inf,,0.6137961394161628
272,1.6670420970594584,-0.033340841941189164,0.0,1.2346602957219206,1.2175142035630184,0.7885301507824718,3.551408662668402,3.3575325646219456,,,0.6380535849069913,5.446559609689129,inf,,0.7019577241445221
273,1.6535359763518858,-0.07716501222975466,0.0,1.1463407941580777,1.1283297859975387,0.7840364695812518,4.838240091871631,6.531715942630028,,,0.6602640781246099,4.375823690549274,inf,,0.5496142939638631
274,1.9926706064363748,-0.08541117333189523,-0.007580121635135586,1.065047141975231,0.9987626063541517,0.6891401226039223,2.9826225966588433,1.6054437644256119,3.7078693983314848,,0.6684167106117298,4.474141923581687,3.4994358212455685,inf,0.7452666266623045
275,1.9969597557964036,-0.13704548192843238,-0.009398233496637197,1.1786847061446466,1.1183816931926691,0.778729465478453,3.078334169880775,2.248303800482805,4.162568067864189,,0.6403206450210053,4.347947321021019,4.169245870395218,inf,0.6874695648976022
276,1.5038941257104008,-0.1503894125710401,0.0,1.203597567226405,1.1720368214550274,0.8042720489824188,5.575278897822474,25.540005418397193,,,0.6619902821573977,3.702753026379808,inf,,0.6317489902795816
277,1.9821188990697658,-0.19821188990697658,0.0,1.2769249551076793,1.232596314085983,0.7709907506857333,3.828308257599593,5.0262177755358275,,,0.6699045166045591,3.8192412719771798,inf,,0.6247412208611464
278,2.6470085230826585,-0.24376711587666086,-0.012110374687996157,1.0040715670058653,0.9909750789157018,0.7224478503943609,4.373293234302207,2.8522671607789407,,,0.6740851607140061,4.684935154456954,4.643188253175612,inf,0.536077312018762
279,1.3620666804268977,-0.013620666804268978,0.0,0.7186586270189811,0.6845029515167087,0.5236270060453836,2.5233693972331164,1.8664607673340714,,,0.62595550513784,5.926926025970411,inf,,0.6279406195033381
280,1.0405658419667978,-0.013874211226223971,0.0,0.9315774389748664,0.8773754497563114,0.7254087234663543,2.8479830258788454,2.8648028605358413,,,0.6068309995095971,5.293882769480171,inf,,0.6770912980754907
281,1.7343996121163516,-0.04046932428271487,0.0,1.0352945123950479,0.997141496011501,0.7657000618288311,3.0880035712992773,2.147853761013673,,,0.6509067234006624,4.79552391447931,inf,,0.7784449911257152
282,1.7266804530496374,-0.11511203020330915,0.0,1.0378737044744253,0.9975288056492778,0.7504363154577657,4.013419266150951,26.954197364480525,,,0.6584896970785714,4.261580481598014,inf,,0.6695134253025227
283,1.3558352863423482,-0.040675058590270444,0.0,1.1598892815648318,1.110177878052188,0.775232615794278,3.812301534231075,3.5043907105337824,,,0.6566669596287297,4.786159297548267,inf,,0.4445077741200047
284,2.290721143421598,-0.05345016001317062,0.0,0.72851439343568,0.6798025410877245,0.6874024144257235,2.809202055706679,1.7873926162355245,,,0.6602640781246099,5.783547443125063,inf,,0.5369096016322068
285,1.5985527461489197,-0.02664254576914866,0.0,1.0712790647223804,0.983943269889521,0.7055578081212408,3.150977016771931,3.951979095377646,,,0.6284777104787076,5.265527543725046,inf,,0.5969928585969431
286,1.7994529137293889,-0.029990881895489815,0.0,0.8442224969665792,0.7740470261146121,0.705512320320938,2.297206055893471,1.970861789328314,,,0.6357360191111145,5.572754212249797,inf,,0.6229614299774837
287,3.122981800717607,-0.03122981800717607,0.0,1.0859571480959689,0.9883365336003022,0.7434174599357098,3.2656977390517765,1.6604217405673833,,,0.6584896970785714,6.47309101618171,inf,,0.6126353528499214
288,1.8324930364098326,-0.034837638865564485,-0.00792053198399827,1.2504297215405673,1.2245033446609113,0.7066276353326626,3.978396675279136,3.003230012595051,2.9627104956833596,,0.6584896970785714,5.219300826229812,2.856059612907386,inf,0.7902570377121836
289,0.9907118556702142,-0.03962847422680857,0.0,1.0608941561571703,1.0380792355829713,0.7077836156165476,3.686596959551262,2.4916317127589642,,,0.6652988471865258,3.989984546897858,inf,,0.5511239214938474
290,1.6171860780973861,-0.026953101301623105,0.0,0.8098906961842129,0.6863385540418743,0.6057715786774673,2.5286293101684834,1.3610355592623193,,,0.648888643467878,5.332218918223718,inf,,0.6733591270646231
291,1.469228793818153,-0.01469228793818153,0.0,0.7755392401056306,0.6665609548771205,0.6473913561042806,3.193455960067525,4.132001539946289,,,0.6403206450210053,5.831615846166086,inf,,0.8893123193377689
292,2.3728551043835457,-0.015819034029223637,0.0,0.9320790787709939,0.8733752004502023,0.6632895800237456,2.004413033580844,1.1773219523929535,,,0.6403206450210053,7.264430222920869,inf,,0.8133921675282516
293,1.8360657984063566,-0.012240438656042378,0.0,0.6613642077274465,0.631574670271504,0.7479011226819147,1.6374602360282002,1.2021217364062957,,,0.6309483474627791,6.843216757844566,inf,,0.7315781945741455
294,,0.0,0.0,0.8079933399905707,0.7631563611295542,0.7437047285281436,2.1936709562972734,1.7532855499436861,,,0.6125606311107803,inf,,,0.6662048702342053
295,0.8423568583933383,-0.011231424778577843,0.0,1.0382794556291854,1.0175826819671683,0.7313983240127034,2.4718116186343857,2.289472407825815,,,0.6309483474627791,4.7521245989447545,inf,,0.5041138458065799
296,0.9666615167749208,-0.006444410111832805,0.0,0.8598187712191956,0.7739736174370232,0.7194675766929407,1.770833348336134,1.2707996100485743,,,0.6699045166045591,5.956526495746702,inf,,0.5752276723420795
297,,0.0,0.0,0.9451073536348131,0.8981537779650424,0.7291753271487893,1.8854316399406879,1.3221574997898815,,,0.6309483474627791,inf,,,0.9461462883751841
298,,0.0,0.0,0.8365283476457317,0.8198162036692336,0.5127419690971473,1.373116785856758,1.0501475273076717,,,0.6584896970785714,inf,,,0.683295481467782
299,2.710433702445157,-0.02710433702445157,0.0,0.8603857847260299,0.8093188525896267,0.7666924321982053,2.6163360938473317,1.9135929882649938,,,0.6468212168108125,7.117105508164011,inf,,0.6773868947396359
300,,0.0,0.0,0.7883946731702891,0.7751267398770207,0.5204052562493896,1.5831680382223359,1.0275446427349817,,,0.6284777104787076,inf,,,0.7601349100760336
301,2.5808177040142852,-0.06021907976033332,0.0,1.1085939746123161,1.071129843313179,0.7447602016121352,1.9392635880166078,0.7336140625466687,,,0.6893362020498699,5.41610040220442,inf,,0.7548748957428492
302,2.2377278379964576,-0.04475455675992915,0.0,0.6726057033916558,0.6370813001967598,0.7229932953206302,1.9497891221725765,1.3459017341087403,,,0.6380535849069913,5.6423738465275575,inf,,0.6134878124489397
303,2.445685936634719,-0.008152286455449062,0.0,0.5804463053828205,0.5645003170461761,0.5187696026342605,0.8987375775618226,0.5785745715952628,,,0.6468212168108125,8.14946841129092,inf,,0.6357147048963433
304,,0.0,0.0,0.6782149505884144,0.6169921120131383,0.6351477555064617,1.5272963441406837,0.8279827402703819,,,0.6284777104787076,inf,,,0.6051320398926701
305,0.7133498878774648,-0.0023778329595915493,0.0,0.6323519848169267,0.5775280268871422,0.5596405804146513,1.1105594620207275,0.8602765660963949,,,0.6180765742263259,6.417132362533666,inf,,0.6863860859699507
306,2.336486644669727,-0.007788288815565757,0.0,0.6313805152619505,0.6090676483705475,0.565280815659563,1.590132122566736,0.9492692466865154,,,0.6652988471865258,8.040269119325927,inf,,0.785538162725532
307,,0.0,0.0,0.763502437502483,0.7264988862260221,0.6083539348320173,0.5027738012476292,0.5731588507258372,,,0.6357360191111145,inf,,,0.9167339189362725
308,4.0943445622221,-0.013647815207407002,0.0,0.3811021420357356,0.2685510446928086,0.4759033560257974,0.9136401442066159,0.909855908805121,,,0.6309483474627791,9.798127036878302,inf,,0.7583279032446041
309,1.5642918895881839,-0.04692875668764551,0.0,0.9040738930609632,0.848581639607698,0.6690258492705903,1.9230293010182966,0.8776507429923646,,,0.6528756675646988,4.992467990140807,inf,,0.8314485639458985
310,1.009065140213493,-0.03027195420640479,0.0,0.8425325694567669,0.8365809480331047,0.6084427486648111,2.131812521271184,1.3253267274073068,,,0.6547956803312163,4.473167739383844,inf,,0.8039357547490608
311,2.289502715051646,-0.09158010860206584,0.0,0.7273601195887055,0.6713221868086504,0.640534924212265,2.9953913540230337,1.68652144992777,,,0.6566669596287297,4.9810764918547115,inf,,0.6636680651061566
312,2.3612241298239263,-0.02724336080906928,-0.012110374687996157,0.6239897601579245,0.5051099119952941,0.7092153896557529,1.9948729223824018,1.5126242722483416,3.6771891097593628,,0.6602640781246099,6.11426012458791,3.2138632830446565,inf,0.500786985858312
313,2.436888055689529,-0.016245920371263527,0.0,0.5141620526226561,0.49143410493469175,0.42398579207609,1.8572391598064906,1.2532166731928205,,,0.6284777104787076,7.330027505406683,inf,,0.72858293302884
314,,0.0,0.0,0.9019712214191803,0.853066489923517,0.7843632366382741,2.3741851205036024,1.93957369818057,,,0.6357360191111145,inf,,,0.7919105640026299
315,2.0515096906948287,-0.027353462542597715,0.0,0.7311325636185414,0.7042873836148158,0.6548099622562871,1.4588450800343826,1.0848618120145221,,,0.6468212168108125,6.220179143471647,inf,,0.654894012300825
316,1.4829412950995564,-0.029658825901991127,0.0,0.6614449221839535,0.600847739402466,0.6694113280118537,1.514918810680575,1.0289495567322953,,,0.6602640781246099,5.3768796890511386,inf,,0.8209842972326841
317,2.563012503616679,-0.042716875060277985,0.0,0.8175210426085348,0.7703966047646535,0.7372852263896909,2.6295263654980605,2.0546240535855445,,,0.6713451011121618,6.611774403715661,inf,,0.5930943934461538
318,1.6910155647390925,-0.032377014342458724,-0.007080015501453433,0.7932583489034931,0.7377770190862547,0.7365963627497057,2.164571757856768,1.5031224445682123,2.6009380012494105,,0.6403206450210053,5.398751763869807,2.425294246986485,inf,0.6729041731990351
319,1.799985473460372,-0.01799985473460372,0.0,0.5964691037945618,0.5515395649695142,0.7044270180011499,1.6935448147098264,1.143589119139013,,,0.6284777104787076,6.3902851124974775,inf,,0.7508767967333897
320,,0.0,0.0,1.1090171924462595,1.0561365141577963,0.769190826002914,2.5239409451885875,1.7104635038440512,,,0.663668482632973,inf,,,0.8169668477064901
321,2.4714411321736223,-0.04119068553622704,0.0,1.040946339942424,1.013349847034673,0.703134717978788,3.2961059442305145,2.7487754865111422,,,0.6713451011121618,6.254273354814623,inf,,0.7366034833381053
322,1.2760431577715583,-0.02552086315543117,0.0,0.7588329072988186,0.708793496185549,0.6891755578512057,2.5270857533418734,0.8715494706169431,,,0.6068309995095971,4.872323678298744,inf,,0.6111492828338876
323,2.43522867247035,-0.064939431265876,0.0,1.023606293715192,0.9619727772286079,0.7158990539041992,3.237767671750346,2.4215071555896723,,,0.6727386042041725,5.244250145277761,inf,,0.6324592653353954
324,1.8592291254348796,-0.08056659543551145,0.0,0.9906759570097379,0.934990692450313,0.7469577560078963,2.909339146162848,2.14535776187732,,,0.648888643467878,4.811784435351091,inf,,0.4920315298030266
325,1.420196173851815,-0.02366993623086358,0.0,0.8470018195275204,0.8009941805413681,0.733156033316757,2.288820393455772,1.2048749668122398,,,0.6403206450210053,5.485986529668587,inf,,0.6628162363014993
326,1.9399426689469939,-0.0711312311947231,0.0,0.9637235011183569,0.9337385433941291,0.8148552508523368,2.2557504345133585,1.678875139835537,,,0.676637947632344,5.186974779212663,inf,,0.7356630617536657
327,2.146595851271682,-0.09301915355510623,0.0,1.1131587133497898,1.077181453707063,0.7403507485132045,2.37296982567662,1.3532007275882658,,,0.6584896970785714,4.944535492391732,inf,,0.846545561442366
328,1.3509572651380297,-0.022515954418967164,0.0,0.8584185688731106,0.8436515163150778,0.6963600188677411,2.160015642429511,1.6358843082159837,,,0.6357360191111145,5.112298947872756,inf,,0.5805241822543679
329,2.17742195004004,-0.007258073166800133,0.0,0.6499467429940351,0.6172217571592112,0.5030063637465213,1.3374107026870148,0.8762881873162038,,,0.6097226960127671,7.881204424696241,inf,,0.6040776055700738
330,0.7746419948071767,-0.005164279965381178,0.0,0.6923215434196375,0.6729363068569435,0.7028897514979869,2.204083093709884,1.2266588046840337,,,0.663668482632973,5.772775346143153,inf,,0.7701562906151886
331,,0.0,0.0,1.365599204570029,1.3631612467873613,0.7710832701530744,2.3507914921082405,1.175006009095632,,,0.648888643467878,inf,,,0.8917030309316792
332,2.6127400212978853,-0.008709133404326285,0.0,1.1447203806111321,1.106662645457302,0.8793471707653211,2.587217151772959,1.7509893165740396,,,0.6403206450210053,8.316522495954086,inf,,0.7953061866501407
333,,0.0,0.0,1.0410145709101872,1.0259735301605444,0.6449875387674664,1.7195515684424714,0.9651519471913677,,,0.6547956803312163,inf,,,0.6326267900887517
334,1.7935777527890429,-0.01793577752789043,0.0,0.7361891780269278,0.689701497128849,0.6333430070197853,1.7968137083694102,1.3830933778371204,,,0.6357360191111145,6.3771270279199666,inf,,0.7083759369655781
335,1.5786632554192026,-0.03683547595978139,0.0,1.1337523375504919,1.0945619671110327,0.7129568349570871,2.5180506208270117,1.3851424789059745,,,0.6584896970785714,5.077844043789706,inf,,0.6150128707603314
336,1.3828631923581656,-0.013828631923581657,0.0,0.8036232262932607,0.7370515763677667,0.6685464099956843,1.7277332709804853,1.078825471247536,,,0.6447042257417027,5.73081114704412,inf,,0.5274950258265638
337,1.7290063405128038,-0.05187019021538411,0.0,0.6733087595010653,0.5883377284067662,0.6312417023205734,1.5287526326268073,1.0674654484260215,,,0.6652988471865258,5.056679232597663,inf,,0.7318064571587886
338,1.4121983844863157,-0.009414655896575438,0.0,0.7625902309657062,0.7161257772743317,0.5811818532740459,1.254074209112114,0.6841646524331411,,,0.6509067234006624,6.344969916285435,inf,,0.8655038379126049
339,2.075096093487546,-0.0691698697829182,0.0,1.0728379154044092,1.0637473713917718,0.6282255426698656,1.9375554593106965,0.9689160945365927,,,0.6333676938231112,4.800914763114187,inf,,0.5662060172715494
340,1.8415591518394323,-0.012277061012262882,0.0,0.4413124857490934,0.4132477604946706,0.6845434620696871,2.4203710088334107,1.878512586530543,,,0.663668482632973,6.763174050171029,inf,,0.7414112822333939
341,0.6733550496700014,-0.013467100993400028,0.0,1.1491915200669376,1.1280034827247556,0.7538586321748159,3.2547789575588113,2.14217714732244,,,0.675384900321601,4.385588526240242,inf,,0.6535910636411144
342,1.6773233016076012,-0.06709293206430404,0.0,1.022063811725151,1.0172821030995798,0.6897395238541225,3.7567078287668783,2.0289696735104683,,,0.6699045166045591,4.399964335360549,inf,,0.8194053735713698
343,1.4116088926450818,-0.05544577377551293,-0.005723944905773953,1.1052382469577229,1.076857870682051,0.7496965154029758,3.76751453445289,2.227471305988433,3.2454178602173154,,0.663668482632973,4.348806796793737,3.06977410595439,inf,0.8421025824545892
344,2.6909486516812913,-0.04484914419468819,0.0,0.8350285104796045,0.767549051032016,0.6147678247492192,2.5160080500507416,2.3579189684375286,,,0.6528756675646988,6.074846156047033,inf,,0.5767181889503118
345,1.856115383377401,-0.03712230766754802,0.0,0.993490889457318,0.9218196793774667,0.7849959158058019,2.1131346275672067,1.3519061076418168,,,0.6447042257417027,5.717205494988342,inf,,0.782355839048515
346,1.994952321895132,-0.10639745716774036,0.0,0.7086236294850681,0.6641985276018348,0.7264315499626729,1.6070250165057967,1.2899363222797562,,,0.648888643467878,4.84653428341583,inf,,0.7331481774898516
347,1.4956430980636493,-0.06979667790963696,0.0,0.8908872985421138,0.7944706238308304,0.653556399895364,2.48316233694081,2.0457386581741823,,,0.6380535849069913,4.353115291179462,inf,,0.7282178701590383
348,1.3849972592927926,-0.04154991777878378,0.0,0.9882980441314688,0.924225202655486,0.7240519223680675,2.8503677556021834,2.0262086099379535,,,0.6403206450210053,4.618593206320232,inf,,0.7940861666161554
349,3.625319407806649,-0.04833759210408865,0.0,0.7657172060593542,0.7405678120389324,0.5717582545224015,1.8728892182684955,1.5203881743633092,,,0.6309483474627791,7.515744651201776,inf,,0.7564174541083992
350,1.9493307464673297,-0.038986614929346596,0.0,1.2610971033489387,1.2271292313535198,0.7695108903415346,3.8870669714974144,2.026789202335582,,,0.6547956803312163,5.491362886704967,inf,,0.627187469378834
351,1.7751628023715318,-0.06974948895482455,-0.00717423248127516,1.0742559064680581,1.037568053882755,0.7404240106889038,5.726631406204449,8.388493823039585,3.1749410939814124,,0.648888643467878,4.670597991310546,3.181618896512442,inf,0.8675715353171218
352,1.9059804425672398,-0.06353268141890799,0.0,1.3038093240780628,1.2869734326127358,0.7797839420221114,4.135229083591409,6.864029380690669,,,0.6584896970785714,5.103116146890421,inf,,0.7536796454987575
353,1.2987356760798867,-0.13823611327921598,-0.026270405690903022,1.4616095335516277,1.4013117248722733,0.8545867007151177,3.559864867090499,1.7847573263058858,3.488706794190827,,0.6668815377411301,3.230049125466326,3.41534188904832,inf,0.4356313690489735
354,1.7264349087350372,-0.06773216387706485,-0.007080015501453433,0.9238597757086072,0.8949619667234746,0.7161986446397596,3.1094840034166835,2.3817775115653452,3.8787445210999376,,0.6333676938231112,4.749553903441654,3.0744921074146383,inf,0.4664981770940669
355,1.3396233621012237,-0.06618467567211343,-0.0052619036399518225,1.0369875040801937,0.9921246313716316,0.7431616232752176,4.178247757695812,7.566242838789619,3.321475385424996,,0.648888643467878,4.109119847804255,3.1713107164630556,inf,0.5156341791312656
356,2.2000901930780588,-0.022000901930780588,0.0,0.6273147493395654,0.5825842842846657,0.6444592786255612,3.019880393818163,3.4941156363237567,,,0.6566669596287297,6.698034748000068,inf,,0.7417894156329384
357,1.8154664832653313,-0.07867021427483102,0.0,1.1280669778784638,1.105187355360411,0.7401414588603273,3.790166528980752,3.629666690641754,,,0.62595550513784,4.532332862035825,inf,,0.7140104499599151
358,1.9327218135973825,-0.022682062996237026,-0.02885718536635984,1.071372968219287,1.0316130698427273,0.7598054755573938,3.379114504154672,2.122482928480987,,,0.6468212168108125,5.477975805922507,3.0963757993336785,inf,0.6296843439091901
359,1.9171245244254205,-0.05751373573276261,0.0,0.7870256834762265,0.7481185915548697,0.6684759784082407,2.4806653550687603,1.6893880517610236,,,0.6403206450210053,5.115995809754082,inf,,0.6206868447345075
360,1.15695202465562,-0.05013458773507686,0.0,1.2816840330348362,1.2576079921505765,0.7911009216886307,4.082470395661451,4.260902281178436,,,0.648888643467878,4.12893600699172,inf,,0.6411604159938433
361,1.9234665471006442,-0.1602888789250537,0.0,1.140654642018921,1.0836573405565717,0.777102799917059,3.5555310628173546,2.3048860676718563,,,0.6547956803312163,4.2313104172952585,inf,,0.8363976501804576
362,1.5143654246035714,-0.09590981022489285,0.0,0.9780272142891004,0.9547805564394274,0.7982322967585527,3.273930273333326,3.12467434091337,,,0.6468212168108125,4.188655241693342,inf,,0.7099612589190304
363,1.7827966180351469,-0.1017208507038585,-0.029017567952052264,1.0124613376261073,0.9665180191860933,0.7178093608237144,3.632896819143008,3.855259059365506,3.6828112218547537,,0.6509067234006624,4.004503858222312,3.3087165288679903,inf,0.6733525355782739
364,1.5979033074737772,-0.12250592023965626,0.0,1.1939044244702313,1.1768052019491968,0.8196116122000325,3.573771968737191,3.118629882199075,,,0.648888643467878,3.766480700137488,inf,,0.6967283100308882
365,1.2854362229155516,-0.059987023736059075,0.0,1.1980024004578784,1.1603723795408303,0.7613040988447992,3.534234716332838,7.659501628936163,,,0.6425374456860184,3.9810158769150976,inf,,0.7488386001827487
366,1.2117468156234041,-0.06462649683324823,0.0,1.2730736066863448,1.2442195272232053,0.8133154371813838,4.192994874412785,2.1430659346807674,,,0.648888643467878,3.9598136692644945,inf,,0.6138163541828602
367,0.6294768644878318,-0.014687793504716076,0.0,0.9991466791909878,0.8540078655617208,0.7009621785842345,2.8354790749164005,2.079429054206512,,,0.6153451465759925,4.32669705262162,inf,,0.7737795177354861
368,1.105204096623016,-0.0478921775203307,0.0,0.790635763975883,0.6453051298750204,0.6008208822344022,2.1244935153709363,2.1045400714844402,,,0.6403206450210053,4.0020692861129294,inf,,0.6893672606421669
369,0.8673228783305241,-0.023128610088813978,0.0,0.9038940917499217,0.858235442373702,0.7442831458350428,3.4975437758501617,4.0018191593848105,,,0.6547956803312163,4.349667011900546,inf,,0.5964432367891207
370,1.6624038768343137,-0.049872116305029406,0.0,1.2863069145896842,1.2364907152082236,0.791749967209476,3.6132255317399613,6.785856735479812,,,0.6357360191111145,4.817263901115716,inf,,0.5291374674187246
371,1.6254887727664524,-0.07585614272910111,0.0,1.3887783225423744,1.360279051780094,0.8228331482835309,4.899180682267308,5.7982733796854316,,,0.6509067234006624,4.456750180869818,inf,,0.4351493785332165
372,1.652562124533276,-0.13953294881775777,-0.019092032423749305,1.1170429265420283,1.0627374944807466,0.7986455983638073,3.9486910304542056,11.382100144743154,5.082342020486209,,0.6447042257417027,3.7535957688336277,3.8927690647852122,1.6817585740137264,0.4134912751751398
373,1.339574567417472,-0.01786099423223296,0.0,0.8241849009339074,0.7847036687801607,0.7548945613512493,2.974195200572548,2.8076793152604687,,,0.6207552362147116,5.633013403767994,inf,,0.7228527138487459
374,1.4723430501662491,-0.0490781016722083,0.0,1.076171638824013,1.0457671433043545,0.7674009016732521,2.814600846287853,1.706648121014545,,,0.663668482632973,4.387374241000477,inf,,0.7263159409170502
375,2.168431705141735,-0.05782484547044627,0.0,1.112288147241945,1.07671621266096,0.7346646161099488,3.1026615715800094,2.185435405575755,,,0.6528756675646988,5.555362469537927,inf,,0.5510537085736527
376,1.3533594732790193,-0.09924636137379475,0.0,1.2146783235179113,1.2188909677647217,0.7699886294869093,4.137373493230698,7.610407005383485,,,0.6468212168108125,3.4493377569900905,inf,,0.8592675135665722
377,1.6514135411253894,-0.03853298262625909,0.0,0.9484100424138864,0.911441007025226,0.6805207101980304,2.328136397526958,2.4600126146525296,,,0.6380535849069913,4.992467990140807,inf,,0.59553060778524
378,1.6395459382273443,-0.05465153127424481,0.0,0.9563563566201336,0.8830191618239873,0.7391629208234617,2.956536724199475,2.3253039424396196,,,0.6547956803312163,4.619719967002823,inf,,0.6197897092071779
379,0.2025242641114741,-0.0006750808803715803,0.0,0.8720310430584951,0.8040140481342594,0.6115804468817537,2.752231007054133,2.4592544373487004,,,0.6509067234006624,5.906306738767675,inf,,0.5546402568594985
380,,0.0,0.0,0.9873574389104297,0.9327203165225842,0.6640292982389158,3.078893022964631,2.3432435335878745,,,0.6468212168108125,inf,,,0.771800415518985
381,0.47267385780161447,-0.0015755795260053815,0.0,0.787432983239911,0.7665479815182561,0.7700744463482779,2.4405721555013296,2.219132782313713,,,0.6425374456860184,6.176456332457816,inf,,0.9118883947727995
382,2.4310688651050825,-0.04051781441841804,0.0,0.808964113705147,0.6559660418078991,0.5984357414931645,3.0567967449845352,2.4212847554239123,,,0.6509067234006624,6.332391134078575,inf,,0.8955497251295036
383,2.093424876700711,-0.07675891214569272,0.0,1.1836304578250891,1.183908631188411,0.787774365109004,3.3923141413758287,2.43908611365763,,,0.663668482632973,5.03937776296191,inf,,0.7598840443657888
384,1.70840781295204,-0.017084078129520397,0.0,1.0672558217585044,1.0322819649752397,0.6826003805417014,2.3977763727324604,3.3236378962105295,,,0.6425374456860184,6.074846156047033,inf,,0.8151320527897914
385,0.7911275889201491,-0.0026370919630671636,0.0,0.7050263808255484,0.6578592695252141,0.6744326367242237,3.139986127130888,4.269654253548489,,,0.552929491858785,6.49491006357635,inf,,0.7065943308671344
386,1.281772807433597,-0.04272576024778657,0.0,1.2070444059287766,1.176092119438365,0.8430190821274409,3.2297343681430393,6.979031077038025,,,0.6207552362147116,4.545853608831671,inf,,0.7482391499179261
387,1.8007600544230926,-0.07803293569166735,0.0,0.8273867761193237,0.7667865835500615,0.7737903018210118,3.5190926486104406,3.504196777055426,,,0.6447042257417027,4.680133224461547,inf,,0.8212543025931159
388,2.213493296745475,-0.07378310989151583,0.0,1.069244327631294,0.9722377276682304,0.7506302338413076,3.0375149264455517,2.262167943224659,,,0.6233814453054027,4.85078659315436,inf,,0.7563693277531514
389,1.9804316995923854,-0.07261582898505413,0.0,0.8042121784379033,0.7723737247644326,0.6201722439878262,2.537777596574739,1.8465954307564574,,,0.663668482632973,4.586457477055937,inf,,0.8049452468949787
390,1.607597185969743,-0.06430388743878973,0.0,1.2531068719071619,1.1992247270064487,0.746768658773169,4.283957560723039,8.576848859458563,,,0.6602640781246099,4.62537289330561,inf,,0.5609262869409661
391,1.9253071886497515,-0.012835381257665009,0.0,0.5789884849802324,0.41202550963817614,0.5927443535255954,1.2259894805408507,0.7045004896084379,,,0.6619902821573977,6.716217067083258,inf,,0.5757062274969085
392,,0.0,0.0,1.4929299348509246,1.455130185014331,0.9114112701328894,0.8690001675770278,0.7636358732554855,,,0.6584896970785714,inf,,,0.9501072063776189
393,,0.0,0.0,0.10060391803536385,0.08676860097529096,0.31098323120525806,0.6486085157836908,0.5948517670648024,,,0.6468212168108125,inf,,,0.8070453302718813
394,1.4639931852222998,-0.05855972740889199,0.0,1.131747947159,1.113157555571663,0.7085259015214239,3.648342552311928,3.1475676712254024,,,0.6333676938231112,4.291170805218937,inf,,0.8623892374855288
395,0.9004035415071929,-0.04802152221371696,0.0,1.5526741128955264,1.5363039511497163,0.8915959967590444,5.01979301657944,19.68161784276769,,,0.6619902821573977,3.4203802010789293,inf,,0.4131717215845633
396,,0.0,0.0,1.0296303576640744,1.0283603252150761,0.6968092392942659,1.097974774884834,1.4516812813565103,,,0.5677978065141052,inf,,,0.8559769253500902
397,,0.0,0.0,1.5716260690208892,1.5479196644915174,0.8749982200990369,0.9081840090017613,1.2715975670169117,,,0.5713653840954815,inf,,,0.7868406891790324
398,,0.0,0.0,1.6358731157995061,1.6113120387373416,0.8940698633203927,1.0612504988014377,1.5056187506576302,,,0.6125606311107803,inf,,,0.7832346953855198
399,,0.0,0.0,1.5902551902520687,1.5595532613991692,0.8612740638883409,1.053162166983941,1.4613633248958124,,,0.6038851895711802,inf,,,0.839682550169041
400,,0.0,0.0,1.5360256017859997,1.5357630677007097,0.8396145848329728,0.9902236419699012,1.311290217497276,,,0.5947193981915972,inf,,,0.8343198621517764
401,,0.0,0.0,1.561558277336634,1.5443285400876925,0.8921466921812207,1.0222061096057788,1.5180689296191061,,,0.6038851895711802,inf,,,0.7918482708734259
402,,0.0,0.0,1.5173944834889521,1.4929251806399984,0.8536112247765818,0.9367533032451263,1.274932648507018,,,0.5915533975974677,inf,,,0.8157110356177786
403,,0.0,0.0,1.513452934832763,1.5213055702743918,0.8276265126099215,0.8194194829053719,1.0840612063324708,,,0.6097226960127671,inf,,,0.8244868698596212
404,,0.0,0.0,0.7515280648040473,0.7311581256681143,0.7575271747537506,0.7960409605470246,0.9691693256945313,,,0.6207552362147116,inf,,,0.8437020811250963
405,,0.0,0.0,0.6385138476635862,0.6159216258010999,0.5728511501408236,0.9136521473286618,1.0372999534022656,,,0.5978297680564633,inf,,,0.9113493227118425
406,,0.0,0.0,0.8821211723555696,0.8317557161204436,0.6796394110298457,1.8839085557866981,1.6496385028206122,,,0.6097226960127671,inf,,,0.7224164451537846
407,,0.0,0.0,1.4720042660140074,1.4820719999200107,0.8826698628702435,2.919022662680652,4.2745155096074265,,,0.5641709578113449,inf,,,0.7866735178903684
408,0.36624439495488303,-0.00122081464984961,0.0,1.3164774700295938,1.3102247009828194,0.8911548911385102,3.1958054069174207,4.667439930367167,,,0.5978297680564633,6.070026869611084,inf,,0.8620057259472858
409,,0.0,0.0,1.680028994889687,1.6394067337350315,0.9431670408341556,2.5492228455005876,3.549409644167535,,,0.5567373465730988,inf,,,0.8294919844744644
410,,0.0,0.0,1.586281151397707,1.5710481702477277,0.9363875868493109,2.812612748826357,3.774592372019813,,,0.6180765742263259,inf,,,0.8134556440431903
411,,0.0,0.0,1.6737092901930044,1.64778591558321,0.9230683662829346,2.6264356577899113,2.6063759015265457,,,0.581717464821069,inf,,,0.7847199584118691
412,,0.0,0.0,1.3092519871214148,1.2864187471005204,0.7811002530954736,2.3411896251284374,2.7692447532378606,,,0.5641709578113449,inf,,,0.7499721004323838
413,1.789182787207418,-0.01789182787207418,0.0,0.29874863549611025,0.24508279857171647,0.4050125351169991,0.7365980789933472,0.7385790671603375,,,0.5713653840954815,6.370612346898773,inf,,0.4890553355173624
414,,0.0,0.0,0.8022689217590288,0.7537815912664476,0.8236057164449324,0.471357096930139,0.5380892418562675,,,0.6207552362147116,inf,,,0.863997445981865
415,,0.0,0.0,0.20726765807716444,0.13522386743763393,0.42556453592348875,0.9150042805822044,0.975542383976253,,,0.5915533975974677,inf,,,0.7979813015881801
416,,0.0,0.0,1.5692162888151222,1.550849656351458,0.8966807277885587,0.8678293849502651,1.1305158847247774,,,0.5604843169999094,inf,,,0.8433096879071817
417,,0.0,0.0,1.574514293747238,1.5583340676205681,0.8527208394616044,0.9905680261038677,1.1975987375285875,,,0.5451288209179292,inf,,,0.8621642334457038
418,,0.0,0.0,1.5235465208438408,1.494467688780652,0.8868935934284052,0.9874330960477334,1.3740725538706777,,,0.5713653840954815,inf,,,0.8609149622143887
419,,0.0,0.0,1.5964983087367441,1.5754311401440593,0.8801599309557596,1.0672764154424796,1.5004610809238659,,,0.541134803179459,inf,,,0.8440821128406338
420,,0.0,0.0,1.0972391026778454,1.0623783231593382,0.7085269116661541,0.9218175252396084,1.146225930180989,,,0.5783247308855777,inf,,,0.8569180075303214
421,,0.0,0.0,0.49845612690918006,0.3797239939664631,0.6671430336273769,1.076424451442565,1.0734615427106509,,,0.585052858160615,inf,,,0.9295823236113947
422,,0.0,0.0,1.20008936053548,1.1916355814894861,0.8620085743800414,1.528960324534528,2.093914861893081,,,0.5641709578113449,inf,,,0.8920624770948347
423,,0.0,0.0,1.309626009225918,1.2699352112261655,0.7973176618067811,1.4043653314387514,1.7276614259176732,,,0.5713653840954815,inf,,,0.8504770151975497
424,,0.0,0.0,1.3006564306536792,1.2568834323223879,0.8418649356990051,1.088979570071739,1.3327477333885054,,,0.585052858160615,inf,,,0.7614572745969665
425,1.3217558399823195,-0.004405852799941065,0.0,0.6518363974848486,0.5779454019062227,0.5723353826848854,2.1093424560231053,2.214178563637007,,,0.6068309995095971,7.025538314638521,inf,,0.9150262772291085
426,,0.0,0.0,0.8011762862399912,0.7732653476936822,0.7495288764522432,1.592985066504557,1.76604680291389,,,0.5713653840954815,inf,,,0.6676253645447604
427,,0.0,0.0,0.14257358439717902,0.12742078856804565,0.5618172692425812,1.26603939978168,1.6550606170054012,,,0.585052858160615,inf,,,0.547168394396041
428,,0.0,0.0,0.42952311633582924,0.3647127196044267,0.6218830647039907,2.112051811943514,2.0696140667949883,,,0.5883313578629602,inf,,,0.6454097065721368
429,,0.0,0.0,1.476119448524463,1.4494816144182567,0.86632469315132,1.8638233504738475,3.040925043974646,,,0.5604843169999094,inf,,,0.7903318729292342
430,,0.0,0.0,1.3125419929508506,1.2716978728435513,0.7939681444719289,2.3901684560355605,2.646770770157867,,,0.5641709578113449,inf,,,0.8043468794724893
431,1.0472312475212133,-0.0314169374256364,0.0,0.8340769006661218,0.6705880618393736,0.7077329606099598,2.7173358970826476,0.8899087222370929,,,0.6509067234006624,4.42470219784346,inf,,0.5316577647549068
432,,0.0,0.0,0.10696905971831198,0.08994961898657153,0.6835418661599124,0.38621754263871094,0.5117777393960365,,,0.6602640781246099,inf,,,0.6787447967105299
433,,0.0,0.0,1.5425973990817232,1.5236112624334568,0.9384093383630001,0.23691740253246238,0.41786697255745164,,,0.6357360191111145,inf,,,0.8839533827583552
434,2.450424517807006,-0.08168081726023353,0.0,0.8384322770322793,0.8001343249835045,0.6973455846659524,2.8800105715447506,1.551976161478426,,,0.6403206450210053,5.353125603043032,inf,,0.8081190002578714
435,1.2261117049886558,-0.03269631213303082,0.0,1.0380108598858127,0.9954711060138992,0.6770755201017724,3.3643557251651486,3.6653131094345226,,,0.6180765742263259,4.50683428526723,inf,,0.7621332897254111
436,1.136375198595008,-0.04545500794380032,0.0,0.9488342412144768,0.8946243533987669,0.6822116560068505,4.741830684947637,6.517392773518886,,,0.663668482632973,4.032935934093457,inf,,0.7801273362571927
437,0.7568616389883642,-0.016519855342691066,-0.0036631216969986455,1.2819072601598915,1.2375359495008116,0.7220617381257852,3.5676811722521227,2.7698992242730727,2.6601294400371316,,0.6584896970785714,4.1456378566096515,2.6567569067146595,inf,0.7162907780992331
438,0.9970240376612272,-0.053174615341932116,0.0,1.3663718214147729,1.3311797604973923,0.8454638284306394,4.263736627952936,12.906262179377018,,,0.6713451011121618,3.519980917652122,inf,,0.7971646118368445
439,1.6161530958431434,-0.07003330081986955,0.0,1.2072334527530777,1.1357688583866024,0.7799223570396758,3.288418002240302,2.2904392966418263,,,0.6357360191111145,4.560621809727023,inf,,0.4619911641287723
440,1.5679736543903262,-0.057492367327645295,0.0,1.2814777050392265,1.2443545009845849,0.8122747555138539,4.292146927524539,3.467395472356758,,,0.6447042257417027,4.409055307061801,inf,,0.6028135522464262
441,1.823803443714969,-0.10942820662289814,0.0,0.9894680992770595,0.8026522228870782,0.7448157946687515,2.2348636183473225,1.8679381888668152,,,0.6309483474627791,4.56488166707398,inf,,0.7515436703553211
442,1.041979609736477,-0.010419796097364771,0.0,0.30658131237848235,0.27191876916806484,0.4742786792815482,1.5991065687744923,1.6343483619365082,,,0.6309483474627791,5.538268036178628,inf,,0.753657250424343
443,1.633594957721859,-0.01633594957721859,0.0,0.5294471093949962,0.47711874774903196,0.6007729173482509,1.776700903159239,1.9346203850218042,,,0.6528756675646988,6.209067918046577,inf,,0.6384915383632351
444,1.6807359505679673,-0.12885642287687749,0.0,1.0769385479117453,0.9552718373087902,0.7354939372112931,2.714921665391789,1.5729132815714726,,,0.6566669596287297,3.945350009544213,inf,,0.5427528155481305
445,0.9818255560768638,-0.02618201482871637,0.0,0.8121867979472921,0.77065625693289,0.6458586663009578,3.221422554726597,2.029795956318998,,,0.6668815377411301,4.299320809580862,inf,,0.6786047198959972
446,1.7567959882233082,-0.13468769243045361,0.0,1.0609482309030798,1.027768221111003,0.8021825197919962,3.6781717433162964,3.1338311687379643,,,0.6528756675646988,4.011843340710357,inf,,0.46383175155504164
447,1.7910888463282995,-0.11343562693412562,0.0,1.012926735983718,0.930152838398117,0.7799827422651598,3.7262366192798466,4.27165017714052,,,0.6509067234006624,4.216135619276023,inf,,0.5707771950113877
448,1.9458275785897508,-0.11026356278675253,0.0,1.2953612987760534,1.2749750636638608,0.7861352296938666,3.2159697102492366,2.102754431077371,,,0.6668815377411301,4.5723803631651005,inf,,0.8606460708860976
449,1.9639781328285768,-0.03323065538138739,-0.006048907275184146,0.5395953985049495,0.4023546698529115,0.6333243076647778,2.04436158646295,1.706952289443585,1.838004068151368,,0.6790044388599258,5.73424168214091,1.781502969060866,inf,0.7958854630051028
450,1.972007574929963,-0.04915222265830532,-0.010008004589593566,0.6132873012235488,0.530165822025472,0.655245683306947,2.3497722489488115,1.6875012022513007,,,0.6602640781246099,5.32306553623723,3.3764492119729614,inf,0.6374007977716334
451,1.555148981918255,-0.03628680957809262,0.0,1.1112412755905396,1.0391454174686048,0.76966102982694,3.162695309075581,1.8303120604167034,,,0.6468212168108125,5.175116932761879,inf,,0.8070492611677783
452,,0.0,0.0,0.5887871019126725,0.4295602386116418,0.7027960149006639,1.9086573343998088,1.5724855852045492,,,0.6713451011121618,inf,,,0.810315337913482
453,,0.0,0.0,1.1190863186564493,1.0551806797623096,0.7760122372183167,1.9152010439793523,1.4647085407731404,,,0.6207552362147116,inf,,,0.8384830587477243
454,,0.0,0.0,1.1810995155431987,1.100505965340121,0.771995015077819,2.3397185849962647,2.464069241151335,,,0.6584896970785714,inf,,,0.8613582047620592
455,1.5907589890187162,-0.05832782959735293,0.0,1.2489914430669218,1.1554049130472657,0.7751673573887898,3.352424643801197,2.9572710695492455,,,0.6180765742263259,4.614098816732393,inf,,0.8751344117580008
456,,0.0,0.0,0.4748001738845232,0.40822465868026775,0.5159888349723578,2.0986983948874225,1.577231377639777,,,0.648888643467878,inf,,,0.7211644532041502
457,,0.0,0.0,0.34606708618650167,0.3054564723902243,0.4609036129760441,2.321475847617261,2.053550571555421,,,0.6509067234006624,inf,,,0.7251677722967225
458,1.9049863558111684,-0.08142542457355922,-0.007473938697628629,1.1863132885911112,1.1710256832085182,0.780438063621764,3.451607903225888,2.755003072283531,3.0409121222602553,,0.6566669596287297,4.925987820035971,3.0158412264767045,inf,0.8129898240308671
459,1.6654940263804763,-0.06661976105521905,0.0,1.1822249226253274,1.1768209715379778,0.8070082917605886,3.06861780701808,1.8991778011799245,,,0.6566669596287297,4.824155727153637,inf,,0.620627245645168
460,2.6127400212978853,-0.008709133404326285,0.0,0.3256767374273267,0.23890524963106363,0.5741391903342001,0.2742294396437098,0.26828277745930856,,,0.648888643467878,8.316522495954086,inf,,0.6059281467739802
461,,0.0,0.0,1.566239795412617,1.5418983301523157,0.9173264430018145,0.09917208600794095,0.22989182835523633,,,0.6790044388599258,inf,,,0.9206836246500473
462,,0.0,0.0,1.30348439969705,1.280589797473268,0.9634804543530945,0.24690201747292218,0.538422685491322,,,0.6403206450210053,inf,,,0.9100885001216703
463,1.9053619074381707,-0.05080965086501788,0.0,1.0511150284429154,0.9125645272940828,0.7446479157270779,2.8092930111212038,1.5270600242461811,,,0.6509067234006624,5.3720835167876455,inf,,0.6639576093717477
464,2.3420169463018925,-0.08587395469773607,0.0,1.265460496545673,1.2512194798947238,0.8382964512287956,4.256544466702176,12.494414620080196,,,0.676637947632344,5.20502943212448,inf,,0.842276414692644
465,1.2855742924093996,-0.03856722877228199,0.0,1.2455932889368755,1.2352630489284722,0.7649686513619368,4.413027503126508,13.341946600637801,,,0.6668815377411301,4.714241281042454,inf,,0.6778285391191379
466,1.4353522981371685,-0.10058900638896699,-0.004670162141092029,1.2528211381734289,1.2436316402936916,0.7735447145602647,3.9793777531163443,11.707681415902846,3.274030181877,,0.663668482632973,3.8227918717002036,3.280707984408029,inf,0.8271537712668441
467,1.2545873707588298,-0.06272936853794149,0.0,1.086886498586339,1.0389709150944018,0.7238984724906684,3.5896986306160725,3.277483189885894,,,0.6684167106117298,3.849569990781596,inf,,0.7654327082375223
468,,0.0,0.0,0.8930782069587772,0.8556354905965209,0.6919058639368866,2.20721567590585,1.5923481234269303,,,0.6403206450210053,inf,,,0.8143680785214459
469,1.4768359160224314,-0.07384179580112157,0.0,1.2745175775049211,1.2778141124110889,0.7795230219230371,2.968011474201557,1.8590614512551542,,,0.6425374456860184,4.405408994908781,inf,,0.6548367220146799
470,1.443006400716183,-0.041455158150897134,-0.006645055206308959,1.1284483616112144,1.1255885553336762,0.763664884391165,4.824349093649285,12.494604050507109,3.1198247022061563,,0.6727386042041725,4.7547019199590554,2.9392909626490393,inf,0.5552854432669836
471,1.553261108843944,-0.02588768514739907,0.0,1.0002962461264262,0.9367586442957279,0.7377356157299617,2.510131255707898,2.0202177971971538,,,0.6425374456860184,5.569834502146462,inf,,0.7765531248440747
472,1.9322399689485599,-0.09661199844742799,0.0,1.035527133243077,0.9774412154162823,0.7684775575813475,2.6313377673253924,2.0179604700978,,,0.6619902821573977,4.796868904594643,inf,,0.8200161556335436
473,2.0349916861402084,-0.03391652810233681,0.0,0.6058623464474324,0.5795512091409969,0.6245102247766566,2.260996923765173,1.9435753158647713,,,0.6380535849069913,6.036926921184739,inf,,0.6193467572071211
474,2.081668716854526,-0.013877791445696841,0.0,0.6980030223453901,0.6895253408790893,0.5775118960508719,1.9590898065019449,1.3511922624132642,,,0.6619902821573977,7.090076835776092,inf,,0.6852602156481
475,,0.0,0.0,0.6873647504914595,0.6399537950557214,0.4664715644077819,1.3019785250979183,1.190576277967129,,,0.6425374456860184,inf,,,0.6570537113781199
476,1.786005409772367,-0.02976675682953945,0.0,1.0363330542405242,0.9637461404886899,0.7308287610153896,2.154365409350404,1.4739759574467421,,,0.6309483474627791,5.5582401693655425,inf,,0.7138684311845465
477,1.6923482010942805,-0.056411606703142686,0.0,1.0826167084453175,1.0635525976546485,0.725031399944926,3.861585315059301,4.358506336543751,,,0.6447042257417027,4.971414580942975,inf,,0.749622593429793
478,1.6505943739419973,-0.04401584997178659,0.0,1.1259298462372742,1.1091056389732066,0.689408338335252,3.9969411635718024,2.8034625895710166,,,0.6403206450210053,4.90028723692739,inf,,0.5668483993571484
479,1.7608260211011997,-0.02347768028134933,0.0,1.0717949134027114,1.0204454815737916,0.7182098901880898,3.298811434434464,2.867204884444324,,,0.6584896970785714,5.882112010180618,inf,,0.7332414019968059
480,1.669894376766756,-0.01113262917844504,0.0,0.6194160320085046,0.5695453744310408,0.5526587147399427,2.7741302315492944,2.179505421091791,,,0.6403206450210053,6.680177130600062,inf,,0.8718343258356123
481,1.6628997596007828,-0.022171996794677105,0.0,1.0456787708284205,1.0058059116661335,0.7770329039489187,2.8911884622280843,2.080533916873574,,,0.663668482632973,5.965147238790609,inf,,0.6955306510797102
482,2.037807827562207,-0.1386849365955785,-0.010754304092316676,1.0891980330269775,1.0027998248600958,0.7865418853219996,3.2273066284262395,1.9237263041486714,,,0.6778444222523095,4.45770849431163,4.464949805212772,inf,0.7852090860478724
483,2.3246824739488265,-0.05424259105880595,0.0,1.1032156629588,1.0789410324093025,0.7128224203110518,3.1266533341313116,1.651979504159737,,,0.6584896970785714,5.515920737486631,inf,,0.660329046603092
484,2.4228295639322064,-0.08883708401084757,0.0,0.8277396789749782,0.7945470579187955,0.6952277965440978,3.93857657326071,2.445033416194063,,,0.6425374456860184,5.518686990979521,inf,,0.5412759264409087
485,1.8001373050038239,-0.09600732293353727,0.0,1.260519707696347,1.1363347111051565,0.8243986729617842,3.766009965274387,2.136866733304823,,,0.6602640781246099,4.475117057739894,inf,,0.5244767436074046
486,1.4723594542917116,-0.04417078362875135,0.0,0.6618818771685935,0.631372670212013,0.5530526120180459,3.184844264681505,2.5631789610291906,,,0.6333676938231112,4.590829068717434,inf,,0.5796754961928392
487,2.0978115105375057,-0.027970820140500077,0.0,1.0637529994258803,1.030662239901812,0.7342388221017201,3.3192569639562115,2.32694346209062,,,0.6602640781246099,6.171122986482453,inf,,0.7197810738735655
488,2.3586500343583934,-0.06289733424955715,0.0,1.1040187117726816,1.031855639889715,0.7771587231450273,3.03085486186188,2.3280901372256064,,,0.6619902821573977,5.569834502146462,inf,,0.7913662369660126
489,1.953936802010399,-0.02605249069347199,0.0,1.0184680370291337,0.9672398972592771,0.6246867556909377,2.3553751053449417,1.8815249077049208,,,0.6509067234006624,6.248509650097873,inf,,0.4495192316558201
490,1.2708142309981372,-0.05083256923992549,0.0,1.0437435081966677,0.9853994648265595,0.6233247079979091,3.0221794800785853,2.1562220829425787,,,0.6668815377411301,4.222177933731985,inf,,0.6641788545428212
491,,0.0,0.0,0.9330498655016632,0.8980245950769891,0.6625437019173631,3.0647059930055343,3.4735439850067014,,,0.6309483474627791,inf,,,0.7103419725695278
492,2.3446470281610226,-0.0625239207509606,0.0,1.206801415778961,1.1867812108597886,0.7948444416886643,2.7578527922291927,1.4031206554173141,,,0.6468212168108125,5.179053945721219,inf,,0.5762006583454443
493,1.4205930648642262,-0.023676551081070436,0.0,1.0112805920610668,0.9932026193057413,0.8016069160378977,3.6671450843489914,2.7525920665717725,,,0.6233814453054027,5.329922705963368,inf,,0.6510704624513075
494,1.6054598707366852,-0.04816379612210056,0.0,0.94552120797736,0.8990063642989107,0.6761056243424339,3.69698614418095,3.3841068219338526,,,0.6284777104787076,5.024058314428396,inf,,0.8756001543259894
495,2.5265974542575256,-0.016843983028383504,0.0,0.4978358944062024,0.42715195111826365,0.6758388066943786,2.3670637075975987,2.258233620622559,,,0.6284777104787076,7.536363938404511,inf,,0.5808910089037688
496,,0.0,0.0,1.1261404055314703,1.082654870653584,0.7352438821302726,3.2856294123762533,2.410551496465093,,,0.6528756675646988,inf,,,0.9315758946659779
497,,0.0,0.0,1.2626193367810108,1.2453804894913145,0.7166625106485933,3.2204742495733933,3.4105383917046486,,,0.6584896970785714,inf,,,0.9235421114889244
498,,0.0,0.0,1.1215833386279905,1.096799438106216,0.7249094480324166,2.6388256937836285,1.920289503019942,,,0.6447042257417027,inf,,,0.9481682270521804
499,2.1020797141146534,-0.014013864760764357,0.0,0.7809261131031572,0.7680290619246738,0.665854708216976,2.1099196493832175,1.509089981900532,,,0.62595550513784,7.025538314638521,inf,,0.7748104133493681
500,2.4079456086518722,-0.008026485362172908,0.0,0.980805139769577,0.9505717492953031,0.7717065992073991,3.2955680501130145,3.4535984505433834,,,0.6740851607140061,8.111728083308073,inf,,0.9280555112816361
501,,0.0,0.0,0.9782483957580018,0.9228164037475367,0.6461135092897894,2.4198471180204852,3.086360529637301,,,0.6284777104787076,inf,,,0.8977822375219764
502,3.0704840336096244,-0.030704840336096245,0.0,0.9071704812905322,0.8827664047108708,0.706091913916374,3.3752432712119913,3.521661707260185,,,0.6233814453054027,6.628441456200873,inf,,0.7319786583751255
503,1.1573785273444022,-0.015431713697925363,0.0,1.1470661497404893,1.101910010827561,0.7141787111886263,3.6159497252781376,3.3460823417289838,,,0.6584896970785714,5.282881558418198,inf,,0.6950025277341395
504,1.3864729491080392,-0.04159418847324118,0.0,0.8980990877579835,0.8202708552494511,0.7576358599249611,2.5354391558340907,1.6046945114687703,,,0.6740851607140061,4.857914207078592,inf,,0.6906350580108949
505,,0.0,0.0,0.7178423468725127,0.6887687256336213,0.5441926762722215,1.1479258863373751,0.8869488861949388,,,0.6207552362147116,inf,,,0.771001316089585
506,2.8067336418096427,-0.028067336418096424,0.0,0.493515286115091,0.45077127315870513,0.6610487758140465,1.737131341880294,1.1911485736478884,,,0.6528756675646988,7.382213258577253,inf,,0.7997926458295898
507,4.18152125579449,-0.027876808371963265,0.0,0.6732565711276712,0.5245518192493603,0.6244617187894914,2.3787709953528338,1.7163243640958283,,,0.6684167106117298,9.104979856318357,inf,,0.7198913142136885
508,2.2711326330985377,-0.05299309477229921,0.0,0.6822969803284268,0.6434800251484544,0.5901356097067724,2.412996899115141,1.960834359601352,,,0.6584896970785714,5.812853569710563,inf,,0.8894209786605712
509,1.9449014281877939,-0.043918450162453895,-0.01442859268317992,0.9407841831597882,0.8985716199873961,0.6201268642316196,3.295032968663591,3.153062612088253,5.580570855869221,,0.6468212168108125,5.127169110352208,4.894101477840304,inf,0.7568899956598317
510,1.3910603222048437,-0.046368677406828124,0.0,1.1727784481906771,1.1387280610712218,0.8291272199302009,3.785569272964297,1.8600723943178,,,0.6584896970785714,4.6982606090541035,inf,,0.5001932253109684
511,1.4758552026193836,-0.08961632093323064,-0.02845209527632005,1.2950845736545151,1.2006876398575925,0.7998267881633898,3.469777467421657,2.572021177855809,3.088661625689063,,0.6403206450210053,3.758348629491769,2.957868437591489,inf,0.774295081620155
512,2.419124887189151,-0.03225499849585535,0.0,0.8952566045239083,0.8823409536985294,0.6496537156367512,3.4764852555793833,13.871934409351525,,,0.6447042257417027,6.430831206891828,inf,,0.802313303875203
513,1.2771998857208717,-0.017029331809611623,0.0,0.5840084190115215,0.47529609588279703,0.6484789466420927,2.4180800963068405,1.7539577369621044,,,0.6699045166045591,5.403677882205863,inf,,0.8783416194469009
514,1.5921503680585702,-0.09022185418998564,0.0,1.2089645951706542,1.2030265659434212,0.7532404401085824,3.275815155581819,1.4026460290011507,,,0.663668482632973,4.305065593537753,inf,,0.6254466652767872
515,1.133308808758506,-0.06799852852551036,0.0,1.3293737868026803,1.3280380194919637,0.8121276067377284,5.083365366348206,19.712732892196282,,,0.6357360191111145,3.607401878919442,inf,,0.6161507921376498
516,1.8334798123045744,-0.024446397497394325,0.0,0.6325680907213701,0.507058482103388,0.6973030745338009,1.8286718747049566,1.355302790822401,,,0.62595550513784,5.870230682293865,inf,,0.603173042668643
517,1.9764075305266031,-0.11858445183159619,0.0,1.1433180092762008,1.1111972380402957,0.7369581968855934,2.801937135911675,1.4888357268626575,,,0.6684167106117298,4.701925854452399,inf,,0.4355948802052747
518,1.5823133242865322,-0.07993855325651807,-0.004451490705430317,1.3962869136015124,1.3636906068446277,0.8112501178411421,4.420373085733439,4.629288799513252,2.9266190000821695,,0.6447042257417027,4.143534806412872,2.894582290432508,inf,0.7657309924597443
519,1.8025881192346949,-0.07811215183350344,0.0,1.1110131363385263,1.0804656850642602,0.7426351576683555,3.7067292268189327,2.381182376377631,,,0.6740851607140061,4.7117660322539106,inf,,0.7472235392371958
520,1.8678387002641013,-0.05603516100792304,0.0,1.1165626773111237,1.0520291486316689,0.7400255226513714,2.0956082103392397,1.1443344255563588,,,0.648888643467878,5.231697679206641,inf,,0.7849027679113147
521,1.2068966647396135,-0.07633089652978882,-0.004128881119518738,1.3409359103764327,1.2778089459375126,0.7981615519981358,3.94354103849404,2.264471103605296,3.963185202586467,,0.6547956803312163,3.653512310276645,3.288144520381173,inf,0.684166578565567
522,1.8961565337487893,-0.06320521779162631,0.0,1.2068469519271845,1.1903268965259242,0.7466248703661382,4.435850647701354,4.624825723676382,,,0.6652988471865258,4.820014934487606,inf,,0.6442478524018027
523,1.3303698705962905,-0.03547652988256775,0.0,0.988792167245833,0.9668176334171086,0.6580571765284109,3.5070716243082396,2.351722740455275,,,0.6547956803312163,4.7982157061450215,inf,,0.4718597658114303
524,0.7971975984522148,-0.03221228966573206,-0.010304915585052733,1.0456548555805918,0.9499763126943429,0.6981572123537817,3.205063955522462,3.6113270018034527,3.4202031738658216,,0.6652988471865258,3.5739647256512983,2.822964929564848,inf,0.5164244215559557
525,1.9744091103104608,-0.059232273309313827,0.0,1.0188709458333154,0.9984436929868119,0.7681699558341517,3.6511246667489416,2.5956830113766425,,,0.6684167106117298,5.233778845410465,inf,,0.5066395225065435
526,1.59419050469908,-0.13284920872492334,0.0,1.4313121682128507,1.4124101011475132,0.8146476640705862,4.381847179938054,4.361665895868271,,,0.6528756675646988,3.9978229952314788,inf,,0.5746776931460695
527,1.408865151499139,-0.037569737373310375,0.0,0.7635972824071754,0.6694950496385392,0.5703598569905863,2.9769559283200477,2.577707019729114,,,0.6584896970785714,4.601842395895416,inf,,0.7616820406664208
528,1.2039728043259361,-0.004013242681086454,0.0,0.6060791332281633,0.5592059964979871,0.6397068398835936,2.353169712440198,1.609670864781367,,,0.6602640781246099,6.907755278982137,inf,,0.7676597154859446
529,1.6327785218799666,-0.03809816551053256,0.0,0.8091864727117719,0.7744207464543537,0.7229039455600931,2.577002720875769,3.267025348171659,,,0.6038851895711802,5.179053945721219,inf,,0.6974555716048858
530,2.755910777261551,-0.027559107772615513,0.0,0.5152838390982888,0.46897207447852785,0.5773257561956024,2.065949975581941,1.856949269915936,,,0.6180765742263259,7.188057244136296,inf,,0.8092004844412517
531,1.7521775379678695,-0.04088414255258362,0.0,1.0099110276835512,0.933053970197209,0.7758951831678549,3.1797745879363934,4.097824080779682,,,0.6309483474627791,5.097646671085886,inf,,0.7922824642185182
532,1.6548630906665511,-0.03309726181333102,0.0,0.9447574903694081,0.8698274597057613,0.7310991164851195,3.073467368638628,2.019315438101167,,,0.6509067234006624,5.327631754216812,inf,,0.6264050669575464
533,2.049240815224112,-0.027323210869654824,0.0,0.9799743162966563,0.9246179755795795,0.6808404135977744,2.3599209372399472,1.6472607484568211,,,0.6566669596287297,6.344969916285435,inf,,0.7261654794451424
534,0.538591042287652,-0.008976517371460865,0.0,0.7470167085020825,0.7406691930972834,0.6177156927025937,3.9026130882844945,8.803551663987076,,,0.6566669596287297,4.527180867126397,inf,,0.8053859998126042
535,2.445685936634719,-0.008152286455449062,0.0,0.4106459636890295,0.308292053316003,0.6143737996088202,1.5636095003742363,1.398202968598504,,,0.6333676938231112,8.14946841129092,inf,,0.8684674769470406
536,2.2697952701710546,-0.007565984233903516,0.0,0.47090697698000955,0.4440868888965897,0.5188835389928304,1.7593029442129902,1.6266955502667448,,,0.6038851895711802,7.973577744827256,inf,,0.5725880431278395
537,1.134575158453904,-0.007563834389692694,0.0,0.3674266001833952,0.30250466809009213,0.42887371463901797,2.121021987170094,2.0335795684672786,,,0.6125606311107803,6.074846156047033,inf,,0.8199320195050622
538,1.4610089216903055,-0.03896023791174148,0.0,0.9824274490281412,0.9110540182011742,0.7270156457094733,3.0685562570858878,2.4072393303900133,,,0.6619902821573977,5.032540129484306,inf,,0.8237692647905156
539,1.3314345768174385,-0.04432517167382639,-0.004494096142813026,0.973286039559161,0.9420505764145338,0.5924756468612851,4.084512983185521,8.802490050447926,2.5706382105677195,,0.62595550513784,4.610741231037546,2.4401148915852637,inf,0.7617307474920421
540,1.8673642042714484,-0.12449094695142988,0.0,1.3290229342942517,1.2575377305657578,0.819589443166197,4.631039100532383,12.82738538218175,,,0.6528756675646988,4.473167739383844,inf,,0.537297912230645
541,1.8653534966648502,-0.13057474476653952,0.0,1.2181757232929824,1.1354161918505052,0.7855129791897288,4.504172235609248,11.1237228879682,,,0.6584896970785714,3.9430551146758743,inf,,0.9198180947774803
542,,0.0,0.0,0.9010825956246512,0.7928983863495108,0.5536059215896283,2.4511335840623425,2.99739737814918,,,0.648888643467878,inf,,,0.9336595739118462
543,1.4638493063186748,-0.03415648381410241,0.0,1.146547301473818,1.0682234208959822,0.7174683294407022,3.519050716369973,2.159215210641267,,,0.6602640781246099,5.042814192460491,inf,,0.5989782580247344
544,1.4842747694800944,-0.004947582564933648,0.0,0.9039378613837113,0.8656426577225134,0.5985118725950822,2.445507381751391,2.3775174647786868,,,0.6380535849069913,7.188057244136296,inf,,0.863300163471496
545,,0.0,0.0,0.35058602071092915,0.3217534873097917,0.6607512256680254,2.845099409807899,3.787954982759892,,,0.6333676938231112,inf,,,0.7499553264974795
546,0.40546510810816444,-0.0013515503603605482,0.0,0.677531173836901,0.5884258365351568,0.671254126270824,2.925593766066488,2.6973855889922556,,,0.6652988471865258,6.1092475827643655,inf,,0.6767716364671541
547,1.598653076877738,-0.11190571538144167,0.0,1.210835076088637,1.1817730667358464,0.8025122260736746,3.9226234221845866,5.871445990597154,,,0.6528756675646988,3.815703234422469,inf,,0.7830952415994408
548,1.2246410694075358,-0.00816427379605024,0.0,1.125160071521895,1.0783427103246255,0.7476309696455582,2.913882680830627,2.6079189973206285,,,0.6357360191111145,6.15006957728462,inf,,0.8722564992341535
549,1.5266663824828024,-0.0777840009604278,-0.008727094046931004,1.1904541148938668,1.1664605777196702,0.805825710640856,4.607060466805532,13.429296244852129,,,0.6652988471865258,4.058334124699067,4.258188371255018,inf,0.8718044332894206
550,1.078576327884986,-0.017976272131416435,0.0,1.1096812102290174,1.1065781339533074,0.7203762357154347,3.4395599524456677,6.995169141600881,,,0.6528756675646988,5.110455629378467,inf,,0.9108936577776469
551,1.6212516828370647,-0.04605163112647153,-0.0025859193586404068,0.824876150616123,0.7828623494847678,0.6288846929298072,2.944899239490449,2.528222988893217,1.8131089789516817,,0.6566669596287297,4.727965763468019,1.7523455006871784,inf,0.6339166428034292
552,,0.0,0.0,0.7112405904351256,0.6935367970852176,0.6004321384342672,2.049885410491552,1.4793437027138614,,,0.663668482632973,inf,,,0.7171426830723828
553,3.1017791311178033,-0.020678527540785356,0.0,0.6417993102440206,0.6007486125506927,0.6654971675616284,2.508153277906417,2.5515727960725507,,,0.6547956803312163,8.111728083308073,inf,,0.7281675450348778
554,1.6637561638684684,-0.016637561638684684,0.0,0.609513337070474,0.5539754438384759,0.6597428439893532,2.05145491299781,1.276516960831429,,,0.6652988471865258,6.187209124234077,inf,,0.8526090000665206
555,0.42666478706360017,-0.005688863827514669,0.0,0.8888824864328464,0.8777931700860243,0.6816530566222074,3.004336222793744,1.955827317855702,,,0.663668482632973,4.665864254660348,inf,,0.5194256975993066
556,,0.0,0.0,0.43319127916890493,0.3906745298030839,0.5125190453778632,2.2984946270990134,2.244038223225427,,,0.6038851895711802,inf,,,0.8461098931631925
557,,0.0,0.0,0.08467349851939515,0.04342319217223316,0.3744489782136075,1.4598739625402906,1.9041188519873553,,,0.6357360191111145,inf,,,0.8683149874618042
558,1.3941560848080978,-0.02323593474680163,0.0,0.8177477298900204,0.7514275811601893,0.5458698238026286,2.3213378613474243,2.1775747382323627,,,0.6447042257417027,5.293882769480171,inf,,0.7862571689436398
559,0.9825681015144698,-0.009825681015144699,0.0,0.8594051479303192,0.7903252137584277,0.6331104445061321,2.3152575605372276,1.8034641823669664,,,0.6447042257417027,5.362559635276391,inf,,0.7415816280195288
560,1.257268821109395,-0.029336272492552547,0.0,0.8848412700970808,0.8051473897449453,0.6655440668151613,2.7332082455256255,1.4979622951604292,,,0.6547956803312163,4.674163057475043,inf,,0.7711182444755431
561,2.409096546946092,-0.032121287292614556,0.0,0.7185621088058587,0.6125592902772867,0.6833745974679093,1.8087076315575126,1.3122793853671648,,,0.6619902821573977,6.698034748000068,inf,,0.5185854431449158
562,0.5858065907762999,-0.0039053772718419997,0.0,0.655719658828955,0.5585722519199934,0.5357590478342507,2.0581959842529014,2.05640112611067,,,0.62595550513784,5.596423956335702,inf,,0.8298375946827067
563,0.8949239216454711,-0.014915398694091184,0.0,0.8545549422964818,0.8148622935025049,0.5387511935195537,3.0606078213062418,3.004556920874043,,,0.6357360191111145,4.895819619667674,inf,,0.569893535812879
564,,0.0,0.0,0.7345393510135667,0.6632456768716402,0.6162791558110575,2.5251862733253754,2.4304036406511718,,,0.6380535849069913,inf,,,0.6870638789065768
565,0.6638541803947858,-0.006638541803947858,0.0,0.8283103320533218,0.755734797450166,0.6052564131398637,1.9053124923577982,1.6353448452851502,,,0.6153451465759925,5.246357627617326,inf,,0.7386498853287485
566,0.6051631391490556,-0.004034420927660371,0.0,0.6618743727437454,0.5475623101569617,0.5866958164219959,3.128192339379186,5.476743250317252,,,0.5567373465730988,5.494061943674132,inf,,0.6401902695679162
567,1.875141078167106,-0.0062504702605570206,0.0,0.6886576292949571,0.6193292424895422,0.6521455100259587,3.0639262358553756,3.200102238013326,,,0.5915533975974677,7.578923552823307,inf,,0.898656344361546
568,3.0627871550858026,-0.030627871550858027,0.0,0.6686463640290741,0.6094551963434548,0.3871527149228962,1.9080165422817994,1.666006089869919,,,0.6008849035917525,6.54775254495073,inf,,0.8243976817351018
569,0.5389965007326869,-0.0017966550024422897,0.0,0.9620917583472837,0.9386698127457452,0.5475254706032936,1.682054256976269,1.2445482466020483,,,0.5915533975974677,6.242778975388888,inf,,0.7429194254443598
570,1.387999652042076,-0.04163998956126228,0.0,0.7869167047873129,0.7463961336143414,0.6888123617781255,2.58884421321114,1.8265171575655095,,,0.6153451465759925,4.692181562977721,inf,,0.6642563539514525
571,1.4316946496665537,-0.06300187710255578,-0.003177499458960894,1.1600248559712354,1.1212917502210533,0.7735617559238595,3.641376606635681,2.531077086530743,1.7276570476112618,0.8271143362793527,0.6447042257417027,4.275067397652358,1.6560339997285332,0.6012662287303591,0.4520624320370265
572,1.3979754574413812,-0.09954743359692224,-0.0029707666154457153,1.2517851440848142,1.2348810711493206,0.767197901598147,4.151407558574891,3.129633178613413,2.933818342547704,,0.6180765742263259,3.7942399697717626,2.801140624168222,inf,0.4644582122609802
573,2.7593434954897607,-0.009197811651632536,0.0,0.9944718735606206,0.8756337354921585,0.7790671729148412,3.325350008667364,8.874709989198326,,,0.6284777104787076,8.463125970145962,inf,,0.8680458626610508
574,0.09719706901411192,-0.0006479804600940794,0.0,0.6118042829019358,0.5946390185167492,0.5195255952372536,3.175139987981318,3.683025828532758,,,0.6207552362147116,5.103116146890421,inf,,0.8498281847200359
575,,0.0,0.0,1.1729601776100813,1.1610406137859355,0.7018428606118083,3.1920686062178034,3.3949584090782507,,,0.6528756675646988,inf,,,0.9124989716339903
576,,0.0,0.0,0.6715749466901451,0.6479234464338849,0.6616689870406943,2.595230921216645,3.3988316127902856,,,0.6125606311107803,inf,,,0.7175663893135397
577,,0.0,0.0,1.0824593025990488,1.0270424678331382,0.7719704240369263,2.6446094872302943,4.259852211600016,,,0.6284777104787076,inf,,,0.8350011917472385
578,1.5639440191063736,-0.05734461403390037,0.0,1.0501458266187491,0.9036718467131841,0.7411141659207697,3.040584540232458,3.3462244781946384,,,0.6509067234006624,4.741881231529994,inf,,0.8597681216773936
579,,0.0,0.0,1.218571357651153,1.2120522788368513,0.6976606784044297,2.000494814731799,2.408447969828002,,,0.6180765742263259,inf,,,0.7513670391213966
580,,0.0,0.0,0.7361296775097997,0.7189031027923403,0.5888378188715837,1.6885351034085183,2.2385099078395374,,,0.6153451465759925,inf,,,0.8132617317290235
581,,0.0,0.0,1.207347074479919,1.1810224936065499,0.7924607262037715,1.5070575649570648,1.7263275157018558,,,0.5604843169999094,inf,,,0.8028230112429008
582,,0.0,0.0,1.572905749343522,1.5135982107746149,0.9198289570530256,1.878581741494502,2.6151360841651474,,,0.4928685327679205,inf,,,0.793686147313197
583,,0.0,0.0,1.2943677909300355,1.2818008712395579,0.9429360812297244,1.8612836544997062,2.1063878107690632,,,0.4732203808476458,inf,,,0.8126899536749669
584,,0.0,0.0,0.845150100961501,0.7886859346767959,0.5899449548457629,2.3544363615722514,3.781117376777763,,,0.5641709578113449,inf,,,0.8180131363864197
585,,0.0,0.0,0.45467735117737645,0.4039109299183028,0.5554726076426396,1.7973973316138103,1.731142724451531,,,0.6403206450210053,inf,,,0.9412222483197412
586,3.506557897319982,-0.011688526324399939,0.0,0.7902234271212965,0.7614812175934024,0.6862644897764429,1.689641147562215,1.8218574673088412,,,0.6008849035917525,9.210340371976182,inf,,0.8878952407935576
587,,0.0,0.0,1.3202697484183297,1.3047945593739474,0.874041117619205,2.0840135602653675,2.2245160307843435,,,0.6097226960127671,inf,,,0.8365211279225072
588,0.38077249551779285,-0.001269241651725976,0.0,0.2205191014544508,0.19945232763200313,0.43221151219497117,2.0000482775215866,2.4719409206770075,,,0.5883313578629602,6.084554970173994,inf,,0.7693131507662038
589,1.4696759700589417,-0.004898919900196472,0.0,0.8108927961570223,0.7379083123096065,0.5266164464090846,2.0897536576291773,2.058973627820982,,,0.6309483474627791,7.173458444715143,inf,,0.5770851242698335
590,0.4102630549448879,-0.0027350870329659193,0.0,0.9803119338233179,0.9325510383989593,0.5324600367926109,1.5660136369060473,1.3169212496506761,,,0.6097226960127671,5.418603532422539,inf,,0.7313112757169932
591,,0.0,0.0,0.31347238570933617,0.30375513279525634,0.4780372652974469,1.3443817301438152,1.6197524417515654,,,0.524519217297268,inf,,,0.7236514941309696
592,,0.0,0.0,1.5665505597044915,1.5509509681239797,0.9090076350420977,1.307012861663581,1.7057980535141295,,,0.5158180382284114,inf,,,0.8282126244124981
593,,0.0,0.0,0.7713652522773313,0.7537679312500983,0.7287797684654352,1.371124576921365,1.4184308878573821,,,0.5158180382284114,inf,,,0.7372509217758904
594,,0.0,0.0,1.1683317540133031,1.1627617326091766,0.8381440129583726,1.6041942309315687,2.2020781791794803,,,0.4880666971167561,inf,,,0.7907094098962011
595,,0.0,0.0,0.9408482591903489,0.911230985007114,0.7011246937355008,1.9212041758770735,2.325732323441624,,,0.5068466436745385,inf,,,0.8738456792713812
596,,0.0,0.0,1.4570482578697628,1.4187123842468952,0.9011746473628868,1.6194475269008877,1.7005652958090887,,,0.5202020156036558,inf,,,0.8133119880194427
597,,0.0,0.0,1.6078245662914188,1.6177136348824612,0.9398641941256988,1.7310197628636703,2.119331557676184,,,0.4732203808476458,inf,,,0.764917405791375
598,,0.0,0.0,0.3034089062470924,0.2748746092624173,0.4986747751995022,1.8472991340617335,2.883441285497174,,,0.5451288209179292,inf,,,0.8578374673483361
599,,0.0,0.0,0.5443248283754367,0.5194711643726849,0.5829632095387332,1.3624547072043505,1.5914421838188875,,,0.6180765742263259,inf,,,0.8834216516137777
600,,0.0,0.0,0.8263258552222649,0.7933866355459115,0.49971916131436317,1.3546141948560813,1.4822250889543627,,,0.5748741956352443,inf,,,0.7980583468204675
601,,0.0,0.0,0.759457569492474,0.7218525532113604,0.5777565144631314,1.521664994737646,1.857126885282159,,,0.6153451465759925,inf,,,0.7361866724448027
602,,0.0,0.0,0.29681302633400447,0.256790730731298,0.3809119878897046,1.0750579469107413,0.805808798164269,,,0.6357360191111145,inf,,,0.5493127640549897
603,,0.0,0.0,0.9342595063990046,0.8917583865578849,0.8258637052594162,0.22449788400617673,0.29527425155533293,,,0.62595550513784,inf,,,0.8317361661670531
604,,0.0,0.0,1.4383088097889942,1.3788432878892816,0.834999794715367,0.1840109107321248,0.27154980217429925,,,0.6180765742263259,inf,,,0.7400298995746027
605,,0.0,0.0,0.5392519731596717,0.4862258172822387,0.609067168392504,0.30106880804840036,0.3619575776100407,,,0.6008849035917525,inf,,,0.882865147183815
606,,0.0,0.0,0.750231817069983,0.7305100239400458,0.6071392975461146,0.2896393048156751,0.3918282158684921,,,0.6468212168108125,inf,,,0.8702854234773292
607,,0.0,0.0,0.838996322352005,0.812993749312585,0.754091098027283,0.3054968592202141,0.36740729126349975,,,0.6333676938231112,inf,,,0.8360863674397297
608,,0.0,0.0,1.2497194405827523,1.2193085012213043,0.8279137282665048,0.3013767070705929,0.4140644911382768,,,0.6125606311107803,inf,,,0.8248774224448054
609,,0.0,0.0,0.7867915608662414,0.7492326689437336,0.7863915709845637,0.37023250123078155,0.49035237655772906,,,0.6038851895711802,inf,,,0.8187412690566254
610,,0.0,0.0,0.9169097027526291,0.8973710464970678,0.8508886868563083,0.3784036595007583,0.5264372138503215,,,0.5915533975974677,inf,,,0.8479889880284214
611,,0.0,0.0,0.2479229545603823,0.2029521249868139,0.1863888383057554,0.48533906365464846,0.4751758363730167,,,0.6333676938231112,inf,,,0.6596093083588982
612,,0.0,0.0,0.21741154249979316,0.17418033258882926,0.5065778455283423,1.6189249714192964,2.250243378260441,,,0.6038851895711802,inf,,,0.8485329887345532
613,,0.0,0.0,0.8364802576657869,0.8220715598911892,0.6327153023433436,1.6703654330822009,2.3492289741965537,,,0.5883313578629602,inf,,,0.8265367986048384
614,,0.0,0.0,1.5419177282726004,1.5122501169670024,0.8830796303294036,1.447795305574626,1.795169910108177,,,0.6038851895711802,inf,,,0.735546721395511
615,1.9425823589626385,-0.006475274529875462,0.0,0.7456477373388647,0.6865095903278488,0.4911453156540684,1.7188760589041465,2.2122899989748506,,,0.62595550513784,7.64636483361884,inf,,0.8843743220953448
616,,0.0,0.0,0.9485077289615131,0.937006573929102,0.8121757779777137,1.5027821498776952,1.8239775411788381,,,0.6038851895711802,inf,,,0.7664353887844912
617,,0.0,0.0,1.227855382847709,1.1948126734963462,0.7304852631760198,1.6237029752124865,2.290699489911976,,,0.5978297680564633,inf,,,0.7566214913102803
618,,0.0,0.0,0.8647194165254677,0.8498859964189479,0.6846688601545237,1.7104295039527277,2.329496369735063,,,0.6207552362147116,inf,,,0.7913331920242076
619,,0.0,0.0,0.31084702462423275,0.2759425234516808,0.42292706910556266,1.484761929107969,1.4127466297667983,,,0.6602640781246099,inf,,,0.6813546081940688
620,,0.0,0.0,0.8473318618836949,0.8116366232053118,0.6687248737826104,1.3505172889997428,1.7859390969450006,,,0.6380535849069913,inf,,,0.8584518650852837
621,,0.0,0.0,0.2554429354324269,0.23700572471459455,0.5481654105238541,1.179370987797431,1.46894492629253,,,0.6403206450210053,inf,,,0.8781952584229321
622,,0.0,0.0,0.7297580546254077,0.6742602485536179,0.6698145597516452,1.4779525749204812,1.5344295408462778,,,0.6357360191111145,inf,,,0.9108113062467104
623,,0.0,0.0,1.40170662692882,1.3982073481602197,0.8479965133793218,1.4224224939229813,1.516484713212506,,,0.6125606311107803,inf,,,0.8226209199287398
