,hr+bvp_XAp0,hr+bvp_XAp1,hr+bvp_XAp2,hr+bvp_XCond1,hr+bvp_XCond2,hr+bvp_XDist,hr+bvp_XFuzz1,hr+bvp_XFuzz2,hr+bvp_XK2_1,hr+bvp_XK2_2,hr+bvp_XPermEn,hr+bvp_XSamp0,hr+bvp_XSamp1,hr+bvp_XSamp2,hr+bvp_XSpec
0,,0.0,0.0,1.5544150520727882,1.4966860067758645,0.8279364969994474,2.1009632221817913,1.076371764079612,,,0.6740851607140061,inf,,,0.8815943160691806
1,,0.0,0.0,0.6579481484603741,0.6294799338305229,0.6611132602355091,2.6129206153880618,1.5403151797974166,,,0.6822068148872973,inf,,,0.9498449878975529
2,,0.0,0.0,1.2089470190889602,1.1924675380503307,0.63477068495527,2.603260043127198,2.3624633819364576,,,0.684994737851132,inf,,,0.9081372287684117
3,,0.0,0.0,1.4061932342117056,1.3844591844115,0.6901588637557173,2.5340356231523993,1.1620185431243115,,,0.6887264468386587,inf,,,0.8437143038401619
4,,0.0,0.0,0.7829764557239762,0.7732580707466509,0.47948083017926796,2.5416708717826952,3.5044368654531177,,,0.6923361870099347,inf,,,0.9320464394455488
5,,0.0,0.0,1.3290739096541944,1.3182984559014301,0.7054027818728577,2.5470617608193775,3.777418463898457,,,0.6713451011121618,inf,,,0.8914057879534532
6,,0.0,0.0,0.5279962607213665,0.5064695171491008,0.6902596892015532,2.3201678965377415,2.8458997975954756,,,0.6668815377411301,inf,,,0.9051508902947267
7,2.0149030205422647,-0.006716343401807549,0.0,0.7267163858275772,0.7136044450804783,0.6046385826262138,1.8861122957668193,1.437277343920659,,,0.6602640781246099,7.718685495198466,inf,,0.6526933573459458
8,,0.0,0.0,0.9123137594665733,0.7956194011913672,0.7039196271554898,2.1620188035512005,1.6048227533436452,,,0.6619902821573977,inf,,,0.9167179204469446
9,,0.0,0.0,1.3085959353806624,1.3117824303155603,0.7678314684513541,2.554223906907678,2.5417433706554107,,,0.6528756675646988,inf,,,0.8983348763528695
10,,0.0,0.0,0.9563031663000249,0.937860495990241,0.6675598708639128,2.2542160330045236,2.0620653124551884,,,0.675384900321601,inf,,,0.9356654117135748
11,,0.0,0.0,0.7921322911912247,0.7204475024299075,0.5491499025766372,2.060016764660505,1.8071564986493778,,,0.6778444222523095,inf,,,0.9055411096470672
12,,0.0,0.0,0.9375381572555157,0.9278680516542536,0.7526941630944309,2.018316569251411,1.5962284650653538,,,0.6468212168108125,inf,,,0.7984817903188101
13,,0.0,0.0,0.9276569529181994,0.9270008701402996,0.7467822403502261,2.6774503625599793,1.9812887035940006,,,0.6447042257417027,inf,,,0.947703843150858
14,,0.0,0.0,0.7692787546001436,0.7381333882947998,0.7005609431446961,2.1163627894422654,1.2330841391160012,,,0.6509067234006624,inf,,,0.9533494763489933
15,0.7201758529478646,-0.002400586176492882,0.0,0.28922259120732874,0.23407771923024048,0.44139910383651754,2.993772943114016,2.0737249261704216,,,0.6668815377411301,6.4239583276040655,inf,,0.6383920741736465
16,,0.0,0.0,1.2099686382024197,1.1917934276532793,0.7597069711757577,2.899257892814732,2.9675913735537782,,,0.6740851607140061,inf,,,0.9333933170235801
17,,0.0,0.0,1.1912765321582508,1.108616740055611,0.7296527945498454,2.6299973415870226,3.606945610845045,,,0.6668815377411301,inf,,,0.9242844221219221
18,,0.0,0.0,1.2745884811656818,1.280397747112429,0.8146871659357591,2.8006243465781773,2.7707793463726387,,,0.6602640781246099,inf,,,0.9444858550329174
19,1.8857370165703817,-0.02514316022093842,0.0,0.6867477240652439,0.619460647001024,0.8297542510742307,1.8950440575500493,1.465452897193523,,,0.6699045166045591,6.124361220574413,inf,,0.70288093762262
20,,0.0,0.0,1.4021568864096714,1.3518250224276198,0.8362624143374034,2.662392482768182,1.628267135266555,,,0.663668482632973,inf,,,0.8884162597910813
21,,0.0,0.0,0.9867440836408322,0.927999157733723,0.7153428541953339,2.4319552634443493,1.9975440788034677,,,0.6380535849069913,inf,,,0.9493377181187004
22,,0.0,0.0,1.274523920155543,1.253542895410052,0.8300856289056538,1.7960967923909243,1.5167647409352771,,,0.6619902821573977,inf,,,0.9296573086060455
23,,0.0,0.0,1.5402927463755365,1.50944069419109,0.8841282934273471,1.75748391185206,1.587792211534838,,,0.6668815377411301,inf,,,0.8971257108309413
24,,0.0,0.0,0.7320120004338513,0.711389423772786,0.6597513878203396,1.9329717793895862,2.5291593570503657,,,0.6841113288387766,inf,,,0.9549926668998415
25,,0.0,0.0,0.6457925072928422,0.5870203729475079,0.6696058082800863,2.1384148104787557,1.793697473733169,,,0.6866242695638369,inf,,,0.9447986196032784
26,,0.0,0.0,1.2269423233668626,1.1924593541033244,0.7834610446592772,2.9987579781666325,3.2881282925187243,,,0.6740851607140061,inf,,,0.9313599315640321
27,,0.0,0.0,1.2132058036139817,1.200454668065323,0.7132026443406771,3.4067333825259913,17.281113299456006,,,0.6584896970785714,inf,,,0.8784244575613412
28,,0.0,0.0,1.0682739907148557,0.994025494298069,0.8022135453941022,2.8605966844191872,3.066674062231522,,,0.6619902821573977,inf,,,0.9351410990171306
29,,0.0,0.0,0.608302472960215,0.5453277465718097,0.6038951898134639,2.5735019646511774,5.074943198391081,,,0.6528756675646988,inf,,,0.9371280396361505
30,,0.0,0.0,0.8460444848455664,0.7986983254269999,0.6118453801138981,2.3931270505324176,5.422202323662222,,,0.6566669596287297,inf,,,0.9271858207209822
31,,0.0,0.0,0.42963313105546985,0.34610015891401297,0.5080475676923232,2.3274423487086,3.5210774946886043,,,0.675384900321601,inf,,,0.9467195575662772
32,,0.0,0.0,1.7307092074197605,1.6848925763350164,0.9285832645936911,2.9175144954789443,3.882012087275005,,,0.6333676938231112,inf,,,0.8813140437860736
33,,0.0,0.0,0.6397048129658913,0.5712031065533646,0.6405191039196027,2.619668108518915,2.888155321886846,,,0.6619902821573977,inf,,,0.7391511516843537
34,,0.0,0.0,0.8913746229947078,0.7974585801714065,0.8126597053000307,2.7143687708108515,2.1984196305512596,,,0.6403206450210053,inf,,,0.9578423168142991
35,,0.0,0.0,1.180447877016019,1.120259196324202,0.8536952818414922,2.63788675865083,1.5460352246491995,,,0.6727386042041725,inf,,,0.9490642009218616
36,,0.0,0.0,0.7000030063434904,0.6724352733356557,0.702342817066872,2.036192819783693,1.8588107732150476,,,0.6822068148872973,inf,,,0.7874945327695848
37,,0.0,0.0,0.8784139036266814,0.815796606742044,0.7433553845554006,2.2844978020813222,1.8062262953476593,,,0.6602640781246099,inf,,,0.9525440588823535
38,,0.0,0.0,1.0659101641627093,1.0251210282807586,0.7901209201160756,2.067975029742325,1.549663338314884,,,0.6740851607140061,inf,,,0.9464595468375946
39,,0.0,0.0,1.1804187099001187,1.159395483269338,0.7547957201961247,2.484276885136997,2.6823955106019186,,,0.675384900321601,inf,,,0.950779252828728
40,,0.0,0.0,0.7818471789463859,0.7448311539498228,0.6594075203224626,2.8727200433725564,2.6205641408372014,,,0.676637947632344,inf,,,0.9404346746633004
41,,0.0,0.0,1.1552394192204218,1.1386757948235617,0.7887764117722807,2.5815644021357587,3.412284062723373,,,0.6547956803312163,inf,,,0.9462330787965965
42,,0.0,0.0,0.951604761726292,0.917045904457553,0.726742177716695,2.940057304178221,3.7219133387520875,,,0.6740851607140061,inf,,,0.9348574383752994
43,,0.0,0.0,1.0195672910290148,0.9850937789378725,0.668858160580178,3.30479527072472,3.206418305471424,,,0.675384900321601,inf,,,0.9466701302238569
44,,0.0,0.0,0.753060411467315,0.7232328559843235,0.6655951250473765,3.4353820927145167,4.740354943037863,,,0.6811855325194978,inf,,,0.9485379211680064
45,,0.0,0.0,0.7079927891635123,0.6827049505495355,0.6750126817820349,2.820255124702889,4.1480173807581515,,,0.6790044388599258,inf,,,0.6834376519957756
46,,0.0,0.0,0.7231347820180155,0.6834755667267175,0.6685928781565348,2.5750313264043343,2.301899615469045,,,0.6528756675646988,inf,,,0.6356553366046531
47,,0.0,0.0,1.0880240720838197,1.0619245562379342,0.6480917939900706,2.6428356679369496,2.0311377979270495,,,0.676637947632344,inf,,,0.7429923084236598
48,,0.0,0.0,0.4318182262866686,0.3878066107249897,0.38202851658627357,3.134735855125999,3.3828396229070097,,,0.680118107274185,inf,,,0.599748868426065
49,0.7765287894989963,-0.0025884292983299876,0.0,0.8797044045803954,0.8161301700900054,0.6137542024250298,3.3755562348058676,3.239438126462606,,,0.6602640781246099,6.480311264155198,inf,,0.8675485384988227
50,,0.0,0.0,0.7607495949530835,0.6472782413904437,0.6610267652455339,2.685821831458746,2.2645069773949187,,,0.6403206450210053,inf,,,0.9084324406236852
51,,0.0,0.0,1.129573281668059,1.0862299993047844,0.7911640463418462,2.8984489197232137,3.15723518067689,,,0.6380535849069913,inf,,,0.9230528756624384
52,,0.0,0.0,0.8839258312504193,0.8249451151230389,0.6977207399183308,2.601888343937409,2.304114898905356,,,0.6584896970785714,inf,,,0.8605097449496041
53,,0.0,0.0,0.9465423443604447,0.9315632939160194,0.6870789192569904,2.4427994113430462,1.7513422903755878,,,0.6584896970785714,inf,,,0.7447852438442609
54,,0.0,0.0,1.0498685311799019,1.0458824224424705,0.7769291381535325,3.0832270106563326,2.2551069449735386,,,0.6584896970785714,inf,,,0.8175291440189559
55,,0.0,0.0,1.127887815835992,1.0897087492651898,0.7924250543380541,2.7769291720727707,3.1697854133197576,,,0.675384900321601,inf,,,0.9285609385766397
56,,0.0,0.0,1.3019220946795136,1.2393949628002372,0.7745894599691454,2.935016633990868,3.3383051945729467,,,0.6713451011121618,inf,,,0.9337999354316402
57,,0.0,0.0,1.6470766472863128,1.6142107535186818,0.8193860802388823,3.568935130252497,2.775677391899921,,,0.6866242695638369,inf,,,0.9062213858341817
58,,0.0,0.0,1.0746894893024448,1.0493165941021645,0.7327882962922093,2.9050391826913313,2.9589659804141903,,,0.6790044388599258,inf,,,0.9469438074982045
59,,0.0,0.0,0.7656475826054466,0.731525194182098,0.6375011578447141,3.1507607409471015,3.0906739006351693,,,0.6619902821573977,inf,,,0.7165453182419752
60,,0.0,0.0,0.8445859391134387,0.8151448102721935,0.5279941403970517,2.9064079387482447,3.0739218160971125,,,0.6668815377411301,inf,,,0.9515439000595454
61,,0.0,0.0,0.6105644152735883,0.5917492835723598,0.5749526711341246,2.784639461502638,4.508706594634058,,,0.6699045166045591,inf,,,0.930897878185559
62,,0.0,0.0,0.8637881552971478,0.8441664727572443,0.5399057889237117,3.294768545828292,3.7295821494848425,,,0.68318204999448,inf,,,0.8534953143549773
63,,0.0,0.0,1.0105650962668966,0.9476725490995201,0.7662717564364462,2.2708457063515337,1.545379642890913,,,0.6684167106117298,inf,,,0.9340260629751562
64,,0.0,0.0,0.9549117759942692,0.9539989771646542,0.6515587885500621,2.1961891003578127,2.0484457785908377,,,0.6713451011121618,inf,,,0.9336843154969173
65,,0.0,0.0,0.8965964067460386,0.8795350398857512,0.7766340784914681,2.049116254545836,1.954026954365916,,,0.6727386042041725,inf,,,0.9348229862289994
66,,0.0,0.0,0.9896128231268768,0.9491431261086871,0.7768634971092162,2.588463073936015,3.269019885065389,,,0.6841113288387766,inf,,,0.9465344561416126
67,,0.0,0.0,0.5867138593802559,0.514424424722117,0.6214075253910197,2.349813752863918,2.7215910425228915,,,0.6403206450210053,inf,,,0.9553432691377692
68,,0.0,0.0,0.776321517626538,0.7435171049653427,0.6470877636445967,2.155522384201317,1.9924162902247082,,,0.6566669596287297,inf,,,0.949799878288517
69,,0.0,0.0,0.8829761644392528,0.8652190700688202,0.7607776290398495,3.073749883437431,4.089245981013709,,,0.6468212168108125,inf,,,0.9489270392575905
70,,0.0,0.0,0.926331938214651,0.9144930170266161,0.6648317335302949,2.3624234810009277,2.158659648251756,,,0.6547956803312163,inf,,,0.931633435119734
71,,0.0,0.0,1.460069369766103,1.4344163092626077,0.8200626161458465,2.547335824054222,2.9670666945454984,,,0.6403206450210053,inf,,,0.8728957538761166
72,,0.0,0.0,0.9238266109644672,0.8940367116929514,0.7094812105634467,2.308314698113225,2.324410601537187,,,0.648888643467878,inf,,,0.9360187055758089
73,,0.0,0.0,0.924907960724478,0.911263540092223,0.7174249319613686,2.1981014766700793,2.425418742192483,,,0.6547956803312163,inf,,,0.8971853909756107
74,,0.0,0.0,1.1558131538909286,1.1291824669364654,0.7467258517767772,2.4266816740202253,2.519296108786579,,,0.6602640781246099,inf,,,0.911126825144981
75,,0.0,0.0,1.0416789352097935,1.0074230851778436,0.7552215377125597,2.619892430002196,4.027439234912533,,,0.6699045166045591,inf,,,0.9340535934454369
76,,0.0,0.0,0.8162802771785382,0.7736650728920146,0.8107209776337488,1.5425927143322284,0.8931593143193839,,,0.6713451011121618,inf,,,0.9365251080324739
77,,0.0,0.0,0.4406373799508156,0.406192698429876,0.5945651066045572,1.5499333175880843,1.042363248313626,,,0.648888643467878,inf,,,0.9471484850977355
78,,0.0,0.0,1.0150610121163754,0.988805659718479,0.733509116590428,2.5417821704974406,3.016207899603952,,,0.6447042257417027,inf,,,0.9454378104367528
79,,0.0,0.0,0.9895106041934729,0.9517182497402235,0.7114593684795856,2.649262560506346,3.0118451564754496,,,0.6566669596287297,inf,,,0.9348300659467408
80,,0.0,0.0,1.0167924942395001,0.9621180637157581,0.7801648240122624,1.8991175856052356,1.2074234645410509,,,0.6668815377411301,inf,,,0.9266447992784587
81,,0.0,0.0,0.5905018133825495,0.5325199431269184,0.6446291041717305,1.9489052840683256,1.8619631496650793,,,0.6778444222523095,inf,,,0.9152605982604918
82,,0.0,0.0,0.925391432897274,0.8966638385544274,0.7054283945084734,1.732480162225612,2.6558857963639633,,,0.6357360191111145,inf,,,0.934129467967091
83,,0.0,0.0,1.3776680274072455,1.3750624598144114,0.8145440825922523,1.6398884250654497,2.3288164134098457,,,0.6602640781246099,inf,,,0.8891406132814705
84,,0.0,0.0,0.4652938329448471,0.4469002489297477,0.6289355790223417,1.9137542260208682,1.9366736677479564,,,0.6652988471865258,inf,,,0.9561553099684635
85,,0.0,0.0,0.7050420342400686,0.6329325267845967,0.7497549133691273,2.1176862006289237,1.9064134200069796,,,0.6858323589451731,inf,,,0.9542304737561385
86,,0.0,0.0,1.0060101249771665,0.9702825160537861,0.6554502395051874,2.243310829289016,2.077897822936561,,,0.6893362020498699,inf,,,0.955101631612152
87,,0.0,0.0,1.152198995787138,1.0727908427284965,0.7552014044166837,2.247425418389339,1.422698873422219,,,0.6822068148872973,inf,,,0.9367166149801522
88,,0.0,0.0,0.8459793471895015,0.7842496836649868,0.7011354794704641,2.1998933800025777,1.7521255600677552,,,0.6740851607140061,inf,,,0.9536857959463769
89,,0.0,0.0,0.9468803996060159,0.9223922084943555,0.6556236411431823,2.438479940357697,2.079025572436142,,,0.6841113288387766,inf,,,0.8976185784873862
90,,0.0,0.0,1.1131615272583528,1.08386121562702,0.7106058143511733,2.5387439858600303,2.7065675777330904,,,0.6822068148872973,inf,,,0.8530040076244062
91,,0.0,0.0,1.6593031675725762,1.6437689653573868,0.9008431822227824,2.5692035404107947,10.700656121815072,,,0.6566669596287297,inf,,,0.8809778669652291
92,,0.0,0.0,1.1995592844529612,1.1812362956359896,0.789284152048872,2.5206734865881875,4.120918324441512,,,0.6584896970785714,inf,,,0.9197438726223135
93,,0.0,0.0,1.540054105957493,1.5163975192159356,0.8424683379252148,2.499040747031991,3.2821263120417896,,,0.6727386042041725,inf,,,0.919259849303639
94,,0.0,0.0,1.3595533098829002,1.3277033259571345,0.7375747895966356,2.718856607903102,5.309619667540165,,,0.6652988471865258,inf,,,0.9088042438061719
95,,0.0,0.0,1.2048847040091326,1.1944780976993408,0.8589952910673568,2.3091494876839356,2.170148876167294,,,0.6447042257417027,inf,,,0.9117766826001193
96,,0.0,0.0,1.2291531899223382,1.1960669183073027,0.8418472632132215,2.3245053877424615,2.4124025116835037,,,0.6468212168108125,inf,,,0.9306767296655505
97,,0.0,0.0,1.072474001390794,1.0587785824038578,0.818352345453542,2.5145894830468962,2.6771255820741695,,,0.6684167106117298,inf,,,0.9256752717429801
98,,0.0,0.0,1.4433105344841073,1.405616502074224,0.8424894701784803,2.6559839352712897,2.8222239346471683,,,0.6584896970785714,inf,,,0.9250294657034274
99,,0.0,0.0,1.3436826469235341,1.339340430416373,0.7773708283003387,2.830743156064292,3.158213161605315,,,0.663668482632973,inf,,,0.8639724704326175
100,,0.0,0.0,1.7254194863957935,1.6981580185164036,0.8573034914044685,3.1010376410244778,5.035870589207638,,,0.6602640781246099,inf,,,0.8962193042157167
101,,0.0,0.0,1.2953027449418717,1.2854593263444265,0.7749321249501613,2.508960249820298,2.5012911329309557,,,0.6740851607140061,inf,,,0.8915872312529113
102,,0.0,0.0,1.1089647327792658,1.0925617778831924,0.7421192467801835,2.8369013460662096,2.3804108391722996,,,0.6652988471865258,inf,,,0.912739083855797
103,2.1296538285223234,-0.021296538285223234,0.0,0.86473081750594,0.7421053549132637,0.723869881537238,2.9445697018787365,2.571971329467678,,,0.6668815377411301,6.716217067083258,inf,,0.7060942435356573
104,,0.0,0.0,0.47405747098288004,0.4478721375688728,0.7881541755779197,2.564132502476824,1.9859517796779111,,,0.6547956803312163,inf,,,0.7550608165486968
105,,0.0,0.0,0.4644173917677582,0.4349116308080272,0.4610883023816046,2.881544140315755,3.614876880311524,,,0.6528756675646988,inf,,,0.7160295614736408
106,,0.0,0.0,0.6898140608633523,0.643593233376588,0.5615854689501565,2.619098297567862,6.223212985128081,,,0.6447042257417027,inf,,,0.9441122845188225
107,,0.0,0.0,0.4285169543139962,0.3662482330129009,0.5354872814931535,2.8085775825578385,4.401770356875692,,,0.6380535849069913,inf,,,0.926688376675574
108,,0.0,0.0,0.6808253811225384,0.6509649618661901,0.6204799614509692,2.800002553960688,3.1024221802439054,,,0.6468212168108125,inf,,,0.7277181881014889
109,,0.0,0.0,0.9000829899813494,0.8833709450847225,0.4689986460982007,2.8001663156447045,1.3722002799534132,,,0.6811855325194978,inf,,,0.9442635962932885
110,,0.0,0.0,1.236456200588514,1.20143238873126,0.7900199254322607,2.634863047187978,3.2640455828951698,,,0.6684167106117298,inf,,,0.9413019023263607
111,,0.0,0.0,0.9023459578558185,0.8280567652784984,0.8434179667414254,2.140305060598504,2.490311886592932,,,0.6668815377411301,inf,,,0.9534498434669273
112,,0.0,0.0,0.9856426064692886,0.9481108033528597,0.7023159195602675,2.3839579801238875,2.565932803395138,,,0.6528756675646988,inf,,,0.9407158489269793
113,,0.0,0.0,1.3928694063388491,1.378393070723425,0.7299485714496218,2.3376275083529614,3.2589454977212293,,,0.6619902821573977,inf,,,0.929381027665277
114,,0.0,0.0,1.625424247017071,1.6065254217352742,0.8859411091611199,2.337570434812449,4.570061106323525,,,0.6699045166045591,inf,,,0.9240741094475642
115,,0.0,0.0,1.632757102316673,1.615257398733019,0.8974049760566456,2.535195107036479,5.645061500076825,,,0.62595550513784,inf,,,0.8904484333955118
116,,0.0,0.0,1.4951805389899582,1.4448433620479006,0.8611287935054646,2.502279799962854,3.2504442283537207,,,0.6403206450210053,inf,,,0.8804631041603088
117,,0.0,0.0,1.475042713441298,1.448630115930838,0.8268367923131174,2.6942717736669497,3.7133881188009106,,,0.6380535849069913,inf,,,0.9082457601710701
118,,0.0,0.0,1.2673488496271141,1.2540378613871563,0.813724232456441,2.932025939842686,4.763610531706512,,,0.6528756675646988,inf,,,0.9032915893117618
119,,0.0,0.0,1.3214341568802366,1.3239122284333704,0.8539566710067976,2.302454467399639,3.841039911365177,,,0.6547956803312163,inf,,,0.9078199552785624
120,,0.0,0.0,1.0845738483486327,1.0648773847279718,0.69319320079433,2.337439091729482,2.65749311522889,,,0.6425374456860184,inf,,,0.9233826054246915
121,,0.0,0.0,1.3930030583253574,1.387010048326557,0.8602014265732187,2.376173720312985,6.420701154198277,,,0.6125606311107803,inf,,,0.9027441406527412
122,,0.0,0.0,1.3979533432984839,1.3806786573870005,0.8472912616273095,2.684519002740302,6.177357610865865,,,0.6447042257417027,inf,,,0.9079706680347653
123,,0.0,0.0,0.6758351894650018,0.6275637655417299,0.6599568903623192,2.624892247095525,1.9791601693322876,,,0.6547956803312163,inf,,,0.9139186569598147
124,1.4411025976148857,-0.004803675325382953,0.0,0.6131461670328074,0.525805235216578,0.6968306329895321,2.837279908942126,2.7575000305435546,,,0.6068309995095971,7.144885072271086,inf,,0.9257124396482264
125,,0.0,0.0,1.047879630919937,1.016682286858697,0.7017628050083166,2.51639743790016,2.28573901768145,,,0.5604843169999094,inf,,,0.8995087052821188
126,,0.0,0.0,0.928943445907699,0.9078782276906152,0.7373894515013486,2.635379828839473,3.3205374506302374,,,0.5451288209179292,inf,,,0.9085192253980314
127,,0.0,0.0,1.7471742794089906,1.7107180948627037,0.9122240241587881,2.616146250617441,3.0350763271891,,,0.5883313578629602,inf,,,0.8814098157482099
128,,0.0,0.0,1.7600432725309516,1.7511039834438613,0.9486840402216846,2.459975781811276,3.057192005942619,,,0.5490601803369085,inf,,,0.8903260005760992
129,,0.0,0.0,1.1537099641226514,1.130124140786724,0.7884927490190894,2.912705160218659,4.379523912133784,,,0.6380535849069913,inf,,,0.9293415236980483
130,,0.0,0.0,0.919876812730086,0.9142597780913249,0.7206264668434313,2.55720074747065,2.730515939683972,,,0.5748741956352443,inf,,,0.9248865496945687
131,,0.0,0.0,1.5900881747483882,1.5529193398961976,0.9154830438460686,2.0872959525528767,2.7059683951383553,,,0.5604843169999094,inf,,,0.9289752172593496
132,,0.0,0.0,1.6990942363688142,1.6650641426842583,0.9212031909831284,1.7881277391463324,1.9178523863358667,,,0.5567373465730988,inf,,,0.9168355051964509
133,,0.0,0.0,1.7097929710453252,1.6914367040608884,0.920349024038751,1.8212535469623126,2.189702676265231,,,0.5329562494928909,inf,,,0.9229736976229708
134,,0.0,0.0,1.6789665353805703,1.6336543832412682,0.9101236042324814,1.6140880729224922,1.569289350374037,,,0.5748741956352443,inf,,,0.9242047637812703
135,,0.0,0.0,1.6657645699685713,1.6469893606440291,0.9198710226908762,1.618785362755612,1.6894318617801842,,,0.5370774965580548,inf,,,0.9155160857372349
136,,0.0,0.0,1.6299868366648007,1.607871249315223,0.8830402836153016,1.6721672442880187,1.5216824345538058,,,0.6068309995095971,inf,,,0.9180826837363297
137,,0.0,0.0,1.4012319242184574,1.3530311472681888,0.8629469277560737,1.7574426659839817,1.574860844069539,,,0.6284777104787076,inf,,,0.9129328370756892
138,,0.0,0.0,1.6266117476390771,1.5981595945131857,0.8915988154181075,1.663390468497645,1.6029629470983542,,,0.6233814453054027,inf,,,0.9075103188066491
139,,0.0,0.0,0.6036353005934564,0.600434348341366,0.6937855969306356,2.2640372310385644,2.159066797118999,,,0.585052858160615,inf,,,0.9468506506298258
140,,0.0,0.0,1.719721446447297,1.6978647487054703,0.9019793047730741,2.337699104142354,2.673730572531594,,,0.6097226960127671,inf,,,0.9319087569328537
141,,0.0,0.0,1.7401219123811082,1.7335253129527528,0.9387889826873023,2.1725280819303823,2.1267694447089998,,,0.5783247308855777,inf,,,0.9024731613944674
142,,0.0,0.0,1.743537996788149,1.7139278269348985,0.9330891657357612,2.2913446126502186,2.5545326860600643,,,0.5915533975974677,inf,,,0.8946994026329399
143,,0.0,0.0,0.7198220676581476,0.6994771773781352,0.6604272964777459,2.086370963961073,2.2319252153292752,,,0.5783247308855777,inf,,,0.9006845942411289
144,,0.0,0.0,1.7470695630348536,1.7210402210495734,0.9384621418769042,2.07859190642891,2.952812420303838,,,0.5677978065141052,inf,,,0.9058830680425384
145,,0.0,0.0,1.6829443127603896,1.656617081434858,0.9116029768503042,1.9254634523330667,2.3314108274939773,,,0.5158180382284114,inf,,,0.898630630877661
146,,0.0,0.0,1.7079337979519917,1.6675167095049994,0.9289468096274099,1.654313995211336,2.038589759540197,,,0.44144624493110796,inf,,,0.9067565001037119
147,,0.0,0.0,1.6656001912114677,1.6539136656833884,0.9216891000990177,1.435312455193985,1.9276777204416051,,,0.4629450596409901,inf,,,0.8576950879999168
148,,0.0,0.0,1.708312803148226,1.6735178701595326,0.9218037735133402,1.598102890136433,1.7481999245911555,,,0.5113665138247345,inf,,,0.8611381804106033
149,,0.0,0.0,1.7091861444632728,1.7088452035417536,0.9312610386565641,1.5760430377812646,2.057023619303316,,,0.49759852643134905,inf,,,0.8950988809303867
150,,0.0,0.0,1.6946426616386947,1.6496507981282194,0.9514944923989014,1.8415080620700446,2.1008197444695913,,,0.5490601803369085,inf,,,0.9006501976025751
151,,0.0,0.0,1.7535400082671364,1.7206692891226802,0.9266003373299211,1.894407607040877,2.458576572891789,,,0.5783247308855777,inf,,,0.9018788040230942
152,,0.0,0.0,1.0576262505022196,1.0554429131868712,0.8106433204748573,1.3884329239954278,1.5312516218410408,,,0.5490601803369085,inf,,,0.9203108007426906
153,,0.0,0.0,1.6514427640271552,1.6062194938691168,0.8925324198322151,1.0468619353393918,1.1756821660071615,,,0.49759852643134905,inf,,,0.8715875559964839
154,,0.0,0.0,1.4274929616590486,1.3823434206952385,0.9069103465982701,0.7654074141434171,0.7993405549381025,,,0.5451288209179292,inf,,,0.8840155642722967
155,,0.0,0.0,1.5080621846445612,1.4789515271215308,0.878268853464328,1.2674823049791786,1.1191652141060027,,,0.5451288209179292,inf,,,0.912626881946193
156,,0.0,0.0,0.6987862714233494,0.6756127448485747,0.5237922499359414,0.9933172996977476,1.0487942284356488,,,0.5370774965580548,inf,,,0.9192647216759229
157,,0.0,0.0,0.5455710495860266,0.4912258933195667,0.5452594530916316,1.2937247293266467,1.353146464257248,,,0.5158180382284114,inf,,,0.8970396888064104
158,,0.0,0.0,1.5213935221071737,1.5261159381689426,0.8540015857213473,1.1151156626044527,1.30123531203614,,,0.5677978065141052,inf,,,0.8430859995363754
159,,0.0,0.0,1.587730916572034,1.5942639349457146,0.8839241408632508,1.2718420961520158,1.3663989233943605,,,0.5604843169999094,inf,,,0.8567311840472154
160,,0.0,0.0,1.6392890101373212,1.6148595701465822,0.9151326503133563,1.4220710938989436,1.559259898424356,,,0.4928685327679205,inf,,,0.8667913758179288
161,,0.0,0.0,1.6421613439188407,1.6166760484575642,0.937748569197496,1.3308078701520591,1.5088022110693478,,,0.5113665138247345,inf,,,0.8762971232599839
162,,0.0,0.0,1.6228645012549756,1.6147127799331338,0.914787952577186,1.6580203327291605,1.8955872215878296,,,0.48319206230712763,inf,,,0.9027368862772023
163,,0.0,0.0,1.5131266675760802,1.5015983405605222,0.8909353356938954,1.4339642360091756,1.7171921222355822,,,0.5287703885177266,inf,,,0.8743773588782152
164,,0.0,0.0,1.644932751308351,1.6199904157002538,0.9346158797993387,1.4292932865625891,1.659488713805336,,,0.4928685327679205,inf,,,0.8732637470391654
165,,0.0,0.0,0.8862430788927097,0.8770477905570104,0.7349942413626512,1.307696411662375,1.3813360185942274,,,0.5604843169999094,inf,,,0.9137650127525018
166,,0.0,0.0,1.6116208536256487,1.576728115674291,0.8959853446193085,1.4073399268113134,1.3486083559346325,,,0.541134803179459,inf,,,0.8992941348653885
167,,0.0,0.0,1.5358986445121132,1.516512338521205,0.9024872658604197,1.6314784061487344,1.7690863172020475,,,0.5113665138247345,inf,,,0.8722977307639811
168,,0.0,0.0,1.6439979422462807,1.6063310774863986,0.9226253502553666,1.6432512884882509,1.867565488106982,,,0.5022576003740722,inf,,,0.8964932775739763
169,,0.0,0.0,1.1024627942543994,1.0796346701098847,0.7914522520240649,1.544373529739989,1.2514878115716581,,,0.5202020156036558,inf,,,0.8283516865178386
170,,0.0,0.0,1.0946321223489224,1.0750445995950564,0.8486100882445115,1.4644432655857818,1.3596445181188828,,,0.49759852643134905,inf,,,0.8314534535184909
171,,0.0,0.0,0.8178812976579698,0.8067471408788786,0.8026594296012568,1.4733364976709178,1.6374723810390712,,,0.5329562494928909,inf,,,0.9176480509840251
172,,0.0,0.0,1.5590839255161208,1.5464470780077852,0.8872840275668751,1.190707976873163,1.158605588046921,,,0.4928685327679205,inf,,,0.8879382444303157
173,,0.0,0.0,1.2343851265418635,1.1786073095689806,0.8782710085656267,1.1170255938098541,1.2786918357698105,,,0.5329562494928909,inf,,,0.8668520723708122
174,,0.0,0.0,0.7986282461027493,0.7564212514155854,0.7468431460110635,1.2629250132564676,1.6319605790688012,,,0.6008849035917525,inf,,,0.856407064399634
175,,0.0,0.0,1.3910590408513834,1.3473518124062127,0.8790350929086719,1.162082468971062,1.416969008903889,,,0.552929491858785,inf,,,0.8579243441009397
176,,0.0,0.0,1.4672633319772403,1.442902889939297,0.9046608432486136,1.3736786617353844,1.4889172418669328,,,0.5604843169999094,inf,,,0.8541325630816657
177,,0.0,0.0,1.624645728753374,1.6090006710161127,0.8825256068256951,1.4911038918782145,1.449206323543813,,,0.49759852643134905,inf,,,0.9000959410610783
178,,0.0,0.0,1.7341943485255062,1.7103258412835838,0.9256421792447713,2.0173115686962535,1.8522110678490593,,,0.5451288209179292,inf,,,0.9150189237671602
179,,0.0,0.0,1.7613576697733915,1.7302979751390257,0.9408863113037942,2.183666786748304,2.0213157566113624,,,0.5783247308855777,inf,,,0.8785551730393906
180,,0.0,0.0,0.9831527154555856,0.9449501915927727,0.7968734517425694,1.778487306514201,1.796373543365922,,,0.541134803179459,inf,,,0.8890092343852303
181,,0.0,0.0,1.6990407244391248,1.6643248035088858,0.9274550372802147,1.9008876728089084,2.018258656943107,,,0.49759852643134905,inf,,,0.8710490021260645
182,,0.0,0.0,1.7253227594467924,1.70983285835214,0.9243311665013565,1.7070250693952589,2.1489316303620782,,,0.5490601803369085,inf,,,0.8948021333740451
183,,0.0,0.0,1.6753444267546613,1.610651557337065,0.9209065598785862,1.9010893182347781,1.7835210825294903,,,0.49759852643134905,inf,,,0.8986083359155229
184,,0.0,0.0,1.7029250709357262,1.6680391423600556,0.9203597405219784,1.9190094839515521,2.2702617954839317,,,0.49759852643134905,inf,,,0.8834234491896297
185,,0.0,0.0,1.5781054547595013,1.5250916845725098,0.8928520001739224,1.6492151132092174,1.8258058342912045,,,0.468121228110369,inf,,,0.8799251739842935
186,,0.0,0.0,0.8528566036673728,0.8380580370044,0.653013554696059,1.660063471548686,1.5894883164672602,,,0.5490601803369085,inf,,,0.9275851358992847
187,,0.0,0.0,1.3818260061111125,1.3737088467852487,0.8345110725394506,1.9133324277724397,2.196827581108588,,,0.5329562494928909,inf,,,0.9172003572983234
188,,0.0,0.0,1.63497379471093,1.6322381633677245,0.8880407314824241,1.5232378045375874,1.657846504784946,,,0.47824363442641393,inf,,,0.9172244015706594
189,,0.0,0.0,1.5651071984832332,1.5334417872992558,0.8934262488331322,1.6538477086014616,1.6226470596171954,,,0.6008849035917525,inf,,,0.9301798002829978
190,,0.0,0.0,1.3287276535249215,1.2735777376295092,0.841980090583864,1.2939201964154925,1.5286617112203496,,,0.5748741956352443,inf,,,0.9140580580845301
191,,0.0,0.0,1.6077383061305064,1.5605847152298118,0.914375568384415,1.4064196546122139,1.60936533222759,,,0.4576907132971797,inf,,,0.8467295693310358
192,,0.0,0.0,1.5222033852682393,1.483956161113718,0.8831868595112444,1.9791050899034732,1.8828344277765476,,,0.6068309995095971,inf,,,0.9199889233753514
193,,0.0,0.0,1.6307287344992862,1.5967084694672167,0.9014860340396524,2.2736460904183065,2.0901554004199845,,,0.585052858160615,inf,,,0.9049711516435656
194,,0.0,0.0,1.2456293401597367,1.2131845521711389,0.8555697711908695,2.09151556150384,1.3171435747941969,,,0.5915533975974677,inf,,,0.9312231014741186
195,,0.0,0.0,1.2536620661874733,1.234178742309985,0.8741128033550031,2.259582118103791,2.1900019070838557,,,0.5567373465730988,inf,,,0.9244671092342163
196,,0.0,0.0,1.3980138377869422,1.3606678700880583,0.8294507114864708,1.9855737071934894,2.463344505631029,,,0.5978297680564633,inf,,,0.919240724193021
197,,0.0,0.0,1.6594007988121735,1.6507593583285147,0.8790068495915535,2.5298674374591648,2.556420980052096,,,0.5451288209179292,inf,,,0.9051950644118454
198,,0.0,0.0,1.7427550951308077,1.7222000467245644,0.9068815478230583,2.422256917898378,4.11423808265562,,,0.5748741956352443,inf,,,0.8872337064015261
199,,0.0,0.0,1.0864085250926907,1.0500737682341057,0.8300797385067206,1.77434049060825,1.846078987012549,,,0.5713653840954815,inf,,,0.9059579447086503
200,,0.0,0.0,1.6448924508218115,1.5919853561561847,0.8978112446255817,1.3200679518810607,1.414751742709254,,,0.5329562494928909,inf,,,0.8701291608120715
201,,0.0,0.0,1.6582955105270472,1.632650058890902,0.8987255753644271,1.6259393227927943,1.7029160075809464,,,0.5158180382284114,inf,,,0.8747968666589494
202,,0.0,0.0,1.6007506121609756,1.5507926835785786,0.9105465772018465,1.5069931723581265,1.5964422544040462,,,0.5329562494928909,inf,,,0.8820001816997441
203,,0.0,0.0,1.6144783412926604,1.5808429077547597,0.9080474272027901,1.6092439136212024,1.6086371960753094,,,0.5567373465730988,inf,,,0.8869432315300314
204,,0.0,0.0,1.6397710465210031,1.627694122724932,0.8962020178894605,1.5830988998167732,1.6331727906797213,,,0.5287703885177266,inf,,,0.8890437210138131
205,,0.0,0.0,1.7142354493008929,1.6717968616877958,0.9242598854951796,1.5992808105316094,1.7701373532817768,,,0.5287703885177266,inf,,,0.9098187698681347
206,,0.0,0.0,1.7366692967981656,1.7155166238623654,0.9261836022222676,1.7064735675068685,1.7510246390178301,,,0.524519217297268,inf,,,0.885715926870618
207,,0.0,0.0,1.7360335294532687,1.7059638313293704,0.9096842995163483,1.6977946812736622,1.3575103238130783,,,0.552929491858785,inf,,,0.8832111272227136
208,,0.0,0.0,1.7064206783287614,1.665868735885914,0.9104497894753634,1.651412656262699,1.6355872776942304,,,0.47824363442641393,inf,,,0.9106104321469225
209,,0.0,0.0,1.5564965439827159,1.4891188524524508,0.8780143565768209,1.2955067445380422,1.1999299289220244,,,0.6038851895711802,inf,,,0.9151023206354597
210,,0.0,0.0,1.0648316932317003,1.021813489666523,0.8067923280742189,1.1599315330552433,1.1496885337358482,,,0.5567373465730988,inf,,,0.8942147116240617
211,,0.0,0.0,1.3007604994448727,1.2484539277048283,0.8249667857540167,1.0644475336313104,0.9925825369700911,,,0.5677978065141052,inf,,,0.873006763490501
212,,0.0,0.0,1.0585393542348056,1.0430076008664173,0.79804296815051,0.7766097179403427,0.88902896970046,,,0.5947193981915972,inf,,,0.8498749162603095
213,,0.0,0.0,1.585397330695234,1.578438785739658,0.8751655294333724,1.0474777366422154,0.9398709282780249,,,0.5022576003740722,inf,,,0.8756127087804704
214,,0.0,0.0,1.2356982508541507,1.2143579651029244,0.8599760580564723,1.2766051099918565,1.4062099608172987,,,0.5451288209179292,inf,,,0.8950843524088715
215,,0.0,0.0,1.1575460584555053,1.1113657122493656,0.8243045990115735,1.3843939977439375,1.308780045351424,,,0.5677978065141052,inf,,,0.8969027823958434
216,,0.0,0.0,1.5175206942828212,1.4068281862765646,0.9121340301118388,1.31154762123954,1.077318706951905,,,0.5604843169999094,inf,,,0.894005986210059
217,,0.0,0.0,1.5000135494463651,1.4639253410734248,0.8480579981439423,1.2911216258451232,1.6488593573694506,,,0.524519217297268,inf,,,0.8440993778874923
218,,0.0,0.0,1.234883057018258,1.1699609540560474,0.8854186649894478,1.9177209273299556,1.7500044159938608,,,0.6125606311107803,inf,,,0.9122814345351674
219,,0.0,0.0,1.2585444681372229,1.1951667946172526,0.8754345230175595,2.6895146727880697,2.688718873683409,,,0.6699045166045591,inf,,,0.9256019010745967
220,,0.0,0.0,0.6467030639195068,0.556176041855934,0.780389609776436,1.71370633248038,1.433502299420078,,,0.6668815377411301,inf,,,0.9030028817649169
221,,0.0,0.0,0.8757138186248891,0.8568280390879717,0.7711509016062015,1.9458004264470008,1.2428453737655747,,,0.6357360191111145,inf,,,0.9387829817946785
222,,0.0,0.0,1.093553564738266,1.0369719894598757,0.8833400405924635,1.6676906438141301,1.0668917674406124,,,0.6528756675646988,inf,,,0.9519064638631736
223,,0.0,0.0,0.9413035015322222,0.9004494290397719,0.8041455199982591,1.7422643409295901,1.1788214928574017,,,0.6584896970785714,inf,,,0.9533162912928882
224,,0.0,0.0,0.6032504444098312,0.5864257818671392,0.7933467035920398,1.4917357470623287,1.265316340591947,,,0.6528756675646988,inf,,,0.9501054685429438
225,,0.0,0.0,1.3345759815427083,1.2960603860617452,0.8785389404906092,2.2439042032271406,2.2949141543279112,,,0.6602640781246099,inf,,,0.9323579608819037
226,1.297063227391948,-0.004323544091306493,0.0,0.42565789603278564,0.3916920813896956,0.7566045537786913,1.928875298418523,1.6294241626983288,,,0.6284777104787076,7.000845702048149,inf,,0.7015904789503832
227,,0.0,0.0,1.0174348591209146,1.004664047200708,0.8069764217470434,1.8215315067813225,1.4246486992655332,,,0.6713451011121618,inf,,,0.9549883472335395
228,,0.0,0.0,0.4865837383371254,0.43291375326310677,0.7288725163510898,1.0390629266581837,0.9295443305077484,,,0.6652988471865258,inf,,,0.8395051827901301
229,,0.0,0.0,0.3725546331919629,0.345886728591512,0.603508976180042,1.4657577102929913,1.075836348343932,,,0.6740851607140061,inf,,,0.908171629555618
230,,0.0,0.0,0.9443584797704307,0.9224398640719943,0.7517938503508729,1.0421693834751982,0.9405520506977774,,,0.62595550513784,inf,,,0.9513894049830297
231,,0.0,0.0,0.08929447972312814,0.07682753438443075,0.3551404680786371,0.7943231326895851,0.9380693809256268,,,0.6153451465759925,inf,,,0.963165184932707
232,,0.0,0.0,0.8482494036804491,0.7898256782809516,0.7997504086227734,0.7471616458585161,0.7202340156155762,,,0.6699045166045591,inf,,,0.9521008092150954
233,,0.0,0.0,0.2928918707419941,0.24375230054768557,0.6677146913416137,1.2625724485532726,1.267267668571289,,,0.6584896970785714,inf,,,0.954474154980993
234,,0.0,0.0,0.586614369727865,0.5891495390003307,0.8542393962187156,0.7728827774570849,0.8969659148376216,,,0.6425374456860184,inf,,,0.9450606946196873
235,,0.0,0.0,0.36467872920918165,0.3063255052977349,0.5942719622394006,0.85665639791275,0.82326067218918,,,0.6447042257417027,inf,,,0.9535106285213109
236,,0.0,0.0,0.7668957951616975,0.7381851235307609,0.8758043769865678,2.329952030955203,1.865899470315009,,,0.648888643467878,inf,,,0.9374584707581306
237,,0.0,0.0,1.112749153873849,1.051723542076584,0.855356116643415,2.491971271411356,2.4010838180275784,,,0.6547956803312163,inf,,,0.9368361527866252
238,,0.0,0.0,1.2511853529198544,1.2178230945271142,0.8788580519250334,1.9084950534332914,1.4052226174095461,,,0.6652988471865258,inf,,,0.9396818379430649
239,,0.0,0.0,0.9134344315567412,0.8874429787937632,0.810759071489814,1.8173432209159726,1.1963005356738339,,,0.6652988471865258,inf,,,0.935558614790849
240,,0.0,0.0,0.47043471471186726,0.44734302916077406,0.8832517221489786,1.7549225486313638,1.669100506463866,,,0.6684167106117298,inf,,,0.9345671801767488
241,,0.0,0.0,0.9996623445289491,0.9882507970582084,0.819813750080772,2.148216623029827,2.0484869003283213,,,0.6357360191111145,inf,,,0.9504826843222419
242,,0.0,0.0,1.3067596625292595,1.3074677550810965,0.870890531310965,2.3691024222981336,2.4405339395599372,,,0.6528756675646988,inf,,,0.9478005239124097
243,,0.0,0.0,1.0672013894931387,1.040043001939317,0.8244534629985767,2.009619817386903,1.4468899813079865,,,0.6547956803312163,inf,,,0.9243969976109719
244,,0.0,0.0,1.4038598334665864,1.3943066267067317,0.9059737864027876,2.4942976794733873,2.416051845601069,,,0.6447042257417027,inf,,,0.9090304097153521
245,,0.0,0.0,1.089558649913637,1.0344180881717897,0.8421522092524155,2.453008315394119,2.312618466172419,,,0.6528756675646988,inf,,,0.9056819608003649
246,,0.0,0.0,0.7279551928635826,0.6973306400452942,0.7203787067101072,2.284729096459275,2.381134619723216,,,0.675384900321601,inf,,,0.9086941855475917
247,,0.0,0.0,1.0893547822321064,1.053121552945066,0.7221559737777972,2.3990128524290695,2.408910859851718,,,0.6509067234006624,inf,,,0.9319525883543046
248,,0.0,0.0,1.2458940867316883,1.2110029412164987,0.846615988819076,2.151104115967664,2.748148146911621,,,0.648888643467878,inf,,,0.9287201893704825
249,,0.0,0.0,1.0763194688037148,1.0052587283549728,0.9053733891242103,1.5957970240914838,1.159257967675711,,,0.6668815377411301,inf,,,0.8338349037521414
250,,0.0,0.0,1.1545863577579547,1.1237903377590028,0.8504874926424179,2.459247474615029,2.543046188777575,,,0.6509067234006624,inf,,,0.913331281645628
251,,0.0,0.0,1.058323269746362,1.0281045679132463,0.9239273016018252,2.089093044894879,2.1984119523380214,,,0.648888643467878,inf,,,0.9613577822583449
252,,0.0,0.0,1.098272765683405,1.103104952726098,0.7812325738713105,2.1636670219381293,2.1097906982465657,,,0.6547956803312163,inf,,,0.9078988594300934
253,,0.0,0.0,1.0608697775932026,1.032161125647376,0.7545556700167017,2.428372848649967,2.480090968989913,,,0.6403206450210053,inf,,,0.9516180489018299
254,,0.0,0.0,1.1979196052037981,1.1594504668963326,0.8622903510118086,1.9169257524059078,1.7166902803394772,,,0.6619902821573977,inf,,,0.9450540149985127
255,,0.0,0.0,1.113604959066934,1.0644904158279005,0.7871379207175573,1.9243793954784776,1.8914664859763048,,,0.6153451465759925,inf,,,0.9436299909144009
256,,0.0,0.0,0.9185884027250611,0.8593580877950203,0.8525796431230095,2.15296015238459,1.9138255110816855,,,0.6509067234006624,inf,,,0.9355656667781326
257,,0.0,0.0,1.395804915080188,1.357693127465749,0.9147900542521704,1.9630856047677994,1.4228781849370087,,,0.6584896970785714,inf,,,0.9337514627457416
258,,0.0,0.0,1.2884179482826434,1.257249410975769,0.842165064505962,2.58345961498045,2.223595231693368,,,0.6566669596287297,inf,,,0.9340834577525609
259,,0.0,0.0,0.8262791824480686,0.8101048291376673,0.7556583671363561,1.812095173710656,1.5168225297387878,,,0.6447042257417027,inf,,,0.9523961767007344
260,,0.0,0.0,1.0611538879261668,1.0456609987437224,0.7312943085560065,1.6903276009668036,1.430059033612166,,,0.6425374456860184,inf,,,0.9412155292518589
261,,0.0,0.0,1.000292740408243,0.959462017230857,0.6426028197220387,1.7975750763992668,1.5864392666713851,,,0.6528756675646988,inf,,,0.9371234961812624
262,,0.0,0.0,1.172372348866491,1.1569458141241384,0.8760263311906465,2.690567351968746,2.3313343502413244,,,0.6547956803312163,inf,,,0.9278307873982842
263,,0.0,0.0,1.0525615348159763,1.0305611489565976,0.8580422115579324,2.4102337953486486,2.311915776117054,,,0.6468212168108125,inf,,,0.8771471432225655
264,,0.0,0.0,1.0679863061237422,1.031375691693293,0.7935490016681866,1.718494587723199,1.0723797150685515,,,0.6528756675646988,inf,,,0.8427837497055525
265,,0.0,0.0,1.077346156893658,1.0387444211137529,0.754610684559058,1.9325709754675944,1.4538732367877942,,,0.6425374456860184,inf,,,0.9497914397532279
266,,0.0,0.0,0.9983174620544052,0.9853622498794847,0.8552075802955914,2.401064877008315,2.320650992328862,,,0.648888643467878,inf,,,0.9535006414086584
267,,0.0,0.0,0.918630290585202,0.9030350564952124,0.7589165940831564,2.3816458792686035,3.2824600677123468,,,0.6425374456860184,inf,,,0.9238441167742629
268,,0.0,0.0,0.7723473990580163,0.7479613663851307,0.7531882264938926,2.295002633693844,2.0325438174747763,,,0.6699045166045591,inf,,,0.9182222032092651
269,,0.0,0.0,1.302469256485748,1.2874358412380655,0.8757919436781664,2.2607501178073988,2.1097005015051904,,,0.6357360191111145,inf,,,0.9286072651465468
270,,0.0,0.0,0.5688141866280298,0.5541165178976282,0.5881121948175484,1.8330215485105708,1.8885841465039037,,,0.6380535849069913,inf,,,0.9239345435015247
271,,0.0,0.0,1.1323077040261966,1.122704889174755,0.7433667149430517,2.2053959278429716,1.825193754856865,,,0.6602640781246099,inf,,,0.9256589918794808
272,,0.0,0.0,0.9180597991019448,0.881940206733442,0.6997561371646043,2.4012352451082504,2.1068481987566963,,,0.6509067234006624,inf,,,0.9312473243431664
273,,0.0,0.0,1.0907941634222975,1.0623875142529775,0.6790113293738171,2.5286877133763337,4.0819515880579775,,,0.6284777104787076,inf,,,0.9400463604185566
274,,0.0,0.0,0.883910908787574,0.8739854331338061,0.7381521759552739,2.655787536659694,2.62209242983869,,,0.6528756675646988,inf,,,0.9030175722743359
275,,0.0,0.0,0.8827593232224271,0.8714095196431391,0.8458961372760626,2.2703598367482,2.2402075552178444,,,0.6425374456860184,inf,,,0.9488020281429482
276,,0.0,0.0,1.3689048340898746,1.3589536491355625,0.8379063179929598,2.984826172542303,4.866502507313021,,,0.6447042257417027,inf,,,0.9166853970835152
277,,0.0,0.0,1.2582742303551617,1.238215741926208,0.7865740781707528,2.3401468395544116,2.388474774688669,,,0.6097226960127671,inf,,,0.940215302589147
278,,0.0,0.0,0.5525922993994868,0.5062529441923307,0.6715559672107145,1.2302611664066898,1.4274628766239283,,,0.6447042257417027,inf,,,0.9321764574576972
279,,0.0,0.0,0.6965378180063279,0.6158873595092998,0.7089141417152063,1.7693657574966855,2.1841635063238027,,,0.648888643467878,inf,,,0.9446814762423151
280,,0.0,0.0,0.6363738238116734,0.6185586904371541,0.5420313410400789,1.8565479835622845,1.8441133337400621,,,0.6699045166045591,inf,,,0.9111095462343
281,,0.0,0.0,0.9762265437104487,0.9609470782072826,0.7006251239501029,2.0939221692582186,1.9059722733364164,,,0.6357360191111145,inf,,,0.9541745800415766
282,,0.0,0.0,1.2254467383395273,1.172411462324782,0.8452001299203998,2.4993896715204045,2.6263337445500343,,,0.6668815377411301,inf,,,0.9511816412366616
283,,0.0,0.0,1.0029125437318658,0.9699890418381086,0.8422831899749706,2.321870099550551,2.09984396418932,,,0.6509067234006624,inf,,,0.954271416556513
284,,0.0,0.0,1.3555283343734095,1.3456297295662398,0.7904821283087876,2.5357668108063125,2.0571271880619855,,,0.6447042257417027,inf,,,0.9124581652995876
285,,0.0,0.0,0.8082700363213551,0.7584134280141124,0.8037981279486098,2.484678999843359,2.0783266304495296,,,0.6584896970785714,inf,,,0.8959985192089981
286,,0.0,0.0,1.0920810472973328,1.0493191387663652,0.7207494840645988,3.765793962786285,3.4048232445946134,,,0.6403206450210053,inf,,,0.9508371787453949
287,,0.0,0.0,1.272558419860664,1.2443750892484917,0.8447175553620165,2.452033218480538,1.526219270881723,,,0.6509067234006624,inf,,,0.9453683495023558
288,,0.0,0.0,0.8060206196828734,0.789033380304543,0.6342381099665897,1.9376938264055539,1.4641313653635097,,,0.6602640781246099,inf,,,0.9096314012129905
289,,0.0,0.0,0.96394465759641,0.9595193748878014,0.7334806363793478,2.5706829471049026,1.5856915414021295,,,0.6333676938231112,inf,,,0.947338675606481
290,3.912023005428146,-0.013040076684760487,0.0,0.858618533732713,0.8299787292763251,0.8028625059547733,3.0512453029767377,4.893280116376446,,,0.6668815377411301,9.615805480084347,inf,,0.7322024719886973
291,,0.0,0.0,1.0769898546676788,1.070315706397227,0.8918808836548334,2.2791360274495283,1.4736361980152939,,,0.6468212168108125,inf,,,0.957898763385088
292,,0.0,0.0,0.603096689877101,0.5796314954849932,0.47891900990783914,1.4249104367266707,1.937158738110249,,,0.5451288209179292,inf,,,0.9462306545860142
293,,0.0,0.0,1.0792140202707827,1.059065622316864,0.7060703710118558,1.3340181765075454,1.6407439912252364,,,0.6008849035917525,inf,,,0.8868672520582955
294,,0.0,0.0,0.8698109617584512,0.8554924026382079,0.8120488600614301,1.1507645294568023,1.4723201945646631,,,0.6068309995095971,inf,,,0.911035881328319
295,,0.0,0.0,1.261079268418198,1.2113581900910568,0.7836151088291652,1.3836123582620967,1.9950917474452727,,,0.5783247308855777,inf,,,0.8620802158668718
296,,0.0,0.0,1.1097148620689476,1.1084600564711424,0.7993848118317697,1.8316695314304576,3.550618231539797,,,0.581717464821069,inf,,,0.9104413372481396
297,,0.0,0.0,1.2470142063794767,1.2251614171158884,0.7297689161357448,2.0505125655301897,2.861408464587136,,,0.5329562494928909,inf,,,0.8925214243253783
298,,0.0,0.0,0.5773181561185804,0.5604872308938726,0.6856134074638167,1.4988873144076507,2.223758621523247,,,0.6284777104787076,inf,,,0.9170990413092748
299,,0.0,0.0,1.0341297241901293,0.979325940436448,0.7786886050125789,1.775266972752813,2.5270252962798665,,,0.6097226960127671,inf,,,0.9309796321264955
300,,0.0,0.0,0.6095630164437323,0.5641577901914612,0.45210605576110185,1.6875553363750315,2.5011220749659637,,,0.6097226960127671,inf,,,0.9466759104313359
301,,0.0,0.0,0.4654441026302215,0.433494197639481,0.7312490769020216,2.1710905816882313,1.9041025398470128,,,0.6403206450210053,inf,,,0.7872102130898092
302,,0.0,0.0,1.0005585222745033,0.9725012559057999,0.7743956537316302,1.9588760422329488,1.9358490869961442,,,0.6699045166045591,inf,,,0.9227384231303202
303,,0.0,0.0,1.114922733037311,1.0978463165363077,0.6810264498928996,1.884372405803077,1.9445987675144356,,,0.6333676938231112,inf,,,0.9447930093234432
304,,0.0,0.0,0.9286571683734984,0.8944192229434587,0.7630799341671423,2.0397549033592304,2.412767681985568,,,0.6125606311107803,inf,,,0.9332703612084072
305,,0.0,0.0,1.1765248948611435,1.1547431704415525,0.8318953565982581,1.9503074846810429,2.1267141784249595,,,0.6153451465759925,inf,,,0.9295803223818002
306,,0.0,0.0,1.0723010521590557,1.0225192045441183,0.7518090044934136,2.4161372724221852,1.8133816647108314,,,0.6684167106117298,inf,,,0.945309691939956
307,,0.0,0.0,0.6333907899106729,0.611536947360951,0.6753944705035579,2.55669733444154,2.9163934980323756,,,0.62595550513784,inf,,,0.9291097316083594
308,,0.0,0.0,1.0340583751693744,0.9700570904806948,0.7954271770440718,2.121611293341131,1.0390426254583893,,,0.6509067234006624,inf,,,0.9332446103809053
309,,0.0,0.0,0.9341015236049499,0.8636742853555592,0.8145939586272419,2.1998782096383356,1.6406125368799724,,,0.6468212168108125,inf,,,0.9462364310682699
310,,0.0,0.0,0.7522407551707513,0.726016100313391,0.65863697284904,2.456096485655906,1.8452375003099242,,,0.6566669596287297,inf,,,0.9224579499875873
311,,0.0,0.0,1.2416127834119077,1.2054902327262826,0.795453594369984,2.34644577334866,1.3241804073722125,,,0.6584896970785714,inf,,,0.9554787179174608
312,,0.0,0.0,0.94463315735778,0.8624482745412152,0.792512088673122,1.5647593308986414,0.8493247468316105,,,0.6584896970785714,inf,,,0.8606037807059889
313,,0.0,0.0,1.0540206905022484,1.0285378611274993,0.7801685685366877,2.7819476775350083,2.3413257549236257,,,0.6357360191111145,inf,,,0.8535910880392501
314,,0.0,0.0,0.9436110839245829,0.9071295395706652,0.7990143702742871,2.704366060807333,2.108780396127408,,,0.6602640781246099,inf,,,0.9429119053179514
315,,0.0,0.0,1.015409012091469,0.976124942402807,0.773579951797576,2.0681812848543264,1.6521072113801387,,,0.6619902821573977,inf,,,0.9274475235993389
316,,0.0,0.0,1.1698499970947465,1.1584394791762804,0.8149876257556661,2.73882182257304,1.9520855133788713,,,0.6619902821573977,inf,,,0.9408111942400478
317,,0.0,0.0,0.9890719756043435,0.9186873368820722,0.8262009619596363,2.1722621593857374,2.189592214269642,,,0.648888643467878,inf,,,0.9419516917081023
318,,0.0,0.0,1.2401707434987859,1.1683754732426377,0.7751988545158917,2.0035898531715577,1.2142735896490038,,,0.6403206450210053,inf,,,0.9341845090301183
319,,0.0,0.0,1.359901976897544,1.2804100802769844,0.8820109345481927,2.5203944558714735,1.5673741634054124,,,0.6547956803312163,inf,,,0.9513075995995904
320,,0.0,0.0,0.6536382524169115,0.6335953807915901,0.7664629892380781,2.3427750847323283,1.813608359568835,,,0.6509067234006624,inf,,,0.9561234517351297
321,,0.0,0.0,1.010596533143028,0.9762739768162775,0.8452520578153314,1.6254055379766412,1.4548376855555838,,,0.6566669596287297,inf,,,0.9511747650523624
322,,0.0,0.0,0.601730490102754,0.5683144907373553,0.6254488005761212,2.179266786113785,1.7832739877131907,,,0.648888643467878,inf,,,0.7340292594452869
323,,0.0,0.0,1.1356874413059874,1.1043420458255966,0.6949365840000388,2.082705326120171,2.302706473587361,,,0.6403206450210053,inf,,,0.9355376680960457
324,,0.0,0.0,1.1059604662942821,1.0853344306522767,0.7725999036530604,2.4557218159786998,3.415438524573637,,,0.6380535849069913,inf,,,0.9272333501608341
325,,0.0,0.0,1.0082010873867613,0.977304450286383,0.6633342681811785,1.942055055709658,2.6033851964646644,,,0.6008849035917525,inf,,,0.9346532774912839
326,,0.0,0.0,0.9434649510218057,0.9015308555961768,0.6499838398933373,2.056719547819085,3.3103439233705623,,,0.6180765742263259,inf,,,0.9295584279378374
327,,0.0,0.0,1.160370055422613,1.1416870691187118,0.7235990789280473,2.323398995277162,2.829969654545292,,,0.6528756675646988,inf,,,0.9448410344837757
328,,0.0,0.0,0.9790309228470361,0.9307432810541265,0.8099150504030806,2.5814644258211477,3.098064579955654,,,0.6509067234006624,inf,,,0.9422768317561862
329,,0.0,0.0,1.2584919996974449,1.227747118572401,0.7662112264360021,1.8677059007692218,1.4443258113516346,,,0.6284777104787076,inf,,,0.9511841643760153
330,,0.0,0.0,0.9421733557237209,0.9061577050429362,0.8318996886795926,2.3903626104277595,1.9369332384745008,,,0.6447042257417027,inf,,,0.9476656281973593
331,,0.0,0.0,1.251276679355107,1.2187447029838747,0.7483580767133888,2.1310751651876583,2.393849740789339,,,0.6652988471865258,inf,,,0.9451696293782714
332,,0.0,0.0,1.162011321264397,1.1318187012248995,0.7650210521425223,2.823997131614619,3.9458745725624627,,,0.6584896970785714,inf,,,0.9462711708505206
333,,0.0,0.0,1.109415248441842,1.0662072265710294,0.7789042845090544,3.018517305424464,3.3424639080495875,,,0.6811855325194978,inf,,,0.9402011101082292
334,,0.0,0.0,0.9101270605638819,0.9021608294222869,0.6469297375059803,3.6406143188398956,4.521188526910702,,,0.676637947632344,inf,,,0.9392261435785589
335,,0.0,0.0,1.2553186371678773,1.2623002406680464,0.7811496407005375,2.695587898927491,1.9390145548906452,,,0.6584896970785714,inf,,,0.9212135037972607
336,,0.0,0.0,0.8717636970490469,0.8687174576986326,0.6714020354360437,3.057169261712838,2.9982893426270483,,,0.6913218275001582,inf,,,0.9353517182148311
337,,0.0,0.0,1.237312105272627,1.2247533244470423,0.8077638202123967,2.8122212868328704,2.726573626403989,,,0.6668815377411301,inf,,,0.9003395849012494
338,,0.0,0.0,0.5262635074863217,0.4910839134138676,0.6864426551922188,2.4221848037332254,1.8172740442845932,,,0.648888643467878,inf,,,0.9311895343304396
339,,0.0,0.0,1.1062281606665423,1.050669754935369,0.8102971752122355,2.6673347014035,1.7376021112422433,,,0.675384900321601,inf,,,0.9439859485213725
340,,0.0,0.0,1.1403908777301472,1.1016746653128602,0.7279998621967523,3.0539524604801738,6.657480051104331,,,0.6778444222523095,inf,,,0.948078205513659
341,,0.0,0.0,1.0401135351800694,1.022579513061506,0.6686935002123295,2.7661591285416622,1.5071189199697796,,,0.6425374456860184,inf,,,0.931463248957118
342,,0.0,0.0,0.966096900314765,0.9304095608842678,0.7003237523122152,2.605703541837385,2.4159813860049524,,,0.663668482632973,inf,,,0.9263624011862119
343,,0.0,0.0,1.5246095428791406,1.515466673471434,0.8643394972567726,2.9039817410881805,1.9309551080096972,,,0.6684167106117298,inf,,,0.8443360534994041
344,,0.0,0.0,0.723726982170924,0.7130664515197448,0.6731308207342677,2.992648666256403,4.131402447853584,,,0.6713451011121618,inf,,,0.9269433151165781
345,,0.0,0.0,1.2745275232083582,1.253484434936145,0.7546261116122849,2.8542214893528395,2.494409258321095,,,0.675384900321601,inf,,,0.9406157590117096
346,,0.0,0.0,1.443999667574531,1.4131504598114977,0.7658538241477028,2.7595927968026746,3.0110825726328483,,,0.6908933359745891,inf,,,0.8728177938750199
347,,0.0,0.0,1.465474826052567,1.47065541084587,0.8336127924350561,2.8330655895125156,3.2946809432650617,,,0.6713451011121618,inf,,,0.8698672313617604
348,,0.0,0.0,1.3784393669244586,1.3605624653461215,0.7569857923584198,3.100452872146543,5.616224339882159,,,0.676637947632344,inf,,,0.9101360250697317
349,,0.0,0.0,1.549041219012507,1.5466480000328948,0.7982721278248306,2.672100371361356,5.367463851162459,,,0.6713451011121618,inf,,,0.8953843465510267
350,,0.0,0.0,1.5951191680918595,1.5534171438276292,0.859491914633593,3.0532526032031084,2.591458551662256,,,0.6740851607140061,inf,,,0.9246801004385903
351,,0.0,0.0,1.2981639312961,1.2708091920568563,0.787764417130088,3.2024548302329743,2.632370683928427,,,0.6284777104787076,inf,,,0.9398275521885272
352,,0.0,0.0,1.180169194079477,1.1727795893633066,0.7854885963153776,1.803073015190566,1.2577598919317794,,,0.6727386042041725,inf,,,0.8915607200173086
353,,0.0,0.0,1.0920631049675495,1.0900672271153933,0.7580702960777717,2.428181489225447,1.6413559612179944,,,0.6684167106117298,inf,,,0.9275738058288076
354,,0.0,0.0,1.1043624610161589,1.0960557379020284,0.7407509501936825,2.2386345845605504,1.2823052566401345,,,0.6447042257417027,inf,,,0.9313732856372592
355,,0.0,0.0,1.554053095108788,1.5419717849100019,0.8060649997311122,2.635383263071712,1.9310272391141186,,,0.6790044388599258,inf,,,0.8880461736109302
356,,0.0,0.0,1.2222624149024153,1.1926259975013769,0.7609497501873459,2.576972893482599,2.3915350634088783,,,0.6668815377411301,inf,,,0.9221149987668348
357,,0.0,0.0,0.8033133248376783,0.7827198062785646,0.6939095405701263,2.5579355516066116,2.1357159576061147,,,0.6668815377411301,inf,,,0.9500638725748997
358,,0.0,0.0,1.1000680082293641,1.0572049473256144,0.7055439241549992,2.5741941000883624,2.561473774825468,,,0.6713451011121618,inf,,,0.935299311230965
359,,0.0,0.0,1.262843601614607,1.2630940529109773,0.7576905778898444,3.103400601853634,3.518974871774714,,,0.6740851607140061,inf,,,0.9197844460971301
360,,0.0,0.0,1.3284266823405466,1.3009625180794107,0.7984657298448812,2.6861207071328828,2.9299151365723826,,,0.6740851607140061,inf,,,0.8909873816878583
361,,0.0,0.0,1.5742721424712545,1.531383150195783,0.7707800892743821,3.0922874583989484,3.137172437199361,,,0.6740851607140061,inf,,,0.8993710603661627
362,,0.0,0.0,1.146591039941534,1.1264673007649093,0.700538330153678,3.1117392776884834,2.3092634528634877,,,0.6778444222523095,inf,,,0.9248232809743787
363,,0.0,0.0,1.2128758990703186,1.159526331903934,0.7712643049443197,2.6516203779126215,2.251336599504316,,,0.676637947632344,inf,,,0.9132062229120352
364,,0.0,0.0,1.1409833616770577,1.0755685925666534,0.6986144288387122,1.8667195516785726,0.781155760570355,,,0.6547956803312163,inf,,,0.9122269649709086
365,,0.0,0.0,1.0068098714488785,0.984282839545962,0.6779937561396925,3.0158996922902976,2.0065319799243504,,,0.6858323589451731,inf,,,0.9101802620579122
366,,0.0,0.0,1.6243238021168256,1.5804798255310293,0.8708553442556063,3.741915018802943,2.5444085174296656,,,0.6811855325194978,inf,,,0.8565758077264123
367,,0.0,0.0,0.8921547100706188,0.861124269098109,0.7605104495692209,2.6213820866744713,2.668946477495172,,,0.6778444222523095,inf,,,0.949284030514841
368,,0.0,0.0,1.138520348126633,1.0972541977233268,0.7737559388291702,2.802857982006711,4.406211177887071,,,0.6713451011121618,inf,,,0.9484545247826599
369,,0.0,0.0,0.8430776314287212,0.8219676620496533,0.5785729985438899,2.6825762247931637,2.400644011884787,,,0.6699045166045591,inf,,,0.9473330506902455
370,2.870569130599985,-0.009568563768666617,0.0,0.548609561620075,0.4870039253892083,0.6143407454780673,2.5766854415907847,1.6339175024228734,,,0.6740851607140061,8.574351605256187,inf,,0.6449434613788977
371,,0.0,0.0,1.6301627721756176,1.6370236519208157,0.8875416639647509,2.463772562547075,3.2324535056370025,,,0.68318204999448,inf,,,0.8496061614176356
372,,0.0,0.0,1.4547716060441673,1.4397167766187315,0.8172804196462509,2.4507606275651237,2.5398438523141253,,,0.6727386042041725,inf,,,0.9196612742538313
373,,0.0,0.0,1.2586423177655814,1.233583973309524,0.79998387830147,2.5563461378983847,2.732780499508517,,,0.6684167106117298,inf,,,0.9360746970386961
374,,0.0,0.0,1.5466319634957442,1.533150068484444,0.8691366897109528,2.1077171407151094,2.0082312917426277,,,0.680118107274185,inf,,,0.9259216089681861
375,,0.0,0.0,1.3085513900015466,1.3026755805962722,0.7418495028955622,2.1090006872582494,2.138926624233138,,,0.6684167106117298,inf,,,0.9395911845503443
376,,0.0,0.0,1.2903356542888345,1.2498042936005151,0.841226174424681,1.8444667214707895,1.7265597363634282,,,0.6528756675646988,inf,,,0.9334254280939812
377,,0.0,0.0,1.369538957048212,1.3434699924718028,0.8212863080757424,2.4593449169035124,3.137151850606307,,,0.6699045166045591,inf,,,0.9268816324288598
378,,0.0,0.0,0.769698568957583,0.7376311827229958,0.5296638678584094,2.7293384718536613,4.262997759179135,,,0.6619902821573977,inf,,,0.9354119890740207
379,,0.0,0.0,1.460783250659238,1.4330575285016294,0.757064121941307,2.857493050141839,3.2583846018793423,,,0.663668482632973,inf,,,0.9073962220227599
380,,0.0,0.0,1.7354443622621718,1.7198634786255038,0.8912156882162708,3.3006529612039675,13.898055612567612,,,0.6684167106117298,inf,,,0.8925972348057781
381,,0.0,0.0,1.7713353126792963,1.7387903226136892,0.9068433119402003,2.6055666086074165,16.307506826495224,,,0.6584896970785714,inf,,,0.9057913581243475
382,,0.0,0.0,1.2179423799974094,1.2044791581899534,0.7939609706323436,2.8737308257754886,16.451031809079183,,,0.648888643467878,inf,,,0.9146044821478925
383,,0.0,0.0,1.025995623934169,0.9624038113597109,0.7368012598702133,3.0876653089869013,5.326650425222592,,,0.6668815377411301,inf,,,0.9011828609713507
384,,0.0,0.0,0.8356654391233972,0.7959084376243466,0.6799592823586419,2.236034288253401,1.3709160217365794,,,0.6528756675646988,inf,,,0.9391548558625166
385,,0.0,0.0,0.8906316725213399,0.8842308112574097,0.7258339341751929,2.136371396211721,1.4349211324170867,,,0.6403206450210053,inf,,,0.9262259954425176
386,,0.0,0.0,1.1398891636714554,1.1282759436773517,0.8471638670655889,2.233176818280472,1.9274191539021581,,,0.6509067234006624,inf,,,0.9460109928923461
387,,0.0,0.0,0.8155093197992834,0.762359079382496,0.7954400570641056,2.0079498225706267,1.1977352330332036,,,0.6284777104787076,inf,,,0.9397447064747426
388,,0.0,0.0,1.104145269800591,1.0849891706230774,0.8193986181431068,2.2921091483805713,2.1643030399704153,,,0.6619902821573977,inf,,,0.9507249500225373
389,,0.0,0.0,1.2090241623969413,1.1873712504231149,0.830404046763602,2.054556331582068,2.6579967160302216,,,0.6309483474627791,inf,,,0.8817392406572808
390,,0.0,0.0,1.1132062337330406,1.0926237068806026,0.791807975839314,2.4784779621477644,2.2882325142203346,,,0.6468212168108125,inf,,,0.90539262040307
391,,0.0,0.0,1.2937792847814684,1.2461068438012382,0.8248336022288553,2.645835232961034,2.768391503956538,,,0.6153451465759925,inf,,,0.9424006261642951
392,,0.0,0.0,1.0611168199022836,1.0225218527605027,0.749457560353265,2.201362129301087,2.853607444139176,,,0.5947193981915972,inf,,,0.9261066352994978
393,,0.0,0.0,1.0746176380216612,0.9958402627631439,0.744018394734943,2.338642945765365,2.502847689215113,,,0.62595550513784,inf,,,0.9523816837703151
394,5.0106352940962555,-0.016702117646987518,0.0,0.8301634507169294,0.7980585060016828,0.7087920307814691,3.1127999326829308,2.3818432301376355,,,0.6380535849069913,10.714417768752456,inf,,0.9395930825295403
395,,0.0,0.0,0.7201224607415304,0.7012557693768557,0.6457767914006457,3.1356646974580347,6.734142947889687,,,0.6309483474627791,inf,,,0.9055269310023526
396,,0.0,0.0,0.8866922100123886,0.8170231065034781,0.7163332053984919,1.7085608493334445,0.4198205685164318,,,0.6380535849069913,inf,,,0.9617151935295015
397,,0.0,0.0,1.2507760690315775,1.1972584084833842,0.9152859902028004,0.8874212286219958,0.6651626779612333,,,0.6380535849069913,inf,,,0.9420624761539591
398,,0.0,0.0,0.13304232049753378,0.11744342808097737,0.5010083967612234,0.9334816562485957,0.6914925151889358,,,0.5978297680564633,inf,,,0.7224119989765411
399,2.7093017662112695,-0.036124023549483596,0.0,0.7176810539744143,0.5506028752740061,0.7135797982116746,1.3059862319386466,1.0279298231688663,,,0.5915533975974677,6.763174050171029,inf,,0.6820781204341273
400,,0.0,0.0,0.505543969249317,0.4830305121921346,0.669751224482988,0.9274802975956308,1.0042510298319751,,,0.5451288209179292,inf,,,0.9472738028836871
401,,0.0,0.0,1.2027071421192146,1.1878968985611513,0.8461902545590925,0.96531036973371,1.2184114684500356,,,0.5748741956352443,inf,,,0.9135135200599037
402,,0.0,0.0,1.7053742701873658,1.6806737908752178,0.8773684018599546,0.857563972549714,1.0454238623960839,,,0.552929491858785,inf,,,0.886729342124896
403,,0.0,0.0,1.1063959081780352,1.0637685149105145,0.7701933951474326,0.8903501983435583,1.0346825378631563,,,0.5883313578629602,inf,,,0.897903477201633
404,,0.0,0.0,1.3999931608475402,1.359472658702657,0.8683668744388234,0.7900284054686249,0.9336555669861084,,,0.5113665138247345,inf,,,0.8867807553436996
405,,0.0,0.0,1.6341132680964656,1.5932268291441778,0.8867416333588911,0.7420030839668067,0.922711507569848,,,0.5451288209179292,inf,,,0.8715020763307795
406,,0.0,0.0,1.623634722353641,1.5974729571415038,0.867314398528828,0.6894318405885106,0.8644952594025149,,,0.5202020156036558,inf,,,0.8824593087534673
407,,0.0,0.0,1.592062440082246,1.5770651715946948,0.8640719394277805,0.5131095148872338,0.7261703767063115,,,0.4928685327679205,inf,,,0.8711697837656551
408,,0.0,0.0,1.5016357368782813,1.470118178434801,0.8649015518724419,0.5379872561141357,0.6938833378250475,,,0.5287703885177266,inf,,,0.8668530271958836
409,,0.0,0.0,0.49118451646299877,0.4589197633774805,0.6645378635103827,0.5706930295024324,0.5607072323344011,,,0.5915533975974677,inf,,,0.9111296578926386
410,,0.0,0.0,0.7855720514087351,0.7603162361816034,0.7087387672217155,0.5626641113389415,0.6336460160967582,,,0.585052858160615,inf,,,0.9180954607671893
411,,0.0,0.0,0.734879882654893,0.7012030727313463,0.8109422677271818,0.6532107504517117,0.6690158020416428,,,0.5783247308855777,inf,,,0.9003906554479167
412,,0.0,0.0,1.324240700397126,1.2958223228493146,0.8723371922966846,0.5490983588811572,0.6025962573980487,,,0.6233814453054027,inf,,,0.910587274029511
413,,0.0,0.0,1.3932332971776993,1.363649886801438,0.8478184993254748,0.520213323853817,0.6032087401766231,,,0.6153451465759925,inf,,,0.9100947521832727
414,,0.0,0.0,0.7584210511310219,0.6648943777247787,0.6114491142711981,1.2915332517748026,1.073351866211553,,,0.6008849035917525,inf,,,0.7054885478835465
415,,0.0,0.0,1.2015354418832769,1.176537267820658,0.8686457284454739,1.5037432662305197,1.942659496743998,,,0.5329562494928909,inf,,,0.8817884750746102
416,,0.0,0.0,1.5925680177362436,1.5820243989898468,0.8730294939882277,1.5422451531349437,1.9837551152811728,,,0.5370774965580548,inf,,,0.9133026405625202
417,,0.0,0.0,1.5601045835588132,1.5536065215501034,0.8917853238587051,1.2965218544676718,1.7330040798835722,,,0.5677978065141052,inf,,,0.8838864001648787
418,,0.0,0.0,1.4921786710054519,1.4755682203374985,0.8580944330495537,1.388302757306257,1.4152079287608368,,,0.5604843169999094,inf,,,0.8454471561216955
419,,0.0,0.0,1.2840444146438443,1.2696123477208165,0.7769909573937548,1.2478054673690364,1.6168763761132317,,,0.552929491858785,inf,,,0.8488962500909004
420,,0.0,0.0,1.6427481761488882,1.604549298493835,0.8959082890887813,1.3292325767989834,1.4727940208058588,,,0.6068309995095971,inf,,,0.8541804914365196
421,,0.0,0.0,1.5403387817234415,1.5110281918947979,0.8634698773956155,1.196787330028255,1.3586934499816181,,,0.552929491858785,inf,,,0.8382485961367423
422,,0.0,0.0,1.2048642135609844,1.1708218696639865,0.8547731490566303,1.4966448030499953,1.7992476090065115,,,0.5978297680564633,inf,,,0.8724294194573067
423,,0.0,0.0,1.423472253004739,1.4190208827342268,0.832299431995585,1.3837193642699859,1.8007335695123305,,,0.581717464821069,inf,,,0.8750205774257915
424,,0.0,0.0,1.2821037254173642,1.2492184160302322,0.8610249732843398,1.2816528576320263,1.3230876540258334,,,0.6038851895711802,inf,,,0.8906117666186792
425,,0.0,0.0,1.6146571610999594,1.5703247187724976,0.88165206303248,1.3805889445980335,1.6708536755897776,,,0.552929491858785,inf,,,0.9111624243442178
426,,0.0,0.0,0.7946746147981075,0.7685192807699496,0.7867291600933008,1.1554290041640227,1.1739178749403951,,,0.6008849035917525,inf,,,0.9009887254132289
427,,0.0,0.0,1.480249236108243,1.4650317652451283,0.8607329549927549,1.0795806729947832,1.0980534782661509,,,0.541134803179459,inf,,,0.8857918224959656
428,,0.0,0.0,1.423128592444125,1.390169310530223,0.8775389264491662,1.219130276903954,1.27997035811804,,,0.585052858160615,inf,,,0.9300638105046675
429,,0.0,0.0,1.1284359477705888,1.1056024028224947,0.8287289795896924,1.1160682681140421,1.1261936711119858,,,0.5883313578629602,inf,,,0.861397051083202
430,,0.0,0.0,0.7940384440870791,0.7667956662296569,0.767072345947384,1.1848039145095228,1.299976291310666,,,0.5883313578629602,inf,,,0.8687595512328159
431,,0.0,0.0,0.8414599082162311,0.8146760661392357,0.7450833312917753,1.6518317854733429,1.399462805700832,,,0.6068309995095971,inf,,,0.93587799152773
432,,0.0,0.0,0.3114958683589874,0.28007705646493014,0.41821706560911903,1.6484072584446432,1.5817916269399932,,,0.5604843169999094,inf,,,0.9155618086512088
433,,0.0,0.0,1.6592753171360837,1.635394800934323,0.9143841660804927,1.603430133855331,1.9382232363622238,,,0.585052858160615,inf,,,0.8771567871150105
434,,0.0,0.0,1.2572860728242794,1.2058718499569518,0.8400521585445138,2.341862381477913,2.898325440724129,,,0.5202020156036558,inf,,,0.888761826370446
435,,0.0,0.0,1.7653920359216677,1.7386556481000408,0.9490660522372932,2.8701555626595128,6.083938208289058,,,0.524519217297268,inf,,,0.8818510441106668
436,,0.0,0.0,1.7295489603957248,1.703455858782975,0.9349515086666609,2.4857692255203077,3.1773105122141208,,,0.552929491858785,inf,,,0.8956004607263877
437,,0.0,0.0,1.735052719084014,1.6898563892260534,0.9324811760303431,2.560364553168104,2.501564564205374,,,0.5641709578113449,inf,,,0.8907962270823547
438,,0.0,0.0,1.7586511903871267,1.7592288908648286,0.9474095524344941,2.584852147134027,3.771626931616457,,,0.5370774965580548,inf,,,0.8942698794302614
439,,0.0,0.0,1.6939690053184413,1.669337904613482,0.9528806234563106,2.175326052661057,2.2662548357599097,,,0.4880666971167561,inf,,,0.8484534769133626
440,2.870569130599985,-0.009568563768666617,0.0,0.24617879408116716,0.21804941125821406,0.5200092741886626,1.9091156010055654,1.72385938626762,,,0.5068466436745385,8.574351605256187,inf,,0.6106008666471888
441,,0.0,0.0,0.711095874964868,0.6869253319701425,0.609241906271454,1.71925977221434,1.5775801285054105,,,0.5370774965580548,inf,,,0.8660186187121668
442,,0.0,0.0,1.4298953341674516,1.3944031184387078,0.825160320943139,1.3984816383748655,1.7763376966357434,,,0.49759852643134905,inf,,,0.8289019606866107
443,,0.0,0.0,0.7340670468420061,0.71205834220189,0.5731134760178346,1.0701340663358023,1.388137340995264,,,0.5202020156036558,inf,,,0.8841486743122735
444,,0.0,0.0,0.7448358836908016,0.7311651348860106,0.594390533202075,1.2990511722917928,1.4547516077925349,,,0.5370774965580548,inf,,,0.8965706352725001
445,,0.0,0.0,1.573040981106496,1.55842826529208,0.9147921992704034,1.1987706750027134,1.339250909525052,,,0.5113665138247345,inf,,,0.8456470724400333
446,,0.0,0.0,0.5449757683733198,0.5237495986001539,0.6341300244526197,1.1655016144540211,1.1279409577897246,,,0.5713653840954815,inf,,,0.8983277623024611
447,,0.0,0.0,1.1091321644177434,1.098628206079621,0.732093706141713,1.3539686443579504,1.6060677342123195,,,0.5451288209179292,inf,,,0.8797041049698338
448,,0.0,0.0,0.8793385353732395,0.8529495030940836,0.7807628292737623,1.2592563100778693,1.4127701389095373,,,0.5490601803369085,inf,,,0.92154804730999
449,,0.0,0.0,0.3509099090163445,0.2587822888825464,0.5676864546588345,1.6058240092618141,1.3045845944851235,,,0.6008849035917525,inf,,,0.8228662245479428
450,,0.0,0.0,1.4558638261996681,1.4364660492562993,0.8638474718162651,1.4168643282457285,1.6323010582269546,,,0.5677978065141052,inf,,,0.889675678859806
451,,0.0,0.0,1.1986386380393672,1.1492598761694905,0.7893328515104268,1.3246009125242495,1.781389135471635,,,0.5567373465730988,inf,,,0.9028415466920118
452,,0.0,0.0,0.9083310442189801,0.8623502751021684,0.7838317098958599,1.035508945668922,1.1556939845011684,,,0.6038851895711802,inf,,,0.9341603984332748
453,,0.0,0.0,0.5649359211660012,0.5211961876851645,0.7988002997756946,1.0577906857655266,1.3195862207213551,,,0.5748741956352443,inf,,,0.9300139437861716
454,,0.0,0.0,0.6785762427749928,0.6314564348892925,0.7450050702752813,1.240219922694482,1.1725841077919161,,,0.6008849035917525,inf,,,0.8877790568117425
455,,0.0,0.0,0.7741223730515852,0.7487455087370904,0.7786257528636288,1.2247611501356863,1.3270813356825184,,,0.5287703885177266,inf,,,0.8944962453788754
456,,0.0,0.0,1.5531865900727682,1.513379052321444,0.8525014364936446,1.4392760569179346,1.6569336370401972,,,0.5490601803369085,inf,,,0.9171388468849377
457,,0.0,0.0,1.4641235817986546,1.4358198627662275,0.8282487152861916,1.452330295065306,1.6105550257554024,,,0.5748741956352443,inf,,,0.8910742192475837
458,,0.0,0.0,1.2047716597248832,1.152343345403964,0.8390677901701705,1.1823322124063074,1.2690376765009495,,,0.6153451465759925,inf,,,0.9093984443412075
459,,0.0,0.0,1.367139158490991,1.3064378469334708,0.8707151185161109,1.24684474773223,1.3954211902866869,,,0.6097226960127671,inf,,,0.8885863971918528
460,,0.0,0.0,0.9976427901239383,0.9722632640680925,0.8197150861284366,1.6618213285249837,1.9859439442140834,,,0.5915533975974677,inf,,,0.9014801985600227
461,,0.0,0.0,1.5267334970121613,1.4816933266869787,0.8583036655579201,1.7365666763209204,2.2139047996992893,,,0.585052858160615,inf,,,0.8598178705041511
462,,0.0,0.0,1.5868557804734122,1.5639064123431146,0.8883887783319017,1.8112591830971447,1.9434978731029169,,,0.552929491858785,inf,,,0.8281732755000245
463,,0.0,0.0,0.39729307109761114,0.35917629975604026,0.6024578676941164,1.6297064708274576,1.637968584180043,,,0.5713653840954815,inf,,,0.6538998885093592
464,,0.0,0.0,1.3506049526011035,1.3164571050470057,0.8249151790982188,1.754883660648943,1.8433786745214895,,,0.5451288209179292,inf,,,0.9118146762088619
465,,0.0,0.0,0.5741660490006242,0.5493757492988589,0.4211577805888689,1.492976824467671,1.8440522252765192,,,0.49759852643134905,inf,,,0.6259668031423485
466,,0.0,0.0,1.4120041294116805,1.3898849382280685,0.8470418868924553,1.6761750531806496,2.099256921233007,,,0.524519217297268,inf,,,0.8783005811533358
467,,0.0,0.0,1.6425127440463214,1.6287176273947306,0.9084559739626752,1.6766700287144072,2.3803450671466284,,,0.524519217297268,inf,,,0.8411678624223047
468,,0.0,0.0,0.7925884884748512,0.7745823683883808,0.685039996558358,1.7128780286329186,2.171498872383521,,,0.541134803179459,inf,,,0.8674482796461194
469,,0.0,0.0,0.3129159535729708,0.290468198062628,0.6609855003414093,1.4395931484352291,1.670471458602302,,,0.5677978065141052,inf,,,0.7285934846448161
470,1.040343380544134,-0.0034678112684804465,0.0,0.55316388261062,0.47382324034135176,0.7340623748959041,1.4725466407127863,1.4495090346623214,,,0.5567373465730988,6.744125855200335,inf,,0.8012922230166687
471,,0.0,0.0,1.4556620706676566,1.4239331310143875,0.8409334453283623,1.0291464979005616,1.3039599152222163,,,0.5604843169999094,inf,,,0.8322875185222403
472,,0.0,0.0,0.6072422791454475,0.5855373545776643,0.510307806685897,1.0521945088061417,1.1952649448721802,,,0.5490601803369085,inf,,,0.8991813091893728
473,,0.0,0.0,1.0583746065076087,1.0356671314936687,0.8018002737850236,1.3235899380253644,1.377140455671052,,,0.5915533975974677,inf,,,0.8749336072857608
474,,0.0,0.0,1.3077967408773183,1.2900757060094996,0.7837230334198831,1.4085761585205685,1.6689094988706628,,,0.5567373465730988,inf,,,0.8996235107805179
475,,0.0,0.0,0.7757153018138367,0.7468974035819412,0.6776692037143779,1.419072165283399,1.5031815396289296,,,0.5641709578113449,inf,,,0.8718019483753144
476,,0.0,0.0,0.7973962019396967,0.7682713771218427,0.6469102536533841,1.946199219398967,1.6542000395412892,,,0.5567373465730988,inf,,,0.8191425218450938
477,,0.0,0.0,1.3176549342030166,1.2938080862898511,0.8251242405788676,1.2089678178683951,1.6647509556237827,,,0.5329562494928909,inf,,,0.8618545759856717
478,,0.0,0.0,0.7159514339506755,0.6630854013478624,0.6485138080250958,1.2395925129321426,1.2899377217757833,,,0.5748741956352443,inf,,,0.6002337883046052
479,,0.0,0.0,1.0963643515702028,1.05569747983727,0.7477899063749976,1.7410938478902611,1.9146086131772073,,,0.5158180382284114,inf,,,0.9048945497435635
480,,0.0,0.0,1.3987733772793283,1.3778676138677703,0.8236648522221709,1.6400437318665233,1.8988291423860295,,,0.5329562494928909,inf,,,0.8887685269702756
481,,0.0,0.0,1.34742232499099,1.3268446365852238,0.8573554852341849,1.7148604684762794,1.721257785292088,,,0.524519217297268,inf,,,0.8888226080252657
482,,0.0,0.0,1.4565100305550964,1.4356624839143273,0.8637082455083169,1.6225900162344906,2.0223579838253363,,,0.5783247308855777,inf,,,0.8742921900841768
483,,0.0,0.0,0.16020273491155929,0.14671465004317044,0.5235221963620444,1.3861263797721044,1.2960465445419107,,,0.5947193981915972,inf,,,0.7222245375255397
484,,0.0,0.0,0.4456266678235913,0.42881258555433005,0.6675188259016492,1.2791279819725165,1.3389648592708134,,,0.552929491858785,inf,,,0.9046075568675928
485,,0.0,0.0,1.1918718652159621,1.172000923965756,0.8015427457927395,1.0346511255768938,1.2697505685149069,,,0.5713653840954815,inf,,,0.8534818415095353
486,,0.0,0.0,1.457643504686828,1.4493692891221406,0.8523268272690837,1.046483489751296,1.4653797134388467,,,0.5915533975974677,inf,,,0.8627501171672383
487,,0.0,0.0,0.2508219542286939,0.21037911392081696,0.48611910791670704,1.1021458564837499,1.225432502812843,,,0.6180765742263259,inf,,,0.9465628817191954
488,,0.0,0.0,1.349739903876307,1.3442791668032281,0.8349738842444469,1.2002730143439622,1.418352776473064,,,0.5713653840954815,inf,,,0.9098697097093854
489,,0.0,0.0,1.2596791326374739,1.239902138165362,0.8203755496175809,1.1725433696390275,1.209517541861061,,,0.6068309995095971,inf,,,0.9087631262362611
490,,0.0,0.0,0.48863258856575803,0.4621502862420703,0.769705083811234,1.6345974521979725,1.9824280297134977,,,0.5978297680564633,inf,,,0.6417103420873513
491,3.624340932976365,-0.01208113644325455,0.0,0.25279685293804893,0.20755731941221006,0.5435372653035192,1.663719943438393,1.5719874733549024,,,0.6038851895711802,9.328123407632566,inf,,0.8634051148126793
492,,0.0,0.0,0.5049044088452312,0.478849263232316,0.6534696845647807,1.0399051830709614,1.2554481383671072,,,0.5451288209179292,inf,,,0.8797649729702605
493,,0.0,0.0,1.0605264936900807,1.019196926977238,0.8421122586611967,0.8475609011005921,0.8961538135728632,,,0.524519217297268,inf,,,0.8955907482784807
494,,0.0,0.0,0.4379731714477729,0.38824579087356964,0.7899111717559778,0.5727193803678995,0.6871610800536685,,,0.5287703885177266,inf,,,0.89932417178189
495,,0.0,0.0,0.30789799615619484,0.2777877648999428,0.6803478176919086,0.8976921043167699,1.0186564183172888,,,0.6008849035917525,inf,,,0.9282268691593296
496,,0.0,0.0,1.2403151622765294,1.2272161359692104,0.8420734756336133,0.7719965162531185,0.9034428760135553,,,0.5713653840954815,inf,,,0.8929285187362698
497,,0.0,0.0,0.7753243773977048,0.7725802530852712,0.5875431942607212,1.540808068893909,1.3185723501673023,,,0.5677978065141052,inf,,,0.769856310358527
498,5.703782474656201,-0.019012608248854004,0.0,0.6241906521175927,0.5622416603630778,0.7662727183153849,1.999878644414585,1.5300741147411199,,,0.6333676938231112,11.407564949312402,inf,,0.8441731648589601
499,,0.0,0.0,0.847609571661006,0.8256589888612554,0.7596394337472304,1.6272188130354996,1.9279338692307737,,,0.5748741956352443,inf,,,0.9275324914670684
500,,0.0,0.0,0.7319645477467035,0.6915852935508549,0.8487783160310681,2.102237610733744,2.4165425581395628,,,0.6380535849069913,inf,,,0.9404621256144552
501,,0.0,0.0,1.4720070287633709,1.4270709957714114,0.8653327049446355,2.12977679193436,2.3266573902697067,,,0.5677978065141052,inf,,,0.9156155428798607
502,,0.0,0.0,0.3328963572657223,0.3078049137161605,0.5081891398759987,1.6564127354441938,1.7552883891210995,,,0.6125606311107803,inf,,,0.9318758824860797
503,,0.0,0.0,1.4872196029093874,1.4543580548106623,0.8825570670564461,1.2352442112093482,1.4454709400243813,,,0.5748741956352443,inf,,,0.86911851423743
504,,0.0,0.0,0.6525419094956876,0.6281505430325107,0.6399687473806034,1.219725193711983,1.3223923792563794,,,0.5641709578113449,inf,,,0.8702767575733735
505,,0.0,0.0,1.3601524476897247,1.3032374464733572,0.8353718551019935,1.3986107893552449,1.4867118239626738,,,0.5947193981915972,inf,,,0.8566428934795273
506,,0.0,0.0,1.3846225318758727,1.3648170054298094,0.8392286062994972,1.5013184585498907,1.8126238371251242,,,0.5567373465730988,inf,,,0.8664548299882955
507,,0.0,0.0,0.8596002795209766,0.8314701978553415,0.6802478834320974,1.8318901519557822,1.9671442176515361,,,0.6038851895711802,inf,,,0.879169324392032
508,,0.0,0.0,1.4902218877589906,1.4462431464866063,0.8884905748181015,1.4078698561368301,2.000772870562656,,,0.5451288209179292,inf,,,0.8534066755984867
509,,0.0,0.0,1.1227560668138448,1.0906288873118166,0.7982933621240395,1.0615669745270102,1.4790493485185732,,,0.5883313578629602,inf,,,0.8365686987929152
510,,0.0,0.0,1.2074484890860553,1.2033957648771898,0.8076526774737041,1.1155474886365426,1.3647286823780473,,,0.5947193981915972,inf,,,0.8800254322480274
511,,0.0,0.0,1.34647632103686,1.3383371248033864,0.8341478418452482,1.1601015351530943,1.5311050895135347,,,0.4928685327679205,inf,,,0.816361114341633
512,,0.0,0.0,1.4709615727422478,1.4261820095620874,0.8770117240800134,0.9801502932026128,1.2684640049455114,,,0.5202020156036558,inf,,,0.8543632254144211
513,,0.0,0.0,1.2444330753295862,1.1937233288651252,0.8549972960383131,0.8809384214380546,1.0239451782673306,,,0.5915533975974677,inf,,,0.8944324159818884
514,,0.0,0.0,1.2810666677683595,1.2318784597803654,0.8558206379960501,0.9180329362259493,1.1056987504107398,,,0.5677978065141052,inf,,,0.8854595410156643
515,,0.0,0.0,1.2601297128029327,1.2271212864059078,0.8362159135671183,0.9195271323490117,0.9925534308770858,,,0.5287703885177266,inf,,,0.9002924810360945
516,,0.0,0.0,0.6570811399085532,0.6324297700285969,0.7014672146684843,1.0087031777415505,1.1465661975734434,,,0.5677978065141052,inf,,,0.9004923589689963
517,,0.0,0.0,1.4266878759438757,1.3787532755316263,0.852646891955309,0.8622919323859219,1.0637469832186541,,,0.4629450596409901,inf,,,0.8383907862612634
518,,0.0,0.0,0.667165326646799,0.6284011856944791,0.6682946590275707,1.024715125727624,0.9445089035246133,,,0.552929491858785,inf,,,0.9004716977613526
519,1.8325814637483102,-0.006108604879161034,0.0,0.5432316078941047,0.4921225539372136,0.4673989487769258,1.2244473921566097,1.0938973684587308,,,0.5677978065141052,7.536363938404511,inf,,0.5720634534743169
520,,0.0,0.0,0.40815796298582585,0.3866075805830843,0.46948848970361795,1.0266575215209555,1.100230148777511,,,0.5641709578113449,inf,,,0.893410746294744
521,,0.0,0.0,1.277420689643155,1.2636818660472189,0.8330254350677051,1.016887110288652,1.039124454902292,,,0.5370774965580548,inf,,,0.8628773360345044
522,,0.0,0.0,0.6378776811598083,0.6023333361117824,0.7204349875455569,0.8977408613887881,1.0719211564863678,,,0.5022576003740722,inf,,,0.8611240120992525
523,,0.0,0.0,1.2822172753540197,1.2688749147727783,0.8593913285726028,1.3067173352018993,1.468448314342785,,,0.5713653840954815,inf,,,0.8533827476601213
524,,0.0,0.0,0.9527705710506749,0.9348606789329295,0.7116454314847704,1.112116915774982,1.2339763944558393,,,0.5604843169999094,inf,,,0.8409145563239855
525,,0.0,0.0,0.9084901038106961,0.8726388739577153,0.7014055597950944,1.217683507100194,1.531346566476048,,,0.5370774965580548,inf,,,0.8923864100132031
526,,0.0,0.0,0.35298739569088877,0.3201695206747119,0.6942161639081197,0.9663309069615529,1.0961354102396053,,,0.5287703885177266,inf,,,0.9124141992656848
527,,0.0,0.0,0.6615316926183994,0.6317844826561858,0.6406781416814615,0.9595931239006013,0.9401964823441087,,,0.5490601803369085,inf,,,0.8674934644976384
528,,0.0,0.0,1.5248262975777735,1.480217203718494,0.8462525817858927,0.948778782347033,1.3116918273339913,,,0.524519217297268,inf,,,0.7968074129683635
529,,0.0,0.0,1.1738534600676502,1.1531761967572578,0.8425979112385314,0.967794633052285,1.2707677627704075,,,0.5748741956352443,inf,,,0.8464641393656599
530,,0.0,0.0,1.3392414910448802,1.2987577596922408,0.7978949105788955,0.8040995888545514,1.072124272713712,,,0.524519217297268,inf,,,0.8232962087887007
531,,0.0,0.0,0.3782133637254023,0.3340608617829554,0.43013771457069927,1.0214486314061666,0.9727012123651153,,,0.62595550513784,inf,,,0.6862840248839084
532,,0.0,0.0,0.8118326492138677,0.7503640131601739,0.7803290166111218,1.612596308252431,1.106973493606712,,,0.675384900321601,inf,,,0.9291770178974658
533,,0.0,0.0,0.5754333605327298,0.520807376505349,0.6526869392947794,2.2380542120053426,1.4967781041816486,,,0.6425374456860184,inf,,,0.8720442595106903
534,,0.0,0.0,0.7084180624738954,0.5968763632787146,0.7763891825487993,1.4852322086147314,1.1181318356003616,,,0.6509067234006624,inf,,,0.8384814314504023
535,,0.0,0.0,0.9674936020877333,0.9072553824597885,0.8441045267331827,0.8971412151098682,0.7210439769463055,,,0.6727386042041725,inf,,,0.9511121178224357
536,,0.0,0.0,1.1580129435007578,1.1504589721182328,0.7996717454376264,2.2362389781879286,2.0480563503928058,,,0.6333676938231112,inf,,,0.917233252024173
537,,0.0,0.0,1.3321110933201648,1.3272848657655205,0.808379922423151,3.507136157017833,2.6493234716573792,,,0.6668815377411301,inf,,,0.9356494990634658
538,,0.0,0.0,1.1563030941300567,1.1107551875198987,0.8422688429539865,1.9334357545405956,1.426733306402373,,,0.6468212168108125,inf,,,0.9488408107077729
539,,0.0,0.0,0.8919340454282362,0.8720223606563609,0.7897998663577095,2.488558082493836,1.5274005343445065,,,0.6468212168108125,inf,,,0.8012893966597556
540,,0.0,0.0,1.160342439664872,1.153209419505586,0.8110617482569659,2.640158140163181,2.0108429069312153,,,0.675384900321601,inf,,,0.7960725423568095
541,,0.0,0.0,1.1803645911828855,1.1593127604860376,0.8506131007406313,2.326802538589067,1.9780469219571142,,,0.6425374456860184,inf,,,0.9480415438985742
542,,0.0,0.0,0.804331946254496,0.751934355765853,0.5966377241862001,1.7638097975040765,1.357557950344526,,,0.675384900321601,inf,,,0.778291659094176
543,,0.0,0.0,0.9141093987508383,0.8341068831979179,0.7288039265912704,1.8089028516327257,1.0966637143924811,,,0.6652988471865258,inf,,,0.9439404773920791
544,,0.0,0.0,0.9407181627557718,0.8964538401341438,0.7806580076385479,2.132214651418645,1.69493433741054,,,0.6619902821573977,inf,,,0.9447907359132914
545,,0.0,0.0,0.6354258442332233,0.6218664562388083,0.7304331212696016,1.7815714535451612,1.0732957089056754,,,0.6668815377411301,inf,,,0.947574956852043
546,,0.0,0.0,1.004572803368451,0.9966140666734667,0.7373006011178865,2.0310388547024054,1.5322513649984968,,,0.676637947632344,inf,,,0.9442526441966378
547,,0.0,0.0,1.035611863472335,1.0444613017840685,0.8197223506996117,2.6809703350750356,3.604705566146541,,,0.6425374456860184,inf,,,0.9284880654753594
548,,0.0,0.0,0.2987655849930912,0.27269122405463514,0.39135563289305125,1.9026609522347777,2.293791866086721,,,0.6699045166045591,inf,,,0.9234443495114283
549,,0.0,0.0,0.5755769858740556,0.4279009868706298,0.6658921334644217,1.8595957869237105,1.4174277927896097,,,0.6668815377411301,inf,,,0.8145278448902115
550,,0.0,0.0,0.9518111272492298,0.9560630513114977,0.7132070150216843,2.448094034409893,2.336143165144792,,,0.6547956803312163,inf,,,0.8907476446031899
551,2.7593434954897607,-0.009197811651632536,0.0,0.3523991201256379,0.3383878396049522,0.5205269983104047,2.1426665160083083,1.6773561769361764,,,0.6740851607140061,8.463125970145962,inf,,0.7661769894953754
552,,0.0,0.0,0.806426188109388,0.7841086632701502,0.663120069196482,3.0562624025822225,2.8771873208185155,,,0.6811855325194978,inf,,,0.9480666898784883
553,,0.0,0.0,1.4128953933514374,1.2969812732731292,0.7800783085962961,2.9780854755446167,1.6317745201818452,,,0.6727386042041725,inf,,,0.891824324601283
554,,0.0,0.0,1.7112509331921588,1.6830399881733424,0.8929106517242235,3.568137611738465,2.918241059686615,,,0.688071247053758,inf,,,0.855566716032681
555,,0.0,0.0,1.2952472981417702,1.2798714108725344,0.739488489878423,3.1374872072853948,2.0300679633085417,,,0.6822068148872973,inf,,,0.8806290638512965
556,,0.0,0.0,1.7379254065543142,1.71001312708355,0.8459856772968236,3.0967292934742967,1.9121611026018694,,,0.6904195972802146,inf,,,0.8844963002628549
557,,0.0,0.0,1.3916391711793916,1.3633629564612455,0.7801600946437178,2.225207502067158,1.401233582310046,,,0.676637947632344,inf,,,0.9194790629761299
558,,0.0,0.0,1.3410868653739967,1.2997048196406433,0.7847858484884875,2.140436887742685,1.3703679936317053,,,0.6668815377411301,inf,,,0.9233461543794683
559,,0.0,0.0,1.1454221765662398,1.1377104031914136,0.8187214483144182,2.499209362465211,1.8134008722260937,,,0.68318204999448,inf,,,0.9334963804088013
560,,0.0,0.0,1.7047999702971344,1.660529415667958,0.8862766121626289,2.9638393916921175,3.5684369991291884,,,0.68318204999448,inf,,,0.8786033056949578
561,,0.0,0.0,0.9445240264723435,0.9165000272181837,0.6213342387652137,2.2257954057511387,1.6639651650788982,,,0.676637947632344,inf,,,0.9140678299084454
562,,0.0,0.0,0.954776397594487,0.8734278620086566,0.6683567542304534,2.1892003907223794,1.6649136799391688,,,0.6790044388599258,inf,,,0.9349353308319375
563,2.5682882587270512,-0.008560960862423504,0.0,1.1733525313173838,1.1608910299615498,0.7930402655641332,3.293998919663145,2.596276062854559,,,0.6668815377411301,8.272070733383252,inf,,0.6940867559772345
564,,0.0,0.0,1.085373702030966,1.0669372664254027,0.808410807950414,3.391053387135827,3.6488103565349905,,,0.6699045166045591,inf,,,0.8982675834419778
565,1.7026758800349686,-0.017026758800349685,0.0,0.9629371294870994,0.9306306317040496,0.6684805010660779,3.126943215642739,1.9998736488455147,,,0.68318204999448,5.969485640389206,inf,,0.525780072097646
566,,0.0,0.0,0.6491139417908401,0.5716176802138666,0.6480691850999851,3.117831767019927,2.581461943269125,,,0.68318204999448,inf,,,0.7762358605401026
567,,0.0,0.0,0.8543187345959999,0.7987239630513848,0.7419738893988467,2.6103053160572656,1.567093505402867,,,0.6652988471865258,inf,,,0.7636817814936575
568,,0.0,0.0,0.9154940124190579,0.8886634205651143,0.7445872241079153,2.669503143174857,2.3773944548630754,,,0.6841113288387766,inf,,,0.9477547352189873
569,1.2729656758128873,-0.004243218919376291,0.0,0.8177199488160625,0.8039840667945279,0.62527907084343,2.878538791016138,2.572703773567079,,,0.6668815377411301,6.9767481504690885,inf,,0.6386688981673657
570,2.1820677859879667,-0.021820677859879668,0.0,0.8235145321547522,0.8057240660161282,0.7104953395034272,2.7666391555322924,1.527005300207231,,,0.6425374456860184,6.458805058934233,inf,,0.5791313596792285
571,2.5398459725805367,-0.03386461296774049,0.0,0.4853615193267016,0.3946376930248964,0.5126808531603575,2.164770914379199,1.3464966878610847,,,0.648888643467878,6.027667595771942,inf,,0.5401383315654138
572,2.7593434954897607,-0.009197811651632536,0.0,0.8043167183687495,0.725275628812741,0.5735794965131601,2.05926159517012,1.6408862338406558,,,0.6684167106117298,8.463125970145962,inf,,0.6649091807781178
573,,0.0,0.0,0.8189188443960739,0.7736699209375398,0.5770481646899696,2.266270718340001,1.168137469620985,,,0.6566669596287297,inf,,,0.6684753046713461
574,,0.0,0.0,1.0822624979154587,1.0719332424965857,0.6755792868966566,3.1369128312473102,2.6813982282685696,,,0.684994737851132,inf,,,0.9347364124111639
575,,0.0,0.0,1.1199814602571336,1.1027916348171178,0.7755497622110438,2.459468978315209,2.190800271740341,,,0.6602640781246099,inf,,,0.9410348388365168
576,,0.0,0.0,0.5810643978580584,0.5434997041684314,0.7876286147333279,2.009969369331605,1.5825322831253836,,,0.6699045166045591,inf,,,0.9452514686849246
577,,0.0,0.0,1.0104698707151694,0.9190855394352684,0.7073183023703165,2.217650397713661,2.063217270323866,,,0.6790044388599258,inf,,,0.9244296816591887
578,,0.0,0.0,1.2232077971890731,1.1713930612887111,0.7250850558286829,3.121435415358066,5.115447173472198,,,0.6727386042041725,inf,,,0.9336511919957151
579,1.964984902141514,-0.09824924510707571,0.0,0.9649831860135828,0.9401045575021855,0.6393980333185864,3.866398169588974,8.0634132410737,,,0.6447042257417027,4.545853608831671,inf,,0.870266060948946
580,3.859342747599233,-0.025728951650661552,0.0,0.7221106320856664,0.6309211011064443,0.58825939786171,2.4260044366408926,1.5072610941330917,,,0.6668815377411301,7.693992882608094,inf,,0.8271388759462353
581,2.7655732895526355,-0.027655732895526353,0.0,0.8187014873964682,0.7368280744201579,0.7485087426408016,3.1757928288585746,2.757995469828351,,,0.6528756675646988,7.3645136814778525,inf,,0.6221264880598726
582,3.624340932976365,-0.01208113644325455,0.0,0.8235078872527309,0.816416482381558,0.5040320622534279,3.0229046537389594,2.523257813682485,,,0.6528756675646988,9.328123407632566,inf,,0.6880186061416182
583,,0.0,0.0,0.7731440174202322,0.7364266082300882,0.7544542741677329,1.8891723768506279,1.7177337704421403,,,0.6547956803312163,inf,,,0.9432938327227741
584,,0.0,0.0,0.8539936207032148,0.7979468709871675,0.5702650933895745,2.2808055252324935,1.8559444011792103,,,0.6333676938231112,inf,,,0.6767288481178128
585,,0.0,0.0,0.7039897344169037,0.67504361945177,0.7165568718389832,2.0953569040039124,1.4092572199712037,,,0.6790044388599258,inf,,,0.9509859271495339
586,,0.0,0.0,0.4128048388903693,0.31305959481875467,0.7157421249838927,1.8571420241726766,1.3100347057772368,,,0.6790044388599258,inf,,,0.8656258998793671
587,,0.0,0.0,1.1217250369632397,1.105256363673845,0.7968460712121652,2.1414558970250446,2.0056301034616353,,,0.6619902821573977,inf,,,0.8777296148679427
588,,0.0,0.0,1.0291335565016364,1.0101351947483486,0.7969448209819842,2.067352503460675,1.4409252342909977,,,0.6357360191111145,inf,,,0.9357892373437413
589,,0.0,0.0,0.5300716246106888,0.4930534224109472,0.6291614407409151,2.2088815285404904,1.7131834788288285,,,0.6790044388599258,inf,,,0.9601169278898215
590,,0.0,0.0,0.8217673606599429,0.775769383768706,0.7737268196469894,2.9558626978164253,2.4046808663070176,,,0.6528756675646988,inf,,,0.8307803057605222
591,,0.0,0.0,0.8531244709396899,0.7736416491314159,0.6668214882061462,2.1210608970382525,1.4490310078025423,,,0.6447042257417027,inf,,,0.9390544947370212
592,,0.0,0.0,0.794815858881156,0.7882772900509712,0.5151518961565043,2.767789560020901,1.8540027046757919,,,0.6547956803312163,inf,,,0.8043728465830878
593,5.0106352940962555,-0.016702117646987518,0.0,0.45770569079407397,0.2947791068986141,0.5476961987589193,1.9353194449216273,1.512438083137483,,,0.6778444222523095,10.714417768752456,inf,,0.8945649459357118
594,,0.0,0.0,0.997492066522599,0.938394135144315,0.6873695566385175,3.0216533967901054,1.4819181307579594,,,0.6778444222523095,inf,,,0.9504432921252394
595,,0.0,0.0,0.5132691332154655,0.4588366408796181,0.5918686785630105,2.1370133322930713,1.7779366998339499,,,0.6873705427232264,inf,,,0.9476328630185888
596,,0.0,0.0,1.275052165594971,1.2656101861646294,0.8173879180156859,2.6632162469494323,2.372042693575129,,,0.6566669596287297,inf,,,0.9509990342806275
597,0.941608539858445,-0.003138695132861483,0.0,0.43814003149833536,0.4192298546346507,0.5631348425148263,2.5605377117979873,2.03043520978823,,,0.675384900321601,6.645391014514646,inf,,0.7487142082435597
598,,0.0,0.0,0.9772878296847977,0.9523027236568045,0.7606444778682737,2.8615287699130874,3.3694886907263655,,,0.6740851607140061,inf,,,0.9491755750965879
599,,0.0,0.0,0.9807088604985952,0.9573113841692805,0.6629681328749069,2.9067844167806154,2.095779169232705,,,0.6425374456860184,inf,,,0.9467816702932305
600,3.757872325600888,-0.012526241085336292,0.0,0.29733189336949206,0.26406671284585365,0.33480913641983445,3.138154237220879,2.10080093527085,,,0.6790044388599258,9.461654800257088,inf,,0.686258689784423
601,,0.0,0.0,0.8968320960970732,0.8838307061402967,0.6500917448120541,3.3743956031007993,3.582237071499109,,,0.6684167106117298,inf,,,0.9354468841855551
602,,0.0,0.0,0.9574379090741852,0.9484296318234935,0.6756378046498444,3.10555455920448,7.572729920769972,,,0.6699045166045591,inf,,,0.9328036912534643
603,,0.0,0.0,0.9081249844435495,0.8917922814472692,0.6880501445773148,2.732218247950819,2.953129128692687,,,0.6740851607140061,inf,,,0.8689309045560227
604,,0.0,0.0,0.7573590038713419,0.710293339116131,0.6541778592870976,3.4753276525290526,5.562969896279519,,,0.6468212168108125,inf,,,0.6187678264902506
605,2.371577964480997,-0.007905259881603323,0.0,0.974240046052753,0.9284110238049819,0.7251200190385374,3.039040374869664,2.535160316737468,,,0.6602640781246099,8.075360439137198,inf,,0.7587488162282822
606,3.0647251450409425,-0.010215750483469808,0.0,0.8208059248272949,0.8034726958590038,0.5019665118883033,2.693656939972631,2.917370332322915,,,0.6652988471865258,8.768507619697143,inf,,0.7068047181326523
607,,0.0,0.0,0.8725044130596303,0.8635606592192396,0.680867511726237,2.3918683525048676,2.132817767395173,,,0.6468212168108125,inf,,,0.9327931394107767
608,,0.0,0.0,1.4185563786143311,1.4091929795898788,0.8375837292725902,2.4465266186663066,2.478719758371039,,,0.6727386042041725,inf,,,0.8408111817221456
609,,0.0,0.0,1.4372986926153477,1.431224905900227,0.8499686304450529,2.4636991741856376,2.3505790421511374,,,0.6778444222523095,inf,,,0.905952181393863
610,,0.0,0.0,1.1070334863995015,1.0924596248210083,0.7788511517614124,2.494466276335946,2.547676256105393,,,0.6403206450210053,inf,,,0.9435079299884479
611,,0.0,0.0,1.275175431531578,1.2366688179967444,0.7781473800408124,2.2745130792029964,3.162441740049364,,,0.6684167106117298,inf,,,0.9082651568315521
612,,0.0,0.0,1.3293396980525007,1.316184898166349,0.818594589398618,2.1763377203684313,2.2620540341236492,,,0.6403206450210053,inf,,,0.9232845403194416
613,,0.0,0.0,0.8967841114829299,0.8770436099140041,0.6997127513449249,2.30276755203744,1.8818535683475224,,,0.6233814453054027,inf,,,0.93279591358575
614,,0.0,0.0,1.4617511977762225,1.436170760350959,0.7814781226792742,2.552248251144581,3.138297473057319,,,0.6668815377411301,inf,,,0.9373713793626229
615,,0.0,0.0,1.3027624775224858,1.2816803363371856,0.8034620518215768,2.2517105874980827,2.8156890308892804,,,0.6425374456860184,inf,,,0.8207751908205241
616,,0.0,0.0,0.5126096810455484,0.4796975959690032,0.6367260047352775,2.5776599458882425,3.892294789664883,,,0.6528756675646988,inf,,,0.9351239455692003
617,,0.0,0.0,1.3180442764980038,1.2854656202952564,0.8352918829040825,2.27829145812133,2.071860164515242,,,0.6380535849069913,inf,,,0.9309652409020199
618,,0.0,0.0,1.5242637223585225,1.5039035851846752,0.8378798144134673,2.281796380561315,3.5096259544303066,,,0.6528756675646988,inf,,,0.9031221421449753
619,,0.0,0.0,1.3904838588617523,1.3571046679334857,0.8360871173283774,2.5436082471699435,2.9941883063034385,,,0.6447042257417027,inf,,,0.9387521353229276
620,,0.0,0.0,1.3098282117862077,1.2678886020426743,0.7730414499136569,2.912915376374504,4.567241945727513,,,0.6425374456860184,inf,,,0.9143833879725342
621,,0.0,0.0,1.2909885813994795,1.284622974703962,0.7703603443714149,3.269396990438049,3.6634558986979973,,,0.6403206450210053,inf,,,0.9211057041567786
622,,0.0,0.0,1.4409829803222463,1.385546488434539,0.7960889980649867,3.0575717127572655,6.085967146886626,,,0.6652988471865258,inf,,,0.8998974818625893
623,,0.0,0.0,1.2650707560355023,1.2452340460453206,0.7504800026611045,2.8334586415950964,4.257657635583328,,,0.6447042257417027,inf,,,0.9247576049825471
624,,0.0,0.0,1.1786132036982802,1.1582575621497173,0.7456746701100676,2.4022419753788746,2.47678750280825,,,0.6425374456860184,inf,,,0.939290884580391
625,,0.0,0.0,0.8566001409881039,0.8368090991818535,0.6921251350452798,2.554450096111998,2.6115620660177674,,,0.6309483474627791,inf,,,0.9226774402525292
626,,0.0,0.0,1.4635711036732053,1.4307734189238381,0.7690572345505585,2.609985339552061,3.6736327393290207,,,0.648888643467878,inf,,,0.9253469476407168
627,,0.0,0.0,1.39099794241251,1.3699931624425814,0.8189380242533688,2.5881412025287456,3.1586165468017624,,,0.6357360191111145,inf,,,0.919453578868267
628,,0.0,0.0,1.7047568330866092,1.6746332860000164,0.8866619761538044,2.938064518427744,4.89881664776183,,,0.6566669596287297,inf,,,0.8725347241375058
629,,0.0,0.0,1.6007911036918376,1.595172928769558,0.8941998273568699,2.568186314951112,5.0832230461616135,,,0.6403206450210053,inf,,,0.9229728324237111
630,,0.0,0.0,1.5302172837459576,1.5238475077847708,0.8576482844604487,2.716689778306388,5.121049599761375,,,0.6528756675646988,inf,,,0.9104303533210104
631,1.4842747694800944,-0.004947582564933648,0.0,0.821585897730755,0.8054940297588342,0.3838849748889983,2.832591276507903,3.4865388463350424,,,0.6528756675646988,7.188057244136296,inf,,0.571457635651133
632,,0.0,0.0,1.35952038378356,1.326464891564915,0.8069390607443073,2.9201590851841535,3.4709500533811606,,,0.6425374456860184,inf,,,0.9113481337785304
633,,0.0,0.0,0.772959672619387,0.7333634798482322,0.5156552956909495,3.1435253261236746,3.6262569164231384,,,0.6652988471865258,inf,,,0.9445105755455541
634,1.160487692386197,-0.00386829230795399,0.0,0.7154696988507838,0.6471704927189915,0.7740482716535821,2.4335339766679502,2.052699381691084,,,0.6652988471865258,6.864270167042398,inf,,0.6243785121249027
635,1.5664936218197776,-0.015664936218197777,0.0,1.2451393720257649,1.2017439895994713,0.8530525761201846,3.256396614365731,3.455701483720175,,,0.648888643467878,6.11426012458791,inf,,0.8558029713893762
636,2.870569130599985,-0.009568563768666617,0.0,1.0181148604248451,0.9228472839546411,0.7819302640758666,3.417941637141804,3.214373619850485,,,0.6713451011121618,8.574351605256187,inf,,0.7442441119802264
637,,0.0,0.0,1.1780835892066222,1.1756651708518489,0.854532088716606,2.8192256684271095,3.062051260699132,,,0.6447042257417027,inf,,,0.942890288707813
638,,0.0,0.0,0.8230884176484164,0.8042925629207115,0.8277907105830179,2.8445821568744893,4.672492035407117,,,0.6447042257417027,inf,,,0.8409861341579741
639,,0.0,0.0,1.149901347340476,1.113366012095801,0.8216238316186376,2.376385500092032,1.238662552688842,,,0.6528756675646988,inf,,,0.9524543324955831
640,,0.0,0.0,1.0940580502579755,1.0825646069212747,0.7791377548024464,3.2288522230766663,2.3088009523985864,,,0.6233814453054027,inf,,,0.8147782605785423
641,,0.0,0.0,1.0634576002066891,1.0560710860509814,0.7737902302521313,2.670852832266032,2.6436357597614264,,,0.6357360191111145,inf,,,0.8744587855835587
642,,0.0,0.0,0.9758594838901335,0.9555776374871479,0.731850870593674,2.3664559097117595,1.7230656824739796,,,0.648888643467878,inf,,,0.823672555530951
643,,0.0,0.0,0.9650211210027495,0.9319509953378944,0.7611872874617929,2.132799619250213,1.320990850972437,,,0.6566669596287297,inf,,,0.9540349078503336
644,,0.0,0.0,0.9763510864376383,0.937942744553528,0.7977006048356325,2.459733893106267,1.8355875668771442,,,0.6684167106117298,inf,,,0.9565812079244254
645,,0.0,0.0,0.8744397973078007,0.8557112492556163,0.7004906950381691,2.78583606761568,2.855806624402179,,,0.6684167106117298,inf,,,0.9436458945579499
646,,0.0,0.0,0.5876703931492845,0.5669042304557226,0.5895061030162165,2.4632512615559223,2.0849745367295913,,,0.6778444222523095,inf,,,0.9370134456809603
647,,0.0,0.0,1.0932441827075134,1.0819974866000455,0.8271028991470419,2.2357355134922527,1.6817977518700693,,,0.6841113288387766,inf,,,0.9395211591077269
648,,0.0,0.0,0.7133548876334722,0.6921147805386277,0.6957943590828148,2.573826567623283,2.2258834687661393,,,0.6699045166045591,inf,,,0.952027216819855
649,,0.0,0.0,1.2914098885179182,1.28205025904438,0.8629104708970564,2.607474339490465,2.767892066293958,,,0.6547956803312163,inf,,,0.9403669352908136
650,,0.0,0.0,0.97138144868741,0.8448125407212556,0.7120106165017585,2.1706119005375215,1.3541627978037551,,,0.6740851607140061,inf,,,0.9472639098416396
651,,0.0,0.0,0.4094415167832841,0.3066245312677953,0.5132216139489423,2.7411773047627404,2.2121223996507053,,,0.6822068148872973,inf,,,0.7026444642657154
652,,0.0,0.0,0.7253213699370621,0.7011321649838548,0.4379543631781419,2.0917640960925117,1.4810366414805882,,,0.6811855325194978,inf,,,0.9495856611371617
653,,0.0,0.0,1.241691676518982,1.2204099329922604,0.7262714157958778,1.5275087668071297,1.1528725841752039,,,0.6727386042041725,inf,,,0.9258149943121353
654,,0.0,0.0,0.32661565601383613,0.28447268296136635,0.5449907822272314,1.9732725961333668,1.5456851753086849,,,0.6740851607140061,inf,,,0.9520745063667096
655,,0.0,0.0,0.6670225673791851,0.6200612766482357,0.6699970047025497,2.233997311311005,2.022676964943151,,,0.6566669596287297,inf,,,0.83677902402162
656,,0.0,0.0,0.4235197278529082,0.3833705101749301,0.6009890798375954,1.7310680175627293,1.5896905207157186,,,0.6822068148872973,inf,,,0.9507061974838682
657,,0.0,0.0,0.5773749264882024,0.5345139813072656,0.5375052425471227,2.0124313704471057,1.7247464248759279,,,0.684994737851132,inf,,,0.9376582849900009
658,,0.0,0.0,0.6280659235985255,0.5664522726543179,0.7494145366024346,2.391308622163571,1.7578766255352236,,,0.68318204999448,inf,,,0.9375310114449572
659,,0.0,0.0,0.6271496016133881,0.6015237467897044,0.7442880358560667,2.044804120071398,2.082517152989622,,,0.6425374456860184,inf,,,0.9186212569068677
660,,0.0,0.0,1.5159571805164929,1.472618877798018,0.8549520980532745,1.9198329761637096,2.1286602591072814,,,0.6811855325194978,inf,,,0.9214198431183567
661,,0.0,0.0,1.3505387513296458,1.3390020773659759,0.8310418781180017,2.2510606384301424,2.2848207147116937,,,0.6566669596287297,inf,,,0.9221998008064035
662,,0.0,0.0,0.44323813190795985,0.42733894113512466,0.5075684347998833,2.4158208650974955,2.489736383975583,,,0.675384900321601,inf,,,0.9209276579981516
663,,0.0,0.0,0.7850189954089427,0.7391870063200336,0.49115623954913323,2.320336195332082,2.1518846509377383,,,0.6713451011121618,inf,,,0.6811218353256207
664,,0.0,0.0,0.8035089772896561,0.7543218590866866,0.5667798631399344,2.391870138142543,2.5487999290785623,,,0.6619902821573977,inf,,,0.9449752391142355
665,,0.0,0.0,0.5153357100267952,0.4918961558680631,0.5783790632170006,2.8320077237634322,4.475189288584352,,,0.6740851607140061,inf,,,0.9484792989040541
666,2.70805020110221,-0.009026834003674034,0.0,0.8796628111351182,0.8502736343736527,0.4513794628063256,2.6800635450457233,2.045151994706489,,,0.6547956803312163,8.411832675758411,inf,,0.60115209030004
667,,0.0,0.0,0.9181590088601824,0.9187937310905455,0.5354822789091206,3.020320330593595,2.3897166587937955,,,0.6699045166045591,inf,,,0.6010908397082665
668,,0.0,0.0,1.5671843044220393,1.5404225320430884,0.8426730659978523,3.841800975661274,2.5468035884402225,,,0.6866242695638369,inf,,,0.8925428104930047
669,,0.0,0.0,1.716738664597393,1.7032852373855536,0.8893600433164669,3.270178753940353,2.639116782591993,,,0.6727386042041725,inf,,,0.8946945438348332
670,,0.0,0.0,1.5126395711915595,1.4863339070679837,0.7673241156616198,3.467511658386048,7.430922973130076,,,0.6699045166045591,inf,,,0.9107802738440298
671,,0.0,0.0,1.7205249721544913,1.6977543484676159,0.86603837382396,3.4726178441582065,9.152762111531482,,,0.6858323589451731,inf,,,0.9105405593376473
672,,0.0,0.0,1.7656998845435723,1.7530291998063348,0.8915912946130897,3.3438276859660747,3.5021970583213298,,,0.6602640781246099,inf,,,0.8686867044438223
673,,0.0,0.0,1.3348817432840823,1.2847503981499868,0.7434032378820252,2.720388767107528,2.7019417417652174,,,0.6619902821573977,inf,,,0.8538571609718066
674,,0.0,0.0,1.3674386617574217,1.374738982305313,0.835215831219171,3.109477689977254,2.800441410171745,,,0.6547956803312163,inf,,,0.9409485884665486
675,,0.0,0.0,1.043330209899616,0.9885148099584502,0.7716795326939241,2.9182458628449632,5.1171769614430405,,,0.6668815377411301,inf,,,0.9372837539447261
676,,0.0,0.0,1.4814065384909472,1.462978754969456,0.8527511440541137,3.272015058853112,17.393759326149233,,,0.6528756675646988,inf,,,0.8795423857211867
677,,0.0,0.0,1.6204357428387017,1.5916205843609572,0.8717251759380079,3.093458201445204,10.144902804053748,,,0.6403206450210053,inf,,,0.8695845024138382
678,,0.0,0.0,1.422269433774883,1.397258728385955,0.8112119081600137,2.931656558727515,3.300239602081105,,,0.676637947632344,inf,,,0.9235539242500754
679,,0.0,0.0,1.1499180952906023,1.1282046715418774,0.6413345692563045,3.1465656778712687,3.652297209901518,,,0.6566669596287297,inf,,,0.9202421694858037
680,,0.0,0.0,1.531123248863284,1.490765846139912,0.8034679622000432,3.018901001798215,4.624540406751594,,,0.6893362020498699,inf,,,0.913226762683525
681,,0.0,0.0,1.1233418814478786,1.1093407845079608,0.7207047013411394,3.137512812823153,2.6812034008279455,,,0.68318204999448,inf,,,0.92889509686516
682,,0.0,0.0,1.4551321167501419,1.4253985124493862,0.8383528662631677,3.057161755916299,2.6556182188285455,,,0.6699045166045591,inf,,,0.9263905935010789
683,,0.0,0.0,1.3799084258184517,1.330560828849618,0.7933563046727231,3.058552549931203,3.6954160310728357,,,0.6778444222523095,inf,,,0.9198967563060334
684,,0.0,0.0,1.289234239253918,1.2776816612557258,0.7583542823547726,3.0287595531582223,4.5103081169001165,,,0.6566669596287297,inf,,,0.9372447945568246
685,,0.0,0.0,0.8521413876875711,0.851055909779844,0.6540046604350713,3.0261853054751398,5.268135766442968,,,0.6509067234006624,inf,,,0.9338587935383748
686,,0.0,0.0,1.3764624427113645,1.356324180104427,0.8146345688646103,3.0821311843805534,4.4777379787342495,,,0.6333676938231112,inf,,,0.9104936814680656
687,,0.0,0.0,0.8792180845608946,0.8415693734267445,0.6746652994907362,2.3249874444051564,2.0245436327580184,,,0.648888643467878,inf,,,0.9338622386877181
688,,0.0,0.0,0.7289299248560783,0.7151062619152766,0.521251794275604,2.1917852162726907,3.6625097616528044,,,0.6038851895711802,inf,,,0.9557211049562468
689,,0.0,0.0,1.6645949870187653,1.6504272008116854,0.9080447480367586,2.2887312093140455,4.187860030377587,,,0.5883313578629602,inf,,,0.8753083338756743
690,,0.0,0.0,0.7341482975990008,0.6911666212887251,0.6890206712262902,2.2122230793792013,3.102970150847009,,,0.6333676938231112,inf,,,0.9243706374367395
691,,0.0,0.0,1.5203774598225166,1.4784825216816966,0.8478111895779241,2.251847512759132,2.9114789898318283,,,0.6380535849069913,inf,,,0.9088474434114586
692,,0.0,0.0,1.7069616477239418,1.6781063092385184,0.8841776074773446,2.916999400946225,4.214920974850056,,,0.6547956803312163,inf,,,0.8863534938331937
693,,0.0,0.0,1.6298200927662028,1.5987788474063285,0.8645858357913112,2.3870087907524007,4.024241687578301,,,0.6233814453054027,inf,,,0.8864820557606168
694,,0.0,0.0,1.6225741622621257,1.6042886296657974,0.9058226675176823,2.7958854497333774,3.986103431469075,,,0.6333676938231112,inf,,,0.8930817829233089
695,,0.0,0.0,1.555713652464592,1.5486732128359213,0.8665803518493519,2.6775451148438107,6.109396070358244,,,0.6309483474627791,inf,,,0.9258324178067467
696,,0.0,0.0,0.9939473639893414,0.9188590518585618,0.6354515003476995,2.4829877166189696,3.3731594387817863,,,0.62595550513784,inf,,,0.7293345168083081
697,,0.0,0.0,1.1119263271784565,1.056609468516247,0.7557012316018338,2.9718582944034133,3.79674128717495,,,0.663668482632973,inf,,,0.9541975010321344
698,,0.0,0.0,1.4224555981994325,1.4116216970383617,0.8110485726014096,2.1253023694906275,2.6274567579957777,,,0.5978297680564633,inf,,,0.9186413528478523
699,,0.0,0.0,1.187016736635849,1.1779847947181827,0.7770301292924701,2.15604881069411,3.6564896892117664,,,0.5748741956352443,inf,,,0.9091134668909876
700,,0.0,0.0,1.4205825021076395,1.4099042603426148,0.8508820208056044,2.3684844378096437,4.830263437486318,,,0.6125606311107803,inf,,,0.90930967696643
701,,0.0,0.0,1.062568746673111,1.020421372214482,0.6722835383001335,2.3675684877650163,3.7039067302249977,,,0.581717464821069,inf,,,0.9150337311706048
702,,0.0,0.0,1.6083813941132175,1.610883119663529,0.8974020468678278,2.941937802576645,4.237632551888451,,,0.6097226960127671,inf,,,0.87321670082187
703,,0.0,0.0,1.0504976702320792,1.0308263173914292,0.7190996563103577,2.9088598363460174,3.076282235470216,,,0.6207552362147116,inf,,,0.9197398726685859
704,,0.0,0.0,1.4602804151220738,1.442051027131294,0.8378774985119413,2.9127678904465903,3.5393489595440957,,,0.6038851895711802,inf,,,0.9242400616501727
705,,0.0,0.0,1.0506376544775065,0.9920544378062686,0.8103170319802472,2.9299652678600747,3.164594764907331,,,0.6008849035917525,inf,,,0.9190966437346288
706,,0.0,0.0,1.0116195190460566,0.9750944173783235,0.7851743568281498,2.3063346406896326,1.5128997847322965,,,0.6566669596287297,inf,,,0.9443124070652625
707,,0.0,0.0,1.2705573735238427,1.2393376304838735,0.8280889989685234,2.3893561810886346,2.3350081482316503,,,0.6333676938231112,inf,,,0.9386928487454889
708,,0.0,0.0,0.977223018792252,0.9623868920382603,0.7104579414812445,2.9269191756921784,2.3162872064993656,,,0.6207552362147116,inf,,,0.9393817646719023
709,,0.0,0.0,1.327040323824733,1.2718449117347095,0.7883691911885443,2.679736027111078,2.456019844685228,,,0.6425374456860184,inf,,,0.8682908410023225
710,,0.0,0.0,0.7388754085292678,0.708726222673487,0.7551545189954635,2.0690296904289025,1.8994535494095475,,,0.6602640781246099,inf,,,0.7457769323399366
711,1.181993897607161,-0.003939979658690537,0.0,0.7591882413742257,0.6422435547897363,0.7852556422245662,2.6822684966013197,2.266878616474122,,,0.6180765742263259,6.885776372263361,inf,,0.8229118288735005
712,,0.0,0.0,0.7454393594064221,0.7172534991767798,0.7814778078637106,1.9341557057877647,2.162355277042842,,,0.5202020156036558,inf,,,0.9053926793290398
713,,0.0,0.0,0.7539502775958,0.7209904739588965,0.6376619784317026,1.6121042217219386,1.6641733918839714,,,0.5068466436745385,inf,,,0.9271786650350784
714,,0.0,0.0,0.5577848638143531,0.4829491160783026,0.6399015840890667,1.799431636550261,2.0027408181665387,,,0.5604843169999094,inf,,,0.8351056335526513
715,,0.0,0.0,1.4312095777813445,1.4038816553900755,0.8474851941395285,1.9208731770460428,1.8671821125194683,,,0.524519217297268,inf,,,0.9309046575132043
716,,0.0,0.0,1.7342620939024376,1.6898368634361087,0.9138591792626721,2.007701208766347,1.9335475205489985,,,0.5451288209179292,inf,,,0.9070381776967656
717,,0.0,0.0,1.6953165424686647,1.6575653786832463,0.9248433144319895,1.715701742346506,2.0810611482411483,,,0.5451288209179292,inf,,,0.8910795008346242
718,,0.0,0.0,1.6679461828223578,1.638786502901689,0.9278151987576552,1.6378882149831289,1.5799824752946494,,,0.5641709578113449,inf,,,0.9232417943009161
719,,0.0,0.0,1.6681410157717889,1.6517130192075737,0.9115542873524335,1.6687750296765378,1.4869718195707626,,,0.541134803179459,inf,,,0.8746576858546885
720,,0.0,0.0,1.4607710733160442,1.4286339001212793,0.8651975022207766,1.5896139801427072,1.9331024104185233,,,0.5158180382284114,inf,,,0.9091643948672378
721,,0.0,0.0,1.693725464247345,1.6311352142836169,0.9186905762457076,1.5984972117781886,1.666388509393685,,,0.48319206230712763,inf,,,0.8824724690896993
722,,0.0,0.0,1.6701128459591006,1.6122348227963033,0.9290085892838719,1.6204693528336376,1.69701872421883,,,0.552929491858785,inf,,,0.9271930605116543
723,,0.0,0.0,1.6625701996472482,1.6587471111384242,0.8703404637029333,1.5760129858465257,1.2210368006773051,,,0.5158180382284114,inf,,,0.9158670455550497
724,,0.0,0.0,1.6575796048778724,1.6146308515988874,0.8982518099021307,1.85441017698223,1.4510664847378154,,,0.5713653840954815,inf,,,0.8950423119307953
725,,0.0,0.0,1.646887326319105,1.5852496713444135,0.8895587232326956,1.6218005744371626,1.3213872174287005,,,0.5947193981915972,inf,,,0.9094254237616458
726,,0.0,0.0,1.5231500411357835,1.4671820642865598,0.8551741655849361,1.8013068639668675,2.298948519042976,,,0.581717464821069,inf,,,0.9197022195111385
727,,0.0,0.0,1.7427176929093946,1.6761203873658612,0.9159076569951464,1.9830223555503246,1.7884000363963646,,,0.5567373465730988,inf,,,0.8692542769711885
728,,0.0,0.0,1.32080911585188,1.2944608945425449,0.8715251925595391,1.5479642828632514,1.4325197981859554,,,0.6068309995095971,inf,,,0.8601833776735818
729,,0.0,0.0,0.7731614507981048,0.7326138952581076,0.7674570271823483,1.5112350313169698,1.1084393340772678,,,0.5748741956352443,inf,,,0.9193552381042187
730,,0.0,0.0,1.0398182355429682,1.0389034817474678,0.7294626327422863,1.4618169914671155,1.207770837624644,,,0.5068466436745385,inf,,,0.8875102421708929
731,,0.0,0.0,1.569082033033318,1.5507933418829474,0.901904839752217,1.3029041502394034,1.2939429941246483,,,0.5158180382284114,inf,,,0.8757063713557449
732,,0.0,0.0,0.4490075727461833,0.39731098959514577,0.6398177257431735,1.0577710562692992,1.0576426438894586,,,0.5329562494928909,inf,,,0.9105301169349399
733,,0.0,0.0,1.5129116060740306,1.4846620558166326,0.9085927612920667,0.9575895908536275,1.1702602019811157,,,0.5451288209179292,inf,,,0.8495860899721143
734,,0.0,0.0,0.6085954224440339,0.5812352835616152,0.693906104701654,1.039910147336943,1.1902934471557371,,,0.5677978065141052,inf,,,0.8785370874059555
735,,0.0,0.0,1.5025614072108942,1.453774692306077,0.8776709983625437,1.0939901557933138,1.3829071591321973,,,0.5567373465730988,inf,,,0.8483483502756227
736,,0.0,0.0,1.4258685909545445,1.3993278392311632,0.8614912189170205,1.0519403505738987,1.1446727740823928,,,0.5022576003740722,inf,,,0.8381445051253963
737,,0.0,0.0,1.4696936413409714,1.4502240031286249,0.8768812967359214,1.0314976735240806,1.2835054237740007,,,0.552929491858785,inf,,,0.8200241936713653
738,,0.0,0.0,1.4710330779625678,1.4549414747910587,0.8612146689316096,0.9692349958884193,1.2630955395147785,,,0.5490601803369085,inf,,,0.8066803012132086
739,,0.0,0.0,1.3042062354801858,1.264041660921001,0.8185319891686503,0.9988102277448837,1.2211131998814972,,,0.552929491858785,inf,,,0.805484839579557
740,,0.0,0.0,1.4748528545350752,1.4555589608081976,0.8580097778393605,0.9775844138995902,1.2723231717425492,,,0.524519217297268,inf,,,0.8074453960060055
741,,0.0,0.0,1.4340664487307466,1.4188979677839735,0.8413225594163185,0.9738765240282652,1.2169779180564002,,,0.5713653840954815,inf,,,0.785979723146833
742,,0.0,0.0,1.3726202210957845,1.3270734606541439,0.8408599381606551,0.9875184062595715,1.2153946720195736,,,0.5783247308855777,inf,,,0.8024713662916411
743,,0.0,0.0,1.2698554037764598,1.2084950786434818,0.8017757592950688,1.0766185181355374,1.252113552369126,,,0.552929491858785,inf,,,0.8510058701098835
744,,0.0,0.0,1.0673467253335711,1.0193261828184026,0.8142328940880893,1.0112689237371717,1.1625541194516944,,,0.5748741956352443,inf,,,0.858047382632031
745,,0.0,0.0,1.2881115969088346,1.279881801320517,0.855877358282533,1.4333863617664737,1.5893949345516736,,,0.5329562494928909,inf,,,0.85814328414097
746,,0.0,0.0,0.8465318721113874,0.8056854452534099,0.7203169332359487,1.2499782832798791,1.2399239760246061,,,0.5329562494928909,inf,,,0.8591150153676584
747,,0.0,0.0,0.8697228729292417,0.8211232247477124,0.7326500820731052,1.711735574075425,1.700962096374316,,,0.524519217297268,inf,,,0.9045689152902191
748,,0.0,0.0,1.3516615996505636,1.3316248443769432,0.8692608660888826,1.8896938718376262,1.9909763763258697,,,0.5068466436745385,inf,,,0.8900910749916032
749,,0.0,0.0,1.247748596016461,1.2162441472511465,0.8109209346888705,1.6452659068005058,1.474926667697339,,,0.5068466436745385,inf,,,0.8891148170521015
750,,0.0,0.0,0.17293301827745552,0.14001633678649616,0.46871746084392235,1.9685176219665785,1.7587709898717228,,,0.5641709578113449,inf,,,0.7268604827949728
751,,0.0,0.0,1.6427831149422814,1.6322465244775033,0.9059086079383903,1.8324588767340015,1.510541808913041,,,0.47824363442641393,inf,,,0.8719141988594451
752,,0.0,0.0,1.737107735559351,1.6826494290045821,0.9379783877956497,1.9896790406715854,1.5764580594772999,,,0.5158180382284114,inf,,,0.8985038078402872
753,,0.0,0.0,1.7609846370045752,1.7293057238867184,0.9231313191335387,2.5960737232934563,2.647314609832884,,,0.585052858160615,inf,,,0.8913116274223043
754,,0.0,0.0,1.7705928920542469,1.748467780059479,0.9287758331560326,2.4530222468417584,3.185563447052079,,,0.5641709578113449,inf,,,0.894018299699803
755,,0.0,0.0,1.705218114941792,1.7006660110893186,0.9473109658044572,2.0570958928921517,2.5092856906281957,,,0.5490601803369085,inf,,,0.881813081978325
756,,0.0,0.0,1.7323141668813729,1.7118020986778404,0.9351565736156933,2.431862694644883,2.380405903824465,,,0.5329562494928909,inf,,,0.8929924460035478
757,,0.0,0.0,1.7061639827842354,1.687308044666003,0.9298869958857522,2.442748555858348,2.38311013813748,,,0.5713653840954815,inf,,,0.9033127483698601
758,,0.0,0.0,1.6955954970472857,1.6901084502402328,0.9006263007584825,2.0477407514166748,2.045769467036984,,,0.5113665138247345,inf,,,0.871282747081549
759,,0.0,0.0,1.6830232248167762,1.6380105627668284,0.9116329256842285,1.6235922007478534,1.484675587859735,,,0.5451288209179292,inf,,,0.883866339903532
760,,0.0,0.0,1.6581156794750784,1.635562953692421,0.9205467276521809,1.4822242853645036,1.418427895865656,,,0.5748741956352443,inf,,,0.8679897400548636
761,,0.0,0.0,1.378533442324481,1.312009870700438,0.8445601791835239,1.5477940059162743,1.553026791650929,,,0.6038851895711802,inf,,,0.884777707819163
762,,0.0,0.0,1.265103645009914,1.2452743740338676,0.8058319990195713,1.5293639378296795,2.081230299229931,,,0.5713653840954815,inf,,,0.8912578878119884
763,,0.0,0.0,0.7551169361558944,0.709281745024968,0.7407100279089842,1.5190540409070752,1.445098442928833,,,0.6068309995095971,inf,,,0.9137524755353332
764,,0.0,0.0,1.536350372062592,1.4921435473124736,0.8528098921023738,1.7880162009087384,1.8657032388556394,,,0.552929491858785,inf,,,0.9042754101937363
765,,0.0,0.0,0.4707447435209141,0.4122025649756569,0.6040848594133728,1.148822183922673,1.1446034927551163,,,0.5677978065141052,inf,,,0.6600582815506892
766,,0.0,0.0,1.2865806330420666,1.2309447521174572,0.8251738930449534,0.7783778620712819,0.968238569738478,,,0.48319206230712763,inf,,,0.8491973387922537
767,,0.0,0.0,1.2616069120971558,1.2329259267558839,0.8142257719074795,0.798776964028989,1.0379606852827135,,,0.552929491858785,inf,,,0.8189606989997242
