,hr+bvp_XAp0,hr+bvp_XAp1,hr+bvp_XAp2,hr+bvp_XCond1,hr+bvp_XCond2,hr+bvp_XDist,hr+bvp_XFuzz1,hr+bvp_XFuzz2,hr+bvp_XK2_1,hr+bvp_XK2_2,hr+bvp_XPermEn,hr+bvp_XSamp0,hr+bvp_XSamp1,hr+bvp_XSamp2,hr+bvp_XSpec
0,,0.0,0.0,1.0436876312934853,1.0429363089357548,0.6899797949517525,2.3457576848727264,2.951082206658081,,,0.6447042257417027,inf,,,0.9339475299701855
1,1.0737888187234028,-0.007158592124822685,0.0,1.0244279831541099,1.0014692897229631,0.7275859316901979,2.5063578700619686,1.855574188441428,,,0.6684167106117298,6.0796887805228215,inf,,0.7638645998294542
2,1.3524717928174395,-0.0766400682596549,0.0,1.0757232080418135,1.015982502134936,0.72942190338009,4.098078216139759,2.7299271812202885,,,0.6380535849069913,4.120004309002678,inf,,0.7474399787809614
3,1.9810657167679535,-0.28830325213606117,-0.002253052989905343,1.3616800683482726,1.3396411017948755,0.7956429046679316,5.034412485884096,5.286082189504824,2.1149056169567433,,0.6566669596287297,3.2362480745926714,2.114532861491106,inf,0.8250867161590978
4,0.9749000745417178,-0.03574633606652965,0.0,1.175576667680438,1.1266710295812035,0.8154266412224869,4.004699965532939,25.488341586846403,,,0.6333676938231112,3.7550192566184815,inf,,0.7180381068984169
5,1.061217412828239,-0.06721043614578848,0.0,1.1483142857225483,1.1281993039529896,0.734312121033278,4.593546152207201,14.245133032578469,,,0.6125606311107803,3.6301913466545406,inf,,0.8071102780465573
6,1.448572717044426,-0.019314302893925682,0.0,1.1975414705241136,1.1475371980298676,0.6934419784812144,3.096841105393211,2.989756807343587,,,0.5783247308855777,5.6423738465275575,inf,,0.7570465928749565
7,1.5358839689703863,-0.02047845291960515,0.0,0.9284887431326254,0.871572424217935,0.6735289161137473,3.536732587741419,3.2360627317050876,,,0.62595550513784,5.683979847360021,inf,,0.6690529168486516
8,1.259333813348239,-0.016791117511309853,0.0,0.8126744829926016,0.6868815519148465,0.5702370961290261,2.579676962733193,3.163991481474207,,,0.6207552362147116,5.140364400771039,inf,,0.6079835287719279
9,1.6897179449403215,-0.011264786299602142,0.0,0.8862514661520934,0.848188147289264,0.7048008319705872,2.7002286790160897,1.9765852491936045,,,0.6547956803312163,6.662632820949152,inf,,0.5795564103788825
10,,0.0,0.0,1.7425012526503978,1.7284188811237338,0.9676386748756622,3.904394755733899,20.516391927577097,,,0.541134803179459,inf,,,0.8589173221020157
11,,0.0,0.0,1.71084662025988,1.6843698167338506,0.9764944097578547,3.098337019965037,23.780579928437174,,,0.6008849035917525,inf,,,0.8504137124574922
12,,0.0,0.0,1.7136404525783655,1.6920944188735874,0.971683550865118,3.022499931928068,10.106068924127992,,,0.6207552362147116,inf,,,0.8323112127195305
13,,0.0,0.0,1.7094713062253626,1.6746330770437337,0.977955876025075,3.1623597695718497,8.239092201718258,,,0.6309483474627791,inf,,,0.8466227539188614
14,,0.0,0.0,1.724385630805265,1.7080298667158542,0.9570451172266982,2.66138673842473,5.641063374626551,,,0.5915533975974677,inf,,,0.8516332312110584
15,,0.0,0.0,1.3957982673537006,1.3023758029312622,0.87592097487496,3.1118637486849368,11.726001944416762,,,0.5451288209179292,inf,,,0.7614157945745537
16,,0.0,0.0,1.6675562104014163,1.657882186627699,0.9019248356892406,2.87926280891369,4.428047410391989,,,0.49759852643134905,inf,,,0.8393337135106892
17,,0.0,0.0,1.7621866301966214,1.7309198648014834,0.9492497214079466,3.0395501050732183,4.538219035289458,,,0.5370774965580548,inf,,,0.8326758383668932
18,,0.0,0.0,1.7374199625790738,1.7151777750371908,0.9562876715859007,2.864470348698651,9.78183396320917,,,0.524519217297268,inf,,,0.7962336648922137
19,,0.0,0.0,1.7719045651148493,1.746613787880208,0.9604565849777971,3.265380914485267,3.4837436190606477,,,0.541134803179459,inf,,,0.8393944585812602
20,,0.0,0.0,1.7670882406111799,1.7112744156398723,0.9506353270684899,3.1649025380022633,10.855019971127817,,,0.541134803179459,inf,,,0.8319136468693962
21,,0.0,0.0,1.7545302684250614,1.7618707032003904,0.934841565698064,3.0472115139201126,7.7431065443311775,,,0.5068466436745385,inf,,,0.8579597591177184
22,,0.0,0.0,1.23741043171379,1.2132282265252088,0.7551480842616873,2.7707653703661697,9.78316729467938,,,0.468121228110369,inf,,,0.8750062905983018
23,,0.0,0.0,1.5267406776937642,1.5181822835546346,0.910815058077064,2.8988936647788033,9.669866522892427,,,0.5329562494928909,inf,,,0.8436347846884377
24,,0.0,0.0,1.7117449979695536,1.7134287997279813,0.966498401156686,3.2245583831439983,3.2374664182580912,,,0.581717464821069,inf,,,0.8500179574166827
25,,0.0,0.0,1.6585633862296743,1.655779392303452,0.9478737955751684,3.5597603839389156,13.55592759156491,,,0.5490601803369085,inf,,,0.8641189302294741
26,1.529395204760564,-0.005097984015868546,0.0,1.0014542563765814,0.9543646469648145,0.7054461290370471,3.4609863848240794,4.091914608320238,,,0.6233814453054027,7.233177679416765,inf,,0.7166704142792801
27,1.5825975038860403,-0.015825975038860404,0.0,1.0897882720363512,1.0290681610326702,0.6969517188185423,2.6993604084116125,2.777408113392648,,,0.6008849035917525,6.187209124234077,inf,,0.8738750765536588
28,0.7133498878774648,-0.0023778329595915493,0.0,1.1761643976496292,1.1055045220910034,0.7656636501102884,3.033584327600439,2.0929738165078198,,,0.6528756675646988,6.417132362533666,inf,,0.6630278431905251
29,,0.0,0.0,1.1122005586101156,1.0570919893927706,0.703476425271267,2.166401075582454,2.1612961190060864,,,0.6380535849069913,inf,,,0.9482830138448435
30,0.23572233352106983,-0.0007857411117368994,0.0,0.8257527343887734,0.7918285676710626,0.6846905801803272,2.735006968066573,2.4628450027175326,,,0.6309483474627791,5.939504808177271,inf,,0.9228413901191755
31,1.040343380544134,-0.0034678112684804465,0.0,1.1567252109971706,1.089373584283781,0.7990805850611424,2.7557723053578034,3.155999957436046,,,0.6403206450210053,6.744125855200335,inf,,0.8685960814401386
32,0.8595953881976097,-0.002865317960658699,0.0,0.9335386897370945,0.8790710423992769,0.7494900199468618,3.5690109597578337,5.51319399262103,,,0.675384900321601,6.563377862853811,inf,,0.7405642249876351
33,1.9952926639656239,-0.01330195109310416,0.0,0.9723743567104081,0.9317315778179426,0.7913555749984146,2.6850561384691414,2.772550737358127,,,0.6309483474627791,6.9767481504690885,inf,,0.7488915015282382
34,1.338312835285106,-0.026766256705702117,0.0,1.2023523719437639,1.1809649464884509,0.7142163019113923,3.902875273486515,7.3705019416258715,,,0.6380535849069913,5.248469560820469,inf,,0.7249581780614209
35,0.5764343714316028,-0.005764343714316028,0.0,1.1341526615711757,1.101988248089346,0.7193454810776092,3.2532481990964275,3.8144904088200287,,,0.6566669596287297,5.110455629378467,inf,,0.7753987582010192
36,,0.0,0.0,0.8028005277442469,0.770128161305085,0.7172093447620629,3.2711184779775824,3.5331533037731946,,,0.6528756675646988,inf,,,0.8102496016210179
37,2.208501532175854,-0.022085015321758543,0.0,1.220063576252181,1.2015900484074895,0.7560266141946238,3.130026110342683,2.7347282177600056,,,0.6528756675646988,6.812445099177812,inf,,0.7833036794226065
38,1.5300052163296225,-0.011817793758370231,-0.01368229318045681,0.8667038001786047,0.8160106249397493,0.5972346492199031,3.6758133212513173,4.137183948704141,,,0.663668482632973,5.235864351901487,4.562262684976815,inf,0.6833517323661886
39,2.163769224694906,-0.014425128164632707,0.0,0.48500468024085885,0.42446479995994535,0.717167628348761,1.6029601335709895,1.2557850429694593,,,0.6425374456860184,6.9767481504690885,inf,,0.7034832274667933
40,1.9114241202608855,-0.06371413734202952,0.0,1.0311725892117276,0.9977676195169134,0.7390248173973788,2.663686689467287,1.7283692370897707,,,0.6233814453054027,4.941420225074783,inf,,0.6496568012626919
41,0.9002992089476297,-0.006001994726317531,0.0,0.9904833490556919,0.9608157628468982,0.6096674148382266,2.906363481785306,1.4553670529071767,,,0.6547956803312163,5.910396724019201,inf,,0.747928297221174
42,1.6833979774724115,-0.01122265318314941,0.0,0.9254371307608927,0.8847787555630031,0.6409629402381863,2.5549391413330307,2.36058738489003,,,0.6528756675646988,6.344969916285435,inf,,0.681675958802418
43,2.659260036932778,-0.00886420012310926,0.0,0.7845930246371211,0.6927825674888727,0.6875218411038428,2.920832590337181,3.5675834279945726,,,0.6380535849069913,8.36304251158898,inf,,0.6889053415111226
44,1.3343346221891796,-0.004447782073963932,0.0,1.1142088373641403,1.033576883994056,0.710356951847012,2.8716838070780493,2.316217989327829,,,0.6284777104787076,7.03811709684538,inf,,0.8394626766202482
45,,0.0,0.0,0.873219576910934,0.8086006398444858,0.6152796361931495,1.333029900544009,0.7932309307448513,,,0.6425374456860184,inf,,,0.8307417851335565
46,2.8274961552433844,-0.018849974368289227,0.0,0.7413638976128711,0.7332766139667225,0.6634286571500546,2.1494002368239458,1.9921360242963324,,,0.6509067234006624,7.824046010856292,inf,,0.6592573400216134
47,1.0463272820676643,-0.010463272820676642,0.0,0.8050801798503802,0.767202159097831,0.6858653829554853,2.75853858712417,2.294657617686266,,,0.6403206450210053,5.521460917862246,inf,,0.8666225200834455
48,0.699836168710742,-0.0023327872290358066,0.0,0.8008275431423094,0.7657581171416366,0.7074765900804938,2.253274957553307,1.7239045502421222,,,0.6425374456860184,6.403618643366943,inf,,0.8175463074978859
49,2.150892433317692,-0.021508924333176922,0.0,0.9156238213037908,0.8555234565782696,0.6595071907124936,2.8033370512777895,2.5028450010135708,,,0.6380535849069913,6.277666234389328,inf,,0.9247942536683823
50,,0.0,0.0,0.9955696131953656,0.9757808508759712,0.6861037048819358,2.619769603648348,3.6603626879801983,,,0.6097226960127671,inf,,,0.7352231375846379
51,,0.0,0.0,0.7797025194734977,0.7643052680884949,0.5550831267691069,2.9724778640918976,2.6843893881047527,,,0.6509067234006624,inf,,,0.7985786987802774
52,1.756073111796919,-0.01756073111796919,0.0,0.9626622561077547,0.8772349647306973,0.7223150332947247,3.392958441458819,3.18757167858747,,,0.6699045166045591,6.198078796470981,inf,,0.550610318791533
53,,0.0,0.0,1.0554598022039865,0.9988766315673872,0.7131818031400926,2.9468579852694137,3.3368054175270156,,,0.6509067234006624,inf,,,0.8648107395388039
54,0.7911275889201491,-0.0026370919630671636,0.0,0.6689434867384512,0.6082178717891289,0.5780520498872068,2.5930986203983553,2.7258559038058343,,,0.6528756675646988,6.49491006357635,inf,,0.8683393470642659
55,,0.0,0.0,1.30126330593331,1.3038854500741672,0.7489247011355046,3.497827979579715,2.682364625846375,,,0.663668482632973,inf,,,0.908887169717339
56,2.1484344131667874,-0.0071614480438892915,0.0,0.8611437762162493,0.8200756448789073,0.675914170913307,3.6503440647081185,13.59249334826045,,,0.6584896970785714,7.852216887822989,inf,,0.7742779318400974
57,,0.0,0.0,0.6119563475680718,0.584338931249849,0.4809966038719937,3.184017196957902,3.486774896147096,,,0.6602640781246099,inf,,,0.7352026089259205
58,,0.0,0.0,1.198073237307928,1.1825865981563668,0.7791033978376095,3.1925495519704423,5.291605484705115,,,0.6547956803312163,inf,,,0.9408062186687101
59,0.9763946559438605,-0.003254648853146202,0.0,0.6844686224527832,0.5730918897187327,0.5798509125767511,3.7588280973572576,8.378917375077151,,,0.6233814453054027,6.680177130600062,inf,,0.7578662247238922
60,,0.0,0.0,0.8021578692349142,0.7834511744282114,0.5350304640108234,3.855284358728063,12.303962014280945,,,0.6652988471865258,inf,,,0.8478566408112967
61,,0.0,0.0,1.3398012703841085,1.2685107947760366,0.7160009364278825,3.4630628942689157,4.074520275838557,,,0.6547956803312163,inf,,,0.889418121100518
62,,0.0,0.0,1.3499427234228891,1.3215306717046682,0.7580441500318321,3.490511123753578,5.697999643768597,,,0.6468212168108125,inf,,,0.7368291597589341
63,,0.0,0.0,0.9055581871033613,0.8730300590849226,0.5260721389409393,3.682191172304501,3.822839583226525,,,0.6403206450210053,inf,,,0.795397325750694
64,,0.0,0.0,0.9133689215274906,0.8787100711347283,0.6194048382352293,3.585775030729424,13.192610372919734,,,0.6509067234006624,inf,,,0.8716920269622827
65,0.616186139423817,-0.0020539537980793898,0.0,0.9781350195602061,0.9623251052350036,0.6074759833627991,3.1933544726135716,2.7772624748939094,,,0.6547956803312163,6.319968614080018,inf,,0.6728381668958853
66,2.6127400212978853,-0.008709133404326285,0.0,0.6879610347528275,0.6749075389611612,0.729976096773146,3.786657182596154,9.33587960261033,,,0.6233814453054027,8.316522495954086,inf,,0.9426800601261914
67,,0.0,0.0,1.3790593681272736,1.3622981140650734,0.8532542101057451,3.170687198448514,10.672104596772485,,,0.6619902821573977,inf,,,0.9158880178643575
68,0.7201758529478646,-0.002400586176492882,0.0,1.148932914846333,1.1043020367757748,0.652866208728334,3.8621769130893586,10.469679713848205,,,0.6509067234006624,6.4239583276040655,inf,,0.8859840739051712
69,2.5844256466560283,-0.02584425646656028,0.0,0.901013660529772,0.8263485382111102,0.5803932690744086,3.992015880072167,26.003475128704952,,,0.6068309995095971,6.000393177852283,inf,,0.6411094202409781
70,,0.0,0.0,0.9714320672635358,0.9349371351451388,0.7418155360916582,3.9734933481085104,7.338907977604347,,,0.6180765742263259,inf,,,0.6910616534685804
71,1.791759469228055,-0.005972531564093516,0.0,1.082891602824296,1.048795229077929,0.700871413305301,3.7118267379332996,7.533857307241222,,,0.6207552362147116,7.495541943884256,inf,,0.82701036623237
72,,0.0,0.0,0.8488842756693001,0.8062024871946735,0.6673972467868071,2.77651295023916,2.150663535925584,,,0.6566669596287297,inf,,,0.9328435240180433
73,2.70805020110221,-0.009026834003674034,0.0,1.0887009984941576,1.0554359290703244,0.7630368063340273,3.501379745285965,3.880858686954277,,,0.6125606311107803,8.411832675758411,inf,,0.7610944771865709
74,0.8868446256396126,-0.017736892512792254,0.0,1.1053386039774353,1.0829431488450267,0.6733766926513901,3.3774862210208645,2.970936983720459,,,0.6357360191111145,4.604059691704064,inf,,0.7062984015523321
75,1.4271163556401458,-0.004757054518800486,0.0,1.2867090841769027,1.2565120369311287,0.7998613164599925,3.5977859694483407,7.283518287375324,,,0.5915533975974677,7.1308988302963465,inf,,0.7658251059673702
76,1.1201057156660827,-0.026135800032208594,0.0,1.1684779569809598,1.1390162106042048,0.7811032747374902,4.170976970195225,13.83141559851105,,,0.6619902821573977,4.721704002244043,inf,,0.7697645876332809
77,,0.0,0.0,0.9161886426047954,0.8699477842073479,0.7422768308824846,2.8966557783888485,3.1673764692300046,,,0.6619902821573977,inf,,,0.6207501612271996
78,0.10166365377650018,-0.00033887884592166727,0.0,0.934032422400387,0.9022105453606302,0.6697432287543226,3.76033507853271,6.873697321939342,,,0.6068309995095971,5.805446128432701,inf,,0.7217880973435856
79,,0.0,0.0,0.7542055282907367,0.7083308887503357,0.8403386240146757,3.1444707832346106,2.79722376035779,,,0.6125606311107803,inf,,,0.7562367373966625
80,1.529395204760564,-0.005097984015868546,0.0,0.9271132311713671,0.8606765947056575,0.705391945225394,3.7693192546928898,7.688383179793997,,,0.6528756675646988,7.233177679416765,inf,,0.7117738262490074
81,0.6411874416292344,-0.002137291472097448,0.0,1.1173638766374443,1.0925665475643547,0.7968503899766585,3.4185989080083297,11.46098961622816,,,0.6357360191111145,6.344969916285435,inf,,0.8405054978492811
82,0.5068292913939729,-0.0033788619426264863,0.0,1.184213997839757,1.145611135880165,0.679019907792473,3.777300197404554,19.81317721144989,,,0.6566669596287297,5.488671095039256,inf,,0.6435404617489574
83,,0.0,0.0,1.0225511861985994,0.9594963297048673,0.7221989303976293,3.3045403904578254,2.263194017455092,,,0.6468212168108125,inf,,,0.8097830019230469
84,2.5257286443082556,-0.008419095481027518,0.0,0.8858083326567388,0.8804461913930643,0.6485356065993728,2.9078123507011884,4.330664204804554,,,0.6309483474627791,8.229511118964457,inf,,0.9231807477276921
85,1.0435334774227292,-0.010435334774227293,0.0,0.8882357518164746,0.859203426467309,0.6911022293803228,4.232300543674046,28.90660900200465,,,0.6447042257417027,5.50766759572991,inf,,0.7454737606031884
86,1.2172545061847793,-0.012172545061847792,0.0,1.1193341762190685,1.1008229940053817,0.8049476198709725,3.770579287053243,10.190952952669504,,,0.648888643467878,5.403677882205863,inf,,0.8494656138338085
87,1.2494339622349013,-0.0333182389929307,0.0,1.3635740344836582,1.3565397651429842,0.8249910289540859,4.490151483546911,3.87654991298597,,,0.6566669596287297,4.825539810419576,inf,,0.7927843516000947
88,1.8325814637483102,-0.006108604879161034,0.0,0.8763826939837044,0.8582263614105144,0.6814494747280947,2.7527492860849843,2.2956581053949305,,,0.6180765742263259,7.536363938404511,inf,,0.8180696970203876
89,2.371577964480997,-0.007905259881603323,0.0,0.8420995711791773,0.803217692175798,0.6388322324716141,3.0475359384374703,5.121226682768167,,,0.6509067234006624,8.075360439137198,inf,,0.9000448589804054
90,1.030953640194295,-0.003436512133980983,0.0,1.048297694408379,1.0343329707572155,0.6463597255218154,2.346073602290341,1.2255682359231894,,,0.6357360191111145,6.734736114850496,inf,,0.6053373731160971
91,2.4849066497880004,-0.016566044331920004,0.0,0.9607781996456107,0.9194956906098674,0.7287361468434571,3.6829836253496167,7.6914732061093485,,,0.6713451011121618,7.495541943884256,inf,,0.753028893786738
92,1.297063227391948,-0.004323544091306493,0.0,0.9746335069207317,0.9300774634103038,0.5686219270577664,3.3640812294466134,2.0214600271790557,,,0.6602640781246099,7.000845702048149,inf,,0.7979957597972438
93,0.2613647641344075,-0.0008712158804480251,0.0,0.8335097825051029,0.8156168492111159,0.6988661142899736,3.046836836447152,2.824161604637012,,,0.6380535849069913,5.965147238790609,inf,,0.9042611065898251
94,2.4884549114019765,-0.03317939881869302,0.0,1.0940507489263245,1.0563486399200763,0.6953803454058787,3.547576096882237,4.523958871630864,,,0.6684167106117298,5.939504808177271,inf,,0.8942773366016786
95,1.0216512475319814,-0.003405504158439938,0.0,0.4457138599912522,0.3979936455319868,0.5341005283262654,3.4147041408417893,2.9378191971798984,,,0.6547956803312163,6.725433722188183,inf,,0.7961942727701747
96,1.3217558399823195,-0.004405852799941065,0.0,0.8962681376510774,0.8636737631772522,0.6881206914928519,3.7602857237880856,4.253283133953332,,,0.6602640781246099,7.025538314638521,inf,,0.7940368668783937
97,1.808434459068832,-0.012056229727125545,0.0,1.0774393421327328,1.0580227808941827,0.6996325980665559,3.70473889395312,5.603494607898668,,,0.648888643467878,6.11426012458791,inf,,0.8698255817428479
98,1.3515313297955855,-0.009010208865303904,0.0,1.1999068510427442,1.2132863205229283,0.7304803207923601,2.866564462607734,2.2930743062225725,,,0.6357360191111145,6.220179143471647,inf,,0.6996310088388796
99,1.2861044890953985,-0.008574029927302657,0.0,1.0646325486147055,1.0403459042226146,0.7657529122841891,3.1413579008334,1.5775771449832856,,,0.6684167106117298,6.295577160955859,inf,,0.5648414389549818
100,1.71087990910897,-0.0171087990910897,0.0,1.0149854669094323,0.9759469514336825,0.7244230384824452,3.321011076622546,4.006673643782177,,,0.6584896970785714,6.295577160955859,inf,,0.6996156995528262
101,,0.0,0.0,0.30789799615619484,0.2813435596695558,0.3877157171192409,2.749228994697638,3.0627398770166705,,,0.6207552362147116,inf,,,0.8120802537500714
102,0.23151180098472637,-0.0007717060032824213,0.0,0.4417278318797816,0.3680962339726033,0.547703350401704,2.4980960585864445,3.4987635280018483,,,0.6380535849069913,5.935294275640928,inf,,0.7974270313290485
103,,0.0,0.0,1.1087849044978428,1.116705704909185,0.7513720822298804,2.998442559027302,9.14698105696788,,,0.5641709578113449,inf,,,0.8250957339612388
104,,0.0,0.0,0.9965410621489832,0.9743006990666949,0.6516150492086644,3.080005776762065,3.3454030210721655,,,0.6380535849069913,inf,,,0.7172792313605485
105,1.0078672331051999,-0.023516902105788,0.0,1.1705154088406458,1.168612180668185,0.7451483025049181,3.7525888244907173,9.591381848583046,,,0.6566669596287297,4.5427171713415415,inf,,0.8605896456178854
106,0.7809102756140419,-0.010412137008187225,0.0,0.9964424095583229,0.9231574083332076,0.7601183052460291,3.644721846825122,2.6949851110407583,,,0.6468212168108125,4.79552391447931,inf,,0.6583869131772745
107,1.503659716291682,-0.045126185007768105,-0.010008004589593566,1.0692390154361335,1.0153528843329311,0.7192775184490187,3.822432573551243,4.006750315566526,,,0.6380535849069913,4.504822212153809,4.194692536056383,inf,0.8917778960740826
108,1.8440940840843365,-0.043028861961967854,0.0,0.8611329375762993,0.7585310119552597,0.7054621635204004,2.566897628438931,1.5303399916462164,,,0.6547956803312163,5.311740386880177,inf,,0.6501282500471379
109,1.632828801203745,-0.02721381335339575,0.0,0.6763118200175103,0.5430522225492583,0.6812267496968475,1.6236404514460567,1.1329109217874542,,,0.6425374456860184,5.593434417487336,inf,,0.5673032392315758
110,2.3185791474204342,-0.07728597158068115,0.0,1.1463475687468776,1.1167743124581957,0.6653784751143325,3.0445522587605445,3.726052137249187,,,0.6528756675646988,4.748271029628765,inf,,0.6587607420041827
111,1.9637090184731552,-0.10473114765190161,0.0,1.091172142506845,1.050729463232581,0.7844570281341241,3.6099884212358893,4.479667808812,,,0.6380535849069913,4.6356293934728,inf,,0.5255249116394846
112,0.0,0.0,0.0,0.9604484318580498,0.8988047208511247,0.6551469188134127,3.93808885500092,5.737674575486106,,,0.5713653840954815,5.703782474656201,inf,,0.7499565000924137
113,1.0967289305912475,-0.014623052407883301,0.0,0.9948338202594085,0.9506452659734688,0.7635970505420907,4.455296812769875,29.113959204265853,,,0.5329562494928909,4.947660494934867,inf,,0.5927202475635425
114,0.0,0.0,0.0,0.9595168493053365,0.940539614633843,0.6286029849669987,3.3693434102850057,3.2889684215132773,,,0.585052858160615,5.703782474656201,inf,,0.9277707512526088
115,0.49977578757940566,-0.0016659192919313522,0.0,0.7608770443879798,0.7099198154994022,0.6138103951371691,2.9600109037390374,3.255735652759784,,,0.585052858160615,6.203558262235607,inf,,0.8572167666168098
116,,0.0,0.0,1.1194366858590914,1.0850679904559082,0.780996763898172,3.691460877894776,14.11515713007216,,,0.6403206450210053,inf,,,0.8050152657382412
117,0.8350659905531783,-0.005567106603687855,0.0,1.1586113101439683,1.13129428377039,0.7586340742058564,4.28529511989458,8.965946981823892,,,0.6097226960127671,5.66456176150292,inf,,0.7819438149884823
118,2.4699331116040244,-0.01646622074402683,0.0,1.11664375193442,1.1189076762545702,0.7090951760452261,3.4494744649697893,16.09954113031782,,,0.5915533975974677,6.812445099177812,inf,,0.6470327462944652
119,2.0661963149298153,-0.006887321049766051,0.0,1.0007545180833195,0.971041785968998,0.7833395757549126,4.15107476847999,46.72756287319216,,,0.5978297680564633,7.769978789586016,inf,,0.6814895617424698
120,0.5315383278474873,-0.005315383278474874,0.0,0.9307796180405473,0.9234578114564096,0.6765548597395177,3.4952777663573054,4.548016142191772,,,0.6125606311107803,5.1365765174541025,inf,,0.6911817024226362
121,0.7838015488280762,-0.0026126718294269204,0.0,1.0434382809908698,1.0036289740989464,0.7282427160376368,3.283438642942174,3.339815263824746,,,0.6602640781246099,6.487584023484278,inf,,0.693576129035098
122,1.5752332612453455,-0.04200622029987588,0.0,1.0015165954207803,0.9591643751120287,0.7512578137075365,3.650769466098013,4.571362196904998,,,0.6309483474627791,4.833884782351756,inf,,0.6266396753103971
123,1.6282946962635652,-0.01628294696263565,0.0,0.751033653941322,0.7107004242488136,0.665745936365152,3.618220645728083,9.510625792581658,,,0.6357360191111145,5.866301404153976,inf,,0.7140952493738628
124,,0.0,0.0,1.305855691636018,1.2724488900410782,0.8410656583922076,3.12679804939035,4.103793770271491,,,0.5978297680564633,inf,,,0.7871726839577056
125,,0.0,0.0,1.2525477761304515,1.2234947025804777,0.8495591862470058,4.0901107872929385,32.134915034228456,,,0.6380535849069913,inf,,,0.8795908838497751
126,,0.0,0.0,1.148317832404985,1.113008315412922,0.823668578787398,4.2867163381005735,16.062897213637836,,,0.6038851895711802,inf,,,0.9320941806697175
127,1.8434021461531847,-0.03686804292306369,0.0,0.9907897385443946,0.9768559170930102,0.7341690343175409,3.3427936174240678,2.1668413300891993,,,0.6584896970785714,5.119706389150617,inf,,0.7360062546980443
128,1.087242545183365,-0.007248283634555766,0.0,0.9817214091296722,0.9516464562556283,0.7133349856870608,3.776738313845044,9.79712644439797,,,0.6038851895711802,5.922768015821747,inf,,0.8725875448863929
129,,0.0,0.0,1.711952227229637,1.695643962721704,0.9558009375217192,3.5804010820535788,9.466002538404778,,,0.48319206230712763,inf,,,0.8285992437282227
130,,0.0,0.0,0.8862168353930346,0.8124695054818448,0.6384319045518364,3.2361496470757363,3.5561215494231133,,,0.5748741956352443,inf,,,0.872249624352882
131,,0.0,0.0,0.8406867247073112,0.8029842856793826,0.666601961577,3.2111420847960574,7.271731599824696,,,0.4928685327679205,inf,,,0.6847689155235515
132,,0.0,0.0,1.7517831863372724,1.7389686597888878,0.9596338586268249,2.8316823590446685,4.9717989742295945,,,0.4302020962658841,inf,,,0.8038419573575244
133,,0.0,0.0,1.7523188539062764,1.7590676532410336,0.9607410645970749,2.925469362542081,6.674790124269435,,,0.44144624493110796,inf,,,0.7869361213264453
134,,0.0,0.0,1.779005955573686,1.7657502334100825,0.9764274043850922,2.9364958206938248,4.572791500004963,,,0.43586655696697996,inf,,,0.7935788473684666
135,,0.0,0.0,1.5134526275407294,1.521971671663103,0.9259392307126363,2.84826408482248,6.751646448167723,,,0.49759852643134905,inf,,,0.8385724108315168
136,,0.0,0.0,1.779182076084203,1.7608620992982997,0.9665829653238587,3.192597222856499,8.311811073787482,,,0.43586655696697996,inf,,,0.8047853395422895
137,,0.0,0.0,1.77714402404599,1.746806842097208,0.959653852194468,3.050748306055267,10.212136979734627,,,0.4732203808476458,inf,,,0.833252162232586
138,,0.0,0.0,1.7782989315262356,1.7598248532740488,0.9610467393195815,3.2243375021191163,10.363881479926677,,,0.4629450596409901,inf,,,0.7839445976084302
139,,0.0,0.0,1.7490064745169995,1.7296315269666918,0.960175578161418,3.508873208246184,6.800474081423689,,,0.44144624493110796,inf,,,0.8385650201297365
140,,0.0,0.0,1.7641983898946867,1.779183923099535,0.9630957537847737,2.967330446855782,8.50832372833114,,,0.48319206230712763,inf,,,0.7932908648829556
141,,0.0,0.0,1.3132802257303742,1.2726928545719869,0.8944020469431266,2.807410370500589,3.2916969744854025,,,0.48319206230712763,inf,,,0.8685289610910086
142,,0.0,0.0,1.7422063717456777,1.6935434406436498,0.9466024681759755,3.0271618831263667,4.969001519553638,,,0.41268473150466,inf,,,0.8025928342172216
143,,0.0,0.0,1.7698369250514296,1.7410485201257584,0.9666807702562275,3.2661968508260615,8.869153124800135,,,0.468121228110369,inf,,,0.8193797009309909
144,,0.0,0.0,1.7312714664658433,1.696436161041769,0.9540929588012358,3.0667257946164344,3.802337562619592,,,0.4880666971167561,inf,,,0.8823530426206584
145,,0.0,0.0,1.7640965358502432,1.7370385418483658,0.9534696978975843,3.2389921407396343,6.482551221204704,,,0.41861278947482794,inf,,,0.8462817218440878
146,,0.0,0.0,1.6659645302391668,1.6393786030368884,0.9245598502765221,2.5801969019795314,2.42180840127933,,,0.4576907132971797,inf,,,0.8744911314706777
147,,0.0,0.0,1.7393192102672455,1.6925127827381976,0.9493323444671211,2.387956816964056,3.5953351917851126,,,0.4629450596409901,inf,,,0.8023536763188576
148,,0.0,0.0,0.9080255322970326,0.8566191574804307,0.7279246845973882,2.575893261255512,3.1280586808228903,,,0.6097226960127671,inf,,,0.7459690777178007
149,,0.0,0.0,1.5838434622405424,1.5225745960518011,0.9178765383009553,2.3534541216423306,3.288476688761731,,,0.5978297680564633,inf,,,0.8756300217845974
150,,0.0,0.0,1.7275906232334743,1.7055646575920167,0.9405906572907805,2.3225931701272096,4.851015531222738,,,0.5370774965580548,inf,,,0.8776461102830474
151,,0.0,0.0,1.6590940333044335,1.6440637270684004,0.9580035908511101,2.263188868435119,3.5305961589312664,,,0.6008849035917525,inf,,,0.8642021879003665
152,,0.0,0.0,1.7316048592855644,1.7094081018047058,0.9537648950675701,2.2547777924998593,2.5639676484439,,,0.5783247308855777,inf,,,0.8450964334454323
153,,0.0,0.0,1.7231722869054416,1.6971454498326195,0.9598040786275409,2.1995209891990677,3.3082132438276304,,,0.5329562494928909,inf,,,0.8387924875074411
154,,0.0,0.0,1.3055824627204504,1.213636412532542,0.7653270247402624,2.3971301439019514,2.6016150085275096,,,0.5451288209179292,inf,,,0.8385168124094959
155,,0.0,0.0,1.5087357705183153,1.4757845432469516,0.8975234490351192,2.1307671008819105,3.2616248814686606,,,0.5490601803369085,inf,,,0.8261370382958757
156,,0.0,0.0,1.7320221682346528,1.713009281516785,0.9337441003509901,1.9652429795397375,2.8918801645779055,,,0.5202020156036558,inf,,,0.8262115333607503
157,,0.0,0.0,0.7684886238396165,0.7373403967499284,0.6407304461800787,1.9665664387248034,2.7007601188859116,,,0.5567373465730988,inf,,,0.9026084845884355
158,,0.0,0.0,1.6857057362907628,1.6679149197201324,0.9350977138888903,2.1212020826678475,2.4456005596288737,,,0.552929491858785,inf,,,0.8622081238604378
159,,0.0,0.0,1.710849993780037,1.6999551353499947,0.9624671852015844,2.1508995217946656,2.616544444397079,,,0.524519217297268,inf,,,0.8336624741020467
160,,0.0,0.0,0.9975819972201299,0.9292456600301593,0.6632320981208234,2.507257121890975,2.9132081477821403,,,0.5915533975974677,inf,,,0.9384352929327213
161,0.8743499898838041,-0.005828999932558694,0.0,0.845016161695429,0.8265195691972008,0.5516252330321877,2.9456959954041135,3.2078674246462615,,,0.552929491858785,5.882112010180618,inf,,0.651096261968061
162,,0.0,0.0,1.4756996102800959,1.4746310159948808,0.8923223652086089,2.17405707552139,2.378325566004727,,,0.41861278947482794,inf,,,0.8144411249754274
163,,0.0,0.0,1.5178955096006344,1.4810869208700013,0.9076254951925985,1.828419060333914,1.961331430187196,,,0.48319206230712763,inf,,,0.8256217460611164
164,,0.0,0.0,1.4690151617230824,1.453785061568968,0.887514783504391,2.2677390098358687,2.296690777019635,,,0.40055318934786044,inf,,,0.8663467835047195
165,,0.0,0.0,1.3930081478035228,1.3235418151415577,0.8816074656543657,2.177073911138921,1.8781535640295668,,,0.468121228110369,inf,,,0.8743920222044504
166,,0.0,0.0,1.483228489472201,1.463466856923028,0.897036027044129,2.019983216840355,2.337508866218015,,,0.48319206230712763,inf,,,0.867764662529416
167,,0.0,0.0,1.4562514591338034,1.4170978128537057,0.8776567126919289,1.8887358918088335,2.1634213085149625,,,0.43586655696697996,inf,,,0.8140181836924774
168,,0.0,0.0,1.4553081558749663,1.4573129132597304,0.903043172163094,1.9940588055991022,2.3107151489789954,,,0.44144624493110796,inf,,,0.7736036230392445
169,,0.0,0.0,0.936669762348987,0.9196305891107726,0.7684266784492968,2.302759522425695,2.078407891921755,,,0.48319206230712763,inf,,,0.8963487175959243
170,,0.0,0.0,1.609855041917585,1.5970214324975684,0.9251219957960278,1.5893108890625596,1.7995571345296997,,,0.4576907132971797,inf,,,0.8324153121150302
171,,0.0,0.0,1.5547805227990612,1.5057337364704984,0.8919704813742884,1.3857844556794114,1.5187036446469857,,,0.5113665138247345,inf,,,0.8629739856710623
172,,0.0,0.0,1.4697218659008973,1.4539243592425621,0.9337496124169207,1.4762954649204705,1.568148663458233,,,0.524519217297268,inf,,,0.8343999426117872
173,,0.0,0.0,1.3487994357144797,1.3101199902103848,0.923230268204913,1.389020331964346,1.495467237702617,,,0.5329562494928909,inf,,,0.8243208207759695
174,,0.0,0.0,0.988214789637614,0.9282334110342519,0.782591743659099,1.1238472888948634,1.2118012779476315,,,0.4880666971167561,inf,,,0.8463429964324951
175,,0.0,0.0,1.3708102724030173,1.3694240935839406,0.8423308940091846,1.7963452176827446,1.6139995617822667,,,0.45235697871908603,inf,,,0.8325755780724639
176,,0.0,0.0,1.473509663375942,1.4017425342933845,0.8297204809844855,0.9562402425069505,0.9972081396015772,,,0.5158180382284114,inf,,,0.8128474998544025
177,,0.0,0.0,1.573038116453522,1.544688094610375,0.8862565732712072,1.2014102308448573,1.4895921683047613,,,0.40055318934786044,inf,,,0.8091344272931306
178,,0.0,0.0,1.665888226299709,1.6054964165647674,0.9162758670900905,1.150675821382601,1.3616953355262842,,,0.4732203808476458,inf,,,0.8153295925438503
179,,0.0,0.0,0.8316818786227608,0.7137708855996515,0.6727870331440723,1.5902007158737728,1.5396833025549812,,,0.5883313578629602,inf,,,0.9257602520659964
180,,0.0,0.0,0.6963811245745581,0.6761705272988529,0.4199051912784868,1.3861180368644967,1.6152608167790465,,,0.585052858160615,inf,,,0.700847753124123
181,,0.0,0.0,1.0255062713715637,0.9356479522263881,0.7911727234857938,1.2579771897094545,1.58391421359867,,,0.5677978065141052,inf,,,0.8267109130941803
182,,0.0,0.0,1.2009127491942688,1.151613022178962,0.8273714484037838,1.1726661579258906,1.3503385183104653,,,0.5370774965580548,inf,,,0.752775287668495
183,,0.0,0.0,1.6152271691867648,1.528950233431166,0.9107251081576113,1.6430006290533878,1.7933863291326564,,,0.44694259446804574,inf,,,0.7466955763634282
184,,0.0,0.0,1.350198280252318,1.317483413078564,0.8463956192155957,1.5032505346429208,1.3683445917685344,,,0.5677978065141052,inf,,,0.7847900865218199
185,2.3460907814888605,-0.01564060520992574,0.0,0.7562550969291826,0.640057145806027,0.6992613561609818,1.859767173018222,1.7845073279390458,,,0.5370774965580548,7.347121938765983,inf,,0.9087242463865186
186,1.7736899459201183,-0.011824599639467455,0.0,0.9703239859913977,0.955150168199246,0.6992126739635205,2.332133453330271,2.0820074953562813,,,0.5641709578113449,6.225781399020317,inf,,0.6802199801312313
187,,0.0,0.0,1.5925100784996413,1.5270608988349803,0.9037093619678256,1.7876388765189184,1.887171526046454,,,0.552929491858785,inf,,,0.8081560583501878
188,,0.0,0.0,1.4807939057708626,1.3738531008411052,0.9110251279322931,1.8052226686088169,1.8671307686916807,,,0.5451288209179292,inf,,,0.8030858410382902
189,0.8116163766160328,-0.016232327532320654,0.0,0.7078708593209567,0.5597300988458802,0.632642872956467,2.28877601775076,2.172132842820108,,,0.585052858160615,4.637922972459899,inf,,0.7125907196322077
190,1.2852322690748235,-0.00856821512716549,0.0,1.0200831173773948,1.0045147444418834,0.6765676223892166,3.1811910460762722,2.1226125175837502,,,0.5677978065141052,6.295577160955859,inf,,0.9371882525207228
191,,0.0,0.0,1.5795818167102338,1.5513006169805947,0.9180590332561032,2.5247532041501874,3.2481783888046847,,,0.5329562494928909,inf,,,0.8294820441494679
192,,0.0,0.0,1.6816091270126132,1.6618069359542424,0.9502347823548163,2.2139115920336763,3.913986678161426,,,0.5113665138247345,inf,,,0.7499795701504107
193,,0.0,0.0,1.6361721145553827,1.6053847711150604,0.9293943050502275,2.399913124889417,3.4173451750749364,,,0.4576907132971797,inf,,,0.8267498681318941
194,,0.0,0.0,1.7197347247029744,1.7168495437458853,0.9602601177818291,2.5657302629244385,3.5422565233845544,,,0.45235697871908603,inf,,,0.821336718340083
195,,0.0,0.0,1.6775034281470107,1.682847155541908,0.9423802599152099,2.9769625490415943,5.6035841058139075,,,0.43586655696697996,inf,,,0.8300947805141873
196,,0.0,0.0,1.7001398296335306,1.6835677162359062,0.966175466981452,2.8419366038524276,5.806952701523025,,,0.49759852643134905,inf,,,0.8330312494287108
197,,0.0,0.0,1.7483455425190153,1.7251988076195963,0.9615857565243123,3.0756041689902753,8.872561466551383,,,0.4732203808476458,inf,,,0.8019988081841772
198,,0.0,0.0,1.7205302033183472,1.7001367428110887,0.9472952366834291,3.0805632326234083,7.254745441030125,,,0.5022576003740722,inf,,,0.826739481222088
199,,0.0,0.0,0.8579104575514406,0.8143878931204149,0.6485988987398913,3.1893097684901135,12.305821316208828,,,0.5158180382284114,inf,,,0.620801581723909
200,,0.0,0.0,1.5645070566052017,1.5516931053197778,0.9037461093890332,2.699950060574095,3.0897391349860746,,,0.5370774965580548,inf,,,0.8926021232848184
201,2.0661963149298153,-0.006887321049766051,0.0,0.7299802210697744,0.6865443939766364,0.5905789278211951,2.884799519877611,4.339912682147409,,,0.6068309995095971,7.769978789586016,inf,,0.8130854290436247
202,,0.0,0.0,1.7036485090691411,1.6928173414837748,0.9306891929560859,2.4148334752850507,2.281903662451279,,,0.541134803179459,inf,,,0.8488269860252521
203,,0.0,0.0,0.9905630875924614,0.9688422678203661,0.6826286946543564,2.562875587190149,4.585832493111155,,,0.5748741956352443,inf,,,0.805191061807713
204,,0.0,0.0,1.0117208548826926,0.9534771586152754,0.7675924116146534,2.459826359834775,4.251072388990678,,,0.5604843169999094,inf,,,0.8614293114763238
205,,0.0,0.0,0.625218526630679,0.6141131263093084,0.598388322936649,2.5107588384129054,4.161430533752192,,,0.552929491858785,inf,,,0.9410222040592378
206,2.5682882587270512,-0.008560960862423504,0.0,0.7708151044061713,0.7460893705488273,0.7259793037786829,2.993736056586701,3.251972862353194,,,0.6008849035917525,8.272070733383252,inf,,0.7244481563273791
207,,0.0,0.0,0.4450447167453035,0.43400959400716993,0.6604227305288215,1.9115039775714673,2.1737842401701695,,,0.4732203808476458,inf,,,0.9374174394124263
208,,0.0,0.0,1.448281005925425,1.4039073736194732,0.8961670334019517,1.2877922179194792,1.6017257801478584,,,0.468121228110369,inf,,,0.8179812909258803
209,,0.0,0.0,1.4555064371860065,1.433593219434573,0.9079496214345872,1.4191511014256477,1.7021987761418071,,,0.524519217297268,inf,,,0.8285304364217337
210,1.3599770528025172,-0.004533256842675058,0.0,0.28588429402253124,0.2470426108423917,0.5554971621939756,1.7845383165309423,1.9450960133167918,,,0.524519217297268,7.063759527458719,inf,,0.9320588090263058
211,1.91959284073794,-0.0063986428024597995,0.0,0.5933870240415499,0.542211367993824,0.554014500790925,2.8726286700876082,4.010071565021246,,,0.4629450596409901,7.623375315394141,inf,,0.8907084770183399
212,,0.0,0.0,1.735895549175579,1.7134554105728173,0.942008863763496,3.1420996086203314,6.555418973199835,,,0.524519217297268,inf,,,0.893430913328981
213,,0.0,0.0,1.7438795185279719,1.721690037167437,0.9617131399396721,3.3265643257715922,4.850480263931424,,,0.5202020156036558,inf,,,0.8643548977549728
214,1.529395204760564,-0.005097984015868546,0.0,0.7466014429733555,0.6539455332545144,0.6435375768540484,2.744085258951273,3.024974945875814,,,0.5287703885177266,7.233177679416765,inf,,0.8078509046915974
215,1.2039728043259361,-0.004013242681086454,0.0,1.067168705713463,1.0662440528972215,0.7090100647573141,3.545215325465799,3.009900991875891,,,0.6380535849069913,6.907755278982137,inf,,0.6590324435556576
216,1.1929833509665486,-0.00795322233977699,0.0,0.9579424211598274,0.9291035752231646,0.6863405236191451,3.6202298106949415,1.8780670263120882,,,0.6811855325194978,6.203558262235607,inf,,0.7823771028010015
217,1.3599948111898004,-0.027199896223796007,0.0,1.1359554260403009,1.0964903257637533,0.7607949099621383,4.061596098270521,55.5444115510788,,,0.648888643467878,4.852208057501738,inf,,0.8264769791502871
218,1.1474744258433192,-0.03059931802248851,0.0,1.2019340508650078,1.1613168033803885,0.7248004844575577,3.91575100953138,3.487258610268364,,,0.6447042257417027,4.66232859982804,inf,,0.7731113960091621
219,2.1617179628769954,-0.021617179628769953,0.0,1.0166857588703984,0.855981338692057,0.717013632770582,3.3898824142176083,2.178810140855655,,,0.6380535849069913,6.437751649736401,inf,,0.7868755396505499
220,0.5389965007326869,-0.0017966550024422897,0.0,1.0434200250838983,1.0001282305681514,0.7111524423236744,3.551597029653028,9.402291855857417,,,0.6125606311107803,6.242778975388888,inf,,0.9174834555206479
221,,0.0,0.0,0.7179185354672208,0.6849167177040348,0.6877909860972976,3.4035337233652387,5.3174756874441185,,,0.6068309995095971,inf,,,0.8385030268703678
222,1.0242282764380704,-0.023898659783554977,0.0,1.2539441237188573,1.2251094729179537,0.7248165312439945,4.202093927737349,19.246401965884072,,,0.6447042257417027,4.527180867126397,inf,,0.7103318386560357
223,2.0660280396927178,-0.05509408105847247,0.0,0.8969467024935787,0.8413758986554458,0.7127093732905992,3.9245404389530503,7.740078586434064,,,0.6097226960127671,4.95236638597228,inf,,0.6221954548674737
224,1.3157515700845002,-0.017543354267793337,0.0,1.2009013011636693,1.1643980406303645,0.7791202255574968,4.348992214716192,21.786483377694168,,,0.6509067234006624,5.393849793269601,inf,,0.6320627481737359
225,2.5682882587270512,-0.008560960862423504,0.0,1.022031468701152,0.9793107951703449,0.7584223885964513,3.9941265484480057,9.482187051796512,,,0.6125606311107803,8.272070733383252,inf,,0.7688795002042912
226,0.9852836033611064,-0.0032842786778703548,0.0,1.050196413434358,1.0327026390043694,0.6708730522933073,4.145370270157112,16.415789466306727,,,0.6528756675646988,6.689066078017308,inf,,0.7874136892733968
227,,0.0,0.0,1.423894583447466,1.3985464348842886,0.7976710793037356,4.120286211552318,25.188957096096246,,,0.6584896970785714,inf,,,0.9124150442841203
228,,0.0,0.0,1.0490665985792582,0.9698730366089686,0.7498135317815892,3.6841679803831346,49.387024507127826,,,0.6468212168108125,inf,,,0.8347539921889546
229,0.765724296786203,-0.005104828645241353,0.0,0.9618831203400764,0.9355004550485765,0.726660961020171,3.758947643701745,2.097992474592803,,,0.6468212168108125,5.7763531674910364,inf,,0.8539843920779573
230,,0.0,0.0,0.763502437502483,0.747002637357849,0.5227536617659531,4.269312317288702,156.70897728351719,,,0.6403206450210053,inf,,,0.6312639445548741
231,0.4780358009429998,-0.0015934526698099993,0.0,0.751717673459953,0.7231579841174277,0.682074749807811,3.5610588592556716,7.9751766090738165,,,0.6509067234006624,6.181818275599201,inf,,0.7659771686858121
232,1.41332303350781,-0.004711076778359366,0.0,1.2390036029158074,1.2141561186494896,0.8080111436732771,3.634525669512954,2.862028342751921,,,0.6357360191111145,7.117105508164011,inf,,0.8004650145515128
233,1.383777975741236,-0.023062966262353934,0.0,1.154378213916105,1.1384571659948746,0.6556919465185165,3.4671463075978357,2.5397984548708754,,,0.6468212168108125,5.042814192460491,inf,,0.738582985915519
234,,0.0,0.0,1.2591113907219276,1.2266945307246144,0.7360711739065291,3.9439437106059616,4.915378141404034,,,0.6380535849069913,inf,,,0.9511590392132245
235,0.18795315293331,-0.0012530210195554,0.0,1.144546647534351,1.1075624829130217,0.7792968339813248,3.627469943895162,10.309653473447593,,,0.6566669596287297,5.181028280024937,inf,,0.8271037840069986
236,1.3796717477448803,-0.009197811651632536,0.0,0.8425349945780368,0.8240494186478556,0.6537499554424969,3.51640987069975,5.28415346544329,,,0.6619902821573977,6.3902851124974775,inf,,0.6555141363528264
237,,0.0,0.0,1.4435224403278,1.3011486193131288,0.8661597155862568,1.6205558575161816,1.38291772011434,,,0.6509067234006624,inf,,,0.9441744893940827
238,,0.0,0.0,1.4257520669278565,1.3786902729198953,0.8436329189794207,1.7623309031178982,1.538371510637216,,,0.6357360191111145,inf,,,0.9457329307378242
239,4.461329149762201,-0.029742194331748007,0.0,0.29506657287888677,0.17028904578012125,0.48945454291647744,1.6035364307009248,1.2447325612847573,,,0.6468212168108125,9.328123407632566,inf,,0.6084238839089916
240,2.1717736869454924,-0.04343547373890985,0.0,1.010414486523646,0.9882694229370839,0.7154914062284331,3.9528519209109256,3.544206660482824,,,0.6528756675646988,5.617604778415148,inf,,0.7373481670137156
241,2.228876101692204,-0.037147935028203405,0.0,1.2965610895728112,1.263656105516313,0.8206997862030981,4.213563567138196,8.200978067569803,,,0.6684167106117298,6.104260041253326,inf,,0.718250974179935
242,1.2278681362441102,-0.008185787574960735,0.0,1.0490922867964179,1.0300710043147354,0.7294653751021746,3.615912069511106,3.896845614859358,,,0.6180765742263259,5.939504808177271,inf,,0.8090472974135421
243,1.5141277326297755,-0.005047092442099252,0.0,1.250731498271187,1.2118825779343176,0.7903858945079139,3.6734374424533134,6.712767934493402,,,0.6403206450210053,7.217910207285977,inf,,0.8154508980061075
244,1.7404655940032445,-0.03480931188006489,0.0,1.014790292706084,0.9566823866547597,0.6375644623968599,4.354146515256114,20.604264901674252,,,0.6619902821573977,5.459529960131756,inf,,0.8524023967443755
245,1.8012792038051526,-0.04202984808878689,0.0,1.181994431606235,1.149238089108122,0.7408042713012312,3.1833068034457046,1.684869853487759,,,0.6509067234006624,5.302771716897417,inf,,0.5659524559328188
246,3.200853417778109,-0.016617794095096883,-0.015390740082684203,1.25988523438507,1.2207823534259894,0.7120708775053115,3.616094416384929,2.8352517915581497,2.7448575105109194,,0.6380535849069913,7.557417347602343,2.751535313041949,inf,0.5718883463911215
247,2.8134107167600364,-0.009378035722533455,0.0,0.7134410788873033,0.695356363264799,0.7221229222707949,2.9671679902568298,4.011817184694525,,,0.6309483474627791,8.517193191416238,inf,,0.7120591412453778
248,1.430499451642748,-0.02860998903285496,0.0,0.9757708814638976,0.8296334958112697,0.6019613286068346,2.8782876960466037,3.313916124228974,,,0.6333676938231112,4.722953221644475,inf,,0.8188658827237524
249,1.8034961473208762,-0.012023307648805841,0.0,0.56681965990552,0.49304756244009257,0.4224507920140446,2.76549416376489,2.755552521737263,,,0.6153451465759925,5.956526495746702,inf,,0.669250426852648
250,1.1034206130579869,-0.02206841226115974,0.0,0.7730373210794396,0.5112001808144854,0.6230725064448,3.1121703973566803,3.191863503309761,,,0.6284777104787076,4.775563171916772,inf,,0.8829983680298211
251,1.1777532306955625,-0.05103597333014104,0.0,1.1887589059414818,1.1701537033563012,0.7545742083632534,3.687535736899444,22.840606116640675,,,0.6447042257417027,4.00755543214971,inf,,0.6843318392589013
252,1.4086065975234279,-0.0704303298761714,0.0,1.222295262228156,1.1524017664222035,0.7726509222622129,3.5373985023397863,5.20417585024311,,,0.6425374456860184,3.9954046143671973,inf,,0.7006748911411156
253,,0.0,0.0,0.8557862672627958,0.8084525532038945,0.6084042472322887,3.2889722511935164,2.4784109963800334,,,0.6038851895711802,inf,,,0.8313974528258422
254,1.985458258192423,-0.05956374774577269,0.0,1.1377589775879977,1.0786850351015795,0.7265221331505113,3.331805559233151,3.1024796213351387,,,0.6566669596287297,5.1384686656061405,inf,,0.6957979120155414
255,1.9269430625909785,-0.051385148335759426,0.0,1.1445181407394285,1.083937828606854,0.8189952883977474,3.3384066886491173,2.8318808030376625,,,0.6547956803312163,5.477975805922507,inf,,0.7753363958822352
256,2.3491303045270517,-0.015660868696847012,0.0,1.0387892111414343,1.0237810653868584,0.6428907448550942,3.1310306638914787,2.5047487511559767,,,0.6333676938231112,6.885776372263361,inf,,0.861764740890001
257,1.9021224673301,-0.04801781682981372,-0.009045857190089282,1.1911620574967663,1.0976271217624693,0.8144906029482483,3.658466017519188,7.712583119831063,3.381940796924266,,0.6528756675646988,5.246357627617326,3.1654750481410856,inf,0.7778123080782383
258,1.8633397746155036,-0.10529416849892367,-0.012717350560058224,1.3280461128848007,1.2932903279843206,0.7677216144887786,3.2667719427890836,2.7067818260330534,2.5923013035168188,,0.6284777104787076,4.203415657276462,2.450559100929575,inf,0.6450524193775812
259,1.6453333445536062,-0.021937777927381417,0.0,0.9652861116849877,0.9208196430604219,0.689998382977613,4.008208392037469,5.560514940539866,,,0.6619902821573977,5.906306738767675,inf,,0.5382158533390136
260,1.4071956387888434,-0.03283456490507301,0.0,1.158413222084306,1.1284217150175027,0.6957241382364462,2.7527944583244333,2.471324110129023,,,0.6547956803312163,4.8022670283642,inf,,0.49673845409672046
261,2.2278963924567456,-0.014852642616378304,0.0,0.8165233953798537,0.7856836436947674,0.637002334669323,2.7014072987195266,2.5533898555101,,,0.6425374456860184,7.1034998561082325,inf,,0.6251209132584647
262,1.6144506130543392,-0.03767051430460125,0.0,1.0865449948567307,1.0183385293463831,0.776541554629915,2.9992027650453656,2.5435075291223543,,,0.6357360191111145,5.346108030384385,inf,,0.8056668234444049
263,2.0708354356779326,-0.01781898244956004,-0.009792156692812392,0.6201641137852522,0.5697267587027128,0.5383645207369967,2.8849030751522062,3.078949415704399,2.3740250697269683,,0.6468212168108125,6.254273354814623,2.3807028722579977,inf,0.6901455655516525
264,1.6336863258359573,-0.043564968688958865,0.0,1.2393570681222852,1.248101954722084,0.8124111701806334,3.8618163589524483,2.3293220186363426,,,0.648888643467878,5.134687942766234,inf,,0.6378635730383999
265,2.1923484316148802,-0.014615656210765868,0.0,1.1817615944837858,1.1447997693882186,0.7255351367044384,3.479080668717955,2.113530038448894,,,0.6468212168108125,6.9887243415158045,inf,,0.8769030705260423
266,2.439620895176199,-0.04066034825293665,0.0,0.8783432768243419,0.8350713804571577,0.7218965252013233,2.8289719516669996,1.9369626520347434,,,0.6425374456860184,6.396929655216146,inf,,0.655470381508202
267,0.941608539858445,-0.003138695132861483,0.0,0.7775633551154639,0.767649760293643,0.6098599894825338,3.260737150372848,2.188428030747126,,,0.6333676938231112,6.645391014514646,inf,,0.795749713235495
268,,0.0,0.0,0.9324485465925488,0.9256298736297585,0.8012398156401626,2.5487805972570876,2.3895629159014575,,,0.6566669596287297,inf,,,0.8016732698099643
269,,0.0,0.0,1.1576384213969988,1.1282022106265108,0.764492029401886,2.6355534741737663,1.7176351807373984,,,0.6309483474627791,inf,,,0.8812533692490697
270,1.9679611111826496,-0.026239481482435326,0.0,1.1330255068652484,1.1006754223107005,0.6953411196973793,3.3765507609988803,4.751462555060558,,,0.6333676938231112,6.209067918046577,inf,,0.7129306718414194
271,1.5527735697805987,-0.010351823798537324,0.0,0.8727458301488089,0.8391189525226557,0.6833629235992535,2.802504919798676,1.938205735167407,,,0.6619902821573977,6.410352675548287,inf,,0.9162901587567042
272,,0.0,0.0,0.15530386776307525,0.13392177562452715,0.4313399162866502,2.16153705189405,2.2963861110675796,,,0.6380535849069913,inf,,,0.7679444109407619
273,0.4307829160924542,-0.001435943053641514,0.0,0.8910897692193424,0.8101928900703056,0.6654403671981485,2.6607727672062045,2.140690717187212,,,0.6584896970785714,6.134565390748655,inf,,0.8662823570654463
274,2.2072749131897207,-0.007357583043965736,0.0,0.5614445419594802,0.5405775850353066,0.5064379926256598,2.2488307815211668,2.419188158551869,,,0.6727386042041725,7.911057387845922,inf,,0.8183361500159139
275,0.8835009090511642,-0.0029450030301705473,0.0,1.0586193743548522,1.0212536794757099,0.6445424756876333,2.1704686251474143,2.039373465828882,,,0.6509067234006624,6.587283383707366,inf,,0.8247243282992691
276,1.1086626245216111,-0.003695542081738704,0.0,0.801026482392186,0.7737182630455637,0.640567590367969,2.9412423554325415,3.1190747152536074,,,0.6357360191111145,6.812445099177812,inf,,0.8217759149169058
277,1.0640358593239514,-0.007093572395493009,0.0,0.8041655117821026,0.7727901865124638,0.5948448033961136,2.7360489690638725,2.4300139402984833,,,0.6528756675646988,5.790793851645831,inf,,0.5963798781772645
278,0.5065668797982135,-0.006754225063976179,0.0,0.8512402156058085,0.8357550783538792,0.5886017529062303,2.3746254583407684,2.0089110074218053,,,0.675384900321601,4.75728590072498,inf,,0.7179898167850189
279,1.5892113751591932,-0.09005531125902096,0.0,1.282500285999684,1.2789128472637294,0.7829600602811844,4.054591034926108,1.7227108247685399,,,0.6528756675646988,4.140737601791811,inf,,0.7549327657016693
280,2.0291289048492063,-0.07440139317780424,0.0,1.0908637618299402,1.0261525410940213,0.7966375905780141,3.7893493613149127,4.29634933054556,,,0.6425374456860184,5.144166686720778,inf,,0.5864736224493237
281,1.5292066558980124,-0.06116826623592049,0.0,1.192830035672139,1.1520432619690497,0.7946947607495825,4.008559079022487,2.297525589832513,,,0.6619902821573977,4.531300337421635,inf,,0.666528378314399
282,2.681099046932187,-0.06255897776175104,0.0,1.1859201945152795,1.1512570480148552,0.7427585940592314,3.8949272220613906,3.157856607147312,,,0.648888643467878,5.4621443407058266,inf,,0.8669737189567748
283,1.280965846486108,-0.008539772309907387,0.0,1.1484171282135887,1.1337598792450376,0.7787833229526235,3.7469069537530766,3.6502894708248954,,,0.6468212168108125,5.8901120528476945,inf,,0.9131773204831548
284,1.6138586274371807,-0.043036230064991486,0.0,0.9365602216666564,0.8694646172353294,0.7058895867589497,3.1843731933506163,3.0681676527042847,,,0.6566669596287297,4.689760254288711,inf,,0.7207256428293768
285,1.3260326367903663,-0.029933090617135637,-0.005427779697274137,0.9790253882852565,0.9634458185971526,0.6529039314679724,2.6932166778225795,2.5817076160342936,2.7224258077690133,,0.6547956803312163,4.8283137373023015,2.5017137681043815,inf,0.7682794552915373
286,2.139806114363137,-0.05706149638301698,0.0,0.8751994615754731,0.7620912912896968,0.68824484839753,2.0817128452565377,1.5853377342191552,,,0.6180765742263259,5.079628165583207,inf,,0.6133410797810678
287,1.5127092625607665,-0.11065809014342452,-0.00531628665290092,1.4019845194950133,1.3972715386938281,0.8445913121955511,4.281141585104339,6.821553759461421,3.6247490768348216,,0.6309483474627791,3.6817935077244504,3.6148975774146406,inf,0.6659767948067796
288,1.8310021579847842,-0.030516702633079738,0.0,1.1283176104926118,1.0960691747091462,0.7419029811652763,3.152342359409512,2.127816125473649,,,0.6038851895711802,5.406150071351252,inf,,0.6299779708632106
289,1.4677028899079654,-0.019569371865439538,0.0,0.9546023249574869,0.9212436974790278,0.6226741400852958,4.376558099272867,32.52566834976795,,,0.6425374456860184,5.555362469537927,inf,,0.8549790222774181
290,1.3114302113355287,-0.09095358410874126,-0.009589398760315953,1.3262140325788356,1.3197136503650306,0.7806178666031264,3.770867533252506,2.4009768918455157,6.182817595076087,,0.6652988471865258,3.6086316392711852,4.965719965985,inf,0.5408505765034387
291,1.9082258640762861,-0.050886023042034295,0.0,1.200860028152098,1.160887278946555,0.7867967066612669,2.9828544864228155,1.526453372570789,,,0.6547956803312163,5.44914025628262,inf,,0.6358364660638668
292,1.4136874582398418,-0.06844355133340262,-0.0022408215785894685,1.0798689351584976,1.0354519038432342,0.7217477580435325,4.085121505825487,3.0647091999379494,2.215809756725155,,0.6602640781246099,4.161196869209941,2.2159301587100253,inf,0.8142945135396922
293,2.371577964480997,-0.007905259881603323,0.0,0.92080310014999,0.8844486823541072,0.6476159403969887,2.838752580755326,2.4591517954138804,,,0.6357360191111145,8.075360439137198,inf,,0.6697008853055167
294,1.4328395726528966,-0.009552263817685978,0.0,0.9027916709304582,0.807649466020822,0.7124548050156122,2.773257311089883,2.1297872881795987,,,0.6447042257417027,6.295577160955859,inf,,0.6360769254366533
295,2.357740603402887,-0.015718270689352578,0.0,0.6160797653431743,0.5943585205578418,0.6606046508043317,2.730825993109948,2.0633882303391546,,,0.6528756675646988,7.090076835776092,inf,,0.7706319782551297
296,0.7201758529478646,-0.002400586176492882,0.0,0.9326620112361361,0.9206059848458045,0.6173392513222595,3.301366368442294,3.1532189113835165,,,0.6380535849069913,6.4239583276040655,inf,,0.7911617904508201
297,3.912023005428146,-0.013040076684760487,0.0,1.2151103620527273,1.1937464842723753,0.7876337781738445,2.958968767321823,2.4797074106267347,,,0.648888643467878,9.615805480084347,inf,,0.5298727763794837
298,1.6195419173941912,-0.02159389223192255,0.0,0.8447357876925613,0.7873607416635524,0.7469872056496194,2.3054616063654283,1.4827597792074019,,,0.6584896970785714,5.8741754605848815,inf,,0.6129678357293556
299,1.8038295673954226,-0.03607659134790845,0.0,1.055452312821344,1.0493506036073197,0.6768777398954049,1.9486044783271512,1.0280011378229679,,,0.6357360191111145,5.513162115047551,inf,,0.6963315572870605
300,2.568113582989084,-0.05136227165978168,0.0,1.0083878614150767,0.9999316630366378,0.7697757265291981,3.2092059357789906,2.557686275366723,,,0.6566669596287297,6.084554970173994,inf,,0.7401121654438199
301,,0.0,0.0,0.9916944368217576,0.8909275557662056,0.7322576673783467,3.3501549052896515,4.037488877291715,,,0.6684167106117298,inf,,,0.7964281930554243
302,0.503305295942769,-0.00671073727923692,0.0,1.3121888522654035,1.2753180903038446,0.7593284723360257,3.4832681211331074,19.509355371741655,,,0.6509067234006624,4.700702612709655,inf,,0.6299454425645199
303,0.3109681122565574,-0.007255922619319673,0.0,1.2550311936425116,1.2360554009372358,0.716733598216973,4.064019023456628,9.221301010452361,,,0.6403206450210053,4.002677373696277,inf,,0.6948495300827534
304,1.8147335606042705,-0.024196447474723607,0.0,1.0252825037178346,0.9736598344225013,0.6947325135515272,4.0099419265430924,5.707327267422449,,,0.6233814453054027,5.629912626089745,inf,,0.6388643607371541
305,0.710442902944755,-0.0047362860196317,0.0,0.8874595802994564,0.8857454954714008,0.5049634814860331,2.8537316490087368,2.9599431625676442,,,0.62595550513784,5.66456176150292,inf,,0.749069158954269
306,0.9730888227321371,-0.019461776454642744,0.0,1.224563039719425,1.169575714172831,0.737230990115729,3.5014904882661373,18.92973616167335,,,0.6566669596287297,4.675354242845196,inf,,0.5571102200563438
307,1.44242640183246,-0.03635253223893097,-0.002112171809934632,1.0981805007905552,1.0866785340257397,0.6688331494867721,3.8949246918076748,4.69310777336246,1.7369624183528274,,0.6207552362147116,4.6599784224830865,1.6786823246090843,inf,0.6160771484286048
308,1.858720844800129,-0.05576162534400386,0.0,0.9765934690496241,0.9415344469126814,0.6408644241934665,3.585927878563975,13.235540969305982,,,0.62595550513784,5.169240324272894,inf,,0.6590002533810294
309,1.3460557366349775,-0.03140796718814948,0.0,1.0081546030359225,0.9526014451067204,0.7082415559367942,3.6044438870038036,8.684935932369115,,,0.6207552362147116,4.866534950122499,inf,,0.6058982484891808
310,1.7186846425436755,-0.03437369285087351,0.0,0.8389315517705693,0.7747909593033181,0.6701638605400514,2.855497820931437,2.484571396386029,,,0.6125606311107803,5.2785147392518565,inf,,0.6329235670557046
311,1.9504628279759484,-0.03250771379959914,0.0,0.8499164044318226,0.766982374057388,0.7354355389276309,3.577181587297417,3.004688794239074,,,0.648888643467878,5.762118051669164,inf,,0.6076538840986209
312,1.6231575605102944,-0.03246315121020589,0.0,1.0831983572257575,1.0034017185036055,0.7244274039892097,3.231891221681079,3.059963386225631,,,0.6602640781246099,5.134687942766234,inf,,0.6293750050929968
313,1.7069993780463242,-0.02275999170728432,0.0,1.1968264134845423,1.1829620088821007,0.7574524150625601,3.314348446418829,2.6403900338689854,,,0.6425374456860184,6.023069886523313,inf,,0.5380495278794251
314,0.9345174245761769,-0.012460232327682359,0.0,1.0159555228313168,0.9896254480793197,0.7122977691644036,3.93440285974457,4.231669301948729,,,0.6668815377411301,5.219300826229812,inf,,0.8233323420435378
315,2.898724350393218,-0.05797448700786436,0.0,1.0070802627773252,0.9782956138688562,0.7132939351405829,4.358463897559231,4.234720907310925,,,0.6309483474627791,6.084554970173994,inf,,0.7899989053009283
316,1.725969173366373,-0.040272614045215364,0.0,1.3097511591610993,1.2944980987793033,0.8589085396427995,4.110023741781348,2.115523715145648,,,0.6309483474627791,5.179053945721219,inf,,0.7536429652290499
317,0.7460497100084336,-0.0049736647333895575,0.0,0.9186022972086729,0.8798009432453906,0.6553493996990796,3.2031964077408768,3.205969318660886,,,0.6468212168108125,5.737684026331882,inf,,0.8883477795516319
318,0.23509162300853023,-0.002350916230085302,0.0,1.1459354957725842,1.0957841594524753,0.7631807085603628,3.1215203237901634,9.284326994658173,,,0.6153451465759925,4.829703591591356,inf,,0.8258211734327514
319,,0.0,0.0,1.1723345251055437,1.1159884207295696,0.7330044746483239,3.3534254936545107,5.501919696338725,,,0.6309483474627791,inf,,,0.7328730064453951
320,,0.0,0.0,0.8467049444282702,0.8155595290502494,0.6343988878239507,3.8444047797947336,14.007994101091045,,,0.6125606311107803,inf,,,0.8266931721831386
321,0.7509127814498298,-0.007509127814498298,0.0,1.0178942469952732,0.9693071361715498,0.7608070953885189,3.2389853722950988,2.5409255794100947,,,0.5947193981915972,5.269837895226168,inf,,0.656263191718359
322,1.2704258489738558,-0.025408516979477113,0.0,1.0139316830345186,1.0043709650911055,0.7634785822380847,3.456144312953402,3.418402562701594,,,0.6699045166045591,5.032540129484306,inf,,0.7836091489091763
323,0.8663052226874609,-0.00577536815124974,0.0,1.0126657076213565,0.9301197514274636,0.6870758950427758,2.0373054105437016,1.6045699132404536,,,0.648888643467878,5.866301404153976,inf,,0.7690060709255813
324,1.7788910895243661,-0.017788910895243662,0.0,1.0503564153612845,1.0219680206561321,0.6978935107578312,3.780475661295082,11.49620407703473,,,0.6425374456860184,6.198078796470981,inf,,0.6987170405865578
325,2.101847649435122,-0.07706774714595448,0.0,1.2059795236959205,1.1411070054447796,0.8072569449351389,3.4799617663707028,2.4432471014369423,,,0.6403206450210053,5.090400262565118,inf,,0.6437789113740113
326,1.4260304699711568,-0.05228778389894242,0.0,1.1578013173740354,1.0945517928017932,0.7296832578259008,3.5809765279160946,2.3365100694023804,,,0.6309483474627791,4.639071737663772,inf,,0.6546370501839411
327,1.1554276682967606,-0.015405702243956808,0.0,0.6331391030015108,0.595945211245374,0.649315211575162,2.69051327444866,1.7830401074246236,,,0.6425374456860184,5.431214040014468,inf,,0.5586724465665981
328,4.605170185988091,-0.01535056728662697,0.0,1.1296879003833664,1.1139854713572892,0.6685637609165551,2.643165477570079,2.1725114122950657,,,0.6380535849069913,10.308952660644293,inf,,0.7500064709151548
329,,0.0,0.0,0.8213670838107473,0.7824609248259236,0.6235474314263584,2.4280703938295316,1.8115427998352596,,,0.6528756675646988,inf,,,0.8027841422053138
330,0.9936043871001001,-0.03643216086033701,0.0,0.9086444305240053,0.7877393830497489,0.7362132324016614,2.475246217910283,1.9974204178443005,,,0.6668815377411301,4.232840639476025,inf,,0.7140139764355518
331,2.1897925987974918,-0.029197234650633223,0.0,1.1576808127825078,1.094052771375561,0.7789289130614265,2.633477060200288,2.0606981101767676,,,0.648888643467878,6.364139832393156,inf,,0.874970273082875
332,,0.0,0.0,0.9582664823267385,0.9010322467694785,0.6711582696854271,2.2555283166040763,1.9359870069986447,,,0.6619902821573977,inf,,,0.8604829576181023
333,1.5134021335500982,-0.04540206400650295,0.0,0.9042776707899043,0.8937719378226401,0.7187552447094039,3.536355884454425,3.676288422017437,,,0.6619902821573977,4.717965680133436,inf,,0.6376446130308219
334,2.671889870312397,-0.01781259913541598,0.0,0.8663554088251975,0.8255719541151573,0.7202511470810992,2.5784970718401583,2.9645919741360807,,,0.6403206450210053,7.43727303576028,inf,,0.7123823223149326
335,2.6809117792715185,-0.1251092163660042,0.0,1.2867570217707753,1.2298987041883676,0.8312770828178306,3.7779090234820067,1.7327988659507358,,,0.6602640781246099,5.19295685089021,inf,,0.8331973842627428
336,1.8118823217280422,-0.06643568513002822,0.0,1.167764375710883,1.1430553936204313,0.7986893062114817,3.801439547350209,1.9804884090317318,,,0.676637947632344,5.049722682804303,inf,,0.802345431130134
337,1.5110725236794775,-0.025184542061324627,0.0,0.9801633365867589,0.916934906946515,0.6649928682261804,4.430574550226818,8.352607750772346,,,0.6699045166045591,5.555362469537927,inf,,0.5950073685844999
338,1.0227198691631922,-0.010227198691631923,0.0,1.1663492836474032,1.1443297013418172,0.8036796460235105,3.8858405603877086,9.433333518784558,,,0.6509067234006624,5.391407789614049,inf,,0.624682499596153
339,1.2851862342617715,-0.025703724685235428,0.0,1.2212229233221077,1.1925254684300517,0.83435254139557,4.238335677250936,33.149964931453894,,,0.6566669596287297,5.1479834852474795,inf,,0.874271984180672
340,1.4309703895724115,-0.023849506492873526,0.0,0.9659218507232933,0.9297954674138006,0.6305840645401656,3.725863565245481,4.5017018739223325,,,0.648888643467878,5.181028280024937,inf,,0.8922274184728892
341,1.2729656758128873,-0.004243218919376291,0.0,0.9417374288028028,0.8570257280440603,0.6360515193314472,2.72640837653522,1.7771942550437583,,,0.6468212168108125,6.9767481504690885,inf,,0.6093466158073464
342,1.412437941848179,-0.02824875883696358,0.0,1.209407161915998,1.152577515198091,0.7435134079962662,4.331239560917982,53.40795779287768,,,0.6778444222523095,4.984317985778882,inf,,0.7664681259911066
343,1.3407364083646078,-0.03128384952850752,0.0,1.0241278272094485,1.018120528806348,0.7164481840211343,5.019093326020854,9.271982295117938,,,0.6468212168108125,5.002336491281561,inf,,0.7479793078403735
344,1.6245813865082745,-0.027076356441804575,0.0,1.1972301049345124,1.1420193467047641,0.7590782523115928,3.3867765582083655,2.182580261125306,,,0.648888643467878,5.42867918441128,inf,,0.6612081818006945
345,1.6434116585130165,-0.05478038861710055,0.0,1.0829336734081638,1.0575002239527693,0.7933915286347384,3.561036266033899,2.6696946972961197,,,0.6528756675646988,4.878146111050177,inf,,0.7078183935762226
346,3.353542291759993,-0.022356948611733287,0.0,0.7458863364590217,0.6670260253588943,0.6242153327472055,2.7216382725269526,2.1661638511829415,,,0.648888643467878,8.36304251158898,inf,,0.8032875668712125
347,1.7488514019074723,-0.02914752336512454,0.0,1.079793626208812,1.0212564357647793,0.5895770092974376,1.6598211876675808,0.9818298338646823,,,0.6447042257417027,5.6486631754351215,inf,,0.8132438564628796
348,1.111844728788492,-0.02223689457576984,0.0,0.9050301522674532,0.7760134419572243,0.5922305629134638,2.156458301284133,1.5617649409933505,,,0.6180765742263259,4.820014934487606,inf,,0.5609118625362741
349,2.3264804249122197,-0.015509869499414798,0.0,1.036288829479683,0.9798866276733653,0.7054638517548555,3.0307325711666415,3.953732410079487,,,0.6097226960127671,7.330027505406683,inf,,0.8565209153634255
350,1.5454935487211907,-0.05666809678644366,0.0,1.0554519448248099,1.0457714210430518,0.8022051041814382,3.924873418973351,3.042901246604623,,,0.6509067234006624,4.600735588920226,inf,,0.5013160438276557
351,1.7741152469016175,-0.02956858744836029,0.0,1.1590071602107233,1.1358713246526482,0.7957607100082853,3.9074559582846606,4.150793130209356,,,0.648888643467878,5.608472294851876,inf,,0.8358579183272593
352,2.217548089905275,-0.029567307865403666,0.0,0.928600745128804,0.9026635442497922,0.7209990074518329,3.395145119415225,3.8549506841963104,,,0.6619902821573977,6.396929655216146,inf,,0.7690257070186052
353,1.7182725241750394,-0.063971873318725,-0.010486602728860032,1.1294282005253207,1.1046920178006623,0.7575562211084553,3.538787093927066,8.932485835622234,5.175105747761056,,0.6547956803312163,4.616343486586216,4.226272105264648,inf,0.6963371321459249
354,0.8087010639211799,-0.03154376887950588,-0.0034999438904119167,1.2776340771556296,1.2599250255783103,0.8073229864845223,4.5292527843576496,6.519006473641356,2.992893247330127,,0.6528756675646988,3.763603000309873,2.990001598845006,inf,0.8042872264747055
355,1.0089061550042717,-0.05044530775021359,0.0,1.3133866003811001,1.297913330078154,0.8161059852676729,3.565209827651664,2.3077410652360126,,,0.6233814453054027,3.876012567905113,inf,,0.692239573413178
356,2.095736773398265,-0.0419147354679653,0.0,1.099603306727445,1.0795176103147348,0.6312585797180776,2.0385820819551244,1.5578093860012907,,,0.62595550513784,5.42867918441128,inf,,0.8711472567674885
357,1.3470736479666092,-0.00449024549322203,0.0,0.5908602591964015,0.5551906279327256,0.7442111880557875,2.1766633978908603,1.8380301891421453,,,0.6509067234006624,7.05085612262281,inf,,0.6824933152496282
358,1.9807957562738427,-0.05942387268821528,0.0,0.8627192811323325,0.84421803250793,0.7293159644164533,2.412008985209579,1.5105493938084331,,,0.648888643467878,5.159522074803973,inf,,0.5584602749923283
359,3.624340932976365,-0.01208113644325455,0.0,0.710388074128614,0.6820319520065025,0.7891585817632532,2.222904598639912,1.4572549926059493,,,0.6425374456860184,9.328123407632566,inf,,0.7936256381875434
360,1.2378743560016174,-0.004126247853338725,0.0,1.1600767648024604,1.123097070010168,0.7727955968753373,3.3841705951685874,1.487988957715661,,,0.6566669596287297,6.941656830657818,inf,,0.7641855347723845
361,1.0026806055532416,-0.013369074740709887,0.0,1.022128616573972,0.9946370030482607,0.6663473840863194,2.9553386766119187,1.3988694678486575,,,0.6602640781246099,5.2111208215178815,inf,,0.7139177945528752
362,0.16251892949777494,-0.0005417297649925831,0.0,1.0375983451592967,1.008747227085262,0.5815224215084416,3.6511752726484974,4.1880579145111,,,0.6584896970785714,5.866301404153976,inf,,0.7477205049492506
363,0.12028616587450193,-0.00040095388624833975,0.0,1.0976225919016749,1.0189494383142375,0.6908033618344945,4.6192021631294855,16.155435241697916,,,0.6684167106117298,5.824068640530703,inf,,0.6984211034754828
364,0.5223693400939406,-0.009768183718233937,-0.0024204342172913446,1.1236786138746742,1.1001079153138644,0.6980961684165855,4.373424922296852,4.29342555129578,2.4490460804999112,,0.6357360191111145,4.224453247569121,2.206377959322707,inf,0.7489752507910231
365,,0.0,0.0,1.2338911999970645,1.1979390594857795,0.7523428577291009,8.25581950119982,233.5050103351889,,,0.6447042257417027,inf,,,0.8120856491103463
366,1.409897633961632,-0.023498293899360534,0.0,1.0854339913591402,1.067319476604169,0.7508440653819338,3.7729804091674324,8.842305474906244,,,0.6528756675646988,5.274166906315753,inf,,0.6940304326328111
367,1.7490395342680116,-0.040810922466253605,0.0,1.0958499140270643,1.0279730952650257,0.7050013458091323,3.599729571884447,13.912695337761088,,,0.6207552362147116,5.403677882205863,inf,,0.5386325853688705
368,,0.0,0.0,1.271623969434118,1.236777339938726,0.7532244855751528,4.5776972592360785,15.244721033035592,,,0.6652988471865258,inf,,,0.6999741067043663
369,,0.0,0.0,0.7051632943856732,0.6721534300865447,0.5350982000137672,4.196264326281207,35.43100847739644,,,0.6357360191111145,inf,,,0.5756113225103257
370,2.122347635378974,-0.02952229385115706,-0.005850166738492505,0.7659632515930657,0.6926436687969271,0.49525544733953686,2.876397882700279,4.503340866799099,1.8612708050545723,,0.6468212168108125,5.8507368876128645,1.6055843431181105,inf,0.6548237652068556
371,,0.0,0.0,0.6525791578404966,0.5089178023194281,0.5736447717765728,2.895593746952059,4.241556684200281,,,0.6447042257417027,inf,,,0.6287983886101638
372,,0.0,0.0,1.4602183348169777,1.4266852294080812,0.8316838647124214,2.948421890816504,7.649186442298169,,,0.6584896970785714,inf,,,0.8782082725644359
373,1.3862943611198906,-0.0046209812037329686,0.0,0.49399387022136393,0.3107439006294648,0.46508209152506996,3.269113206021193,6.019720154137222,,,0.6778444222523095,7.090076835776092,inf,,0.5475546789672281
374,,0.0,0.0,0.7315695908299221,0.6935053826336576,0.5926768771319473,2.680148961863953,1.593851503508668,,,0.6468212168108125,inf,,,0.5406247454513606
375,0.7693085415255093,-0.002564361805085031,0.0,0.6800531490338352,0.6246517724805487,0.4888867068971173,2.827966151019931,1.8294808371324462,,,0.6602640781246099,6.47309101618171,inf,,0.8514659654772294
376,1.3996034897575935,-0.01866137986343458,0.0,1.11051421086992,1.0602237093448164,0.6681507910687609,3.0754068626202065,2.701644620821917,,,0.6566669596287297,5.658171963404149,inf,,0.6314661536893239
377,0.29661070319608235,-0.000988702343986941,0.0,0.6976654924574224,0.615322761520091,0.4599769835868163,2.386806466023795,1.9675262854401945,,,0.6668815377411301,6.000393177852283,inf,,0.759940895009094
378,2.289262327363788,-0.022892623273637877,0.0,0.9262043753279076,0.9070611730541851,0.7514222643650874,4.127994701532093,2.2667112967564638,,,0.648888643467878,6.812445099177812,inf,,0.6733547295001605
379,1.4916242133015287,-0.03480456497703567,0.0,1.2544058110657703,1.23912810311865,0.7694733993327056,4.124297986214757,5.878393924420442,,,0.6528756675646988,5.063684515186071,inf,,0.8000228792920134
380,1.1725429243494168,-0.02735933490148639,0.0,1.0785312255026183,1.0159086679309353,0.7565956196327012,3.7919967208934984,2.8589363908713206,,,0.6684167106117298,4.770306918027945,inf,,0.6309408265682229
381,2.0538837912771206,-0.013692558608514137,0.0,0.6716735128572616,0.6343471396072278,0.6802627787661828,3.3417796636196972,2.3742027263078245,,,0.6403206450210053,7.063759527458719,inf,,0.7573103845930284
382,1.4051834772954346,-0.023419724621590577,0.0,1.1565777575216036,1.121340791886045,0.7678952578099593,3.646371438478826,2.369184006723664,,,0.6713451011121618,5.3744787275136,inf,,0.7624623083385512
383,2.7593434954897607,-0.009197811651632536,0.0,1.0206380926306011,0.9959911556376864,0.7411620277072944,4.055844575403403,8.591693604511399,,,0.6468212168108125,8.463125970145962,inf,,0.6937165249734463
384,1.6496383319612888,-0.043990355518967704,0.0,0.9809053271166186,0.9229393560453321,0.6825703312803434,3.0730633804201797,2.5828329567636663,,,0.6619902821573977,5.190958848227537,inf,,0.6737429048657467
385,2.0113800367591868,-0.020113800367591868,0.0,0.9072147862544906,0.8968256658882563,0.7363462808634623,3.520189826607075,2.3388622808633968,,,0.6403206450210053,6.49491006357635,inf,,0.7434791327116934
386,2.0136238390624723,-0.16801638062474264,-0.04005808274504616,1.3214572902407833,1.292583580407943,0.7844190004849434,4.338794002769649,29.789120305323394,4.04800150329864,,0.6380535849069913,4.057048777478403,3.854008610367518,inf,0.750851223419328
387,2.1020797141146534,-0.014013864760764357,0.0,0.7990379925675888,0.7384425172606321,0.7598984147950779,2.752286268826833,1.5030911580784796,,,0.6584896970785714,7.076831609026071,inf,,0.7870828214248813
388,1.6923735330439025,-0.03948871577102439,0.0,1.1272086090960396,1.093390487696968,0.7469441183133558,4.249051353167039,5.3845655078087855,,,0.6509067234006624,5.296097609809724,inf,,0.6558635082918065
389,1.4211894819409656,-0.01894919309254621,0.0,0.9212448386736836,0.890524699523884,0.5770885690748027,3.1168046214865157,2.848949974800124,,,0.6778444222523095,5.713832810509703,inf,,0.8348532362425689
390,2.298691939952215,-0.11493459699761076,0.0,1.1712864902254692,1.1244944265168673,0.7418849029560631,3.701936281024484,6.288793509313804,,,0.6566669596287297,5.012303351196953,inf,,0.7528855423838515
391,3.0690806202587484,-0.11253295607615411,0.0,1.3406987956027752,1.3127183713765478,0.7407738946433802,3.8664297707145012,4.95861624542469,,,0.6357360191111145,6.3138147485056395,inf,,0.5377589770898278
392,1.8325814637483102,-0.006108604879161034,0.0,1.029318965319693,0.9627720973188972,0.7852426256265791,3.9477276424141645,11.373710267322611,,,0.6566669596287297,7.536363938404511,inf,,0.7518505741537799
393,0.23151180098472637,-0.0007717060032824213,0.0,0.8605773701243218,0.8649266230087149,0.7882373023872126,4.211154504703929,6.002240155676545,,,0.648888643467878,5.935294275640928,inf,,0.8109485933117925
394,0.5363725846280726,-0.007151634461707634,0.0,0.7954858891459214,0.7435549720497695,0.7029981238059588,4.047487882954897,4.010102123436368,,,0.6584896970785714,4.815891217303744,inf,,0.752107091441257
395,0.2788324571747983,-0.0009294415239159944,0.0,1.1859100873909658,1.1021134918923348,0.6630007952544237,3.7081876755800267,3.0519450211162886,,,0.6068309995095971,5.982614931831,inf,,0.6544175889582979
396,,0.0,0.0,0.7631533366277921,0.7140892605868887,0.6232367014458629,4.915498027764435,76.49963370564782,,,0.6333676938231112,inf,,,0.5206359313462479
397,0.3341917001570558,-0.0033419170015705577,0.0,1.255246184340551,1.2182462932085698,0.7056159056993434,5.115203251946824,210.3617559774609,,,0.6584896970785714,4.909282799835968,inf,,0.7780772440817255
398,1.5701994979430252,-0.047984582830928296,-0.009589398760315953,1.2289720369974124,1.1491623032147815,0.7637774034692348,4.830193099695358,8.807152354520703,,,0.6380535849069913,4.64022182404701,3.934129781209176,inf,0.7416733648863028
399,2.195338554984696,-0.06586015664954087,0.0,1.018126162363267,0.9932875152653766,0.6847621000434098,4.393452084915497,33.310769398841934,,,0.6652988471865258,5.575682472028885,inf,,0.5656490437972023
400,0.5801882842374422,-0.007735843789832562,0.0,1.0503991695018624,1.023599633581968,0.754601969743167,3.59404466739373,6.267886020279658,,,0.6602640781246099,4.708064609150724,inf,,0.5771609657633103
401,1.2554173085313138,-0.06483843578301879,-0.010486602728860032,1.3357916792960778,1.3337448948324837,0.7862879616462896,4.573385150229808,10.83138165698058,5.3372500752690595,,0.6668815377411301,3.866412494176094,4.976203097674771,inf,0.8497464893796001
402,1.0050328518029759,-0.020100657036059514,0.0,1.0582990710170344,1.037678807888326,0.6792822202653731,3.962214509303336,32.21655664231887,,,0.6858323589451731,4.753412429129184,inf,,0.7739047872042555
403,,0.0,0.0,0.8402318061407654,0.8013735051857483,0.6433966323439055,4.528135309772401,5.301415618818113,,,0.6811855325194978,inf,,,0.6101914549138144
404,1.0041423623100525,-0.0133885648308007,0.0,0.8983237897699498,0.8594706574400859,0.7095286679682763,4.377195140099223,8.19093002056682,,,0.6652988471865258,5.149897361429764,inf,,0.834690892801113
405,1.822076225880552,-0.04858869935681472,0.0,1.02775109988821,1.0119300699200908,0.6037923519183852,4.2666198934816775,20.67799095096556,,,0.6778444222523095,4.9682145782123035,inf,,0.7762658610634116
406,2.2710983056774916,-0.030281310742366556,0.0,1.4617227423683294,1.4068467590348155,0.86640327947805,4.1573375088791185,2.5122556002907874,,,0.6097226960127671,5.6486631754351215,inf,,0.8131595358429092
407,1.0550769663046964,-0.014067692884062618,0.0,1.0826845422829214,1.0486375360500864,0.662009685247427,4.131778950358403,4.134696859023384,,,0.6528756675646988,5.316255067234704,inf,,0.8231753036168505
408,,0.0,0.0,1.2641285936532554,1.2542455028857664,0.7517662813774625,3.5408436468718048,40.99206509312118,,,0.6309483474627791,inf,,,0.9376520403627927
409,,0.0,0.0,1.2336447558474792,1.204968981081919,0.8009219226922779,4.527570020549918,16.4315386261595,,,0.6008849035917525,inf,,,0.7305854807741688
410,,0.0,0.0,1.4727976537653737,1.4410498596043695,0.8706333709378948,3.6175359759923795,34.723438134404006,,,0.6068309995095971,inf,,,0.9124002776635048
411,,0.0,0.0,1.2591252188727935,1.2349831595448995,0.822563533077006,3.183084740026934,6.555684526990792,,,0.552929491858785,inf,,,0.9179599230838987
412,0.8189404028565329,-0.008189404028565328,0.0,1.0311163716996357,0.8507048480187593,0.7440278171025705,3.2780645158444592,2.427709786035762,,,0.5113665138247345,5.296097609809724,inf,,0.9129014683428772
413,1.8245139876426324,-0.024326853168568432,0.0,1.039675925926594,0.9796076174837287,0.735247675783979,3.6535452246689437,9.191370393568521,,,0.6125606311107803,5.755075769043752,inf,,0.8660172175343023
414,0.699836168710742,-0.0023327872290358066,0.0,0.8831403436058858,0.8713935126810726,0.4806989718362658,2.8328997575434203,4.567466276125126,,,0.5068466436745385,6.403618643366943,inf,,0.7062673572111801
415,2.995732273553991,-0.00998577424517997,0.0,0.6738463811997029,0.5333309532142825,0.607002017472968,3.1375621143193015,5.0442507131979895,,,0.4928685327679205,8.699514748210191,inf,,0.8554257311747581
416,,0.0,0.0,1.5321638147917969,1.505439334788169,0.8829072570952317,3.3022634820473407,4.56458085692823,,,0.5158180382284114,inf,,,0.8828655286811844
417,,0.0,0.0,1.774869401301701,1.7805176149144917,0.9555094868120558,3.5351665560334014,9.176876991882578,,,0.4880666971167561,inf,,,0.8058736064448713
418,,0.0,0.0,1.7319636175740314,1.7200078813082955,0.9695129476093324,3.3530934597841875,25.884639070192303,,,0.5068466436745385,inf,,,0.7635834350130764
419,,0.0,0.0,1.6886919546733528,1.6737552376369473,0.9267608283923076,3.0585288901371417,17.85849502072907,,,0.468121228110369,inf,,,0.771912301842996
420,,0.0,0.0,1.7454025957642147,1.7213771086185041,0.9490372403399917,3.6414555523025482,21.799020201968332,,,0.5113665138247345,inf,,,0.7972035377065908
421,,0.0,0.0,1.7736243499992241,1.7617265888655442,0.959753875165398,3.649868420848391,20.099492985510928,,,0.5202020156036558,inf,,,0.81901029197015
422,,0.0,0.0,1.7774318375302764,1.7649779630634206,0.9641495039713132,3.667371140615075,17.63354913581735,,,0.4732203808476458,inf,,,0.7720821805761355
423,2.445685936634719,-0.008152286455449062,0.0,0.880172851625633,0.7978718105355057,0.7011606454960936,3.1661195347843383,38.07428643787793,,,0.5604843169999094,8.14946841129092,inf,,0.6602934961872831
424,,0.0,0.0,1.6686992307877677,1.6501342033529816,0.9231644385360342,3.491183073639846,4.145333240378296,,,0.4732203808476458,inf,,,0.8761958910895871
425,,0.0,0.0,1.7572468205460123,1.6868638531712576,0.9561299086623443,3.7608612816651275,3.740072438652906,,,0.5677978065141052,inf,,,0.8504960693715249
426,,0.0,0.0,1.7019095746933544,1.6872061579910944,0.9344622483281534,3.77532507304695,4.17107590549519,,,0.5068466436745385,inf,,,0.85647453519228
427,,0.0,0.0,1.7237514825363847,1.686382120616345,0.9490959543824425,3.6164645425912285,31.99740436927894,,,0.5068466436745385,inf,,,0.8773928360418999
428,,0.0,0.0,1.7369806443818232,1.7191043135417385,0.961571937084491,3.6083622403770406,6.612140964359575,,,0.5370774965580548,inf,,,0.8486666884926728
429,,0.0,0.0,1.7621289269841756,1.7408679897428656,0.9595565189896696,4.4540527631432,22.39453527076774,,,0.5329562494928909,inf,,,0.8494638389406638
430,0.9246589815446716,-0.0030821966051489055,0.0,0.8613577860447225,0.8275840733689553,0.678528697671229,2.9946691414600233,3.1631516029458027,,,0.5113665138247345,6.628441456200873,inf,,0.7009922034946359
431,,0.0,0.0,1.729706156570645,1.7219927811714724,0.9503870146714102,2.185172860917412,3.775432975733093,,,0.40055318934786044,inf,,,0.7217032345825418
432,,0.0,0.0,1.7405291783396966,1.6991647352990256,0.9783451827545485,1.92004122981057,2.551764244841636,,,0.40055318934786044,inf,,,0.7253994528102977
433,,0.0,0.0,1.7646131451735947,1.7494452230166657,0.9708180179790667,2.09707307564415,3.6458517550470413,,,0.36181263880445963,inf,,,0.790375724299671
434,,0.0,0.0,1.7656007800040914,1.7414682031948492,0.9737389600359303,1.9854721664224144,3.062398324394343,,,0.36181263880445963,inf,,,0.7572489048030328
435,,0.0,0.0,1.1480184094834656,1.010987811653512,0.7570794029395331,2.964155927486223,2.927879266274075,,,0.5567373465730988,inf,,,0.8418860315962178
436,,0.0,0.0,1.6074508353796584,1.5616387704761985,0.9410589091048661,2.80964276886758,3.1367418680788126,,,0.44694259446804574,inf,,,0.8061769241983512
437,,0.0,0.0,1.5092167156254823,1.480155140115587,0.8990387007705289,2.8010981550880385,2.155391302151922,,,0.44694259446804574,inf,,,0.8361507228996446
438,,0.0,0.0,1.5139432597430837,1.499675736045148,0.9443573990283605,2.6604292120260657,2.70930062747148,,,0.41268473150466,inf,,,0.8248812265356459
439,,0.0,0.0,1.4099251614192954,1.3940188156561906,0.8550883180154252,2.7390338266154224,3.2349878285746065,,,0.44144624493110796,inf,,,0.8365134501110667
440,,0.0,0.0,1.7230944845847918,1.695027803083971,0.9505782744954365,2.424579148838149,2.3817229020643667,,,0.41861278947482794,inf,,,0.7614871983861303
441,,0.0,0.0,1.3470108377890513,1.315057920317281,0.8455099784550197,2.52500935001899,2.1631226918408464,,,0.41861278947482794,inf,,,0.835649743584928
442,,0.0,0.0,1.736270032893716,1.7234627126058177,0.9690646665880942,2.952413388807399,3.9257786060729774,,,0.43586655696697996,inf,,,0.7414046102909589
443,,0.0,0.0,1.5290051550814325,1.5071358759652778,0.9509298047781745,2.6167294425369314,2.6144861271811153,,,0.4302020962658841,inf,,,0.7930660824377518
444,,0.0,0.0,0.9436823378622302,0.8980397094157873,0.6893001740752605,2.6918673614478004,2.0319190729049965,,,0.4629450596409901,inf,,,0.894700568835656
445,0.3856624808119846,-0.0012855416027066154,0.0,0.7884507171982078,0.7613534309909632,0.778506627924712,2.236774110160863,2.5597766759019276,,,0.38163879478178075,6.089444955468186,inf,,0.8648743862496139
446,,0.0,0.0,1.0596478767137958,0.9163714341058568,0.7962003599468066,2.1793307806775997,1.6477704866909386,,,0.5113665138247345,inf,,,0.8746608889691643
447,1.9386769516047033,-0.019386769516047033,0.0,0.9797194322142825,0.8878573097754358,0.628008013906731,3.148023942482051,3.5696683733413286,,,0.5713653840954815,5.910396724019201,inf,,0.6295149252879451
448,,0.0,0.0,1.6283086772136233,1.6222338378609453,0.9568926005298889,2.760015135830443,3.1779741327104625,,,0.48319206230712763,inf,,,0.8229836431049529
449,,0.0,0.0,1.6073509669034378,1.5800479312814595,0.9429874932332836,2.9504724974840473,2.579732484679864,,,0.44144624493110796,inf,,,0.8392197447639873
450,,0.0,0.0,1.6796452932946195,1.6678624632130457,0.955001837881083,3.070047080506425,4.427406979387552,,,0.41268473150466,inf,,,0.8519622311534719
451,,0.0,0.0,1.67428084786036,1.6605161349907016,0.9357316843830376,2.7756847617166858,3.615042916364157,,,0.5113665138247345,inf,,,0.8339262957655933
452,,0.0,0.0,1.6376904932415433,1.6042928358223925,0.9345174051591003,3.216835912558434,4.311117312298534,,,0.5202020156036558,inf,,,0.826080384062226
453,,0.0,0.0,1.6714616944425966,1.6538360058790722,0.9382441826052329,2.9111409900762144,2.9221566987347964,,,0.4928685327679205,inf,,,0.8381740694490157
454,,0.0,0.0,1.7191052395144149,1.7022504621047425,0.9442987420080446,3.2610728562595037,5.401992945842137,,,0.5287703885177266,inf,,,0.8477617033692687
455,,0.0,0.0,1.7661729956144754,1.7141152077875492,0.954539618002237,3.9850857999542866,34.205975466632516,,,0.4880666971167561,inf,,,0.8262432095173825
456,,0.0,0.0,1.775511755713993,1.7221359622380317,0.9490296560584676,3.8359498883362537,34.8383223908712,,,0.5748741956352443,inf,,,0.8378016417456294
457,1.3997173814520312,-0.004665724604840104,0.0,0.77787612419265,0.7673969945077425,0.6332995128141964,3.149142446269966,7.9822026266950274,,,0.5113665138247345,7.1034998561082325,inf,,0.9237011670772838
458,,0.0,0.0,1.699252619687442,1.6625248037579503,0.946694957214976,3.519620268294711,3.8098566573608825,,,0.47824363442641393,inf,,,0.8501173907475404
459,,0.0,0.0,1.7641294231465319,1.7420772794998234,0.9565284504514543,3.48728638657669,11.871331977616592,,,0.468121228110369,inf,,,0.8288702947995279
460,,0.0,0.0,1.768830750306571,1.7560488406421926,0.9613223480358076,3.351507086846487,23.29029526408283,,,0.49759852643134905,inf,,,0.8019676446858891
461,1.0309973140380577,-0.006873315426920385,0.0,0.8322730563541364,0.7787673074951013,0.6553586937837657,3.6014419757129734,10.493381101818878,,,0.48319206230712763,5.812853569710563,inf,,0.7856005321561752
462,,0.0,0.0,1.666394177917516,1.651232901524701,0.9608449895016474,2.9099561718950224,3.219902204076512,,,0.48319206230712763,inf,,,0.8079196669246861
463,0.5998244164229408,-0.003998829442819605,0.0,0.8048870564839405,0.7943246964000135,0.47057683238227577,2.802658240532738,3.252582450091299,,,0.524519217297268,5.584519053829383,inf,,0.7642046734632172
464,,0.0,0.0,1.4731564306346971,1.4605774903372957,0.88773370919714,3.135308779381214,3.9842382471301674,,,0.48319206230712763,inf,,,0.8214480465575265
465,,0.0,0.0,1.722344466812656,1.7022532932303869,0.9620578469616774,3.066018255414555,5.799869384448286,,,0.4302020962658841,inf,,,0.8321736452830153
466,,0.0,0.0,1.7337539479153876,1.7191342865546917,0.9733320022271298,3.1331900591935424,4.4842821788990825,,,0.45235697871908603,inf,,,0.786692532598491
467,0.6348782724359695,-0.0021162609081198983,0.0,0.6817901771307581,0.6080197752543962,0.7338913701909073,2.9716629674739914,2.6288106997937284,,,0.6008849035917525,6.33866074709217,inf,,0.9087551999440034
468,1.679068946100854,-0.011193792974005695,0.0,0.8058933246414115,0.7409634155888324,0.6850589026415611,3.158582633248497,12.499307319436092,,,0.5641709578113449,6.595380593939985,inf,,0.801822141416673
469,,0.0,0.0,1.7490417094443158,1.756129999104331,0.9500445889475241,2.9485485426629436,5.792515398249948,,,0.42445136339222655,inf,,,0.8074037670226032
470,,0.0,0.0,1.7738966854838512,1.7559283658861808,0.9725148867007325,3.054523140450088,10.591227626314822,,,0.4302020962658841,inf,,,0.7879344007259709
471,,0.0,0.0,0.9726714658203869,0.947652264191126,0.7916032073156278,3.05110408534347,3.0151492281382386,,,0.49759852643134905,inf,,,0.6903335101245339
472,,0.0,0.0,1.750432786633212,1.794566246238145,0.9348907331387353,3.4183578486512785,13.135935117873972,,,0.43586655696697996,inf,,,0.804069962861237
473,,0.0,0.0,1.7235493013728749,1.7092132130190776,0.9646800295939821,3.973911742212335,10.803514524461407,,,0.3943459996787778,inf,,,0.7855242338379025
474,,0.0,0.0,1.7163267694376438,1.70546280137399,0.9475749477806747,4.291288876138629,36.35013041581302,,,0.4732203808476458,inf,,,0.7770956784276621
475,,0.0,0.0,1.765286624008886,1.7443484940855252,0.975847758249659,4.116140136306004,26.733989144669344,,,0.41861278947482794,inf,,,0.8142865371061935
476,2.70805020110221,-0.009026834003674034,0.0,1.2602751775829797,1.2002791069605192,0.8587742411203975,3.3289901857354294,3.3022427639382372,,,0.5287703885177266,8.411832675758411,inf,,0.8896603552126732
477,1.2264456601779945,-0.004088152200593315,0.0,0.749306722061764,0.7397559207665226,0.584189990711068,2.899009637915737,2.535614988617654,,,0.4629450596409901,6.930228134834196,inf,,0.7325135295112425
478,0.8148203098758099,-0.005432135399172066,0.0,0.7978418093656338,0.7417815672489627,0.6628226605145792,3.2089993449230105,2.689681860857689,,,0.5068466436745385,5.779943835621765,inf,,0.8135517509547913
479,,0.0,0.0,1.7447389395901132,1.7196501710287797,0.9587662796209278,3.0838890460532227,8.216944730495916,,,0.48319206230712763,inf,,,0.814236207858968
480,,0.0,0.0,1.0466302026805643,1.0121576286654743,0.6848276183408302,3.3245293911848623,9.614028686762785,,,0.45235697871908603,inf,,,0.8047019242031314
481,,0.0,0.0,1.7453441854224214,1.720008968487254,0.9651754130233349,3.490387617577053,18.828405813359964,,,0.4732203808476458,inf,,,0.8441038714485256
482,,0.0,0.0,1.1452347814665547,1.091958817022651,0.9053185387488915,3.9262161760388063,12.264309839262484,,,0.43586655696697996,inf,,,0.6347413477692909
483,,0.0,0.0,0.7702878160423015,0.7573277294735513,0.6488971366615157,2.82844543603427,5.457428661478064,,,0.5329562494928909,inf,,,0.6436414887744281
484,1.8536348729461425,-0.006178782909820475,0.0,0.8531457944743062,0.8091463691101072,0.7108437346911417,3.206108042604135,6.851481802715176,,,0.5748741956352443,7.557417347602343,inf,,0.6901187422215083
485,0.4673405118262518,-0.001557801706087506,0.0,1.1547630461373606,1.0917825254858593,0.8602839392546688,3.623677399497899,5.830538608420471,,,0.524519217297268,6.171122986482453,inf,,0.8722834556283978
486,,0.0,0.0,0.8320217949155987,0.8173275287994773,0.5759859949719229,2.983752151100923,7.993167503361947,,,0.552929491858785,inf,,,0.7935121512677833
487,,0.0,0.0,0.8234956542306822,0.8020167363016661,0.7623405978670174,3.7630441342261056,20.14627889515097,,,0.5604843169999094,inf,,,0.6588059347232692
488,,0.0,0.0,1.419811867547044,1.4015555134166047,0.8767834528301528,3.0576319983754963,2.906602143518154,,,0.5022576003740722,inf,,,0.8474888188341352
489,,0.0,0.0,1.315676743082271,1.3067764188528452,0.8448264304712315,2.727927729245459,4.015261392501022,,,0.47824363442641393,inf,,,0.8784167426540893
490,,0.0,0.0,1.4031548636799167,1.3843084255914553,0.9179563457406142,3.340252605368095,4.0444883229005875,,,0.4576907132971797,inf,,,0.8742293268527167
491,,0.0,0.0,1.6488007697987968,1.6030053249314427,0.9338884419650101,3.5574655690558967,8.095301658465774,,,0.524519217297268,inf,,,0.8538941395558911
492,,0.0,0.0,1.6583141721126917,1.6311831168075035,0.9176726719222724,3.0104153519308925,8.739293767704925,,,0.5748741956352443,inf,,,0.8769313974987414
493,,0.0,0.0,1.014023739957181,0.950671575378798,0.8590061874979473,3.7189805745763675,31.32464437109927,,,0.5451288209179292,inf,,,0.9031716094110607
494,,0.0,0.0,1.1761589808048714,1.1352173341493068,0.7579279065005342,4.218653936664327,25.00469815922836,,,0.541134803179459,inf,,,0.8491814770461713
495,,0.0,0.0,1.692512312691263,1.668599896232957,0.9574296413437181,3.265088091016092,23.398980607732756,,,0.48319206230712763,inf,,,0.8108733196338569
496,1.767756639729241,-0.041247654927015626,0.0,0.9754816861368338,0.8807595295046835,0.6651077276827537,3.089049114319501,13.03371115799224,,,0.6008849035917525,5.494061943674132,inf,,0.7372621883927666
497,1.9113255379736542,-0.06271091294111579,-0.007371023451251526,1.1482234517690695,1.0803298000661112,0.753176985625049,3.310278481434683,5.054409811242332,2.9920801919394986,,0.648888643467878,4.912299393375394,2.998757994470528,inf,0.7306217233005494
498,3.3595717514987204,-0.10078715254496161,0.0,1.1582198548795102,1.119995837163107,0.778357903766232,3.302664335378238,2.729058337803162,,,0.6547956803312163,6.099297251911198,inf,,0.8451282268322385
499,1.4285657943066448,-0.023809429905110747,0.0,1.1197034162921726,1.020026402953645,0.7266064351361057,3.483684975493994,17.20924940020132,,,0.6584896970785714,5.300542061570148,inf,,0.6356664621444567
500,,0.0,0.0,0.9686253422378415,0.8910291254721664,0.6719314158120542,3.4273161618782644,6.004155411358195,,,0.6333676938231112,inf,,,0.8488634670457624
501,,0.0,0.0,0.8370483372320418,0.779726912483158,0.6946554587200623,1.8011257767059354,2.00402341949225,,,0.6380535849069913,inf,,,0.9438259425949381
502,,0.0,0.0,0.6421458457883047,0.5960717251883526,0.7178277126213052,2.018489211498475,2.404669967523489,,,0.6207552362147116,inf,,,0.8236640890193722
503,2.4531376393860063,-0.016354250929240043,0.0,0.7884100978956498,0.7384746424660714,0.5691666796802978,2.3132207840060794,2.9450422043666817,,,0.6509067234006624,6.645391014514646,inf,,0.8665909012487008
504,,0.0,0.0,0.5921414123852913,0.5186700602505476,0.5853297833346907,1.914715969866996,2.331457208347169,,,0.6233814453054027,inf,,,0.8803550805785904
505,0.556287997842748,-0.0018542933261424931,0.0,0.8281607132808082,0.794384888920392,0.721796339832857,1.9818675048515813,1.380409860649841,,,0.6125606311107803,6.260070472498949,inf,,0.8151992328406004
506,,0.0,0.0,0.5573968081085854,0.5344985779606,0.4954932478672924,2.3960626764789987,2.775903856134797,,,0.6068309995095971,inf,,,0.7001771375829754
507,2.6127400212978853,-0.008709133404326285,0.0,0.9109306920315734,0.8884571541673547,0.6567314441163904,2.1242889915939425,2.5718241153720203,,,0.6602640781246099,8.316522495954086,inf,,0.6465454493585562
508,1.4995355874097527,-0.009996903916065019,0.0,1.0303131444135039,0.975395331250319,0.7329625156511566,2.5648264643110656,2.299777348055071,,,0.6403206450210053,6.509725149361491,inf,,0.8082406050935983
509,2.3254969230511335,-0.06201325128136356,0.0,0.8796091795347954,0.8340477056543782,0.6641106932972266,3.0132131896585492,3.7980438816441295,,,0.6425374456860184,5.173154223594031,inf,,0.6855954356244442
510,1.4865565027349656,-0.014865565027349656,0.0,1.0365430294129572,1.0148541869847796,0.7728844917572114,2.6126995420829178,2.4975422236679106,,,0.6447042257417027,6.084554970173994,inf,,0.730468779789957
511,1.4856824585528483,-0.009904549723685655,0.0,1.0783263311182065,1.0399548178670281,0.7961190643838555,3.287323627424812,2.4727247036267466,,,0.6380535849069913,6.171122986482453,inf,,0.902704116251646
512,,0.0,0.0,0.8314081818900513,0.7939593323442776,0.6839583711932635,2.148552187013952,2.1143134699694053,,,0.6284777104787076,inf,,,0.8243319486583852
513,2.574948680714882,-0.01716632453809921,0.0,0.9500953275604769,0.8866581670103649,0.6937931796065416,2.4129991574059346,2.363182557327738,,,0.6333676938231112,7.202872329921436,inf,,0.874642924629042
514,3.506557897319982,-0.011688526324399939,0.0,0.9503392243543787,0.8584968602121577,0.7497664738066726,3.374185829464299,7.335201006430803,,,0.6038851895711802,9.210340371976182,inf,,0.87402422249308
515,,0.0,0.0,0.843736153900529,0.8347335251892126,0.439030084338436,2.0001993578183686,2.612161350327968,,,0.5783247308855777,inf,,,0.824730184377956
516,2.108821389283297,-0.014058809261888646,0.0,0.8973048133552877,0.8202495780596026,0.7025263619858498,2.612655727311897,2.54898573143472,,,0.6284777104787076,6.853688057711861,inf,,0.615767881416196
517,1.3690908192813334,-0.050199996706982226,0.0,1.1164344758502298,1.0833810154102765,0.7194640954740155,2.7825573719630965,1.3393545471106854,,,0.6699045166045591,4.375823690549274,inf,,0.6097770589685845
518,2.099365599485715,-0.07697673864780955,0.0,1.2275412371784853,1.1860348502356806,0.8045390994845444,3.9885833492761593,5.175051931354771,,,0.6740851607140061,5.1830065200370425,inf,,0.8163705135517377
519,3.506557897319982,-0.011688526324399939,0.0,1.0698886159361423,1.0493674937368414,0.7529991195212724,3.2348356822622737,1.2906003264124024,,,0.6652988471865258,9.210340371976182,inf,,0.7727637936789813
520,0.9763946559438605,-0.003254648853146202,0.0,1.2567235525187308,1.2286185547379325,0.8346902122652411,3.2142648295795473,2.3025027976760017,,,0.5915533975974677,6.680177130600062,inf,,0.8372465336673968
521,0.9507871676176307,-0.006338581117450871,0.0,1.172678568370229,1.1357503643608509,0.7371850605175805,3.1690238920851055,4.382237228898095,,,0.6468212168108125,5.717205494988342,inf,,0.8366321205568024
522,1.2027397580783392,-0.008018265053855595,0.0,1.0538112460560665,1.0157357116712646,0.7029926023061421,3.0094455210413695,2.8301030481613587,,,0.5947193981915972,5.645513566532225,inf,,0.8995180446385659
523,1.486001794107668,-0.11853940928388368,-0.020154091499498646,1.2399150298636044,1.204691912277511,0.7973621420628507,3.893573553645987,2.357763727283024,2.962836572968903,,0.663668482632973,3.701852125417975,2.6687602214807984,inf,0.6307248420947972
524,1.7459360538405109,-0.0884009235440392,-0.0047156659941213885,1.1243327239572316,1.0754317484181222,0.7813066131748359,3.6400198556969316,5.8055098813735455,2.645193896617581,,0.6233814453054027,4.4790271311477365,2.6380783770162743,inf,0.5886120860078798
525,1.1903204173284831,-0.05158055141756761,0.0,1.0656655555256125,1.0640085744288903,0.6861471260404777,4.090428917788463,35.82729894968456,,,0.6509067234006624,4.1193205482922775,inf,,0.5903429064024197
526,0.5793083219926626,-0.0077241109599021675,0.0,1.210940165702979,1.173825425040807,0.8143319181108716,3.6740927141026507,4.220190453392242,,,0.6233814453054027,4.840892519509161,inf,,0.7866364852380762
527,1.8417670650954785,-0.15838801240734154,-0.007371023451251526,1.3701457085502822,1.3684418225336326,0.8261666333815947,4.105058831177199,6.898536900437178,3.8930113886415083,,0.5883313578629602,4.073888553654719,3.8371688341912034,inf,0.6752550973447168
528,1.468720384113411,-0.06854028459195918,0.0,0.914729342689319,0.8691220449709947,0.667576078363558,4.52264309054975,10.141643493205038,,,0.6447042257417027,4.390058806371146,inf,,0.7516854438901838
529,1.8880440434094155,-0.03776088086818831,0.0,1.0947987934341004,1.061149024426221,0.7570307668395582,3.6665568459381013,5.112138981413826,,,0.6468212168108125,5.693832143803033,inf,,0.7731169034890488
530,2.2357152517104804,-0.02980953668947307,0.0,0.9971983819680105,0.97131996792237,0.7217088413855978,2.879524000610679,2.1158126378098276,,,0.6233814453054027,6.517215821090648,inf,,0.8009847025900134
531,1.720931286912648,-0.08031012672259025,0.0,1.4036672379530606,1.3542045403473768,0.8600735819109299,3.7906971926996125,15.196953609301966,,,0.6333676938231112,4.073888553654719,inf,,0.7738593949315249
532,1.8325814637483102,-0.006108604879161034,0.0,0.9428265157150677,0.9167658027310623,0.7690761680968062,3.750477126026611,2.407573450549923,,,0.5947193981915972,7.536363938404511,inf,,0.6967616103435325
533,1.6657451646204906,-0.07773477434895623,0.0,1.1539957099842608,1.1381614666322624,0.7556217614387201,3.862801396509847,3.704256379906406,,,0.6403206450210053,4.478048178548752,inf,,0.6844758240645658
534,1.8573452084780793,-0.049529205559415444,0.0,1.019037976689405,0.9874585380350821,0.6474443031161107,3.3431521866669036,3.814624715268545,,,0.6068309995095971,4.949226665967612,inf,,0.56493295626104
535,1.9187096516761368,-0.019187096516761367,0.0,1.035854620330749,1.0109701582913304,0.7802778859484063,3.621844574705882,5.464721222468839,,,0.6284777104787076,6.2370809542742505,inf,,0.8343746136305348
536,0.3314214284760079,-0.003314214284760079,0.0,1.0406083573884548,1.0083233456019565,0.7390685808083274,3.4163117007273685,26.985318125470787,,,0.6284777104787076,4.907777908656548,inf,,0.6254351113953571
537,,0.0,0.0,0.6672579705252005,0.5972008232711821,0.5522400808008394,3.1826605654222324,3.1040145937760077,,,0.5641709578113449,inf,,,0.6373426512757634
538,1.225612311294881,-0.06945136430670992,0.0,1.3927360439538108,1.3057437468756004,0.8795208270947538,4.234249626881605,5.462232099227955,,,0.5713653840954815,3.926009247402886,inf,,0.7068561167740609
539,1.6370701672167816,-0.0752890469725203,-0.00656446138831879,1.348460416939073,1.3323553521116738,0.8198579156111327,4.0120518208955405,8.383217081781009,3.2112451875818997,,0.6380535849069913,4.451972340916105,3.2179229901129287,inf,0.7505587511045925
540,0.531294081237408,-0.00708392108316544,0.0,0.9581264352095076,0.9113138098514447,0.821503400038794,4.228326972316262,16.172451768210003,,,0.6153451465759925,4.7914997641795845,inf,,0.835119407486597
541,0.8556952256512048,-0.025670856769536145,0.0,1.2364790954222233,1.2059938693131977,0.8244115885855294,4.015099590892203,8.473007901104854,,,0.6425374456860184,4.166198665990084,inf,,0.6095580937546604
542,1.23424040789458,-0.05348375100876513,0.0,1.2402010677758188,1.2225474029496954,0.7604197818356947,4.4945661154645,11.569724132611586,,,0.6584896970785714,3.8273755313678612,inf,,0.6480287095302151
543,1.3708761140849428,-0.06927872157464128,-0.003834671176555671,1.368339353227015,1.3275615722668404,0.8067640865170818,5.566004307580251,22.66606416421992,3.6098163327406314,,0.6357360191111145,3.7306278034943223,3.123060254217539,inf,0.7670537673146186
544,0.9893070766521636,-0.026381522044057696,0.0,1.2920831333282796,1.2598962516412393,0.8544757330789532,4.720984593623662,5.716025908669474,,,0.648888643467878,4.218397210892079,inf,,0.564803277185345
545,1.6843431525710637,-0.044915817401895035,0.0,1.1365017108552695,1.108248843929632,0.7270187452345529,3.945097381898874,3.2839921926189946,,,0.6068309995095971,4.779523573132869,inf,,0.7944193295762274
546,1.1469138598484063,-0.030584369595957502,0.0,1.0164380251702243,0.9789473416082077,0.6995868784463284,3.908089645772272,3.475673404013814,,,0.6207552362147116,4.275067397652358,inf,,0.6466126261426827
547,1.0850935022540005,-0.010850935022540004,0.0,1.0363220278999687,0.9393370261742583,0.7110742504937326,4.510352955931266,14.176225731875219,,,0.5748741956352443,5.391407789614049,inf,,0.721558681339663
548,1.3378032126774408,-0.053512128507097634,0.0,1.016642706374782,0.9552120030046358,0.7481422318121388,3.5646024547092896,3.9482585593581825,,,0.6068309995095971,4.1323926298596305,inf,,0.6452814474411575
549,2.157302599838325,-0.0431460519967665,0.0,0.9925029481896877,0.951409019497001,0.679249993476082,3.826271422509868,9.088129286128833,,,0.6652988471865258,5.605446573935339,inf,,0.718251935606804
550,1.3765027459946124,-0.04129508237983837,0.0,1.053063487582781,1.0365983729181698,0.7841116890397486,3.185815691890246,1.6704838130501058,,,0.6547956803312163,4.2086337086242285,inf,,0.7867033515329177
551,1.4509317924582168,-0.06287371100652273,0.0,1.150189386494502,1.1376341605731484,0.765039866337742,4.3756208153352585,12.961674792688072,,,0.6357360191111145,4.113187650023581,inf,,0.7800941154585138
552,1.5387833173556802,-0.041034221796151474,0.0,1.156655894141985,1.126265707170955,0.8096672737317607,3.5732194285183456,3.2301300168901634,,,0.6038851895711802,4.722953221644475,inf,,0.7202133904491465
553,1.8956418438741351,-0.0379128368774827,0.0,1.0436916800722742,1.0088860986357173,0.7579440850619527,4.176140950299505,9.426965177878884,,,0.6403206450210053,5.572754212249797,inf,,0.514156555032834
554,1.193264661255469,-0.03579793983766407,0.0,1.0224543104077986,0.9747083448554538,0.7628435577572201,4.445447738738228,4.969531651639836,,,0.648888643467878,4.583191279269316,inf,,0.647876064684399
555,1.6141301789332683,-0.03048880502716777,-0.00717423248127516,1.237579486243758,1.2110328174182527,0.734585997418847,3.825681359299276,4.275987969504791,4.883671325690725,,0.6602640781246099,5.130921459970757,2.7212954278522306,inf,0.7064295877433376
556,0.9671853433411339,-0.016119755722352233,0.0,1.1864316948427107,1.145848213902191,0.7824011612287117,3.5089752415563344,3.374952166968703,,,0.6566669596287297,5.047991080640025,inf,,0.6733830036582238
557,1.5768596515908315,-0.026280994193180526,0.0,0.9365905004696234,0.8872491173163685,0.5563526342059374,2.279065366374476,1.4341913264549957,,,0.5947193981915972,5.66456176150292,inf,,0.7462811055628961
558,2.17206094497836,-0.057921625199422934,0.0,1.2584063896135993,1.2326149745718948,0.778098021130572,3.2541208284663856,3.6208551209496465,,,0.6468212168108125,5.1365765174541025,inf,,0.5272967665563124
559,1.4319595533527396,-0.09069077171234018,0.0,1.1016582210442392,1.1073513107728559,0.7445366278593706,4.118090898644762,3.414669607000911,,,0.6566669596287297,4.033563089962242,inf,,0.6237853310602145
560,1.0405277601340492,-0.031215832804021477,0.0,1.165762813969989,1.1162806313973797,0.7107173266078406,3.8131728672089555,4.207907176360584,,,0.6309483474627791,4.360917671463646,inf,,0.6270588712739261
561,1.8468004075146063,-0.06771601494220224,0.0,1.2632914516987919,1.2438316003791061,0.7958402969378952,3.335913886292163,3.076793063210654,,,0.6602640781246099,4.8564846142689975,inf,,0.5508520736879986
562,1.757651219192104,-0.046870699178456106,0.0,1.187957498646236,1.135270302247267,0.7310133864969741,3.852432889819789,3.576685623218922,,,0.6207552362147116,4.829703591591356,inf,,0.7447547994349357
563,1.6217125018268745,-0.07567991675192082,0.0,1.1347682862372561,1.0855319159828885,0.812313243727436,3.1036653973150368,2.0682929578449927,,,0.6652988471865258,4.481969752201934,inf,,0.7988400594866792
564,2.572650880494024,-0.03430201173992032,0.0,0.8746981919597204,0.8413008244065548,0.6077837848164845,3.3090987191156724,2.943877731127738,,,0.6509067234006624,6.192629191703416,inf,,0.6938832593908321
565,1.0562252401292167,-0.010562252401292167,0.0,1.0008215240909937,0.9731767298076898,0.6449984542822992,4.029406332134684,6.756229245335434,,,0.6309483474627791,5.602429980395914,inf,,0.7674599081552789
566,1.9190765784308454,-0.012793843856205637,0.0,0.7841894268135068,0.7214520211676243,0.6362335898174227,3.3243413269202877,5.018829105901756,,,0.6403206450210053,6.896705442795552,inf,,0.8172813193705751
567,2.2114243145970685,-0.014742828763980457,0.0,1.0649253367581766,1.0418259111489112,0.7563226120608376,2.5213593756012602,1.9013145457458207,,,0.6619902821573977,7.217910207285977,inf,,0.776252498051473
568,0.4462871026284195,-0.0014876236754280648,0.0,0.7907998720715794,0.7188797548594952,0.6799479994002544,3.2017015911795617,6.331195110634201,,,0.6038851895711802,6.15006957728462,inf,,0.6989871365915886
569,0.8397938384230933,-0.011197251178974577,0.0,0.9759281197426879,0.9309383248102768,0.7097640782958057,2.200893235996468,2.1792986032034016,,,0.5783247308855777,5.068970871109219,inf,,0.6207851581057252
570,1.027168544893836,-0.00684779029929224,0.0,1.0410957986559508,1.0545444429999815,0.7492335851983198,3.7915515306880563,8.623494448388055,,,0.6528756675646988,6.036926921184739,inf,,0.4747803122689846
571,0.8195692071608843,-0.019123281500420634,0.0,1.0467815547026893,1.046416479354956,0.6527949169582167,5.008471483427413,11.995403780270205,,,0.6509067234006624,4.485906765161274,inf,,0.7501692558755853
572,1.9352724506260888,-0.07955841027023414,-0.010754304092316676,1.094482303865155,1.0481168246611896,0.6908406612465761,3.3645146164284894,2.2979879464420137,5.067245230801145,,0.6425374456860184,4.724204003546127,4.198454295978275,inf,0.6165291921217932
573,1.813047580725739,-0.06647841129327708,0.0,1.2543315930534036,1.1910250060483545,0.7619673405089044,4.095040340892169,2.1158679604334525,,,0.6333676938231112,4.607394881010203,inf,,0.5686029802721542
574,1.3919865388320136,-0.013919865388320135,0.0,0.9100036275820749,0.878815710228409,0.7344383401236775,3.580315063296728,3.479903031415739,,,0.6584896970785714,5.898176612684425,inf,,0.6401422645291193
575,2.382411749872013,-0.023824117498720133,0.0,1.1313824172124867,1.1007421269865412,0.8075207023708973,3.0636378944699274,2.143675951516748,,,0.6509067234006624,6.9767481504690885,inf,,0.8441994522067768
576,,0.0,0.0,0.8096655839071444,0.7701979301673623,0.7156443504002148,3.652542760192561,3.152508737315847,,,0.6233814453054027,inf,,,0.8481780712081449
577,1.6048378389631741,-0.06419351355852697,0.0,1.1712284306365537,1.1389434667606655,0.7459512159106269,4.406169914082148,3.8854585075062618,,,0.6447042257417027,4.4605889571769834,inf,,0.6965340714537509
578,2.435091983102788,-0.08928670604710222,0.0,1.0032667428765472,0.9916466174078601,0.7498083481326535,2.6415305350658347,1.7879516139473108,,,0.6425374456860184,4.590829068717434,inf,,0.7260827638368595
579,1.1268811353756762,-0.01878135225626127,0.0,1.0355593766771651,0.980997179706395,0.7432608058923519,2.686921630805908,1.5979423736634697,,,0.6425374456860184,5.169240324272894,inf,,0.740183543287774
580,3.1885635139599833,-0.021257090093066554,0.0,1.003734085251643,0.9918466412788677,0.6025102024269966,3.129819621774753,3.316484969920352,,,0.6790044388599258,8.14946841129092,inf,,0.6765064967672743
581,3.757872325600888,-0.012526241085336292,0.0,1.0945803177734448,1.0498634404627267,0.7182295403208262,3.71601569022515,5.188758304017158,,,0.6566669596287297,9.461654800257088,inf,,0.8455979416234048
582,1.1236883651778735,-0.018728139419631223,0.0,1.2578882173601251,1.2604558419261493,0.7878909754198851,4.067192639538478,5.76154704811378,,,0.6380535849069913,5.112298947872756,inf,,0.8977678179671797
583,1.2850144516024178,-0.008566763010682786,0.0,0.5848001713783302,0.573471585093916,0.5360525136259903,3.320707873066096,1.846172142410837,,,0.6357360191111145,6.065230697347591,inf,,0.8159666958345229
584,0.7765287894989963,-0.0025884292983299876,0.0,1.2091263305313604,1.182287197914523,0.7382926958346596,3.4886015483129555,3.2402224398864705,,,0.6357360191111145,6.480311264155198,inf,,0.8275685353378388
585,1.030953640194295,-0.003436512133980983,0.0,0.9421326694901658,0.9083366242587,0.6233413965284897,3.5628172296861167,3.2682245428917454,,,0.648888643467878,6.734736114850496,inf,,0.7622817078093534
586,1.33803224912645,-0.0133803224912645,0.0,1.0992563385162983,1.0523082717967789,0.7326367916106291,3.4423325093745225,2.998988091173295,,,0.6403206450210053,5.906306738767675,inf,,0.7761975465420975
587,1.6117856671583712,-0.016117856671583712,0.0,0.9848595454563519,0.9393705972192804,0.6869752800825304,3.404589125354937,3.1624847238412186,,,0.6357360191111145,6.176456332457816,inf,,0.8477898772797174
588,1.6207911158151918,-0.016207911158151917,0.0,0.9406133150780978,0.9099434687653819,0.7280273176748735,3.2068860119232094,1.7921413700933488,,,0.6740851607140061,6.144874760407516,inf,,0.8562955426327145
589,2.0148530292902236,-0.04701323735010522,0.0,0.7522794256362515,0.7284512958487782,0.6641857480344235,3.4427134164717805,4.6197244865075024,,,0.6602640781246099,5.4621443407058266,inf,,0.7883667441730978
590,1.5853907170592605,-0.036992450064716076,0.0,1.229569308925193,1.2155922025324122,0.7932118768809074,4.018338239218282,3.061742876054753,,,0.6684167106117298,5.263379315186756,inf,,0.6079250109709107
591,3.3036408436745486,-0.03303640843674548,0.0,1.1398067085346575,1.1407357105004743,0.7223715216832732,3.753176780241638,7.345034947119817,,,0.6309483474627791,6.930228134834196,inf,,0.745369341771682
592,2.124262834756068,-0.04248525669512136,0.0,1.1741736167633234,1.1544946831496166,0.7211399883823734,2.702225000290148,1.425867934986849,,,0.6584896970785714,5.72398518197372,inf,,0.7655747495238115
593,3.138833117194664,-0.010462777057315548,0.0,0.48771360647909073,0.4550900985125963,0.3785928071869005,2.6564728726865154,4.49902199322325,,,0.6425374456860184,8.842615591850866,inf,,0.8337233990297561
594,0.9675840262617056,-0.0032252800875390186,0.0,0.9733350894878219,0.9135544563320493,0.5882795277388547,2.913444341114471,2.415975238212201,,,0.6447042257417027,6.671366500917907,inf,,0.8790344041114474
595,2.1768195347070067,-0.02902426046276009,0.0,0.9059528047263061,0.8009269059103891,0.637753020752055,2.8220096604080718,2.910307815783798,,,0.6790044388599258,6.11426012458791,inf,,0.7445819789889444
596,1.209185062993878,-0.00806123375329252,0.0,1.182628642855606,1.147451330094174,0.8028802235863078,4.300681050225511,3.6707946354553496,,,0.62595550513784,6.036926921184739,inf,,0.7173986191948442
597,3.138833117194664,-0.010462777057315548,0.0,1.0878784287335392,1.050160958019627,0.6124526734619856,2.929851441301563,1.6918631881256379,,,0.6547956803312163,8.842615591850866,inf,,0.7219752863795054
598,1.7354555903996722,-0.011775332686722583,-0.011364075185273046,1.13117792556858,1.1024290377174104,0.7030501434013868,3.9601217823009374,6.290230974847596,3.586057791030005,,0.6357360191111145,6.023069886523313,3.0819099697950434,inf,0.7595385752625778
599,2.120263536200091,-0.00706754512066697,0.0,0.94071711066122,0.9174538073463961,0.6801836121256398,3.402536445079945,6.075255852913134,,,0.6584896970785714,7.824046010856292,inf,,0.5976308841074535
600,3.1990309237173977,-0.031990309237173976,0.0,1.0097320200911843,0.9668595423912685,0.7504800336216471,3.140219359441193,10.465183450925096,,,0.6619902821573977,6.4239583276040655,inf,,0.7093043386679285
601,1.4068986738434652,-0.03751729796915907,0.0,0.9951069761244853,0.927404541694455,0.6725242100140348,4.2752777424445485,5.285357150254346,,,0.6602640781246099,4.6529608498244395,inf,,0.6612729607641101
602,1.9083564128119104,-0.012722376085412736,0.0,1.0663102249764265,1.0375498962087695,0.74533992445989,3.7309465355453124,4.7979064099782,,,0.6668815377411301,6.843216757844566,inf,,0.7405058305057888
603,2.0184748367424126,-0.04709774619065629,0.0,1.0617973885377838,0.994546530162045,0.6937311635327096,3.3433247931953867,3.0203872581553624,,,0.6566669596287297,5.3720835167876455,inf,,0.7128325965622211
604,1.5948171883321398,-0.019747775996389955,-0.0015164531813719071,1.1398006811953212,1.0786321332200883,0.6523313843701629,3.1017454473058867,1.7250368238119367,1.5433734602215596,,0.6333676938231112,5.1479834852474795,1.0125573919044368,inf,0.5840336484315469
605,1.8683350589751422,-0.01245556705983428,0.0,0.8361600319401882,0.7991356119882543,0.7489042150555281,3.3200398492503997,2.040845577140215,,,0.6403206450210053,6.82259747064183,inf,,0.5788158544393017
606,1.387762932024916,-0.02775525864049832,0.0,0.8344700340302057,0.7693710674254035,0.6616159264002462,2.811225211568037,1.76729372956353,,,0.648888643467878,5.161458183830839,inf,,0.6107817900801115
607,3.3058872018578307,-0.011019624006192769,0.0,1.026292198518482,0.9747238379503519,0.7862469044341412,4.0062983503068,7.0480530946172335,,,0.6284777104787076,9.009669676514031,inf,,0.7380642228756964
608,2.1870292325123524,-0.014580194883415682,0.0,0.631070616398674,0.5887434219559085,0.5707841615363994,2.4251366460868833,2.028939789497337,,,0.6380535849069913,7.173458444715143,inf,,0.6302442683796703
609,,0.0,0.0,1.0684886013443646,1.062603864035857,0.72535958611571,2.3024332025843615,2.814819150581916,,,0.581717464821069,inf,,,0.9198648496378088
610,,0.0,0.0,0.9362534336140543,0.9007845356262862,0.4535187576134673,1.2947827845711037,1.2343080431115294,,,0.6207552362147116,inf,,,0.916990610183597
611,2.0483483765121977,-0.027311311686829303,0.0,0.8771610794012695,0.8483071997772212,0.6799464811098542,2.130529475271106,1.2515958485375305,,,0.6566669596287297,5.73424168214091,inf,,0.8574476372546065
612,2.653557652967157,-0.035380768706228756,0.0,0.6222328826428424,0.5816484488243437,0.5589696538029544,2.730332863191867,1.6947199122252736,,,0.675384900321601,6.070026869611084,inf,,0.5359470746260225
613,1.3968040447319283,-0.009312026964879523,0.0,0.8543020718186236,0.8426194391299933,0.6171236507173339,2.741983427095072,2.2096507984193807,,,0.6380535849069913,6.357708942062865,inf,,0.8009898280794805
614,1.2729656758128873,-0.004243218919376291,0.0,0.8443608323210277,0.8001958789849511,0.6674328086384004,3.111513515267756,2.6490241484245893,,,0.6528756675646988,6.9767481504690885,inf,,0.7147989900015751
615,1.4830317198680067,-0.029660634397360136,0.0,1.0954233041561887,1.0694821220746087,0.7318582710989368,3.4671391464109766,2.0295393291417354,,,0.648888643467878,5.259096653394756,inf,,0.6928045896062526
616,1.7086633817960197,-0.011391089211973465,0.0,0.9751036610612221,0.9172155620759901,0.7342793592560091,3.986267316469112,2.942328606330231,,,0.6652988471865258,6.417132362533666,inf,,0.6862725068766337
617,1.4271163556401458,-0.004757054518800486,0.0,0.814847492365539,0.7806361046612162,0.6533365649005498,2.215859677637489,1.6528224433431502,,,0.6284777104787076,7.1308988302963465,inf,,0.8598599428991713
618,1.7141130270250373,-0.011427420180166915,0.0,1.052910240650082,1.0393985280499114,0.7488852712728543,3.1279211786275622,1.6533311342821126,,,0.663668482632973,6.680177130600062,inf,,0.6958644588985741
619,2.121663705204136,-0.03536106175340226,0.0,0.9173847122616119,0.8705480616505761,0.7759057772185882,3.3660440696829315,1.7914779897092967,,,0.6740851607140061,5.973842945758163,inf,,0.5531456583770342
620,2.887419237425803,-0.0673731155399354,0.0,1.1821681234291808,1.168662265529498,0.6940613881587109,2.9661477314408975,2.092788716891638,,,0.663668482632973,6.595380593939985,inf,,0.6975952959188759
621,1.4624816013328918,-0.00974987734221928,0.0,0.8312852434704608,0.8057209571183718,0.6849427213650918,2.6520412409395493,3.7710648892814653,,,0.6619902821573977,6.3902851124974775,inf,,0.6189787200743292
622,1.8659526864307008,-0.024879369152409344,0.0,0.9671996543965342,0.9628851307661959,0.7444209477653623,3.5259724365641887,2.71795106486125,,,0.676637947632344,6.023069886523313,inf,,0.8652846493706232
623,1.5393309286693295,-0.015393309286693295,0.0,0.9948843700329528,0.9627681336730629,0.7938145380803405,3.0304541829023277,2.690138186272282,,,0.6584896970785714,6.124361220574413,inf,,0.7867359887687447
624,2.1187238875813263,-0.021187238875813263,0.0,0.9981245985793993,0.9712913837920725,0.7890899797946955,3.0544370801172476,2.9606706983550346,,,0.6509067234006624,6.645391014514646,inf,,0.6339398830919388
625,1.5854142971974836,-0.015854142971974836,0.0,1.0801396355154855,1.065402252918305,0.732197032244579,4.301891643029069,3.960459040682193,,,0.663668482632973,5.978219320357962,inf,,0.64065674206602
626,0.5389965007326869,-0.0017966550024422897,0.0,0.9834721637005382,0.9082578394751076,0.6063126811685775,3.206966093243396,2.8619721160270046,,,0.6509067234006624,6.242778975388888,inf,,0.8328938218357123
627,1.6606826124147809,-0.016606826124147808,0.0,0.8087709250654479,0.7894548120723665,0.7039477735731058,3.397935967904033,2.620535826571129,,,0.648888643467878,6.032286541628237,inf,,0.5561709970997115
628,1.673153552986126,-0.027885892549768764,0.0,0.9759994305968814,0.9663785693598091,0.7220794615536639,3.0372386044746738,1.8795155213190684,,,0.6684167106117298,5.7411382611999695,inf,,0.667339075909622
629,2.40556627336656,-0.0240556627336656,0.0,0.8449984500623663,0.7973308923542414,0.6266602913299978,3.187825985331149,6.8893283757038475,,,0.6447042257417027,6.843216757844566,inf,,0.6106040191705395
630,,0.0,0.0,0.8165216868917091,0.7628458219828848,0.6353462566472493,2.9804616818549787,3.196245271883203,,,0.6357360191111145,inf,,,0.5587100219344311
631,1.397167284849611,-0.009314448565664074,0.0,0.8317369888700956,0.7976072714597877,0.6595114971902137,3.0108418168401645,3.0970693825900772,,,0.648888643467878,6.2659013928097425,inf,,0.6498029429022387
632,1.8480569819677428,-0.030800949699462378,0.0,0.859633348885221,0.8403021102992428,0.6968372239648182,2.8129763790287052,2.651847414079576,,,0.676637947632344,5.843044541989709,inf,,0.45028777077943877
633,2.5682882587270512,-0.008560960862423504,0.0,1.0348153628389827,1.018632712996645,0.6762997367894453,3.521150980996186,3.838012664199741,,,0.663668482632973,8.272070733383252,inf,,0.7152234935335274
