,acc+bvp_XAp0,acc+bvp_XAp1,acc+bvp_XAp2,acc+bvp_XCond1,acc+bvp_XCond2,acc+bvp_XDist,acc+bvp_XFuzz1,acc+bvp_XFuzz2,acc+bvp_XK2_1,acc+bvp_XK2_2,acc+bvp_XPermEn,acc+bvp_XSamp0,acc+bvp_XSamp1,acc+bvp_XSamp2,acc+bvp_XSpec
0,0.37702877096200504,0.011842694076487914,0.03187834364559461,0.42261609321541116,0.42107802970009467,0.17075163065114587,0.9814957152954853,0.9419016135488253,0.3131407114725398,0.3439897922286685,0.648888643467878,0.3528726579889938,0.22664826249609255,0.18846954523998588,0.9553351170525837
1,2.3269183633668247,-0.73255588109223,-0.4718447716241698,0.9405194274813721,0.9215817813280502,0.6157101173825623,0.9213471924259017,1.0790987153230613,2.0649717810580266,3.4751314565465887,0.6284777104787076,1.9028400168247661,1.8375666771684884,3.123863473049144,0.9463360640482804
2,0.13226987611464064,0.07930223185729243,0.06057471445644519,0.10060391803536385,0.08549051946959513,0.06642030374210436,0.49720037586253996,0.4619405465103719,0.13421645730800943,0.1545241984437131,0.6097226960127671,0.14844844996726866,0.0965431524301577,0.08291079376294783,0.9503702850614582
3,1.7935411687808458,-0.23584848483815601,-0.3799261171892577,0.8424502879785741,0.848340043272278,0.42392208650931673,0.4543065895573163,0.41480453489807745,1.7470260304977876,2.6235165678345718,0.6207552362147116,1.6717862412023832,1.5270146622903515,2.1426559557159197,0.9405709886534389
4,1.9702760832142916,-0.2441122965067125,-0.4405208516064675,1.053772665304113,1.0524891481888066,0.7263822701832884,0.5677902710726079,0.574227542064973,2.30060023539772,2.753796502704189,0.6180765742263259,1.9830814082193087,2.0675652987370725,2.436937316527896,0.9377283804078753
5,1.958122682994975,-0.22549802878038894,-0.6132429205732244,1.0043226129326175,1.0044388358166325,0.49683050950910174,0.44661108044257924,0.4658203697583936,2.1277772391286565,4.26025713111853,0.6509067234006624,1.8706583868344722,1.8967833897825663,3.6147714819602146,0.9561573033211141
6,0.17347779420434148,-0.04924179769773594,-0.02240620517813728,0.6401030177125321,0.632092601046956,0.41644589820086597,0.8037298641983958,0.4772310517973478,0.09137923785843144,0.0701559312970775,0.6233814453054027,0.3423964166411815,0.08701991228949625,0.05489359350072303,0.9060004007444855
7,0.3170971234465033,0.016043136390708757,0.014692849780874095,0.28922259120732874,0.2805697360382935,0.2411216454649944,0.8462763219068149,0.7776443071825819,0.21907032509648441,0.23924501404857054,0.6180765742263259,0.33032671463992447,0.15524638105024083,0.11400278978693004,0.8823056789456883
8,1.3669590520632107,0.03059851824608406,-0.17976952859448125,0.8813902932149852,0.8639780019416866,0.681764737805565,1.0430095578664749,0.9212155638838382,1.5859877465928625,1.8909515845923528,0.6602640781246099,1.4280427105002764,1.3545514552224571,1.585310433727593,0.950649728652702
9,1.2356808989996466,0.16321814507099253,-0.16894100274675294,0.29874863549611025,0.2764418070362051,0.30720861282691203,0.760677606501245,0.7112622924800107,1.050257880027336,1.2966599930229905,0.6357360191111145,0.9014294870236415,0.8295485099445545,0.8761716191982811,0.9405171016065548
10,1.6531994332861275,-0.06619671047949072,-0.1094108259801091,0.9693152361837432,0.9698054532471915,0.6129503795351358,0.7563269994962567,0.6404944655532014,1.3493059295273016,1.878141348536602,0.6811855325194978,1.3811520499389758,1.1577181227924538,1.4203609156834969,0.9396737827262434
11,0.509415887269115,0.09307985326312535,-0.014311443589793749,0.2550882258307015,0.23604689664438344,0.13276658512914374,1.149567312742632,0.971400975883177,0.459236390578533,0.4855840773172819,0.6447042257417027,0.4923855801388661,0.3325928518035217,0.27888093191271196,0.9225085414690734
12,0.7900337378833738,0.18255660084966618,-0.003723161957199572,0.3437253214808031,0.3331235695718138,0.29876588923651937,1.3639647251861333,1.0478808195959117,0.5820304620084681,0.5016061964228976,0.62595550513784,0.7644522469199163,0.4645724938047186,0.34493878351580576,0.9332045506988796
13,1.5226237070489588,-0.06501629718772473,-0.2876572829287567,0.8652964484969287,0.8659604448889064,0.6858957495074371,1.7447959473842287,1.4154198988656117,1.2335671051794488,0.9226713766910085,0.648888643467878,1.597344664746717,1.045698375046883,0.6815019903474729,0.9362062767234702
14,1.9087778554076251,-0.3390832040503047,-0.3947548183322169,0.6199504057947957,0.6229544140015646,0.6141563795016298,1.5139456409615906,1.363305599258652,1.973030577374622,1.7635950567891912,0.6684167106117298,2.1007332771474583,1.7405206573924805,1.4221253806468175,0.9380569948524304
15,1.315795684797359,-0.14367829086901607,-0.12853420879764998,0.7731096050433495,0.7846073183047777,0.3622079570287709,1.8784421618242422,1.5151756476996023,1.2989353709865978,1.1418518366139643,0.6233814453054027,1.3180958791508324,1.0424714963815604,0.866956850289849,0.940041162505418
16,0.5880238545332481,0.2325236166331951,0.16112906912082647,0.7390725637805536,0.736351670982972,0.18791501570819352,1.4187669868480843,1.2773696355175879,0.5946689160836297,0.655244359354044,0.6602640781246099,0.5976753976524892,0.4280272556283023,0.38661631825594184,0.946235045608526
17,1.0692969677821655,-0.04335246943064841,0.04413413769439789,0.6506033000979886,0.6361334240794538,0.5457148594930739,2.046332410532869,1.5935266929814222,0.7766690744086379,0.6314579750181354,0.6547956803312163,1.1418677973390667,0.5967933408939727,0.43162943786309893,0.9085555628707801
18,1.0590332341445068,0.020220585967883564,-0.19458445135174363,0.562965192507836,0.5392352011853367,0.5568495975806169,1.9383112697753606,1.3472995312427833,0.5803361853784804,0.3342201469273022,0.6180765742263259,1.2073488671886603,0.4842636534344558,0.26825006816133795,0.8947177533652264
19,0.6940882848894498,0.24795670372370604,0.2031897118027759,0.8315872511552397,0.8269523549720792,0.4172852077787167,0.4388183865355047,0.4426594096169227,0.4333233601940558,0.527453381803419,0.6233814453054027,0.5853296857489445,0.31470500555020514,0.3228566867690456,0.9492335870700345
20,2.3635583362751453,-0.4654343844485427,-0.4053290044252725,1.1408541032542705,1.1333292262335717,0.6735196519356212,0.3526983642506203,0.36196418876163566,2.151142460637745,2.5717890423773833,0.6333676938231112,2.3018076175286595,1.940263856722897,2.122068358141599,0.9446708437770269
21,1.3787395496538075,0.09972144727785537,0.008247997636787074,0.25998205414125564,0.2542810310517201,0.3304040127884153,0.479391659205945,0.4111627576410576,1.0709172814949919,1.1060789232920563,0.5947193981915972,1.2457597704544103,0.8711759756530061,0.7605197865222019,0.9661667411380314
22,1.8901043774715103,-0.36096902012772647,-0.37324530113282167,0.7711683089338064,0.7514299033345547,0.6511062437676028,1.4253970110494787,1.288133596487696,1.9289176599224522,2.0794337995803107,0.648888643467878,1.8968977873513597,1.6918347181576376,1.54031101963756,0.9547329491359521
23,1.906503037171042,-0.39206635726575967,-0.5120132460540227,0.9040552435131964,0.908541008324281,0.6797238151860107,1.7086716947086065,1.565000783171329,2.201723121207644,1.8287637296922201,0.5915533975974677,2.095841963047617,1.9618492815264483,1.4919405502548775,0.9503078702317429
24,1.5884353737104517,0.1222361555529432,-0.12334123964308219,0.738793424210823,0.710539262256891,0.3560061634280116,1.6346143180626653,1.4571536840166486,1.5342869889475705,1.2617822695753043,0.6528756675646988,1.6115512550815072,1.2380625103424898,0.8286555095779238,0.9317448799140515
25,1.194688981948217,0.13210127922910375,0.06414707761592098,0.5203280287446402,0.48114235159020197,0.5366699651049214,1.1741576707875518,1.1745591374061763,0.5365838746411661,0.6131748056830555,0.6333676938231112,1.1582915241697107,0.3971844356925637,0.33272099100278607,0.9315421188753953
26,1.205682193374738,0.08056614709895116,-0.05659038266568184,0.562429798345806,0.55460819429141,0.37989849182695284,0.42285359090782243,0.4686571074791837,0.9161961139292,1.156809337539531,0.6008849035917525,0.9828757901855131,0.7181902004281197,0.7511798769348194,0.9573080908615709
27,1.5638098148329926,-0.24955056808259168,-0.1886749074414984,0.8042492298381076,0.8008684385462258,0.4203013602636418,0.6530279101226845,0.6971622210668874,1.212355332817473,1.7620369016373303,0.5915533975974677,1.347372838018635,1.033774577478513,1.3752973581125545,0.9572818895666348
28,1.6738849207407562,-0.28131749441837917,-0.32962905450020763,0.8848808989442524,0.8903934464303201,0.3864703181777857,0.5498639979473708,0.6939879729106275,1.5802322228207755,2.385026378916481,0.6357360191111145,1.5999827536633453,1.3744229998428288,2.0050539231216318,0.9507135447118262
29,1.505378581005831,-0.014060672001439012,-0.3391152101126529,0.2730027592884022,0.24983268527391556,0.495971709551979,0.5397151184965557,0.743419600498528,1.826635398312413,2.20609848884379,0.6566669596287297,1.766741706252767,1.6036032119266235,1.8206139300481465,0.9452196533885956
30,1.7576048433980136,0.00644106247794507,-0.4859226809817263,0.6822160874045917,0.6651748653960711,0.5882027945889667,0.6510835997704507,0.9005620490111753,2.0619704060102144,2.7221531549614095,0.5915533975974677,1.9005332107268509,1.8185763820356071,2.1239349492272503,0.9429425754836425
31,1.7509891466426888,-0.21761313437373453,-0.43726588880281114,0.696076487465216,0.6754194899171487,0.6568589130653626,1.0876739085725007,1.0749750024158795,1.467085706243386,1.8052416152073487,0.6207552362147116,1.6387523001028756,1.2730474052069094,1.4370070914839526,0.9529620910776712
32,2.4594508508567046,-0.5312280217421359,-0.5563384456945446,0.8943545953794171,0.8736549521929969,0.7006447628210131,1.1240513949267852,1.111353443144962,2.4013026487194074,2.5392667327786826,0.6333676938231112,2.646955101742399,2.1869296806093574,2.0628206604437955,0.9502904540507334
33,2.885659822305957,-0.8192001560033596,-0.5115225404157127,0.7638073945197849,0.7396794062888937,0.6399965001894147,0.99800799285751,0.9271798506899431,2.640897466149532,2.2209218807500264,0.6309483474627791,2.9488486876551407,2.41371094762125,1.9018705876444792,0.9329705222599557
34,2.5009239417843774,-0.16571824821747216,-0.7000333182030188,0.5816159621994699,0.5514414840345027,0.603741053995993,0.5012514798000908,0.5404095182801731,1.6753853864010297,2.198195674062307,0.6068309995095971,2.2123382151462674,1.4545623322488934,1.7848270324524103,0.9372537462949856
35,2.896645824845019,-0.5675127083296072,-0.9466604024297218,0.9237246831851585,0.9247649239257978,0.6034727322816957,0.3897509510099392,0.4546562432453286,2.625535725096762,3.4590357290291625,0.6233814453054027,2.41924376098872,2.400771173498886,3.329453476803314,0.9286061918266102
36,1.5052827209863011,-0.17347333677663634,-0.20524202431552652,0.16921395908888537,0.16297954661604694,0.23753735355663144,0.5447604092441611,0.668159383947449,1.131270470218338,1.362906964894969,0.6333676938231112,1.309662592294936,0.9362271570225642,1.0524502469049473,0.950589550580571
37,2.0162524855753103,-0.14095438437960495,-0.4740837632149639,1.213087849383088,1.1774798137231441,0.7771997178866398,0.6302895577864281,0.7956859282132388,1.9411445591886636,2.4769891904136845,0.676637947632344,2.056072297580336,1.7128128278559542,2.0402578648777374,0.9251948956689794
38,1.2520773357892754,-0.16111295172397255,-0.06284067535455362,0.6472154162811156,0.6059407779267056,0.4711561435727519,0.7077230237021799,0.6880041620754613,0.517548467897771,0.5617726037924723,0.6309483474627791,0.7993228431746128,0.4130182108218398,0.4017744479887588,0.9588287746509895
39,0.9090966151838186,0.2553769070352112,0.09029278845136224,1.0474727308059364,1.034714744217601,0.5967562851400962,0.6496594116718364,0.49795727604232576,0.5414459010799813,0.6136760428379563,0.6425374456860184,0.830775844437035,0.36578008856120126,0.2994540927002789,0.9539091250777127
40,1.59511704144552,0.1085397557477692,-0.4139835730118786,0.6445394054368621,0.6454028547703805,0.6798841465901498,1.404383496428336,1.3503356916304037,1.335170425745239,1.1310634720215311,0.62595550513784,1.762459600183193,1.1215325507489329,0.8466356525621965,0.9581172110005758
41,1.2546350247562748,0.18105188561738805,-0.1581090941483856,0.18592973281183492,0.16125244401545563,0.40176913185854396,1.8462546616908115,1.4424772865435544,0.9253424985596259,0.6828906571864711,0.6713451011121618,1.3725667945740636,0.7471413403343276,0.5024702271198551,0.9457092532207573
42,1.6148537082730958,0.09426509671519967,-0.10273395604309354,0.5480983122533019,0.5243981548202419,0.604710812979185,1.4773796893237605,1.320149003828975,0.5990268600337277,0.456733205339878,0.6740851607140061,1.736892567787215,0.4881143905614561,0.330465227486602,0.9367075845676817
43,1.7171741620411496,-0.05533657659942404,-0.36902936718555857,0.7438443020495072,0.7377389253627219,0.6533103669517496,1.5954099563197146,1.5664489740066174,1.6164589542612329,1.4975549849828915,0.6153451465759925,1.842421384030283,1.4000643064770515,1.1906003477800224,0.9586254320801695
44,1.6449390458387443,-0.22195332271652934,-0.34049320107456266,0.7303031353732096,0.7040204822598971,0.6009798859704851,0.8918271908601588,0.8062893425486805,1.1918342373717288,1.057783677231101,0.6447042257417027,1.818103444567657,1.0349725285848108,0.8887355442982356,0.9485063459657698
45,1.6344878428165313,-0.031647132865339156,-0.14142065956081784,0.6249132887910465,0.6065485163902389,0.5718290341719648,0.8072328608356261,0.6748246498675752,1.3672577677298954,2.0227931260192125,0.6180765742263259,1.6637767755339492,1.0040916359354293,0.9631615096577836,0.9287900448372514
46,0.6582676958189237,0.16276044793647582,0.04560771245007489,0.3108102892920412,0.30417444907781793,0.20250790154462533,1.4879004156608,1.3279659744260441,0.610821319325958,0.6694847541386032,0.6468212168108125,0.6839231860324135,0.4247731090897158,0.3661136039735765,0.9389355194688567
47,0.8073507012400819,0.09260559202747431,0.016134928882299948,0.2599820541412556,0.25869934085354446,0.2705340723008939,0.8221441395755494,0.6366800861717098,0.40650935167104546,0.21592136255397726,0.6528756675646988,0.8718752018437698,0.31637007906437725,0.1816946569388959,0.9124835278734793
48,1.446379845112417,-0.05882003263006996,-0.4352750304463853,0.9901135638993888,0.9754312284416036,0.5803634645376816,1.3036183476844627,1.125391392132051,1.2235627481817377,0.9886323594676603,0.6668815377411301,1.4518170701151893,1.026577496057588,0.7152467875168821,0.956826906298102
49,1.1333584191134278,-0.10363952552582023,-0.1863827909038267,0.38970139467469306,0.3457293758704774,0.3413190991043609,1.6418347393704138,1.3571552522039174,0.8741462514322849,0.7084130630698189,0.6619902821573977,1.1253670259769293,0.7134840507849762,0.5078020140662429,0.9147123707677329
50,1.3799417452493177,-0.20072412860869204,-0.24606428631326543,0.6283412384475459,0.6062094471600047,0.4361806971172418,2.2785910382625505,1.9250778463513232,1.1363403360796378,0.8408617130208138,0.6333676938231112,1.3318061758358208,0.940249712123402,0.6493938255078034,0.9393207135134292
51,1.5073095413397568,-0.2502503573708236,-0.18762637805622806,0.7763061538542277,0.7623891483789266,0.5773839862983681,2.2781375986818864,1.93850830966268,1.2885451624888322,1.3593095161778208,0.6180765742263259,1.4371199286513932,1.062291407339489,0.9236908810593233,0.9509469634740475
52,0.3934096067262081,0.04755249455316868,-0.00616386359837523,0.540543152212867,0.5247074411943891,0.496415821008307,2.1153913036805463,1.5424794886575333,0.4421381859116094,0.4028520221227704,0.6468212168108125,0.7338302958354803,0.33554686756429436,0.25137917624946127,0.8839559352976953
53,1.3732344469116338,-0.2887362828761263,-0.156946283168715,0.5384729888712736,0.5178319702709138,0.5794863837908797,1.613636939308139,1.229004482130971,0.894562004912998,0.9226860394205675,0.6233814453054027,1.2298225676385235,0.7093547423756056,0.4618785076039271,0.9465501808489853
54,1.4793975100452632,-0.2639728387642257,-0.17315751042838856,0.852675934599172,0.836166376291809,0.5346179934601313,2.4713554367355424,1.9141038981835092,1.117488702212605,0.9839665908406097,0.6425374456860184,1.2917117186339429,0.9407256144580212,0.9161871532319784,0.9225066742338711
55,0.9688890148366321,-0.19229058232067442,-0.13941628928759203,0.4533250735864962,0.43284214902085216,0.3515286047846769,1.7715621784589297,1.378583905537596,0.5566744385463285,0.5264085454639563,0.5883313578629602,0.8602517715490395,0.4632138626320025,0.3655567575959006,0.8965736589485667
56,1.0360949004393825,-0.060008444320421184,-0.1627708116201772,0.4980688921349139,0.4843382754594372,0.4880741040751783,1.8745491696815124,1.1698991407754258,0.7773668533452229,0.509223451091396,0.6233814453054027,1.2311917535672503,0.6230106562840237,0.3131721455160602,0.9320472399609491
57,0.8541269953655403,-0.07319461906389779,-0.1458410845807495,0.4077103836089264,0.40406735920361203,0.39195573285147467,1.3164732847324903,0.9046418746151079,0.5415391714458322,0.5786302766218081,0.5641709578113449,0.6770551326603014,0.405913492019788,0.33231980928212534,0.9396517107945633
58,1.3903520472043622,-0.28117592689736925,-0.26963342478261687,1.0225898763262569,1.0034645235438513,0.7525968853688949,2.4084366162855915,2.0172874608523816,1.6458266331503129,1.1295919230147284,0.6425374456860184,1.5088889537734962,1.413386353135677,1.0623183913538086,0.9486647417064344
59,1.8011913197997669,-0.2697411447501611,-0.3312673964628746,0.6896557604933852,0.6779820928011706,0.5796745602775798,1.5600714984299573,1.250673812917249,1.7037432426927943,1.6369476128470009,0.6509067234006624,1.9353989194296657,1.4288238594411282,0.983724542150225,0.9456164292572976
60,1.3043826577459203,-0.10509645860564121,-0.18453394876664558,0.8300789345035394,0.818331149387064,0.6399344936304066,2.9678493927126213,2.775230222773852,1.5391031715228323,1.5615267147666572,0.6380535849069913,1.5401191681235396,1.2716262693174356,1.225588870064346,0.9386185742009672
61,0.8785760069311865,-0.1121395606960447,-0.047089295936964815,0.978042593281794,0.9541505799563548,0.7342943514460138,3.0792216467727904,2.3975107491123433,0.8940734713047672,0.8426835556155707,0.6652988471865258,1.155147367409988,0.729385501970422,0.6264440081407744,0.823755378219424
62,1.8067003389477512,-0.1290287619414605,-0.39118872370547775,0.8072546119251343,0.7814863753605228,0.6665693639369304,2.131318470829577,1.9937314903395382,1.9739673372712736,1.6076437174323908,0.6153451465759925,1.9099425849057783,1.7397161560548768,1.282473491647657,0.9498407328110368
63,1.4938463435228397,-0.36769579002419994,-0.14076391483859085,0.8614295736518474,0.8544317335072469,0.6867514773630177,1.7322535194405624,1.1832823585576147,0.8549272259130658,0.6835510771637024,0.5677978065141052,1.237223227035931,0.6952553091315651,0.49202312376454,0.9478821606345618
64,0.8533039859614787,0.1487611317332881,0.04085481180160855,0.8127786328493742,0.7969636453863902,0.5580122420644646,1.4903756745855616,1.458063282915144,0.7708394475212621,0.9300583250802001,0.5748741956352443,0.9486417620918146,0.5867715149943123,0.600434020575189,0.9406365277845956
65,1.37331397109709,-0.0271393861823096,-0.055269517836457505,0.8754084725526503,0.8533666996962305,0.6413550136238393,1.4789129849452995,1.3993282020235591,1.1112554182435563,1.2744308325754197,0.6528756675646988,1.2880390275921114,0.9274513585510005,0.9169529329527815,0.9449550983117613
66,1.3197607301357623,-0.08177439312378443,-0.27887236194136733,0.5891697473880868,0.5699823263829655,0.5945326011974519,1.0907436152959635,1.158566560760734,1.3628636471802602,2.670384551433934,0.6309483474627791,1.4025140813668329,1.170859549743498,1.920453967542387,0.9462811933735958
67,1.5110918886295388,-0.33304679118801817,-0.12057738822529096,1.070579555638942,1.0496278671697863,0.7318948821794306,1.7285445778250335,1.474578931113399,1.116985828782493,1.2253068861679381,0.6357360191111145,1.3856723323976528,0.886275791134503,0.7535563083555052,0.9440935432502803
68,1.566830726599086,-0.1545923811686537,-0.3996797673379312,0.7612044352244103,0.7632324422812082,0.48829133677995495,1.1767804131070971,1.3186520296142707,1.5616705238082955,1.8118410237769866,0.6068309995095971,1.5329914069409163,1.3401299975487206,1.4561019652650942,0.9520067525408442
69,1.1995462906140741,-0.1183730361439761,-0.1196432332366899,0.5712889717015404,0.563774447474804,0.5173110516371365,1.2847194382647256,1.3391841501751935,0.8447589825708616,1.1273396988177693,0.6547956803312163,1.1114273857149535,0.6622957210270028,0.7575765826157544,0.9529759890998541
70,0.6850629931250852,-0.0005725096914570571,0.05421271101837011,0.32195468142618694,0.318570930395872,0.30658276855519734,1.2014183298386156,0.9357861262826983,0.36582461211757966,0.3000171028131273,0.6153451465759925,0.6141511743334475,0.2725537869465233,0.16967832317042866,0.9317044033132352
71,0.971001023743855,-0.0031784486165853387,-0.1428003165934475,0.42005865377864815,0.4149269674547719,0.37575065883067266,1.2533160759956103,1.310477689075285,1.035857634782303,1.3445353238142916,0.62595550513784,0.9987971200659127,0.8323964184075494,0.926572254874681,0.9540352833996439
72,1.6299588291680978,-0.08734419102228408,-0.5434209056748132,0.8575882337080564,0.8485773236008753,0.5374246707612219,1.3482117270169067,1.5952484570956502,1.7502515348746825,1.7415492843593428,0.6207552362147116,1.5138247482311542,1.5266724682426485,1.3667332725633694,0.94781870676784
73,1.3547075013551113,-0.27051197626905044,-0.18674352256869114,0.605492319685103,0.6027417681379508,0.4981988744567032,1.250391005755836,1.2347155211450056,0.8549332793108606,0.9358411272310201,0.62595550513784,1.1135905718488228,0.7186437299449504,0.6493445579015524,0.953950134457968
74,1.3130118978534409,-0.010619736718587514,-0.37959448803298523,0.8432589028799622,0.8416694134563416,0.32937384930990554,0.8961153797444069,1.1999312758383884,1.1887221633493463,1.2159065990200033,0.6309483474627791,1.0629556114600751,0.9316547058144272,0.8864053456976374,0.9430950046813348
75,0.3520715553192166,-0.04840112879479205,0.012718094279631414,0.4302611147932114,0.42241192148282575,0.27970774190409503,1.1182600969862182,1.077390221026162,0.2085173887915399,0.22052132262735577,0.6713451011121618,0.3566590710488343,0.1405010926401033,0.11684728085626382,0.9248276343969833
76,2.4218248838142666,-0.5158416703523212,-0.7005313019441081,1.334072160259379,1.325102970926084,0.6359708977360174,0.9619820456835197,1.2977754696816426,2.5640290726648374,4.095307261197106,0.6008849035917525,2.169901281687329,2.3707303831631914,3.7314390685327323,0.9383097369431799
77,2.261120813199081,-0.48144806371580295,-0.37697217906514113,1.1777024911626044,1.1489109229881194,0.7782869780986491,0.6260664871689955,0.9605481184760601,2.276019360073096,2.161899908990818,0.6207552362147116,2.119985796995417,2.0789788143567858,1.866266085995388,0.9343923491582999
78,1.771376065327243,-0.16286866315216697,-0.30061220504178443,1.0853318327592922,1.060100280106591,0.7472172897823407,0.7409266357734706,0.8808970317508408,2.070719397384325,1.7677452633900765,0.6468212168108125,1.8486120474875318,1.814383092470375,1.4869022214718566,0.9463264204156351
79,2.120924002408238,-0.22253102842597772,-0.523161683093524,0.9507376117897043,0.9194144026246441,0.6787933212526267,0.4748918319484841,0.590270756427134,2.457699928878004,2.246877340116787,0.5915533975974677,1.9446775756527677,2.1637659109488347,1.891949691250681,0.9378368665097591
80,0.702064383083946,-0.05368563382974051,-0.1343507425504572,0.16280166969132603,0.16107374616742387,0.11396554289255867,1.716865890864343,1.728079379211875,0.8044677221154561,0.8161099226359837,0.62595550513784,0.6614332050704176,0.5982872439924493,0.5773153650348236,0.9525677503207076
81,3.234731835076529,-0.8331545086307764,-0.13971215741515752,1.716876908221939,1.7280612599954515,0.8228216342590353,1.3889881109078985,2.156116005272935,4.305950034123028,4.588419676364026,0.6509067234006624,2.4998172625237545,4.171549238394152,4.736198448394496,0.9275593560421318
82,0.20258770975719986,0.03330375111483194,0.022558894157292564,0.4069815786448911,0.39897718842684987,0.22233608807975597,1.1915130737779351,1.2492206185257804,0.1850128434485128,0.17926953554559677,0.6425374456860184,0.27264021499565855,0.15085309563189706,0.12313221726962256,0.942928885325548
83,0.2867530787487325,0.013859348006476702,0.022318675343486333,0.44078576121961277,0.43510422633232115,0.3000461800194363,1.0203695281128902,1.0396229820170637,0.22097467392788334,0.19511694756635323,0.6380535849069913,0.3458763166965068,0.16391280738388478,0.12027893307833351,0.9412444813420859
84,0.1825023018148372,-0.06697079451478805,-0.016295618887005897,0.46662302870725303,0.4377866306824224,0.38026077070997977,1.8733347526448045,2.9424880096273553,0.09923248961310512,0.07677767158442118,0.6547956803312163,0.3208635769102813,0.08248710151403021,0.04549176965342143,0.9077483869857323
85,0.469635406189743,-0.10585103743066537,-0.08210322925225463,0.42462754614623727,0.4134752275675064,0.3783469675604266,0.8770828231501826,0.5171782045100634,0.14628894431921724,0.0732340041419706,0.6584896970785714,0.4521899066144001,0.12707318734684203,0.07129299119395725,0.9518980186680809
86,0.5411949195028383,-0.055913356311662776,-0.08139604043701154,0.5154584230751312,0.503894228947043,0.44840470112162095,1.4795544725577359,0.83226432258267,0.32962711139573464,0.2341087793651843,0.6309483474627791,0.6079281496039852,0.2750084025974358,0.16504599551536694,0.9368082033285832
87,1.5839865480236726,-0.19134100246788355,-0.25088750160215234,0.4064914941373871,0.4023368122341848,0.4536896919285989,0.8815844161603233,0.7167776793181287,1.2483833517835479,1.3031133802273611,0.6652988471865258,1.2117436601094407,1.0141890813635224,0.9113630964028147,0.9501249747178745
88,0.8025060538974974,-0.05464617266063265,-0.1372247374398885,0.7663689737053868,0.7495665444996771,0.48726604015199765,1.5945083257682087,0.7981073034806616,0.3868280244359606,0.22809919617528437,0.6468212168108125,0.781735557937053,0.32470730984624524,0.1967365866260858,0.8569435892011789
89,1.4854353790629051,-0.2662587198679741,-0.349251115401193,0.7718231572409,0.7615775036915367,0.6067846188116814,2.9435510957468676,2.3958835548345796,1.0863264974738376,0.8433772829124841,0.62595550513784,1.306826177428014,0.9132576940542878,0.6797323452418624,0.9423178778041359
90,0.9399101581899652,-0.1933531641696417,-0.10660345116815084,0.6364968394951126,0.6255789460681042,0.4344267370853504,1.9700967267868756,1.5324114822046004,0.45466520331059984,0.3349604176443747,0.5883313578629602,0.8010046381447558,0.3558018947680799,0.2037334488672422,0.9341739624265266
91,1.0464224482156557,-0.3388211813526048,-0.09032201995952263,0.8113299016719857,0.8011241540167993,0.5762969787933612,1.858683950126009,0.8860878865020476,0.3350566753006885,0.20137524990853098,0.6566669596287297,0.8755487405540706,0.27959862685591735,0.14790939513984708,0.9351003789597783
92,1.4037771176744493,-0.1601882163012598,-0.14172809100656203,0.27466743290571033,0.2256251356421198,0.3490127452999164,0.7945179006237529,0.8109216231069821,1.325929094459419,1.5425132411463696,0.6180765742263259,1.2340884282305595,1.1009050788505559,1.202023597723575,0.9626896689643424
93,0.2763805202894441,0.07093245801144327,0.00501138316754185,0.47040213058414543,0.4588048488335207,0.37278169438180564,0.865602729913112,0.6025773329854569,0.2100611778338237,0.1504344853041141,0.6233814453054027,0.4284437736785751,0.15666647602013575,0.10066417653182139,0.9300351786735668
94,0.38371239009967223,0.054331801260998736,0.004317253171255531,0.20345191876613714,0.19716127702571384,0.18172569156624094,0.93338032583202,0.7815363431708163,0.2538708013279172,0.2108638387995292,0.6602640781246099,0.3975961497294691,0.19299444250538408,0.14245308532440432,0.9603540320349777
95,1.1730956600264721,-0.22032136685846793,-0.1170811195758994,1.0204044797840262,1.0190394698881136,0.6833507432506826,1.4534819017840235,0.9098650392686394,0.6528375697308313,0.48794175685453206,0.5978297680564633,1.1016502318815609,0.5579704806560628,0.3703959458146892,0.9457545190910492
96,1.1383777821705392,-0.11032080044849091,-0.16636555326367353,0.7511359239081896,0.7298109735593566,0.6486859852911218,1.8113015655252345,1.4400234633896847,0.8882617286369793,0.7197063815555237,0.6547956803312163,1.187261369599429,0.7244083963011835,0.5040840251990711,0.938281316050003
97,0.6408143624321971,-0.018232352135635843,-0.028119941206659227,0.8384770359533915,0.7933311620431942,0.6319777359362304,1.9926868814223933,1.51986372997224,0.43145126291420244,0.3471124003995847,0.6509067234006624,0.8380958842890983,0.35768831613128504,0.2307767539280625,0.936396717278234
98,1.2175276207025105,-0.018259408478074723,-0.13761163401243537,0.7813056007981157,0.7470951339265737,0.6217809181465521,1.196038785911154,0.9965305060713496,0.8272793389796651,0.9528298126143121,0.6180765742263259,1.2615234519422411,0.6360410761827904,0.5624544061551898,0.9514021543597894
99,0.5034205080858373,-0.10602110215747734,-0.052477468553562306,0.5754644148327706,0.580002018991573,0.2803834306314236,1.0676226179628225,0.8215949168007521,0.2756204420823521,0.24831553426505867,0.6153451465759925,0.45364046131259594,0.2164631620787402,0.15746423397801582,0.9335771344056961
100,1.1318311398693959,-0.06611187550150166,0.02454365852978979,0.5376906821687175,0.5317188015518552,0.4407315074130048,0.6479470074645787,0.466651695142664,0.8433746064330111,0.9353207104407931,0.6447042257417027,1.03814454190102,0.6329323955714239,0.5500305803271074,0.9426902962194569
101,1.6849320487192887,-0.19938900379672497,-0.2908710931608155,0.5420727776130385,0.5125070689424709,0.49289312822507947,0.7346523391746167,0.6306493056443119,1.5271110568960147,1.7426742772853194,0.585052858160615,1.5083364536966575,1.2713887841124434,1.3266919056472688,0.9526097302291815
102,0.06555778006969815,-0.013521563672745741,0.0015971943067708272,0.6221438211746035,0.5916892005149882,0.4736225410019154,0.9242056892326914,0.4815623715686833,0.07812328895069734,0.05669562014671926,0.6447042257417027,0.40163910327463526,0.07428423514878434,0.04377486384616937,0.9431602472462861
103,1.41168306244051,-0.0648732941870862,-0.023086582025984015,0.6640714165783432,0.6546363850509996,0.46605145771625983,0.5839662010382117,0.3715284234646613,0.8990291204667924,0.9181340190098255,0.6447042257417027,1.0668552570549181,0.6835703486801598,0.5579540209673041,0.9351926308502024
104,1.7504671671522567,-0.30459254355935717,-0.3701235164269354,0.632539035761269,0.6251140477787529,0.5162506074140187,1.0448029395347582,0.9493994433182842,1.4095290579514617,1.5738080403628443,0.6509067234006624,1.486237478647943,1.1608744243491875,1.197771799593387,0.9532670436457653
105,0.5385938062613325,-0.032584253608012814,-0.06698299171852101,0.3757666405756983,0.365419734882321,0.3474181839834779,1.1707553474097128,0.7631103957132208,0.27853614855266806,0.23824246869737797,0.6309483474627791,0.5216993437746974,0.22552863839464973,0.1736008089148201,0.9584194863929817
106,0.536667669534935,0.03977930879181357,-0.006223389018543912,0.365475179675118,0.3595503271966036,0.35503028025354777,1.2587812248234156,0.8462218309321363,0.3805302368620518,0.31874633170418787,0.6668815377411301,0.6496195163340786,0.28761115599842485,0.22791323348122156,0.9471290069318843
107,0.7519370370282403,-0.10681856800134534,-0.12891042507334718,1.1824209580328038,1.170897092922588,0.7799537831529028,2.1013421310221196,0.7296008357323278,0.5249485990998775,0.259690278090859,0.6403206450210053,1.133617897866925,0.493814277939454,0.21498920822390388,0.9538599111112673
108,1.3588772736744594,-0.24882445787787644,-0.29398527175887273,0.7040402266267923,0.7064859111124554,0.5599051819323608,2.666999289855351,1.8881151324322611,0.7568416068636957,0.4869186499109021,0.6602640781246099,1.0463361441027388,0.6582675141223363,0.3636122385476105,0.9533684994559533
109,0.9718433788111369,-0.17755184187696071,-0.15658016303842115,0.39383678143134243,0.3901582737011365,0.32004969275840517,0.8841762202076036,0.7021520713209609,0.6824626637607504,0.6935863945721158,0.6425374456860184,0.7422907404996406,0.5130923241184181,0.4102137613229067,0.9560108870129517
110,1.3435427041950083,-0.1686407559591907,-0.19787010099941754,0.31704627525377327,0.3057619037337377,0.37308043499849114,0.8327634018111901,0.8276385637726951,1.1470617313571507,1.4539664138229422,0.6547956803312163,1.1788466813787157,0.9364293133103363,1.0646462467189213,0.9363972046295765
111,0.7584750442610007,-0.0006817959158533782,-0.024575817150701118,0.5276052805847133,0.49935588087492394,0.45204808786018613,1.2931135955101891,1.1078817913525223,0.41128246706892757,0.4348366930346372,0.6357360191111145,0.6070918159601244,0.2695776419702943,0.21513273880914172,0.9353612839596219
112,1.146601472300306,-0.17444115272931182,-0.09360291295672007,0.4813288158314576,0.4370172727923898,0.4956300967447635,1.7692748125594364,1.4764909565623396,0.6969174501833272,0.4863170234347231,0.6180765742263259,1.0571824789049702,0.5401072995934826,0.36890244610331957,0.9337102365080748
113,1.0040094239054977,-0.16676425110629994,-0.13556404604574135,1.172041845343063,1.1751357509909814,0.7026428918062272,3.279243016008288,2.5681115091812323,0.8494175251695415,0.7283254666974531,0.6566669596287297,1.1591410817429317,0.7218868552433055,0.5022852837131807,0.9338589836557568
114,1.5659627973551704,-0.2032509962396255,-0.3314230998153153,1.0626445872531152,1.0656787426076055,0.7185254419203423,3.05810071508228,2.9684262840178666,1.3640622605548025,1.477433117974353,0.6668815377411301,1.521834118365533,1.1698507286504127,1.1578851437656505,0.9544080493136512
115,0.7704135343629093,-0.13896108484362388,-0.014512928718589425,1.0716617446017174,1.0693693610398747,0.7269043563233527,3.6278699846863893,3.705583981065118,0.9508256251772003,0.670295741550678,0.6528756675646988,1.5040773967762742,0.9258361447176865,0.4798449302023942,0.9461144854295838
116,0.7374302328444655,-0.29681330422355146,-0.08709867167658256,0.8982180017324877,0.912072062756209,0.5513170725365889,1.105918443247294,0.3364972607809993,0.10413997248845777,0.04319118912248344,0.6233814453054027,0.725968855742069,0.09982122338128371,0.04475745391147909,0.9520765118283114
117,1.3655242184112215,-0.25776728695330836,-0.18044769831238278,0.9940627996732937,0.9792921200390305,0.7162847995357878,3.449875643716682,2.6430059031283233,1.1514193418582184,0.7990092504116052,0.6097226960127671,1.4274404822375704,1.0046207450039044,0.6757205501211389,0.8559191782289663
118,1.808415462985555,-0.33781500856498226,-0.3154015475601545,1.241585843119773,1.215103041599411,0.7926332122689326,3.8104018938950848,3.4804763499698383,1.5245155228611327,1.3223630594573557,0.6357360191111145,1.851509473633829,1.4254075075179893,1.0240418304332817,0.9567159255529907
119,1.1701713197125618,-0.2546970783241346,-0.02724581776323426,0.6590768030914399,0.6306138010854497,0.5621828965017382,2.0216401182333783,1.4314711174133672,0.8361393547752988,0.898657984781526,0.6309483474627791,1.0205099237811472,0.6416843410922639,0.7015572633581217,0.948794524012719
120,1.132325160927432,-0.11398837101514459,-0.11149299206666269,0.5275255631105547,0.5295048395143207,0.4837170349434842,2.2443684255070324,1.6137396109349975,0.9429998420682049,0.6409500252477902,0.6547956803312163,1.1027541878354448,0.6958285067407357,0.5388239133599013,0.9418722768087704
121,0.38133331733960824,-0.050461516024756625,0.07446191831463894,0.23036313070440706,0.21987496919262298,0.17496299601601323,0.38710049527776286,0.32158052676915044,0.27620591531610844,0.31861430591587797,0.6125606311107803,0.33606343130460536,0.16878012078383786,0.15770976338686846,0.952845326866378
122,0.31824615181893995,-0.04993273750054886,-0.05396089670159808,0.6570358421941449,0.6508206509151336,0.5098752411884333,1.057308175348868,0.39692108161911177,0.14819636565458136,0.10167673192954017,0.6447042257417027,0.5122154780550451,0.12777015439066802,0.06762114153871485,0.9238857074634574
123,1.215034620544816,0.07324088412226948,-0.2719291820381148,0.41908794292077234,0.4229089035651555,0.28200490614070806,0.5646544261104232,0.6430929614119597,1.3170009965581466,1.3834417161427455,0.6097226960127671,1.2258019280240648,1.1317087792454967,1.1119655151458883,0.9576809530469318
124,1.5180835200062246,-0.10969583454318277,-0.2988916257497519,0.6941466279194286,0.6841190334319366,0.5003529048426901,0.4294356438994346,0.4610614245729732,1.743739791302517,1.9703526226406032,0.6357360191111145,1.6398398477902747,1.5116369677072186,1.557820079699496,0.9408327372959815
125,0.457969222377081,-0.15164048934754418,-0.010387956973665347,0.2891380910659447,0.2534003971131193,0.22997062182134728,0.5795592775655808,0.44197876104114475,0.16655930259283888,0.21775313542570945,0.6584896970785714,0.36528331847533263,0.10767578499604735,0.08651225045069257,0.9468008815783044
126,1.156929042010128,0.029668435098618384,-0.3832668264690097,0.8096124927301209,0.7946455766364507,0.6513218652576219,1.9819480474993973,1.49358238354223,0.9386687621197887,0.8068545780974774,0.6403206450210053,1.2991792858034146,0.8092105778323141,0.5814930335110324,0.933883312212789
127,1.7525795056244828,-0.32929822994551305,-0.25246978910778295,0.79096749474532,0.7687054140860675,0.6495278132504386,1.1023503896014946,0.9132040848874401,1.5542871414561812,1.463695067653489,0.6425374456860184,1.8526424577516265,1.3518922498459163,1.1071370206173277,0.9380106396614991
128,1.5756173914471048,-0.08473829171883851,-0.1612261598205338,0.9214247328830683,0.9054999687940423,0.7459743036762136,1.1682106377140133,0.9103377680646081,1.637456061406793,1.4412101540442959,0.6357360191111145,1.6678323839963902,1.4035817491953488,1.1290319599129073,0.9458762602898027
129,1.800767768758343,-0.17724140266871236,-0.32922928172556276,0.7642190911138504,0.7590890715191476,0.6615747440844978,1.0338076127634803,0.9411849016694094,1.9576824121233847,2.8147770942610415,0.6652988471865258,1.8259369210296417,1.7264710224014157,2.1681816495415247,0.947630839949044
130,1.4424741089354955,-0.1581710081170642,-0.21666816282781637,0.612624308349321,0.6037316031374629,0.4707112420131594,1.2132389087034752,1.0447124963759977,1.4645192802990232,1.8956328995786698,0.6468212168108125,1.3569513318859803,1.1965197097709042,1.3403846598158127,0.9500946904614874
131,2.006071073394763,-0.5268357188523166,-0.24371703906364633,0.9832042492180425,0.9616621219862931,0.6707647599333605,1.0598842044688006,0.8794314741612195,2.0061169696203094,2.5388310978338713,0.6207552362147116,1.8794256059806278,1.755807768162161,1.9492856796865947,0.9462845280461737
132,0.7035633461914067,0.06541851913307417,-0.014540827120293809,0.409709656466736,0.370906292718478,0.2666285018134053,0.7759263716470363,0.4592602379051536,0.6299675123648656,0.5429459051993559,0.6740851607140061,0.750493847412498,0.4603916837383975,0.30906721478366855,0.9499625825191427
133,0.5332038238607315,-0.03479084185597742,-0.05039030497671193,0.5009895636151509,0.4711749894402295,0.44034073449251593,1.7602744200110183,0.9412181588113067,0.45345678808273043,0.3232894782403191,0.6547956803312163,0.7472514395531461,0.3524948251561665,0.22213458308615797,0.8880382646322946
134,1.1018321520305991,-0.17510893954397305,-0.1443971890485604,1.0153221524206884,0.9665641923845697,0.7276993363319696,2.727296890030614,1.3383596575764032,0.7067588811670563,0.3390102032327877,0.6233814453054027,1.3322692459992242,0.6076036086930484,0.3262731681103686,0.9362519393882726
135,1.836971719047094,-0.33175143406093954,-0.23251598283254285,0.9326354635565532,0.9313245491843283,0.631544838998048,3.202457353492736,2.044969039615364,1.033134228372548,1.092623808045513,0.6509067234006624,1.5100954691018371,0.9125251946018859,0.7406102377525844,0.9417378924000459
136,0.43218082384628637,-0.015790522275521912,0.012808286673409663,1.0320719007273635,1.0202484221942252,0.7019959346354399,2.0709391912545168,0.7709994479747251,0.36945044719018694,0.2623546114840652,0.6528756675646988,1.0374231203556872,0.3159093897281614,0.17929869411048655,0.9402552676693523
137,0.6063665267045406,-0.08655241471293355,-0.029112149994823602,0.87505502303838,0.8546558059810992,0.6975289751472514,3.4353651750915857,2.6713837215441933,0.7406940851733059,0.38426932876618597,0.6619902821573977,1.4812401628735168,0.7275510508341679,0.334451013093279,0.9477329445970551
138,0.15094872738030468,-0.019682412975832814,0.008175158830636457,0.9477027083804235,0.9305856074994716,0.6347036355646125,1.6897487165013587,0.8736194265101604,0.18309121413474266,0.07557381336663165,0.6699045166045591,0.8244714867829961,0.17656047354624954,0.06857183930415739,0.9493821307493413
139,0.48134769986296444,-0.07692700458157833,-0.03871149166756038,0.9448125461723402,0.9234186487238679,0.6929402631552302,1.9485455945763541,1.0399131765219345,0.38403989311548636,0.17959350554026837,0.6403206450210053,0.966794864047923,0.3577147641310174,0.137706314502416,0.9453095419261036
140,0.5611417315104196,0.04025789715517153,-0.0028839085564826283,0.2700312213237379,0.26417369475970176,0.15562999565450963,0.9552694044647306,0.8490364192547021,0.46712281627680313,0.4929420378913389,0.6403206450210053,0.47647787535458386,0.3127887012257186,0.2547628343175155,0.9595885738242494
141,0.17126673632394868,-0.015829217985988506,-0.036984512995012715,0.8280526102039903,0.8155887159379128,0.5154277517711197,1.0736942143994783,0.6728339629076681,0.09365029508532216,0.049835709222031996,0.6547956803312163,0.4564251247055945,0.08652202672383237,0.04007090139758991,0.9362194862724215
142,0.8201293033848682,-0.004845537595973837,-0.18759974318304734,0.5379227524804734,0.5425555990180864,0.31832149690639805,1.5262849513644465,1.470516642353174,0.5108835055466036,0.40016459304943,0.6309483474627791,0.6934361111852676,0.4085150787483567,0.2928234719521996,0.9477938958474581
143,2.81284079478415,-1.0761446495955,-0.2034682275672816,1.6222099849374105,1.6058717028315201,0.8062713503231809,0.4545088227756749,0.8149461163134726,3.1528496128422767,2.610965965863377,0.6584896970785714,2.334534528300826,2.9202977263074716,2.4391606279997964,0.901286159808087
144,1.8900435241202203,-0.29639644127411,-0.2900470524949323,1.683596501216909,1.6468897819260133,0.9514542055765659,0.24810082179303194,0.4933105882106815,2.1669964854087707,1.9982772069717307,0.6380535849069913,2.1413169453979233,1.9424174377121617,1.82257235565759,0.8887601234613904
145,1.570905147273058,-0.17014212140263335,-0.27723270886177764,1.6118811920944287,1.5787454262315717,0.9248798055629817,0.1988304738667918,0.3895864108933087,2.2890963859146343,5.336590558420204,0.6380535849069913,2.1590621162418704,2.0510674789739407,4.712528704308591,0.8981408851651221
146,1.5499985899332673,-0.15788534837493334,-0.30264036593936333,1.6444858225757866,1.609991953282552,0.9251855753151368,0.25186017286889234,0.5061643660705678,2.458611740334077,2.6467321039022176,0.6284777104787076,1.984778035570345,2.2046100753386497,2.2277442516246713,0.9119572505722314
147,2.9944476321720863,-0.815933929075434,-0.4732001614548462,0.7094039634594137,0.7133402390420376,0.46497949159884444,0.2819722396817012,0.4887276402023726,2.118483178325922,3.636940494864528,0.6528756675646988,1.9752016536907129,1.8334628387502803,2.568462535478974,0.9290039768215289
148,3.4766942121257536,-1.232823074483345,-0.33362153470330463,1.6359786761425188,1.622756101678667,0.8926172176213776,0.33107037271121664,0.5627485760578157,2.578145072052927,5.031874489014934,0.6528756675646988,2.3978730508230583,2.4514940956770754,4.7664383335842135,0.9179468441920445
149,2.8504094156769773,-0.7393234552709675,-0.4027061724912709,1.5861769970837627,1.6143029247256413,0.9162809503073263,0.46477638657521136,0.7192731748354855,2.5287506501578774,5.22841111687368,0.6425374456860184,2.2507308448593606,2.323802371666841,5.2235938203521,0.9316145850465558
150,2.2753128293862757,-0.5212018298369441,-0.1204023084185387,1.562347003681557,1.5778794091048935,0.8962809059177865,0.6256136182668204,0.8797598510503832,3.0732046157315596,3.6439580675231746,0.6284777104787076,2.374439196762029,2.61313082440323,3.5296231702509777,0.9250021754588597
151,2.7028790088529657,-0.9228405265290518,-0.34416152385921345,0.44926784212436893,0.44790806728862015,0.4654187237225965,0.9228178558845652,1.3022571016830375,1.9578288843039586,6.271352097208163,0.6357360191111145,1.7787116303787969,1.781872336794817,5.449085709340418,0.9456443097054436
152,3.596581203965715,-1.2954975914248021,-0.2747592265510659,1.5234644319743815,1.510438877527946,0.8132484622617087,0.8829518574195764,1.2812189361125461,2.5859287831954973,3.011690123676011,0.5641709578113449,2.618514235791355,2.4469292947998955,2.152466676694726,0.9120097131395765
153,1.9425752520775212,-0.43682636809829845,-0.39229052171808376,0.4302804089984229,0.421461634510197,0.3317412973784678,0.6969831683868511,1.0070791425950936,1.199884035659109,1.9144231963022935,0.541134803179459,1.3119705392475223,1.0451880760050223,1.418005207458404,0.958046723462272
154,1.539473862677512,-0.32756422282146536,-0.35823390139383765,0.6450105559638607,0.6192754684256941,0.16367677433368855,0.6470083390868532,0.9257370738443457,1.3689787477730864,2.601496740044028,0.6038851895711802,1.2031213150939553,1.2151240681754953,1.7436644984484162,0.8803441081665756
155,2.3001725596794156,-0.4946938996311834,-0.35001762061539443,0.7107168508476062,0.7049061456663961,0.24435475212880903,0.7038399345367471,0.8743991185386856,1.9418120420768852,2.762205303052921,0.6425374456860184,1.5543711908307412,1.7394676725109148,2.666988714304436,0.9606108224526992
156,1.241627525148039,0.04925028950137866,-0.4719859062763945,0.27979550255740415,0.27444362436114095,0.1852711379461106,1.9084980517716668,1.926861629494401,0.9215827892523577,0.4037154394974566,0.6068309995095971,0.8118556442928296,0.8043271862677523,0.3228399796463645,0.9564206943246689
157,1.588827850203927,-0.22328694509400993,-0.2852134586090245,0.6586207145380504,0.6598933431626612,0.3006830192399836,0.5137610083224775,0.5695465867366498,1.4758190249969478,1.9984312121721681,0.6584896970785714,1.2853033779800072,1.2885073479140001,1.6682607483575491,0.9458827325801437
158,1.0878040980173236,-0.08638287283816162,-0.10125871393379174,1.4431276853954658,1.4215676897333442,0.8735269662119998,1.4995547886478386,1.7724900149190446,2.254032926630207,,0.6468212168108125,2.117766656001504,2.1709720442488205,4.720930976263707,0.939554988536926
159,0.4342858627917638,-0.030474918692289125,-0.034530035640282314,1.495434471821072,1.4532805895569492,0.9243365340987034,2.3340394058586775,1.6465966686040727,2.097138676450808,1.8363886642304283,0.6547956803312163,2.018241921807779,1.8799877614880307,1.8533434551967392,0.9187884948972113
160,0.418514777452817,-0.06028857449964088,-0.0010596394031741165,1.5372012782561655,1.516234655895833,0.9370420376245266,3.6107595140726403,2.979604759283966,2.9701477633411564,,0.5947193981915972,2.0371486294895846,2.1190713364506037,1.5643696270323941,0.9171345130954403
161,0.12766602866488266,-0.014894370010902979,0.0,1.625673718370769,1.6115912975827758,0.9451221359542366,3.168899297917707,7.357610186686257,3.5192891762319616,,0.6309483474627791,2.181154397158725,3.5259669787629906,inf,0.9131965079086769
162,0.07176816756516034,-0.009808316233905247,0.0,1.6062161369975725,1.5879221125675582,0.9485840092884699,3.7571706471860886,4.213658730290425,4.315554876374326,,0.6309483474627791,2.0290864650587395,3.6780349108629764,inf,0.9206923442017289
163,0.3498627627766408,-0.004108081038053955,-0.0472051241691867,1.4401683707538466,1.4077319192140825,0.8251511280942908,3.765496221526859,8.493823746160686,2.9871295426133773,,0.6425374456860184,2.0201668502173638,2.710314637847903,inf,0.9095125513667649
164,1.1769020146388924,-0.12149328797487069,-0.20618549166057387,0.8332861833216731,0.8323503525815827,0.586821698908991,1.9000981144663491,1.7319486192146343,0.7457986167789238,0.6772991336556204,0.6207552362147116,0.9415515614247667,0.5118327210359893,0.3686969466536881,0.9498087251405624
165,3.3917537786700236,-1.2321320677866878,-0.21501621111252234,1.2596052455543585,1.2764504986878191,0.6008108583329865,1.0850020646967304,1.530494702450773,2.356364383267545,,0.648888643467878,2.2277868829188594,2.2444076203784324,inf,0.914073479988917
166,3.6152754457322818,-1.348801899565538,-0.21615141339056287,1.1345352493941452,1.1443299273233964,0.6633940527834015,1.3764210452567929,1.9791092193162894,2.802539874676034,6.249049867982803,0.6333676938231112,2.3425972303519718,2.6547928369942633,4.800736969532067,0.9590400275987456
167,0.07419854650150175,0.04111878656547574,0.017281180182984482,0.3688815704239162,0.34015408576397377,0.2905652327121684,1.5204070527035267,1.7886908490699185,0.17864147085635088,0.27436114756783864,0.6097226960127671,0.2367495838875645,0.09002757997860912,0.060487907598039466,0.9241191669923382
168,0.11406158776717852,-0.00587904464543397,0.034392570166843384,0.16921395908888537,0.16934311797536075,0.08740698226566099,0.5016888386291232,0.47883815378991,0.045891109397898276,0.05668753905880025,0.6468212168108125,0.1109439754336303,0.03161855158697609,0.027448450196264972,0.9235595498551762
169,2.6344574064930697,-1.1152358392128292,-0.1923908949744127,1.317806083653612,1.3098296730232617,0.5913513516606256,0.5991220332294465,0.5871293446677663,2.386793813542727,3.5356606921920384,0.62595550513784,2.037745262790897,2.1443382137392106,2.7711341765287867,0.951632080719057
170,1.4124087257102589,-0.23695374116849108,-0.10912588526033504,1.323806242545954,1.3055573096303683,0.7896219750681107,0.698844208186923,0.680091728991313,2.151471838800558,2.4772697077990498,0.6284777104787076,2.276809056679062,1.9506860183305441,1.9926840684620413,0.9223486010165174
171,0.059420966505178946,0.020227614553732357,-0.017674419780985856,0.23489795569407362,0.1963423821124755,0.13443509229110168,0.7875294329036753,0.6820027445472276,0.03851169850006229,0.01236912878376692,0.6547956803312163,0.09338314883284826,0.036295358236601905,0.015771246948653537,0.9381031558092647
172,2.301558491784962,-0.5961886401734868,-0.41702612784672854,0.6797591490895795,0.6757320965132023,0.6473122646609487,0.219976883340612,0.26192904815522605,2.2440343979139543,2.314403966990719,0.6509067234006624,2.162919773644229,2.048707949192604,1.9810014688665833,0.9483601486570211
173,0.5965960306479751,0.1329070736308301,0.09443989372101635,0.3225158348214933,0.2909458900455724,0.245450480994297,0.42963124046128787,0.41275076352657714,0.45967009097831424,0.5668153630076024,0.6309483474627791,0.47785660552992293,0.3485934223444428,0.38342907322233083,0.9563860852056614
174,1.447120071323457,-0.28061249956727796,-0.2666874406021959,0.8840758988323355,0.8572199004775696,0.677689694543941,1.9730965984679996,1.168017076792026,0.8820578647925648,0.48710256504903005,0.680118107274185,1.3706835136057431,0.7367003597306868,0.3716732516626788,0.95311088872724
175,1.2592547957212004,-0.0693142738776461,-0.2886122923928782,0.5709229592356019,0.5445947874701826,0.6327728207355547,1.9443264063754642,1.89310189861545,1.271648036010002,1.3342639398500227,0.6309483474627791,1.4487373017431096,1.03696966821566,0.8271743306548182,0.9534984636352014
176,2.063731999208655,0.5458991435916127,-1.1869129165407348,1.61381061012478,1.5821231327481144,0.701525881306354,1.08174926590934,1.4458182314056944,1.7471709249735499,2.043633283751201,0.6008849035917525,1.8830709876786462,1.5254867483898018,1.8107430901613646,0.8948685012550546
177,1.8994266503585473,-0.19511069981692986,-0.2639136774013391,0.6632154098000554,0.6541465691586458,0.5622820239315274,0.9186214741266093,0.9716087462544698,1.4574925789610085,1.2842664881203392,0.6038851895711802,1.3890982884526248,1.2059208906875392,1.0046291412458295,0.9397782927076143
178,1.8835143473359328,0.15961509616099723,-0.6375582103956838,1.487723655726549,1.4914420290006396,0.4826921425674322,0.5392996695994612,0.829658647099923,1.5157675156070678,1.624142888983532,0.6207552362147116,1.6235931827778372,1.3076005696385826,1.3335437957343617,0.9190601453825463
179,2.7592591486300773,-0.5673639850838761,-0.3978850111251919,1.6345286101133265,1.6294315583162926,0.8235718540372339,0.3332682353269504,0.5665034632701071,3.9776303587869526,2.9225870003752745,0.6333676938231112,2.548059464793269,3.700450185304604,2.6741486494265287,0.9010329161962037
180,2.1255368549996847,-0.4951675265347443,-0.3461764481051508,1.6631171152048907,1.6517965152898,0.8761998395398418,0.3664367460199761,0.5294698940692226,2.6915119307136837,4.097319653974955,0.6468212168108125,2.12044873853417,2.4649188201577417,3.0845277723371223,0.9205592406161546
181,1.2848606105589642,-0.1920477938762884,-0.21193204170466348,0.49937525216975315,0.464771980504406,0.3006593497814454,0.493716081106396,0.6033691723996085,1.7398595913819113,2.564497428954912,0.6097226960127671,1.491407993675611,1.4856115709462256,1.7854544151849214,0.9331279093155737
182,0.27990113327507443,-0.09875104600182294,0.035601522011514425,0.38763381672966285,0.38384329140111423,0.2862176013189978,0.8264023164512208,0.94110182955344,0.2265384395564417,0.28921131285667984,0.6357360191111145,0.29026317841948085,0.11036365304843425,0.09503654455839795,0.9286590883867378
183,0.8585679189204297,0.047059313441478734,-0.10894180845278123,0.21264162803939587,0.21397442300195077,0.16517847975056923,1.445073433682362,0.8687023025342893,0.5294015058091462,0.2992233825989985,0.6233814453054027,0.6571367430369123,0.4528398757102472,0.31459667691651555,0.9480363262878694
184,1.86446030814937,-0.33053617709324623,-0.14887133168175043,0.7381249220592108,0.7294443100219515,0.6198394804106588,2.1406159393818265,1.755356207652211,1.7183153092468069,1.9876123444166234,0.6333676938231112,1.7324219498825477,1.561117557073098,1.436941981109621,0.9524206521713495
185,0.8598850955744611,-0.13458141307582822,-0.03166303873523428,1.1034791364476122,1.0993276667009884,0.7126684454030854,1.876013679658704,2.3240773478923566,2.17005735869325,,0.6008849035917525,1.9809042513701351,2.088422547876678,inf,0.9419860090923983
186,1.4526070527851351,-0.23975294051163723,-0.126309942983224,0.7520674886063993,0.7213741168382617,0.3839096540655716,1.924392781508636,2.5978680975039925,1.7899380097095947,5.405351639907856,0.6333676938231112,1.8010020505949875,1.5879374336716658,2.3626336542258963,0.8922651671404841
187,3.069901035394687,-1.107867514896108,-0.3069012110113409,0.6633365164500385,0.665255978957424,0.5952521574634199,2.754302995139298,2.0223834849049216,1.6435796571887624,1.7259653642812693,0.6180765742263259,1.6650680828683997,1.3445377629514632,1.5989032414337432,0.9722057537623118
188,0.5222523723579998,-0.06765680444515433,-0.014366599270195214,1.3369270237897133,1.3450643938227231,0.869455066183261,2.992009732944665,2.221593831796433,2.993859732206607,,0.6180765742263259,1.8044395223854295,2.2786354475784405,1.421856645947166,0.9214249928625081
189,0.40245195731045896,-0.012485883375616534,-0.04788191022095231,0.9222274274841171,0.9125687318695932,0.7042232191827908,2.8589804078792183,2.350665233180067,2.079015061861356,2.272743390661787,0.6584896970785714,2.01199059909523,1.913455426665057,1.785025437046711,0.9373819494953041
190,0.331886964974221,-0.04283912404507951,-0.0014124712848166195,1.0253927666570217,1.005316333897814,0.6709951173341293,3.1564888242859226,3.7768898232445056,2.4520626485426527,,0.6528756675646988,2.149768636179924,2.2611148249559396,inf,0.9441173594703873
191,0.33894709949490537,-0.0286856023045634,-0.011312429378851348,1.1343842466554253,1.1312882823247106,0.7717856598858082,2.8793308323740554,2.717753789924993,1.6840014991705379,2.788634032458188,0.6684167106117298,1.8278012405753206,1.5660895659043967,1.5871856853749942,0.9437168722516014
192,0.24633985376514,-0.019568887673177965,-0.0030537228019106785,1.5691293155433688,1.5292954738785376,0.9345875493454584,3.1129346180446595,3.2439973016100945,2.366614091942607,,0.6447042257417027,1.9466993492807925,2.3085967439990704,6.459121675472594,0.94054158656716
193,1.8067528268677788,-0.3249263857427441,-0.18109154397477994,0.6302996521147198,0.6300427885966627,0.5148998004172348,3.0610412737123966,3.531593639963255,1.6828665463469825,1.5272301861553912,0.6068309995095971,1.5235150906687491,1.4200464957415346,1.3873495474581674,0.9677703803637808
194,4.398047424177065,-1.854906687211645,-0.2708162344739366,1.7296080274817949,1.7505036774389031,0.6629277350368016,1.4973974562653605,2.761879147198182,4.745654413748643,,0.6309483474627791,2.7840317221248383,3.9507043927256578,inf,0.9088335346117822
195,3.758527874482407,-1.4285194822385605,-0.2562287241492623,1.7563818195706804,1.7553827086910434,0.6466636411906911,1.6388571943977546,2.860300012078633,6.2374890981327065,,0.6584896970785714,2.5243407190334075,5.887491956725004,2.995732273553991,0.9221113346792611
196,2.5885755217861246,-0.6994186108781127,-0.4497606342217084,0.5814812319692471,0.5875178861118828,0.46200301328728993,1.2692504916731036,1.1344324593448152,1.7808118290623176,1.94922006887985,0.6357360191111145,1.609715728799271,1.4109925308248972,1.0479685558493548,0.9606105498852818
197,3.2239764692569253,-1.126571864029525,-0.3008830953567448,1.5117960556373533,1.5091009129310196,0.6959072777564522,1.0185948644234704,1.1369614951493048,3.2205781116461605,5.895933159630802,0.6425374456860184,2.2776757017338465,3.0453898345033843,4.138589264019858,0.9544520881193003
198,2.8847811577458566,-1.098955109417233,-0.16701553510880635,1.494361872900296,1.4880987126601635,0.6657679364601283,1.0106682318673061,1.357478750354805,2.3101177682532326,5.377794889018525,0.648888643467878,2.096836403304951,2.070795954686982,4.244200317766478,0.9624392616372972
199,1.986149680900587,-0.29887166300849166,-0.13742864424285473,1.5132008038936076,1.5001925421474878,0.9207910017166937,0.8934293623498423,1.2468026894370974,2.798343841853412,4.943831196255986,0.6153451465759925,2.2657175737815196,2.4325430352725834,4.07024701064304,0.9380009277780443
200,1.5856972173547326,-0.4537311252525758,-0.06691109194515714,0.7939438956342286,0.7383199322166238,0.4404552673442087,0.911600134768854,1.4613836853786724,1.4949747771361517,1.657927924678436,0.6097226960127671,1.6732063597842455,1.3020699052023632,1.267568305553936,0.9670361226037887
201,2.814950959813767,-1.0380020909423169,-0.4263625576261877,0.29333321208856106,0.29602423392046284,0.3440584924938879,0.5480088795021475,0.9747629996023228,1.7861434257774835,2.9022568224289396,0.6602640781246099,1.6688341223907568,1.5191353727445653,1.8669660578575136,0.9537152388754856
202,1.9624997752785742,-0.25118199817511677,-0.3872578707797967,0.3347837836896255,0.33213862782309084,0.205104516023819,0.5356652833722398,0.8569162646256946,1.4227521330697332,1.5420694477713506,0.6566669596287297,1.386205476181385,1.1629908368229989,1.121188558473388,0.9599920635509381
203,2.3478324191571254,-0.48388916079475175,-0.516262430366698,0.47025060352967,0.4659648793925184,0.41258946932149637,0.7709733915411304,0.8689592618913418,1.5210238771436306,1.7413167933408022,0.663668482632973,1.6365807465893678,1.2879684631083834,1.279610218531556,0.9457588325735098
204,2.720189078021234,-0.5683169215343226,-0.7862528390813868,0.6689763230275055,0.674935172222314,0.448093971986699,1.117688591298915,1.7824102468718666,2.4354019909636007,2.269031854878862,0.6284777104787076,1.9275791923705898,2.1972245773362196,2.0787544925287977,0.9396778899282305
205,3.35684348235524,-1.2480154300817126,-0.34668622860458337,1.6313830901292745,1.6277747324237164,0.5078619137627006,0.7057427807267707,1.168788433955485,2.55018525749915,1.5440890115820285,0.581717464821069,2.2373176709026636,2.239752512458112,1.3469984571699274,0.9214747000837616
206,3.4245648023206425,-0.8921052205653743,-0.07818814009214105,1.6948422821993556,1.6841311159822754,0.8834508819109109,0.6754387635625092,1.1867422154348906,5.579129310282986,,0.6566669596287297,2.563661298476905,4.972702639927606,inf,0.8865903763539725
207,0.02584866192936114,0.024475070125489665,0.012671850527417532,0.19509921375953443,0.12831122982074564,0.11249303071565254,0.6328976848552625,0.9719062512732546,0.050124381901864565,0.11101634693656005,0.6233814453054027,0.07448411126123584,0.028730560219751112,0.025035453525240496,0.9795049136061627
208,1.8896526072684428,-0.40019725466854017,-0.2559080501332831,0.16744580799690306,0.16866515225332018,0.2218785528976319,1.2405926859714318,1.3088289639893327,2.0496255007751136,2.244591624835931,0.6207552362147116,1.7339938323779125,1.6376447470426982,1.5981747201553895,0.9761513448358102
209,1.0975031484768216,-0.1663042543084871,-0.05270681646719615,1.099499958115811,1.0942685903464855,0.740624035059583,1.0016353673490965,1.1801642465874056,1.9690439129484403,4.0537428367758555,0.6008849035917525,2.0391957131113094,1.8124641425897463,2.873773866487127,0.9329317372559242
210,0.8079064889755333,-0.2705572365067712,-0.05077349184350555,0.7746999779654179,0.7778643622132104,0.5354248668725091,1.9571991925117718,1.2315143120004923,0.3263227465265296,0.3356624470523195,0.62595550513784,0.6912157137101981,0.2367259609048185,0.15601191304443374,0.9576766542678822
211,2.6607512834753453,-0.44203110149024494,-0.25910630846868365,1.2134863402911167,1.2055003985907675,0.8030555741545551,3.4461133010279577,3.7699861847652882,1.638877677618546,5.684925370615006,0.6684167106117298,1.9909423830974213,1.584211639027061,2.108825825235539,0.9579405945894975
212,2.3154849949411167,-0.44563326042044815,-0.04088858269095892,1.2981604163243234,1.318903512173661,0.7686119578946243,4.587159483488172,6.177293274384059,1.5880670583965213,1.8210586833178148,0.648888643467878,2.3117379641249802,1.456184697329409,1.952666931518193,0.9660209121498053
213,0.8530252428079603,-0.06798229014071872,-0.043157132729714234,1.2452132925336101,1.2273125801247022,0.8050779169297532,4.15275360824141,5.286487174967292,2.1364996766886155,1.4186519146005279,0.6447042257417027,2.1520600253818456,2.055080030985599,1.5033314064395527,0.9271105169593451
214,1.369718745903898,-0.3339875497290786,-0.18598184560200476,0.5741721585923727,0.5540321542960939,0.4614339594832757,2.5523597472142825,1.3981903535545541,0.6545277422407103,0.315567478330997,0.6180765742263259,1.2963724091512556,0.6087050787740244,0.25948630717139104,0.9278917990460481
215,0.4613665117653225,0.026633420520920992,0.0031351853604787983,0.29685989721468664,0.28915328598315737,0.3284081815279758,0.6648199169428335,0.5560952015983024,0.21881431848992336,0.29461163034480575,0.6068309995095971,0.4945695831909852,0.13310201541004868,0.1048403054811881,0.9197537492213801
216,1.9640003918879756,-0.5730963565188143,-0.12383046228107164,1.5724821645585605,1.5410626716036204,0.8444690831146354,0.4242593947929859,0.5186806488419414,2.795913170012551,3.6025271213957533,0.6509067234006624,2.223157959362724,2.605155777939577,2.4521168269650095,0.9275196588450845
217,1.3789872798274103,-0.015849899483847407,-0.19664210694550588,0.3254829957685335,0.3076446704586389,0.4502869374895012,0.2972806126297068,0.31568063901124116,1.2416813813849072,1.370747583209033,0.6125606311107803,1.2615234519422411,1.0610376167052762,1.0140977918770673,0.9587977057395091
218,1.0127091350737807,0.30689543602128,0.05707449116703689,0.13766330170126675,0.13803739302855472,0.15243201886428615,0.13060636329466185,0.13109869324045953,1.0599660684743992,1.237561860012413,0.6207552362147116,1.0889590316399713,0.8506819210685,0.8594286467809074,0.9705375936776767
219,1.7779797052635076,0.22179927843790948,-0.3496919625936412,0.8365844829383429,0.8378714480597053,0.5383036961460709,0.07852096815536985,0.09862659638767945,1.8533849478359907,1.759995326794275,0.6008849035917525,2.067073892871174,1.6374833739619918,1.4040584356232935,0.9236521694249448
220,1.9017047444021242,0.05862102813505632,-0.4522931408811758,0.40768188553235435,0.3896860846976761,0.3029120942805316,0.07192535206534152,0.09384452229718755,2.0574740346677243,2.2492992199864767,0.6125606311107803,2.1106799759360335,1.831229663242312,1.7854827011169891,0.9641461238720473
221,1.2406488239151414,-0.10499890366032616,-0.14302915807761463,0.5917598466220986,0.5872504968791272,0.37502182095654524,0.3890384920386689,0.27412096238844,0.8392810578307665,0.7700027446049,0.6333676938231112,0.9637609342432522,0.663671241563127,0.5114291582329253,0.9500588826347035
222,0.7629286855359056,-0.2053366439553576,-0.12655506152472318,0.4436422811594401,0.44238187863162626,0.38716566630719285,0.813898695449156,0.5366192120661055,0.2460859581356632,0.23367641890084934,0.6284777104787076,0.5661230252660927,0.1690505785509898,0.10405321155436002,0.9470017028015729
223,1.6922047122092243,-0.031162443246474103,-0.42503581782304656,0.21919314046826835,0.22017405703466697,0.2946873776575052,0.33344373181796105,0.352534064800017,1.329822201149987,1.385980275815852,0.648888643467878,1.2300506351474945,1.1154419588578277,1.1236268041422917,0.9717732857063821
224,0.06880894456009867,-0.021919325560482726,0.008207744897957815,0.29997797586387004,0.2300840155297095,0.15419946783624908,0.2346225300508479,0.1600774142267174,0.011781431732394789,0.00858639405191868,0.5883313578629602,0.10231577287901485,0.01701846527010504,0.013257913160971737,0.9508844613160701
225,2.042544035605546,-0.5570887786661975,-0.309248650484678,0.744076963818376,0.7446755306119048,0.6030196547312198,2.43735298431204,0.5799098453554832,0.949065130925163,0.3105838036983639,0.648888643467878,1.3500695842969264,0.8189563386806141,0.30751581047883203,0.9728994019245804
226,1.4741374480803922,-0.3001697906588713,-0.1580316843092222,0.9704449558177504,0.9543470821776026,0.6369503804967914,2.6516222754850087,1.995012355813937,1.0709691560404122,0.7508618144282246,0.6357360191111145,1.4755385319698533,0.8983038992436426,0.5279948047919468,0.9278318633895193
227,0.7226564370835111,-0.04357534250064865,0.02655209224859245,0.5413822376813976,0.5185977032999226,0.44057718066459023,1.9570348473530137,1.4991109736281192,0.6146919711521527,0.5837178505985205,0.6509067234006624,0.8121559671421474,0.4516454795796159,0.31526892909594073,0.9478021816269839
228,1.7279894095758566,-0.28847961378593034,-0.35270565219401406,1.1024415863812624,1.0927199795928213,0.7993696950731279,3.206721137496165,2.8837773107405167,1.8279887399922143,1.7613895513715865,0.6602640781246099,1.8158472647571449,1.6018183096123177,1.3846014539947376,0.9384443883929974
229,2.482686462451229,-0.22211068509104215,-0.4832914454425805,0.7187225395984095,0.6697812410359445,0.6969286207800146,2.146121666595509,2.0636372254900808,1.8524972507907285,1.2407577424951108,0.6284777104787076,2.52018846393264,1.6691996469763546,1.013619075834717,0.9342327251836535
230,2.165329551362593,-0.1590821049340443,-0.5443235193348589,0.928137861625887,0.9244144373476446,0.723267811654719,2.211761219454676,2.158560045025157,1.814934629846707,1.9124577898133164,0.6447042257417027,2.4518587957418,1.5612130463515643,1.3377090939904133,0.9419942382833572
231,2.243648232686809,-0.26383520112854075,-0.677553530581023,1.1246067043023045,1.1165305392032512,0.7195395860642284,2.2504803341364705,2.4769285520847437,2.384174006635581,3.5841988719831686,0.6547956803312163,2.7177638932898494,2.1105498440124517,2.5188082014636817,0.9487318471786482
232,2.56359093160815,-0.4992427156990906,-0.6297309888674252,1.2861393498976903,1.2662809706092666,0.8301524476736957,2.529542453231026,2.563904824344978,2.6825882226669755,2.320577531813853,0.6584896970785714,2.80750228007387,2.4537334115696345,2.035455393495586,0.9498287355250715
233,3.1152452687493986,-0.4499273078447992,-1.1314532389819676,1.1008451117532114,1.0997708729937905,0.8471935444947456,2.4913108000065325,2.4827046321583013,2.618228347537986,2.769172623670407,0.6357360191111145,3.062347022635975,2.3663321617753055,2.265313698196814,0.9500047434142338
234,2.1781132444822164,-0.0992752731485338,-0.3680654920878883,0.8562477383286118,0.8274308595434169,0.8506021970395812,2.57805055506427,2.314672992374362,1.4618322028284596,0.8236768091283025,0.62595550513784,2.3129721858805325,1.3063812055847934,0.6973017357670925,0.9419530930289596
235,1.699013158819731,0.13945510502023994,-0.3310460791714409,1.118389697236352,1.0849945375855565,0.8284676350352114,2.1917678771008573,2.078796128381609,1.1999320093069845,0.9667091463795049,0.6403206450210053,1.8045745662748989,1.032066869200298,0.7247246983397797,0.9456887783626603
236,1.3998718734258608,0.09994295438387324,-0.23026712780519398,1.1518991980540232,1.144413816455609,0.6407187154237417,1.5262651801533984,1.6190801231425709,1.1040261454315916,1.0800852230064186,0.6233814453054027,1.561335815616556,0.8745267339925218,0.795592057465983,0.9514761177737836
237,1.7889792280284738,-0.37338017107991006,-0.5391398852346253,0.9288658865759035,0.9046284418639786,0.6405822282232654,1.9171502325050345,2.287248570789882,1.7966177912149561,2.925353423926691,0.6447042257417027,1.851934192264125,1.626864435421582,2.5396945918101945,0.95021101708288
238,1.8259429984214486,-0.622824863449164,-0.2749349363398365,0.7846592129102564,0.768040096046602,0.560156201946725,1.847707676964044,1.3091356729842827,1.8698547682583542,2.065230840005009,0.6447042257417027,1.81012712658624,1.6201558359710122,1.4700042743701383,0.9425992840839985
239,1.8627008261593971,-0.5714757410802079,-0.33833484717381845,0.9337886514534927,0.9351113074428782,0.5817723506525945,1.630571895956039,1.3377139560059605,1.9251108400863648,2.5921302223357503,0.6584896970785714,2.0486321732863924,1.6545716081156974,1.5284938978045512,0.9505064867955343
240,1.9612843302827079,-0.7141260484006198,-0.27439451182062297,1.488362672459911,1.4829424457908726,0.7069556389934445,1.5970787988769826,1.2262627939238,2.9430951691583873,3.6661422814335554,0.6207552362147116,2.387054249620496,2.6403881627921413,2.9143866341000386,0.933370580041066
241,1.8010144866962416,-0.5813053983373042,-0.17758038751711863,1.0629812475214417,1.0491382895596388,0.6227653452160089,1.4499627276909954,0.9946442394517676,2.1291018255069716,3.434652313424143,0.5978297680564633,1.959231823171804,1.898197783652169,2.630154416660304,0.9376941760064686
242,1.8078263579520877,-0.522427029303014,-0.1846900357659016,1.116964179409669,1.1185598761643822,0.5723922065772346,1.2920682577983482,0.7715622336294616,1.8771854571556845,2.7316277368651165,0.6425374456860184,1.5924169280997975,1.6514918450441725,1.669902336316746,0.9306010249120735
243,1.0459251707778827,0.05548974330971945,-0.08948078273856575,0.7958930294117432,0.795410191034561,0.5215527350805712,0.7979118456002421,0.594272875935174,1.0523316594628662,1.2608099372651758,0.6068309995095971,1.0246186087597835,0.8417925701640514,0.6910661636990009,0.9535550123058848
244,1.3528644381080273,-0.04475126821242115,-0.1433109042696603,0.9081867607876594,0.8851322166822203,0.6819375361316414,1.0417794931402564,0.8441516311240445,1.0044016795116326,0.9201799612326422,0.6528756675646988,1.4065424209397421,0.8245492259080546,0.6252652324610904,0.9488144509254735
245,1.6571262853435478,-0.4162071981443344,-0.38064954679955026,0.7329187490349628,0.7297661291118196,0.5263836365410829,1.2499652301527464,1.2207703355607116,1.9340894981747587,2.599932345761527,0.585052858160615,1.8495298349782674,1.7153636393546776,1.9455176073427163,0.950544719909199
246,1.6868703896810608,-0.39830998439416576,-0.4821412380147411,0.8921530229407407,0.8507613753215557,0.6547666349333299,0.9667132517932728,1.0637829177307538,2.0724721514517417,3.5903205841194175,0.6333676938231112,1.8812466357295912,1.791759469228055,3.0901679452133832,0.9478262544056457
247,0.8256746433739227,0.025032623846180768,-0.08302748827298845,0.3899056461795566,0.3544840735218857,0.31037834855115404,1.5844016693575633,1.329604194517516,0.5899160323048228,0.43018652525990814,0.62595550513784,0.9215824863199237,0.4634238158153356,0.31035267280648055,0.8926022235818615
248,1.8805853385777225,-0.3438212861293002,-0.40583513520707404,0.6218082024829037,0.6133317287588322,0.4803350084457518,2.0818110753047447,1.9594296407455554,2.041821167439751,1.6672762598011075,0.6153451465759925,2.0866675867715756,1.797416049967329,1.3835967603472423,0.9151983160764742
249,2.3235375685718793,0.056367666187411736,-0.17881573675792906,0.4243602536946263,0.393414746029309,0.5311483820454697,1.612587728942406,1.538702332078527,1.6691446125432168,1.279388322280165,0.6447042257417027,2.3818688294998194,1.3966922301596256,0.8133638995786258,0.9568839834837032
250,1.9364160765361007,-0.2547241114253673,-0.3328643404700208,0.40811423889019377,0.3970422764773168,0.6988895585202131,1.7395538226653073,1.6623704726143704,1.507919421547535,1.5106727654869547,0.6509067234006624,2.1160133219113963,1.284850781960639,1.0463531163390594,0.9291937990061101
251,2.54832384946208,-0.12147037779484293,-0.34012078007266644,0.7807094154915464,0.7511732186576852,0.8019950164853805,1.4260329352667145,1.3660992585938525,1.8730412221611068,1.388389318802154,0.6333676938231112,2.487309534404311,1.5951064569525162,0.829883402018567,0.9439762570607111
252,1.107250012044482,0.04632768276123078,-0.019207793101704618,0.6091669329269639,0.5755384378201006,0.5451390955555759,1.6306121682721455,1.1363210461679805,0.7377568380937294,0.5063319535838836,0.6668815377411301,1.2016421889876536,0.5621779115511598,0.3251780717265347,0.9165658665091252
253,1.3061287913704207,-0.3214621621394297,-0.09835461757258535,0.9718742368796197,0.9575440262636462,0.7306293239186504,1.9446043146795078,1.6724650940460801,0.618756916448009,0.5794571628688653,0.6309483474627791,1.3676252736407741,0.49462819320049956,0.3321750231929445,0.9222731359918195
254,0.9054039785865398,-0.09453360943029376,-0.09434181625724047,0.3224982526351572,0.31040172252129344,0.3461248216976894,1.4465682201680155,1.303354532816053,0.45127195910582824,0.45210258359107924,0.62595550513784,0.8365557638553016,0.36033109408114866,0.3164835857514165,0.9428002135276484
255,0.771088303521745,-0.08829415833794291,-0.04235463115618043,0.9325033042898578,0.8811933929751825,0.6439192603266065,2.1490528836305596,1.5011611734697698,0.5184416221725765,0.3194277915634778,0.6380535849069913,0.9226721610620765,0.4036775479304703,0.22676038136103854,0.9365913416984265
256,1.2788802123266925,0.10224172743233872,-0.20875370004885363,0.5545873567331129,0.54414873259801,0.435582443418433,1.905849135941023,1.7107839337215403,1.3213946597903692,1.387706924521485,0.6333676938231112,1.2537857135430521,1.0908953332610425,0.9873012658365878,0.9328619512046575
257,1.3360442828406878,-0.06131989256095016,-0.4332788639766835,0.5861642401726423,0.5889579537823152,0.3409834631922341,1.4788336037151117,1.593951943017051,1.5455763953003032,1.3150556662117556,0.6425374456860184,1.516048768557494,1.359631440595681,0.9733679971135827,0.9542329237579533
258,1.4093134090498287,-0.23669075548445928,-0.23262954417870346,0.6401020206454876,0.6273758238898801,0.5575259168454216,2.000154709832213,1.7265720888963683,1.0749191875989608,0.8624617350359726,0.6528756675646988,1.3311750618988112,0.8955813180434461,0.7075672654830903,0.9361108856734363
259,1.0861543378017746,0.12050049396875573,0.15200340928537992,0.35536628107267804,0.3473816596625252,0.4914334858370463,0.7033952323605056,0.598940140785472,0.472917998652055,0.5732444319791992,0.6068309995095971,0.9776934340944309,0.34181493334740937,0.3500334690619657,0.966681205795817
260,1.6799469854306845,-0.13611350177122372,-0.368990916650332,0.3015857801954124,0.2999216543500365,0.3948453379682676,0.3449099831293062,0.3923720299890198,1.765726880993448,2.107227543980441,0.648888643467878,1.532271131147056,1.5398623402845493,1.7451304296841108,0.9482830424790065
261,2.2405116359903903,-0.15949965691755041,-0.7206115265335775,0.6069328473018116,0.6067736994965419,0.47439854795470726,0.24404094075442334,0.30127445362884364,2.2888219146053888,2.4769236022045473,0.6509067234006624,2.4540541863052354,2.059854408404531,2.0733747889975986,0.9393949798708474
262,1.5351914876727606,-0.33783771303252363,-0.2307321603516741,0.9169113897148906,0.9043047787686945,0.5656303566499223,1.1342663638022497,0.7388221413346487,0.6873397421861764,0.7477571705535533,0.6447042257417027,1.064694070464649,0.5210815702961303,0.44992550241876855,0.9569242300049681
263,2.226796463404898,-0.15793917838292804,-0.6190042541004022,1.289164373272282,1.270938967016829,0.7934561432743802,2.159420478381233,1.9137893275369557,2.2519258074696777,2.2828977236966703,0.6380535849069913,2.3267639486912044,2.003302947051966,1.8517513798560303,0.9407592018708224
264,2.4975290594472224,-0.11254581388007323,-0.8050709352484451,0.7693137373865736,0.7509652292635077,0.6762843352547661,1.6693606661052591,1.6224297693655252,2.4201787704065407,2.8538186209759195,0.6309483474627791,2.5938290570121874,2.157009368121823,2.113431741908388,0.9515408743864344
265,2.376881123176541,-0.18888891676360675,-0.8336052442474463,1.1541143703619494,1.1446908616385087,0.6239938926728706,1.7294086939432678,1.6557040029139432,2.6162469718154697,2.969193757563763,0.6284777104787076,2.4765417334563726,2.3489980769632033,2.471151274719515,0.9489740965247232
266,1.4833626587306183,-0.27451399017015,-0.3502751285114057,1.0986719319828961,1.0950936399342597,0.549641381173549,1.4819579090981287,1.439311602353475,1.785595484743343,2.191405849193461,0.6566669596287297,1.8877565515625814,1.5968224390386252,1.742969305058623,0.9472437874646159
267,1.7890356186551566,-0.5096439222670484,-0.37585339207476154,0.8519430168410003,0.8438297450531456,0.6757901797106907,1.5654930896009873,1.4456503035212216,1.9022880068028392,1.9898537081035041,0.6425374456860184,1.968655769376945,1.6947725523074668,1.6573619007156832,0.9452729385859774
268,1.3057576357135923,-0.10824038980809769,-0.2594137473109266,0.28906852050966375,0.25821293079257385,0.5217872689518678,1.3257219740258195,1.1492036558973142,1.2242581808543056,1.218808497078492,0.6097226960127671,1.4201039630000953,1.005276707473878,0.8331604107866588,0.9571386548346946
269,1.348796599559315,-0.22442897223000036,-0.2002118036312996,0.6242677514423774,0.6022834694045038,0.5445562880234684,1.6766130917798645,1.3164489710362772,1.0582767115231848,0.7010006000932347,0.6468212168108125,1.562130328224891,0.9023203129957269,0.5073481153712758,0.9489130290023597
270,1.4293082517271478,-0.0857890285944658,-0.3072411291232672,0.9273030866469537,0.9256199071474844,0.5190301618814835,1.50397467084412,1.342331234368065,1.5308279617129703,1.913939127783222,0.6068309995095971,1.5132695151451894,1.2858000843441895,1.2490277115674024,0.9533253323362706
271,1.9673779403127825,-0.4323363763901603,-0.41526598760950373,0.8033916511460936,0.7827641486671307,0.6724392458962756,1.3586636136511947,1.1355339084490712,1.9824727219088207,2.124927121079842,0.5978297680564633,1.875141078167106,1.7450418446605953,1.6346493317805963,0.9439099799951095
272,0.7903471079041341,0.055089469943940594,0.06398808645317566,0.26372692200671044,0.23128566812905468,0.22728087661296145,1.1333640823455606,0.8312471599449918,0.568857752690295,0.5309258663975371,0.6380535849069913,0.7435987240560435,0.44020841067529803,0.3161786441416789,0.9245605623318053
273,0.8601817785369474,-0.2326418474411246,-0.0854429258666286,0.7856638204520972,0.7906360388185096,0.5061786360525726,1.5961643922211457,0.9137945274800829,0.3314244263011145,0.21644337754364584,0.6153451465759925,0.6437645993115759,0.27731536040574045,0.15756631630991572,0.9388959627017768
274,0.7267188472158387,-0.0914138200605229,-0.015105932393484622,0.9875567779318695,0.9649954338698586,0.6039278423030772,1.5786035400514504,0.8359369474717167,0.38447304521245085,0.28625301752214893,0.6447042257417027,0.7688050711656815,0.3064488279251933,0.20636017767605366,0.9074695393804393
275,0.943360414540218,-0.14099674155434394,-0.09760592786450001,1.1054612005658992,1.1029221939302136,0.6720061328138786,2.319157362461968,1.7358605899487904,0.5445980155027784,0.407283936453816,0.6699045166045591,1.0303307812517042,0.4356322834159119,0.2682195597564191,0.9336111412883125
276,0.6653200418343137,-0.02350137434705113,0.05786113309534735,0.5674505454107492,0.562098725331232,0.434608704292567,0.9608182180070827,0.5735109897302643,0.3182064518692823,0.37314077500528114,0.6425374456860184,0.5346061524313942,0.24475272494761668,0.16495988452209345,0.9471752049852883
277,2.309809980768435,-0.8343449543862834,-0.4238783516553617,1.2846652305180624,1.2769490131579793,0.7201149692653664,0.6652453198084712,0.7005890665312134,2.720170505441355,4.00667532591787,0.6778444222523095,2.182434491863584,2.470526357960856,3.5357282746197614,0.9394006579816555
278,2.0907333686982406,-0.5521259926937033,-0.4809676801680361,1.3172494876716094,1.2926098297623114,0.8237115690982595,0.5251289907232276,0.5346154739002512,2.650553150174968,3.07358948781149,0.5490601803369085,2.1436838104081897,2.4211978566657906,2.5800034051971066,0.947805846472324
279,0.6799344675720451,-0.021925847656516007,-0.011589261370698767,0.3338016463597539,0.33089672438533074,0.20175913383579613,0.9063742488516249,0.816868901520841,0.47870972157860187,0.6241338635413911,0.6125606311107803,0.5296498409725746,0.38104546343332935,0.3477336857160909,0.9239752708094869
280,2.341777251296826,-0.7103287329532115,-0.44970819085572245,0.8946718460144286,0.8899596233488464,0.5344701603585461,0.8113150057915443,1.0450636723333635,2.41194751477325,2.4272863855901794,0.6097226960127671,2.0116582903773756,2.202972437719227,2.1177604059819726,0.9474101095413068
281,0.30032849923796084,0.03630759491136973,-0.028283587566077295,0.5672499896653388,0.5570448049421011,0.23735041919340039,1.0795377455041222,0.9737980886791247,0.16079215059222163,0.13179433836991053,0.5604843169999094,0.34678747849075253,0.12588637931086186,0.07320340402329494,0.9068485169627984
282,1.1487531637376704,-0.2788347314672006,-0.14415650060937668,0.4735947302481874,0.4388828386228142,0.4572144176525662,1.5596583446585695,1.0571528800015535,0.4750864865646874,0.3445841527805554,0.6509067234006624,1.0259196032746691,0.3901011296813219,0.25310820944928375,0.9282149052667292
283,0.6991740804012176,-0.1497170676699235,-0.0959926434258769,0.6812260348519527,0.6407642345426328,0.5336403962764779,1.7668108652678431,1.1658147646775978,0.3407383923845983,0.2515894396381604,0.5883313578629602,0.7293041473363837,0.288557991646617,0.17348697673697522,0.922630441238128
284,1.874911826913456,-0.45538584399662085,-0.3673296607255132,0.8531483200601201,0.8513897537780427,0.6427647153012115,2.9940464682557755,2.05194046376737,0.9443792527790799,0.5075322170561657,0.6233814453054027,1.3827893995690743,0.8251928344201052,0.49890198047306106,0.9532308574398966
285,0.3553053703247019,-0.046396433807993215,-0.018403919583463907,1.0632650362661722,1.027693715551266,0.7433487015618774,4.205204705265436,11.58236285747213,1.5777110396592393,1.9205178422725968,0.6153451465759925,1.7097494671784792,1.351173391912725,1.5331974907103025,0.8907004956778657
286,0.936846622562112,-0.12065043559320815,-0.04030794737131943,0.6290842178853158,0.6233200640814621,0.424107495367705,1.6052946454190669,1.2831716115339122,0.5672043712586324,0.5940736866583664,0.6097226960127671,0.8805482830971986,0.4361785568636801,0.3927769873244468,0.9340886650081625
287,1.911810402882403,-0.41650501523602984,-0.27251242882619964,1.2158790027755808,1.1992962458786496,0.7266373977497056,0.8230680056804187,0.794318811921093,2.1632468782048155,2.844327406560779,0.6619902821573977,2.109946569229159,1.9804059717234046,2.5722802799965887,0.9385107490067258
288,0.7737711723415668,0.1633502713757538,-0.10217634346715387,0.4760773486028991,0.4482520092763277,0.3627860117744179,1.0109664173602886,0.8710491699708756,0.7308211801078609,0.7678956323296335,0.6547956803312163,0.8571050533369421,0.5909701533240472,0.5311389714727685,0.9406201117407322
289,0.38214790902419016,-0.06533651228712467,-0.003450111337229558,0.8354020804856042,0.8097853649170329,0.6163536633578148,3.556491163353213,15.317975845067547,2.2682879854904474,,0.6584896970785714,1.8532803258763053,1.6393016175877024,inf,0.8880452427327872
290,1.1401453255517313,-0.12172009425027155,-0.023446528704262753,1.0863573040783823,1.0624133238756706,0.7355358313262059,3.419472098758419,2.7755091101882,2.178646594704087,1.4617421589583257,0.6468212168108125,2.0770444170801143,2.071404404135187,1.538804351489689,0.9253726954986179
291,0.7012954727582603,-0.05125205682601987,-0.08239062066212127,1.1160785809065012,1.1136232022289647,0.7050917263371425,3.2301076678496714,3.241047304599049,1.8504608772493902,1.644822093965777,0.6333676938231112,1.7764111922812555,1.4755044866651454,1.392919763434122,0.8965823887743243
292,0.6856900874978833,-0.04974070114327517,-0.08011600497017679,1.144776380138723,1.143493222402193,0.8078486655018912,3.2111938356049543,2.4836943176105972,0.8790741861403821,0.6223218563196532,0.6357360191111145,1.3133743959544044,0.7812935930567231,0.5709614962071305,0.9257303663721332
293,1.1073734627609115,-0.25388016539102454,-0.06973568861460555,0.7225183013840422,0.7116709712869805,0.5691673262769764,2.3881026053823735,1.940284080037649,0.7604775846315999,0.7398333784364793,0.6528756675646988,1.1763576372929625,0.6292979371272037,0.5500959111442906,0.9365246977627313
294,0.32800717276415625,0.0043900332644337126,-0.03486895047546229,0.8237740048402752,0.7913649250535483,0.6680168208742557,3.485714134728868,2.007979600631841,1.4796714909516642,1.6535267042180053,0.648888643467878,1.4024237430497744,1.2209789839921512,1.3707948865752364,0.9454563990971387
295,0.7271254773317704,-0.1727347211200308,-0.04994138603604749,1.0140182786031084,0.9913872142084341,0.7337487401044483,2.6032322226449347,1.6262658395587235,0.589685080549475,0.3387720529871017,0.6333676938231112,1.1531036739572993,0.49253728714076145,0.25585897214319286,0.9456039431491304
296,2.1133817762707796,-0.508121791664865,-0.2790317483774568,0.9961791043002488,0.987995978158253,0.7550459491997573,3.0616714099979747,3.6682286961002157,1.7325607757889956,3.2697455029191147,0.6309483474627791,1.7097494671784792,1.5163747864145496,1.4221854250556802,0.946963325228886
297,0.30422613251860514,-0.032829860811036574,-0.025985963270925623,0.8723686044848573,0.8853713338662419,0.6026499143693232,2.7516187991594254,1.7568885900924567,1.1126133309819208,0.5185246082103446,0.6425374456860184,1.3160637374458026,0.9924276523190035,0.5114219044827972,0.931725065410076
298,1.033370234351599,-0.13523440961948482,-0.08936456532497591,0.9975222727493858,0.9888619782076076,0.7340336096926683,3.267357756249261,1.4036065255548151,1.2659950046313537,0.7125105649711982,0.6584896970785714,1.6624871335239157,1.2223002460783483,0.7500248532413964,0.9450354177273383
299,0.845833932748474,-0.08057346884011168,-0.15327514615707782,0.8594588010747876,0.8522020623101666,0.6212024758225382,1.9561897741748535,1.1959618001986594,0.4447104701802601,0.21402721618990816,0.6447042257417027,0.7651445610671955,0.3569752094029537,0.18602084543013173,0.9521462296796162
300,1.279670931347891,0.09415003779013165,-0.07627155629331872,0.7378200174201454,0.7278906157223942,0.3582707454895794,0.6283836912983491,0.5766180056868409,1.1212660201031224,1.479427900110552,0.6468212168108125,1.0372977088490172,0.9041225349334441,1.0061569878844827,0.9528430816698965
301,1.7031989654077548,-0.37731017207092876,-0.39379729457109747,0.748069279906443,0.7524045338501729,0.3287374445218492,0.5916630590863414,0.5782932554404236,1.3927305726523014,1.9235684616309914,0.6357360191111145,1.4393201495609955,1.210932952814998,1.507386310218421,0.9533424603446187
302,0.8169479768019416,0.06845454744059842,-0.11631293979896329,0.1963043554646035,0.190507034622512,0.2115107033476524,0.7070628490711196,0.5915634220675317,0.5979830150925479,0.6316362029365441,0.6207552362147116,0.6383223516100133,0.4590240719368629,0.3927787596113939,0.9526828632358844
303,1.9035899394552847,-0.4193166343761916,-0.569185329680169,0.19509921375953443,0.19591204698761974,0.2540393692166795,0.9004550766750002,1.1676379375666386,1.451801404564712,1.5279221775894372,0.6333676938231112,1.3094979425868174,1.2685479119448062,1.2406892164729653,0.9546556821354419
304,2.392201008874137,-0.5556065574272705,-0.5210792134763605,0.8232130339632499,0.8114235992660471,0.46987776039388507,0.8033715251550413,0.9886396115198255,1.818983218372707,1.979634641071382,0.6425374456860184,1.6713133161521878,1.6255240501857247,1.7721335047713067,0.9451923806673944
305,0.9906964170194363,-0.07546241398372444,-0.23896697142384069,1.02690239161089,1.0235346656364512,0.6702487543421759,1.8848872446116491,0.9904907244446637,0.45663805998532053,0.14830775192253165,0.663668482632973,0.9464063557787786,0.40503579457390126,0.1578990760986933,0.9444989920117582
306,0.9804655167439998,-0.1830949776540467,-0.11111369023522849,0.7036860954632658,0.6971081721662494,0.5388640238643353,2.013960647890307,1.4815948665260703,0.35777241141111055,0.32449621782500515,0.6403206450210053,0.7798919264321442,0.30722007806575863,0.23102538996170563,0.9478630049077287
307,0.6441769601608841,-0.07512509121444272,-0.08642684661060474,0.5590766614426212,0.5534955236735721,0.49761789328809564,2.4227287175208643,1.8193478860668608,0.46882293931085894,0.2258415223495275,0.6357360191111145,0.9130183143001135,0.38197388841299096,0.17855598902834666,0.9212539045255439
308,0.8433823251255873,-0.04333869012843461,-0.1398883649585117,0.7321932876843659,0.7016141653295651,0.5929509309637337,2.093860882653611,1.4891772534222687,0.9296701715356525,0.7672205009028137,0.6727386042041725,1.0522377381582098,0.7629950872554875,0.5013385095550884,0.9563737312973803
309,0.7755459138596478,0.1030454695179861,0.037250047272788245,0.20162166157688996,0.17956237915947448,0.1257079834116132,0.9555715331067999,0.8982762806228277,0.9137182978929036,1.1908067380005947,0.585052858160615,0.7920593954660774,0.7076774352117766,0.8109924474551862,0.8543014139570176
310,1.3640008278428881,-0.13462711549023826,-0.19294674995319988,0.8513480638168828,0.8217846986522617,0.6126567765644249,1.0199649290722612,0.8111010553171369,1.645839024793578,2.121949155805801,0.6357360191111145,1.6374373755215665,1.3926563255497355,1.3983259731722901,0.95085698519626
311,1.9603085541802876,-0.40840955976962545,-0.39048474270127265,0.9311344635936962,0.9285761223221451,0.6295116697798478,1.9413868380728911,1.6861985782263538,1.1048709511444004,0.9271825678388266,0.6468212168108125,1.3232986962398339,0.9023253556180835,0.8216354615753918,0.9476812217921368
312,1.7094746278896429,-0.33249263310802724,-0.3454276263770838,0.880372295089038,0.8746970742717005,0.6087976225031185,2.5359181945884353,2.366686770345517,1.1108147930083792,1.048104070730401,0.5783247308855777,1.3148216041294214,0.8155858001694809,0.6224658404116288,0.9396513711219946
313,1.1458006708029496,-0.21638277526732952,-0.17972902362005688,0.816605602195285,0.7931334511074611,0.672089708383084,1.9465776032189084,0.9179890732858678,0.612630856870425,0.3368848146028761,0.6380535849069913,1.1829726372861828,0.49539862459681666,0.2656850510333146,0.8837991188477793
314,1.6894118287270314,-0.1078489873322741,-0.1265586192695628,0.5323718715410537,0.5128360624035753,0.6147799163545344,1.8801208715507085,1.761374498205131,1.4884345662969976,1.58415963605616,0.6357360191111145,1.7312917224609654,1.2368253840600523,1.1349318963312294,0.8892445709852885
315,0.8327710551832649,0.1353452699069071,-0.0794738588362971,0.43104477666532925,0.41150148426839195,0.2885141898072439,1.5194706768919668,1.1228572075982477,0.5863663913876185,0.39943301141400206,0.6309483474627791,0.9003900427591466,0.4564749743367409,0.3048608362694571,0.9553346980463434
316,0.5807021890237987,0.0005204916059751152,-0.06381239506741365,0.23173705308824025,0.22865099459536997,0.25394844710514386,0.7762539565931319,0.7150447177915608,0.3124657283700459,0.4153853998428017,0.6547956803312163,0.483967336263122,0.22582878303385842,0.2134353102565059,0.9593099391327284
317,2.1136743921599197,-0.563885886628183,-0.469060960192344,0.8539990216054175,0.8633449700626125,0.5937165691778884,1.0773882087299325,1.2436744541472406,2.252028515042145,3.5037525678109587,0.6153451465759925,1.924833823453397,2.00399630029113,2.666550470195457,0.9399444401064291
318,1.3911243046258697,-0.09205344115297442,-0.5366491613947801,0.11826719857387902,0.11472998049104056,0.22824340788667408,0.9953674751204985,1.4243540467903482,1.704133815545387,2.418410698011402,0.6528756675646988,1.2751903708349985,1.4039484867727914,1.7073421274154719,0.9333919937067334
319,0.8090731602224835,0.12322646316497965,0.0949335593576256,0.21103373620254542,0.20666881136740087,0.2236846548794591,0.5390395794291404,0.4553847385058222,0.7343161246145489,0.981296811510862,0.6357360191111145,0.660120826572871,0.5363983437468324,0.5262118724979283,0.9433301322014886
320,0.33963096250869546,-0.08984998532340219,-0.004511939686792227,0.4886631174957221,0.47661117746495174,0.3714639839979073,0.9075017059252628,0.5862287369297416,0.23959543331479657,0.21692097975668384,0.6425374456860184,0.4938956734875909,0.18368441653198145,0.1285118495565071,0.9258666046449845
321,0.7809724590470651,-0.05960770217685968,-0.07758971070231546,0.94526465537466,0.9215014444199272,0.5775867506835775,1.8247088464413486,0.8553850735083972,0.48667506156911244,0.3695982861647257,0.6380535849069913,0.8654128015160784,0.41340328797498466,0.24088268818816794,0.9361488447226357
322,0.4707016761590894,0.10279662808075785,0.08917246396802098,0.4011295167073579,0.3634446537118016,0.2998653815536918,0.606805130942097,0.5956007585445263,0.5100660465122728,0.7507925133011087,0.6357360191111145,0.5688864054016386,0.3740905917350224,0.40366939169078486,0.9407675849621983
323,0.9652008094993737,-0.10223708898736583,-0.045511779140634756,0.6401160450173896,0.6146899796788212,0.5164515234776834,0.8593382660414582,0.629371802280888,0.7587316300994574,0.8798690211473394,0.6602640781246099,0.8940944574770976,0.5783873777094259,0.5395918583455815,0.9478903590244481
324,0.23585446431578488,-0.053023947641751445,0.02826697882576057,0.3558535975082434,0.3390591156593617,0.2852082187755708,0.6652791284634874,0.48297960747020396,0.14164261497042915,0.13771421268343248,0.6097226960127671,0.3060723642301296,0.10619918859101293,0.0801140273177236,0.9449558282698978
325,0.07678726719916429,-0.02997054704707807,-0.012447125793552574,0.29576869146651186,0.2847777706416585,0.1956013578312266,0.5095552985560292,0.41786741246071935,0.05870757353224189,0.0328170896545918,0.5915533975974677,0.21901320406544966,0.05323306025649203,0.03924288699503447,0.9112471240254812
326,0.39149795628532896,-0.05394272758958482,-0.06591797793397751,0.888966884481196,0.8812084344940633,0.6603176423181185,1.4162295334499613,0.48678140523378044,0.30662514826804727,0.1373377430939167,0.6233814453054027,0.8166968111106658,0.27368279263096756,0.10422976726100269,0.949067918015508
327,0.3222890801351163,0.06465631965596591,-0.019984599487335247,0.5756001458527062,0.5541980274079427,0.48452555814092607,1.268164446805286,0.6350231736267717,0.2492718687510558,0.17682868526616166,0.6403206450210053,0.7278766610810431,0.20779512029903063,0.1362661198738493,0.938346290249756
328,1.3544124493825496,-0.014397356725608268,-0.20996051628334167,0.2256559932866077,0.20838310985779415,0.3015115057400497,0.3956357558306568,0.350482843911693,1.6110268073581115,1.967830759210097,0.6509067234006624,1.2947082788839042,1.409681961386819,1.6047990704508923,0.9538024946178191
329,0.14500542438555306,0.04783135013686757,0.02315613719393661,0.122888179777612,0.12139860649699957,0.11700603304262878,0.6596649263938996,0.7165616113830807,0.13132114509517748,0.15515664674712548,0.6509067234006624,0.1777321044601474,0.09184813262765126,0.07727011076044973,0.9585034866777618
330,2.6598500042153175,-0.5259392880980451,-0.8658116116115824,1.5778396614269181,1.5908117061132643,0.7107790036688704,0.7834681822083013,1.3354979590467795,2.6141931753283245,2.62012458740906,0.6333676938231112,2.3097216085633656,2.3958829747464963,2.3452515393129487,0.9237380819714542
331,1.688717804474533,-0.18718904281210336,-0.26020362651011175,0.2917515995753884,0.2933309544495185,0.3383816410128552,0.7208418285000433,0.7853001772535734,1.3281809424590525,1.4848378737529748,0.6180765742263259,1.2692819927216168,1.075862714691225,1.0523927134178268,0.9331446480526986
332,0.8697346429604472,-0.0657907672247462,0.08335555248692506,0.06236667603779548,0.06261185162892549,0.11310232873296079,0.6058124701245342,0.5656813159200126,0.6898879048425178,0.873108676925953,0.6425374456860184,0.6093167834524822,0.49323659444888973,0.5141329632575565,0.9552968851287377
333,0.7147379441153381,-0.09045984523627837,-0.1067351529843582,0.28300747329801346,0.27985171354659605,0.28709663942759395,0.7192340469012037,0.39022074165616194,0.3952428293600833,0.38793442567463804,0.6619902821573977,0.5547581608883305,0.2975671306943839,0.21133821616794285,0.9485204977075524
334,1.0057977727418288,0.11468306610459755,0.022715919824401687,0.454773466242763,0.4468965138946025,0.25300741416252837,0.5743074402661067,0.498768460719882,0.8060586607258398,0.9694446925980925,0.6547956803312163,0.8310053806473798,0.6426883114944543,0.6346961714938948,0.9464161016530719
335,0.3552609975869883,0.020350377778481976,-0.029138003974483906,0.4483777959746395,0.42438807891567,0.39194777622018945,0.9875585809513178,0.6666823927005218,0.22743188959696042,0.14138505159103193,0.6602640781246099,0.4582156040492512,0.1923404811059481,0.09925551363356189,0.9368686250646101
336,0.2725888139082313,0.0882880632234917,0.037789247557402594,0.21103373620254542,0.13325044852920515,0.159088471187776,0.4317744825648467,0.4202846884808738,0.1497706036094254,0.11104538397298219,0.585052858160615,0.30560469029593545,0.11778680634568428,0.07996211228566992,0.9271810875214952
337,1.9066275441091867,-0.10315822285368126,-0.5269725300338083,0.717954539716142,0.7155710448666953,0.5054775949108006,0.2690157536150669,0.4225756060928942,2.321178487191527,2.1539146579530946,0.6357360191111145,2.0064389421301354,2.1026809056741196,1.8053836581675986,0.9428320060198674
338,0.5663657120787123,-0.10297566150523346,-0.08113583178099043,0.6009244876360267,0.60248174325114,0.39880664587810666,0.889840623200949,0.7119710272719066,0.3487410449931787,0.2806281042320994,0.6357360191111145,0.5152613730978948,0.25697711600744794,0.14508054907233944,0.9605602442817506
339,1.9427911763796692,-0.24748533872688255,-0.14603177053641303,0.9928879636375028,0.9962065308521377,0.6722289142434811,2.798343264320126,2.8554942767478217,1.7446800437548764,5.81535904181001,0.6284777104787076,1.6369233101097034,1.4309018731835554,2.464809035167113,0.9477764635672103
340,1.0901042268382353,-0.23993618568610325,-0.07916511418577148,1.057546211337062,1.0565801267435293,0.768537589297552,2.411819328972346,1.5336098347538343,0.6511144282608788,0.214139575252594,0.6309483474627791,1.3190927225628357,0.6130789003819643,0.20990210992657135,0.9473424214048844
341,0.7248880766949015,-0.08143372103091501,0.0383603371961701,0.5355421631348376,0.5090672983287101,0.4066067357704098,0.8319237460891906,0.6894760649507934,0.5428278507090686,0.7656230068141379,0.6425374456860184,0.6296300141609301,0.40488134910065593,0.3973383995178072,0.9490071877670118
342,0.6838981424444812,-0.1712332872569065,-0.08664702799991053,0.7623918662198983,0.7598163013673196,0.6108329269932672,1.9890564914744848,0.8789695603780063,0.31507274819412673,0.22391801448836124,0.648888643467878,0.8245475121755138,0.28377846868023493,0.14014067446881398,0.9304338810633233
343,0.7443530452649924,-0.15748130354476186,-0.09254845191341618,0.8815682029114995,0.867344695099233,0.6004582710655684,1.8377569497525728,1.0858431897935619,0.32462641125275254,0.2390076254381092,0.6097226960127671,0.8326647083623349,0.2525707832641362,0.1690953720410592,0.9536745240648328
344,0.36002103837287985,0.018367377052810774,0.018457742500368246,0.4502936352750481,0.44873112526585296,0.2574143167379805,1.1046857102342411,0.9987559356446196,0.21064891385312,0.18965077749131318,0.6699045166045591,0.3332219689131657,0.1660594353992835,0.12146243074777835,0.9404018492766885
345,0.3550653805543422,0.027887755833032102,-0.012422304427461117,0.42379085263452326,0.38250679319813113,0.3058831732896669,1.0434347421856964,0.8724533983009961,0.23086889838529925,0.2295379595473189,0.6447042257417027,0.3590587352940086,0.16887537046125362,0.14238670120047553,0.9414666268764439
346,0.4165993733677178,-0.031203340524645934,-0.07116209109753333,0.7332189828895339,0.7279703520347136,0.5645094716854834,1.9633873192375126,1.3870695571741631,0.3039240265235931,0.2624306819674081,0.6547956803312163,0.6759623558058443,0.253469904491485,0.18734399899845147,0.9448118184503128
347,0.2758381894723174,-0.03313375137148784,-0.04512020025775445,1.304408780311545,1.2994933869331,0.7981296273225441,2.4980537257727504,1.256327384730866,0.3028737555006587,0.20204554754516102,0.648888643467878,0.9503647122079065,0.271244179169474,0.11116576675406958,0.9225270987036547
348,0.22135800702468106,-0.03256355451683268,-0.0010730454097644115,0.7652689465520103,0.7432194435538656,0.5290161507588792,1.3620134486126572,1.088070703818615,0.1638675156064357,0.1544461141275304,0.6699045166045591,0.5903098454465574,0.12747161607174898,0.07698017353643885,0.9378402768677652
349,0.6650026657589012,-0.07020279969178236,-0.04052838091715892,1.386772511402183,1.384781220149574,0.8824966276591745,3.4855629062478033,6.052884635626983,2.569402516509516,3.2319782783938167,0.6447042257417027,1.955220018381091,2.1960476912406306,0.881272419862584,0.93595252545448
350,1.882829725775631,-0.3143278065867146,-0.1521931876688589,1.2173698312899157,1.226608520312158,0.7956054361901342,4.222947457745625,2.9310032298230793,2.1335220418691234,1.755941896886764,0.648888643467878,1.794296016880052,1.4732449799694298,1.5524739376381242,0.9432421167085268
351,2.995625662710238,-0.8114425092471983,-0.3799909600226725,0.8020609217867892,0.8032591484596254,0.5792461840453114,2.6915222431007972,3.0970135827043954,1.824746923089457,1.5302826594481143,0.6357360191111145,1.7147984280919266,1.610364267294231,1.5270453621155795,0.95171364259456
352,0.7089569469019921,0.051965089579262935,-0.02347881011609787,0.8229887216251888,0.8240942425702953,0.33651637760608843,0.850050473947068,0.729685962321232,0.48247952175583186,0.4998298917219652,0.6207552362147116,0.6079893722196386,0.3338186177270833,0.30263964694493256,0.9344903526507637
353,0.33344816756160667,-0.08951282446385872,-0.012778632626018,0.5288400138484083,0.4990855740447099,0.37642688632891647,0.6222448644626823,0.37109094021237854,0.07204756501182369,0.048068995142300334,0.6403206450210053,0.37241725406196396,0.07303686226256366,0.04855080897037888,0.9299722078454746
354,0.6457526140902022,-0.04160878297728626,-0.009596969771133945,0.6230922249701509,0.6159180189417148,0.2990565489985505,1.1614619419528152,1.0405484708027548,0.5519372333592024,0.630058169915759,0.6403206450210053,0.6999704059080708,0.39927541673364697,0.3340003933739648,0.9509235225356858
355,1.8591941834310208,-0.40822344970241076,-0.4354574824578833,0.7291420795209136,0.7241411490594837,0.5258141638571122,1.3607686798799496,1.327686506235424,1.5287270721817559,1.4507465107569137,0.6403206450210053,1.551955477020738,1.3036284553897628,1.174847304067947,0.9591072622060914
356,1.9263686905177444,-0.47950474295320566,-0.33752965069616975,0.6786459849683542,0.6716883519686957,0.5418671596517743,1.121888735508913,1.317919981187714,1.8772641802359615,3.0724713993660333,0.6619902821573977,1.8000604942674414,1.6626577440429644,2.328075613335425,0.9457758793811103
357,0.45115022467416,0.14599866468355388,0.044091838475298295,0.20058914285127497,0.19341844185531018,0.09679711075709926,1.0173246078805913,1.0670734116823881,0.5587998533530577,0.7104683077216362,0.6447042257417027,0.48924534721430174,0.4212842342247817,0.42722861602074175,0.923315472955931
358,1.5289475310790113,-0.28742045660114934,-0.42384443707499575,0.28250963716792243,0.25160563490113197,0.3386407989085163,1.0740254386463939,1.175210340563527,1.5219298418011942,2.7193685328343244,0.62595550513784,1.3210061210917736,1.3294043005640221,2.3274350496174696,0.961599674173849
359,1.807290188760351,-0.35799958361004725,-0.33468526752282207,0.8141031171136237,0.8009242547220639,0.5866950491390741,1.100701308029528,1.001779104347246,1.1216218091526502,1.7936915860010758,0.6468212168108125,1.4622638939628636,0.9790725411237619,1.4352121821478607,0.9463552686974135
360,1.8216979994148714,-0.5063307410701064,-0.34887993571886056,0.8725264076179278,0.8670134437479108,0.5538835114277572,1.2262146590077068,1.2048357910561112,1.1907203949204144,1.7800761399017457,0.6447042257417027,1.3846068968001075,0.9575278523319203,1.3079514335961953,0.9476379269689164
361,2.001919743402511,-0.8058162653912104,-0.1330456822114736,0.9432146861226919,0.933862068466336,0.6944778217466125,1.0672680805906034,0.9135679534475241,1.1674161198229753,1.7998509775101608,0.6097226960127671,1.3776650344218362,0.97961093106261,1.2493069125702154,0.9514419528150557
362,1.4133189739598904,-0.19357024632541153,-0.38974649874353495,0.4952259149862209,0.4961836720020063,0.44728839072128784,0.8491581706508737,0.9264368673073107,1.2148180408057565,1.6559507318029705,0.6068309995095971,1.2075346958922966,1.0353150594701983,1.2395576817252036,0.9511382442799831
363,1.413344999216406,-0.2560619576841462,-0.30823730060551285,0.6657967614208261,0.6669004136685796,0.4658046734403464,0.738483677861713,0.7461886982116473,1.1578826535143203,1.347413753595513,0.6125606311107803,1.1737669622688702,0.9536517408233863,1.0316171214199275,0.9473590511391687
364,1.5744735124175877,0.03290853039075814,-0.3771718799328395,0.33943175862966707,0.3363798831520096,0.34924346087635216,0.7717462995158002,0.8559047972440327,1.2933739984280594,1.2571220312187792,0.6038851895711802,1.2407904811592148,1.086428892793192,0.9573808601259348,0.935234055132673
365,0.8336471399133464,-0.20025009188319615,-0.08630504258541105,0.8558228041971829,0.8667023169325709,0.36273225521158275,0.937997421450881,0.9628664458341298,0.6777596647943355,0.8011698685457038,0.6008849035917525,0.7687092007823664,0.49171638404834733,0.4806407700818234,0.9362233104923259
366,1.9813296243649414,-0.1873980957643948,-0.6370283852924254,0.5776398507822341,0.5785421298190405,0.41953699054996607,0.30346660994853863,0.3677308070212194,2.3737826213201485,3.6756767028558053,0.6547956803312163,2.048890782830526,2.11159358189612,2.9704144655697013,0.9410580490367347
367,0.837782553094004,-0.1577543313441392,-0.14365003349752165,0.41111247534112,0.3350435849666137,0.45106235814326595,1.0223979345707708,0.504241282847091,0.3057020183673602,0.202684670363242,0.62595550513784,0.8377363106368357,0.2525771752165789,0.13435345415534702,0.9466373453654414
368,1.5363010409812228,-0.17420037743324468,-0.33245197267165694,0.6084173168279992,0.5778758386064328,0.6441657491907256,0.870077223103313,0.8057701698533494,1.4514245025309154,1.5454728512289388,0.6180765742263259,1.6128325566133115,1.2342881592885382,1.2379337994131583,0.9452365481568291
369,1.635889404561947,-0.3980901202796783,-0.4389344750360003,1.2630723395038213,1.2712147728246168,0.5584596030679094,0.5437353691192882,0.5967973791526513,2.748056694249156,3.6781712589458335,0.6125606311107803,1.7490831949476187,2.4753700526215026,2.9204318247019656,0.9352960659132364
370,1.9568263938454995,-0.26984960872184716,-0.6642797195193658,0.37503723138414163,0.35146774083933896,0.43641225728064564,0.3744790545391851,0.4142784326065857,2.882785772576349,3.4655931295753217,0.6602640781246099,2.101369091692698,2.6066955174580264,3.0359386940320316,0.9470606852369876
371,0.5123840927895106,0.10968089456967761,0.10629225009650878,0.15525433535522937,0.13677545959426368,0.12319161304646009,0.4416298330080326,0.6876915451144454,0.5908032032316288,0.9256177084154393,0.6403206450210053,0.5084580582919125,0.4360035505489389,0.5770671815491786,0.9123173055326503
372,2.2598695147572774,-0.28870356236634076,-0.721180672774816,1.4115884416971094,1.4146205583439735,0.5279006324392458,0.2952816408499401,0.5550903050345539,2.4667108260514814,2.764662306745973,0.62595550513784,2.2309882074890286,2.240234005989324,2.331172549845958,0.9061954861478112
373,1.9131888224696825,-0.1163916923247642,-0.40698247062631726,1.2618961692059758,1.1256746078600905,0.8121136153247688,0.3745573758170197,0.5039358708491289,2.1234354688520702,2.2380816560947037,0.62595550513784,2.049063226355699,1.8763827994045879,1.808795656380623,0.9224839808937069
374,1.7081470314721137,-0.1991568397236779,-0.14409380388335763,1.6251384927742338,1.6481600528964848,0.891354980258466,0.7818074344338527,1.1391678150521847,5.227989536940552,,0.5915533975974677,2.3016965989329305,4.4907478335382125,3.9219733362813143,0.918259699999221
375,1.5287565755195176,-0.2042439494042409,-0.045452957930613644,1.518106721136118,1.4894166112024576,0.8183398596512543,0.2793844476346893,0.5497546299708802,3.4942392148988666,,0.6068309995095971,2.426009008540515,3.203903617549231,inf,0.8987773245002799
376,1.6910067021045891,-0.23060743461246253,-0.02304357070322583,1.5437166113055303,1.5227848108050925,0.8075729418715909,0.2211619184166015,0.4562997692731656,6.7372131044362105,,0.6380535849069913,2.7177638932898494,5.694068782468562,inf,0.8751292821506325
377,1.9437210780106158,-0.2282452075790009,-0.06331295412259148,1.683258586960923,1.6702309289098527,0.8973244453330795,0.22929416572442557,0.4735407998375989,7.073348697391561,,0.6333676938231112,2.9412440882699213,5.575949103146316,inf,0.8820298459644701
378,2.203170759448487,-0.29453373839922825,-0.043285778049539765,1.600375321661562,1.5974537404791103,0.8570252166330057,0.27133296508335314,0.5626621283515483,4.561597851534017,,0.6284777104787076,3.032626805477036,4.185283401808941,inf,0.8329994124717928
379,1.5751481173363353,-0.24727642333518973,-0.04675122523425957,1.5971289387522978,1.5524449959163713,0.8363501960775145,0.28126811583524164,0.5490707026732895,3.6189146489949677,,0.581717464821069,2.5834754665205795,3.3026285649295763,inf,0.8677635203754731
380,1.8593527340697646,-0.287270467661235,-0.10939144894031484,1.6202078857064826,1.6075601474192718,0.8637268061499404,0.2908392851348694,0.5835126121162708,3.1578208512989554,,0.6233814453054027,2.5594865281437356,2.7842932124810584,inf,0.8747525359890461
381,1.826088919667104,-0.2471102846166173,-0.08767268398901842,1.6343250782918912,1.6019433961025629,0.8861726119969205,0.29641822107318505,0.5749842327653069,2.9615976247899227,,0.6008849035917525,2.696286334181968,2.830745628729734,inf,0.8973245478106271
382,1.058343933742047,-0.10219863644168091,-0.07271332136682612,1.6709014532110773,1.6543203581306314,0.9141386588483519,0.6095992771768266,0.8516056342724603,2.839854065163042,,0.62595550513784,2.126486562830878,2.6839326845948728,6.597145701886651,0.8802655293576597
383,1.4207162946626295,-0.21784316518160318,0.0,1.6423973836428627,1.6174478178809053,0.8814343016640931,0.4852258123872164,0.8096696836557902,,,0.5947193981915972,2.5834754665205795,inf,,0.8882439287543481
384,1.4366065840534403,-0.24742735499336,-0.05319494853921133,1.571551840350397,1.5457894240760697,0.8629003899351869,0.4056958577689264,0.6706350009167912,3.174079254023778,6.059407916333184,0.5915533975974677,2.160699802653847,2.924299906731271,5.223952951259174,0.9065403258759082
385,1.923448224808666,-0.3937007806691464,-0.055103805119542326,1.6629697815855649,1.6554816277401034,0.9070030362247493,0.3901572003613528,0.6590420710233533,3.3686693981600198,,0.6309483474627791,2.4227459534363933,3.1979216145093012,inf,0.9096187515997808
386,0.5782954730316808,-0.1268920033593479,-0.02468656720573595,0.7981000720125581,0.7818358091650759,0.43692290609841455,1.0505569060115632,0.805073692700008,0.3005259698492362,0.36803786694591545,0.6403206450210053,0.6470484657810084,0.2099256889367272,0.1734188949732303,0.9557178547618259
387,0.20852959381465155,-0.06309943774690847,-0.0442638533343839,0.5700001562918662,0.5187565893887096,0.21158953202100686,0.8555916868486039,0.8187918175908253,0.07590100646791821,0.01957148130599209,0.6309483474627791,0.25443357347477485,0.06632280670643534,0.02654988875342484,0.9590011690123913
388,2.7664886111207934,-0.7165005001717593,-0.4557124405077133,1.2832790998114596,1.2808871286273207,0.6381715526925745,0.5402031410823837,0.8026305643939109,2.6695459669595034,2.4662302849707207,0.6309483474627791,2.366590422969958,2.4548028714877694,2.120263536200091,0.9253371925191587
389,1.993770304075607,-0.2889110492712752,-0.43751350785398746,1.552523712621048,1.5470473902987247,0.8946565877128474,0.508956971605563,0.7857189203618973,2.531171089311929,2.9070371330818126,0.6333676938231112,2.1058311489070087,2.291421933098164,2.4051416813191375,0.9138135867701008
390,3.2645016326475833,-1.2093463054030327,-0.4312633586810624,1.6726936422381442,1.659343469406162,0.8633862426768263,0.5244322637285194,0.849570618392678,2.2805069191360725,6.105875199086476,0.6668815377411301,2.314657674228315,1.999502649215321,4.79081953287472,0.9053243479887566
391,2.7521338271726714,-1.163586209605668,-0.37250169963705315,0.4362646122119963,0.4372434365490817,0.40386155893396203,1.3646592670828817,1.4521520797381324,2.0678102515451062,3.450525039361254,0.6447042257417027,1.7983142381987294,1.5213031564710031,1.1732166619241073,0.9549050307935867
392,3.8561492578728958,-1.7224531112597343,-0.3921650480524,1.725357255749136,1.6978784222096965,0.6611184533910665,1.0399042313476063,1.9072672010615848,3.2058844271803193,5.649291637049289,0.6684167106117298,2.539010908781201,3.0755404321470574,5.793013608384143,0.8995342255397519
393,2.8059266184073466,-0.7277141148091759,-0.30316592000592335,1.6874628427458935,1.6472328360725326,0.8928981242462964,0.708844001617798,1.2179822121018984,3.6730250597780025,4.167687096125073,0.6684167106117298,2.1671804559878427,3.5038121958453674,3.9448128282511368,0.8945344954542459
394,1.9109636707417903,-0.4161703565860362,-0.022166454428715753,1.7446953875966622,1.7564147182889587,0.9333720025595653,0.7344411135021858,1.3140294997732158,3.7315009807327892,1.8922039329088187,0.6468212168108125,2.438277549193997,3.289114791101338,1.2981459743431856,0.8842841416318244
395,1.3319316430147143,-0.26354942139788673,-0.01171645149182096,1.7431703804852012,1.7208214045552002,0.9300696342677143,0.6483294765137476,1.2831863999755218,7.631038630133769,,0.6425374456860184,2.3835541555277127,6.82678621644847,inf,0.8988773074270374
396,2.4019867264601085,-0.3332263578739351,-0.019065028673547448,1.7454014841449421,1.74081583638896,0.9011569801790558,0.7962555823652391,1.6285875236403733,8.426916365008895,,0.6333676938231112,2.9739707817724783,8.433594167539924,inf,0.879962263535671
397,1.5539043517112257,-0.22091759144803733,-0.0069883801362757925,1.7470717299017196,1.730283381397611,0.8900815165427833,0.9152434274396228,1.7912325032910732,5.975775678358972,,0.6038851895711802,2.591898124366185,5.2047489123019925,inf,0.8797298491696907
398,1.194558667737308,-0.20307497351534234,0.0,1.7708287965990648,1.716737314431113,0.9159249872112482,0.9529369330552845,1.7943219383595381,,,0.6068309995095971,2.358450225835441,inf,,0.891933284422091
399,1.304505205516973,-0.21741753425282884,0.0,1.760090395294182,1.7403348972121049,0.9234434005181478,0.8593873938360396,1.5883731366211755,,,0.5915533975974677,2.3771889145564957,inf,,0.8977588372597676
400,1.3136251122912856,-0.1991491281368982,-0.01088714544817519,1.6943072017864311,1.6748479266182172,0.8899334528578058,0.7464487949237818,1.4043016828481791,4.582774260347824,4.42411662507275,0.6619902821573977,2.3872960875902356,3.97684374480292,1.9989026791958235,0.8902407741335644
401,3.073862431877681,-0.7124434141542824,-0.19059755203148698,1.7143743625951635,1.7131754877495005,0.8503213638661551,0.9867046790094879,1.7921971103223526,7.324928086202691,,0.6468212168108125,2.2841995913506263,6.725470085163405,2.3978952727983707,0.902784080272379
402,2.3554485097939946,-0.6520788637756556,-0.4331960557115674,0.6018366399274232,0.596338909399167,0.4467668138090197,1.4779544209489883,1.8148547829068533,2.160725936114846,2.4588582909013112,0.6333676938231112,1.5434941291400655,1.9538471130749921,1.5912555933509098,0.951090713457943
403,3.1950130703376747,-0.8803145177580418,-0.2051477434017009,1.3916138494711254,1.3886075167874377,0.7210864090148322,2.0441433079275897,2.725776993918197,3.4362360887077066,3.37769008957521,0.6652988471865258,2.2776757017338465,2.9986627580954153,1.327205444749884,0.9359599059745876
404,3.085044124434712,-0.8535089043541866,-0.268839658309122,1.3347707987716397,1.3362821778952139,0.717659194532008,2.0340869129355506,2.567337425455295,2.568543858919588,6.606684044608995,0.648888643467878,2.2189590694822257,2.3459225975917546,6.842683282238422,0.9412068063673907
405,0.6874387371292409,-0.059452598058099916,-0.03220590022579887,1.5414085298963691,1.527501533919643,0.8669480152074607,1.6409041973541827,2.2137740399206196,3.273107354462792,,0.663668482632973,2.3783868064103277,3.042726137617637,inf,0.9195696151610694
406,0.8784480336267567,-0.13074724955438016,-0.021364800166904334,1.0316852267758923,1.0143177062965514,0.6681308000001703,1.643117571295178,1.65500488663906,2.2692848508520616,,0.6668815377411301,2.163693094127427,2.0584848396045583,2.4062635224688873,0.9329335187529102
407,0.4734698734529791,-0.08688425314817183,-0.057559859388092605,0.3141757944291902,0.3077902185156939,0.2852202377610303,1.0981362656203695,1.2125106684127294,0.16966212907079928,0.13287426226613974,0.6207552362147116,0.3672384786359701,0.12551077093139726,0.08518609928437755,0.9521544975898244
408,1.633407508483643,-0.25671147988141085,-0.3897082091608542,1.0341390604750575,1.0183972159390866,0.7142451944638134,2.0704155651486627,1.8106054576309774,1.545563448563548,1.2665906524272397,0.6468212168108125,1.8239383675922902,1.3079955271421024,0.9914962483828048,0.9441609785155232
409,1.8149411894985397,-0.33094841015609033,-0.4834776645441246,1.1736669755237747,1.1492875706077126,0.7636120782601026,2.2252568227720753,2.041213251515027,2.0784996314169653,1.459393437930973,0.6566669596287297,2.1005516900759584,1.8557715742487673,1.2207602374091941,0.9254293807642787
410,2.421088383493057,-0.44579864152370985,-0.907033679078154,1.6707212827455016,1.6553105819742757,0.6178700105412364,2.520501627024769,4.35282686259507,3.8306972739268206,,0.6652988471865258,2.4285263163518924,3.6415005532591915,5.337538079701318,0.8668319399980986
411,1.8020060093925272,-0.04771346299726553,-0.22822163294407194,0.4294323946994279,0.4293085437301012,0.29815188133574133,0.7319942082083726,1.0083104245055021,1.6664434786959663,2.4678022205000034,0.6125606311107803,1.510548287906586,1.3784244490758715,1.8605811664591965,0.9512093991556686
412,1.2614410584652274,0.17376032798062202,-0.27913856076396726,0.2479229545603823,0.24748074816866292,0.24232378990916473,0.4328011276558643,0.49725024889465735,0.8829353410789624,0.9992105923283223,0.62595550513784,0.9791713688022791,0.7320532062036055,0.761753503916842,0.9577063687374212
413,2.4014333782880644,-0.6715902077489547,-0.5392084168829527,1.5186580899265159,1.5210532844730313,0.19194900500511347,0.2962951362204807,0.4404455283318938,2.0433818027437214,1.7371064095387565,0.6097226960127671,1.6526934211050575,1.7748479358966998,1.5374834258424461,0.9106126831729358
