,acc+bvp_XAp0,acc+bvp_XAp1,acc+bvp_XAp2,acc+bvp_XCond1,acc+bvp_XCond2,acc+bvp_XDist,acc+bvp_XFuzz1,acc+bvp_XFuzz2,acc+bvp_XK2_1,acc+bvp_XK2_2,acc+bvp_XPermEn,acc+bvp_XSamp0,acc+bvp_XSamp1,acc+bvp_XSamp2,acc+bvp_XSpec
0,1.327775785768758,-0.15038205878812938,-0.2012347711137924,0.8221072888067821,0.8285912725477359,0.4707452559425701,1.3124568685534548,1.3822118013026705,0.9673401985583491,0.9311303868789785,0.6284777104787076,1.0715160630064087,0.7225794660191942,0.5056048398998529,0.9546947396543134
1,2.18753543709713,-0.42157998258638524,-0.17267588901610156,1.082323670227571,1.0585787406538967,0.7188220198055797,2.2516667011502034,3.027664608162376,2.627555346089317,3.6427767324773437,0.585052858160615,2.0328124410858326,2.1639340547543493,1.5618442153110144,0.9419016776048834
2,2.1473668786447684,-0.3120053085753784,-0.25882982710364855,0.7366630067745461,0.728015307039886,0.5139965327602727,2.34040236464709,2.5501706591884834,1.642009072042922,1.3880766280306658,0.6180765742263259,1.8493885820646914,1.4913410528303743,0.9192760432278823,0.939098071763945
3,1.042836222212615,0.012048298403570246,-0.33260406380890034,0.3441494199558571,0.34333217393008686,0.39857066976162603,1.8505835766339502,2.220984162284349,0.8240794423439637,0.9406424418539144,0.6403206450210053,0.7967314968165159,0.5682363442555579,0.46172819803687765,0.9412618735745794
4,1.8488622190518742,-0.4201658677328638,-0.4044924260056427,1.2661560528144296,1.2467065184004276,0.7402451396571444,2.95884585199671,2.7056466104380905,1.4459122888283051,0.9625715157773144,0.6357360191111145,1.7867719277170158,1.2102945688501117,0.7106560453482885,0.951863762947213
5,1.3229009214070209,-0.1412339627573883,-0.16793166628794742,0.9004764894440207,0.8819825497368241,0.6095330067694722,2.7516647603574413,2.5129027781229194,0.8184798182702286,0.709893383887687,0.6528756675646988,1.4104959831547434,0.6881510308204819,0.4086415867059053,0.9503587167346433
6,1.4898429358850904,-0.18254485334118664,-0.5043499473151516,0.37805483866249,0.34420005493290284,0.45395761000771845,2.558657262086268,3.5510788461594567,1.7456298662390692,2.939160269743254,0.6233814453054027,1.4890410119501607,1.430553604622907,1.8325299823716867,0.9490055856740433
7,1.5843806855984905,0.04548113037850532,-0.6774596049543331,0.4678866052523524,0.4646543293375737,0.39680345701349956,2.0067106010506555,3.26474120538588,2.1818360614974575,2.258308243969909,0.6528756675646988,1.3121355966053287,1.7585597154221173,1.905538555351477,0.927357351098933
8,2.0187142922891654,0.09734155789570575,-0.6878919599508526,0.28550353201875855,0.28710184854592885,0.3146026340983679,2.2178486873866747,3.35373521992191,2.2457676393840327,2.826979914751535,0.6425374456860184,1.4851575119237632,2.1047819943352697,1.774992609370988,0.9648696389729811
9,1.4755349296292442,-0.04386116874449275,-0.15539925408041966,0.7476271185917834,0.7118835624309714,0.49438534105297,1.7565139446470766,1.760492454694695,1.1650956940872734,1.300666928759656,0.6602640781246099,1.1188830255104691,0.8996934003981044,1.1115765244548241,0.9531879911394402
10,1.450355778845518,0.21809180998691535,-0.3596037733345072,0.46638152025186014,0.45980938607441896,0.5320519811094562,1.840675757943308,2.2301077749413327,1.4816869963382768,2.309768359861714,0.6068309995095971,1.1925567348446513,1.2204634561432395,1.1409399452266746,0.9396436192684919
11,3.131427062301751,-0.8177750918899045,-0.7909681246756671,0.7607714307820853,0.7566721200659215,0.4480984450830533,1.8864956064401202,2.0611115890507508,2.0571947222098426,1.5517976139776968,0.6180765742263259,2.0881011503178653,1.9486036324578209,1.2181274718326118,0.934913209761338
12,1.3056082594401166,-0.2641146669366127,-0.28540563004348124,0.2400665695721527,0.2414813788457924,0.1887600863902135,1.3151255739631507,1.6143333713121735,0.979594117401982,1.1773669744356678,0.6468212168108125,0.8332013878625596,0.7151936895648398,0.7319937411695889,0.9693667356888308
13,2.568773632055293,-0.6396292155990254,-0.6193917788437554,1.6551191991233989,1.6529242880513215,0.2633808447198943,0.5344583425126797,0.9883503346589901,2.1160971971857916,2.8662798414137316,0.6333676938231112,1.658219743304921,1.8602607989719668,1.711140292984914,0.9193862382900488
14,1.4223528996777772,-0.14652381935671344,-0.09160203641341061,1.684149132682251,1.6773626304305052,0.9368980361880058,0.2638871020103857,0.4967341816311265,2.104478144177853,1.3645443983453276,0.62595550513784,2.1631130477074514,1.969279582152179,1.1998262883640873,0.9136849844122188
15,1.4349941875116612,-0.22347310871048046,-0.044392472958362995,1.5856606446196913,1.5730279347799332,0.8689963446301208,0.30057603953556244,0.6106134755799455,2.768385333298336,,0.6233814453054027,2.3135336997366025,2.518955408976179,inf,0.9046826808794869
16,3.0232029120295727,-0.6603909120962198,-0.05510044375077904,1.3618025161274208,1.3440014780043619,0.6504293595172015,0.486303888999691,0.9047069050784247,3.2549504964956113,,0.6097226960127671,2.3258537199334,3.051025969117739,inf,0.9303320295920099
17,3.7848709426296576,-1.4048331070607256,-0.4102991403149944,0.9425710392196327,0.9334221044501644,0.5611184601061311,0.4027842020957019,0.7024156364044314,2.3467993415725505,2.7248805247418404,0.6425374456860184,2.2971554159612686,2.1538640901995643,2.4906373244969853,0.9571813168802016
18,1.650970618169703,-0.19811647418036438,0.0,1.7826083952350287,1.7487418001262636,0.8525161099834412,0.9506925917593482,1.9165093033252902,,,0.6684167106117298,2.662758211910503,inf,,0.8767911923769776
19,0.7897211627572788,-0.09213413565501587,0.0,1.7772070420440254,1.7370964898687578,0.9022587531878417,0.963696990665487,1.7786328316385462,,,0.5748741956352443,2.5246181500242284,inf,,0.8844154538921897
20,0.658345034196955,-0.07680692065631142,0.0,1.7712469489903786,1.7597648103638182,0.9320053927104487,1.0524909701423748,1.7420473277987951,,,0.6153451465759925,2.397262139935954,inf,,0.8993133250026961
21,0.5796935070462423,-0.04444316887354525,0.0,1.7848571630632422,1.7463189077584351,0.927564750792422,1.1669264286466943,2.612085006475545,,,0.6509067234006624,2.8262708324896413,inf,,0.8894155743615835
22,0.5271705077791334,-0.04920258072605245,0.0,1.7811504219383103,1.748350807276017,0.8824358394048707,1.2898687221778338,3.0119104107137487,,,0.6284777104787076,2.6796247269185063,inf,,0.879136743342222
23,0.7618486819937232,-0.045106441210509024,0.0004243579988415652,1.7857612274674888,1.7583297502979023,0.9036448039343609,1.5301310191928679,2.253781596036883,3.116172758023512,,0.6602640781246099,2.712560356580096,3.018250790464024,2.8435404582120656,0.8609678247952683
24,2.3965214931032723,-1.1870914162644661,-0.194886872290575,0.15530386776307528,0.1571615805259056,0.1532610553288147,1.3413329292801628,1.3286312874535657,1.3102590821106517,1.5262826919396206,0.6180765742263259,1.2646275191877545,1.1142388460376622,1.1962876568990655,0.9439720716230118
25,3.561135895537145,-1.4294420712145115,-0.13368795741375641,1.541641785840947,1.545041006421268,0.4350890545799184,1.2301020852655111,1.1007498838817202,1.9234102685782175,3.9303405946328698,0.6309483474627791,2.139238728137566,1.7066844755860562,3.5011987350423603,0.9194452907918423
26,1.5856534390363426,-0.42753538445593553,-0.35103603769887437,0.3685773936172741,0.3656112788886102,0.15628565413260978,1.638828400667941,1.2076711376537916,0.8984655467131518,0.7392920426842534,0.62595550513784,0.8751487885429798,0.7036521544292307,0.39392100701216803,0.9844560981417226
27,3.9518719025537417,-1.5622792631296976,-0.10695667076284895,1.591347001648388,1.598617717531293,0.39274455607408704,2.1194892491809494,2.1135221936229005,1.9445969654657338,2.6149956086487935,0.6468212168108125,2.4157537910996836,1.8537381241683712,1.956289483752262,0.932394063109267
28,1.1868780273556498,-0.10626111021411938,-0.036164253068558604,1.7586246625449085,1.7431018201738173,0.9152784080127376,2.1322374515381703,2.361362337065129,2.982376377957937,,0.62595550513784,2.6884109858498615,2.8110710252936095,inf,0.8714324373862057
29,0.7184390918098859,-0.06073878033905872,-0.013499925814629502,1.7678136582634283,1.750052979204531,0.9217949119958925,2.1024166623988103,2.975864025551099,2.184851250098845,,0.648888643467878,2.578777865398071,2.150444969259999,inf,0.8751979725234842
30,0.9259179355727779,-0.10301798494344473,-0.0019193810881367726,1.7161364693660954,1.706611385895819,0.9162956757245204,2.154629779077821,2.57489472433116,3.091494058253124,,0.6153451465759925,2.5286495727359193,2.732586118907586,inf,0.892458018529191
31,2.516376360226635,-0.43703402421367066,-0.48712664095636843,0.5211847214041972,0.5206059954525962,0.42299403019255716,1.3861857602634955,1.1993273449857884,1.309108358685128,0.6301722554478816,0.5915533975974677,1.5935645632778104,1.1731746341730795,0.5488922958816189,0.9420671201337547
32,3.106465402634712,-1.0210671851720439,-0.35127684203025933,1.239138143064194,1.2284577054025851,0.7137805054853844,0.9124877836623354,1.0620773992870731,2.56446568596703,2.6289499975230806,0.6584896970785714,2.057636563129166,2.0474319624559105,1.5499237849016927,0.9410297018012983
33,0.8738351932127889,-0.00012438819440174775,-0.2152219511534798,0.5430403416653675,0.5231221139015877,0.3332579519831323,1.067126844933586,1.0012163861457148,0.6543907196141436,0.6250171868150333,0.6097226960127671,0.6999480317904492,0.5100055849545679,0.3686318322063187,0.9495244237355943
34,1.723733693777264,-0.49594443889177975,-0.34926914510522766,0.4933032317730968,0.4780877829994516,0.494439563928634,2.4721141524100645,1.946176603635195,0.9096361174800761,0.6895823516327149,0.6509067234006624,1.4288307874017363,0.7610210356050698,0.4807420410514503,0.9415796460839065
35,2.164674214042455,0.4851137430820176,-1.0319968746899333,0.7085071705831156,0.7223487116287719,0.31246658552272033,1.5649590917553915,2.152147787570976,1.908990235518888,2.3192462691366558,0.5783247308855777,1.5491793706886943,1.7369052038729567,1.937331483813268,0.9474490638564765
36,4.324727949118094,-1.3811354880783653,-0.19049208262351208,1.7426246551440188,1.742359266419522,0.7552211643035258,1.646463201505597,2.330562283225546,6.253668187565016,2.295884919223482,0.6547956803312163,2.8446338662223107,5.997981725628555,1.466337068793427,0.8886969637007284
37,0.6945651800002638,-0.08103260433336411,0.0,1.7625296122538245,1.7160067576425526,0.9436349106906733,1.9229843477091677,2.649235577417709,,,0.6602640781246099,2.470609345087176,inf,,0.906776963886075
38,0.5546193827708663,-0.04436955062166931,0.0,1.7774393644808368,1.7468516791608224,0.935610919874748,2.0947076805360383,2.4597121488626907,,,0.6403206450210053,2.841581593726733,inf,,0.9019541797375059
39,0.8883701838746627,-0.09229413268202047,-0.37113537617230463,0.2828141130530993,0.2805568983669157,0.27813421630470153,0.8608239118062425,0.3890991410603215,0.2499883845126785,0.09797451276842052,0.6528756675646988,0.5787872811053184,0.21688493272202955,0.06726207563577652,0.9583469339930631
40,1.3208687435384459,0.045772373440654324,-0.35073335371177083,1.6874682684877786,1.7050807302991706,0.2379072668738331,0.27466328353837727,0.4263287544420612,1.092952476571636,1.2589470428395757,0.6468212168108125,1.1498354100792445,0.8485383085118096,0.8950025483254092,0.9335867403509612
41,2.1410463017899293,-0.4793220451371525,-0.3248430986596368,1.7607222660476736,1.7651931528503189,0.20430111065598805,0.6984819974437277,0.6724970229800691,1.7389533662901744,1.990196584842677,0.6333676938231112,1.683622810623477,1.490970348095488,1.7227134500702876,0.9371454765583325
42,2.329046600469206,-0.3655037678282488,-0.1391229956067458,1.7900002255238388,1.786162587620835,0.9196672457195769,0.8186078715166423,1.3089811514092138,2.289042442062045,,0.6727386042041725,2.5795104124969788,2.092274522573097,inf,0.8710675359002222
43,1.7053961202559111,-0.23155924576333795,-0.08678136335109884,1.780740410231783,1.7472542722694582,0.9258912651449545,0.7445647727242212,1.2011434131106034,2.354285255787602,,0.6547956803312163,2.5070159353761015,2.130907037083798,inf,0.8812682938867973
44,1.7811357185381107,-0.19941204518283026,-0.2280605272663163,1.324450932422475,1.3192861760239658,0.8267515203017874,0.4092097283444381,0.5529557642311573,3.058029611856272,,0.6841113288387766,2.413268391535206,2.801934068302324,inf,0.9255637118501239
45,2.2753438173248832,-0.32630385754368485,-0.15151834409454065,1.7866260334405677,1.7299502269062712,0.9343635190855005,0.4873254019772138,0.7942305712399926,3.9656468198425987,,0.676637947632344,2.8102675136545034,3.5668595142654635,inf,0.8981887773823927
46,0.7333304724681993,0.04897527100840715,0.040396777665204886,0.23810219477118838,0.23913339894242733,0.16743945636534235,0.4202555473239386,0.48172200237209667,0.6412113772765775,1.1157062612376156,0.6068309995095971,0.5829981481703219,0.501974254793753,0.6763225254601605,0.9703670357727359
47,2.0335185745370357,-0.5426446271535142,-0.3081010378654527,1.6136988977508722,1.621365463847181,0.4672444051257441,0.3839648861592514,0.4334835054955221,2.041986729440339,2.5003680478202885,0.6447042257417027,2.0727087026386517,1.8222387019992397,2.100971492819471,0.9556693055117803
48,1.8819837543418887,-0.8945860501705905,-0.11753910309675747,0.18508749434778257,0.18625334671552798,0.14705702237368667,0.8269389778975019,0.8216210571788112,1.2060676971253912,0.940884190859599,0.6207552362147116,0.9994911978003026,0.9791602567364684,0.6413878692427258,0.9700755749499499
49,3.0920492394500934,-1.5521696232980817,-0.19999161239030452,1.7745182666179762,1.784501408194392,0.3922991329692058,1.0272093450355129,0.9112961325070257,2.0468738487690517,,0.6380535849069913,1.9675424491824272,1.7397272967098578,inf,0.9109559242808191
50,2.134460204780859,-0.4344257377826354,-0.14901572016630185,1.76276961603644,1.7413511235483343,0.9408293948137373,0.6264572100273487,0.9124394635133017,2.4584676555664133,3.8700410175129423,0.6153451465759925,2.357628098829243,2.2083213740055667,3.258096538021482,0.9197813385120075
51,1.4068132502605444,-0.3213985021252076,-0.061546046980899494,0.15530386776307525,0.1567363391029606,0.2206633318243176,0.8650828051877498,1.047475843398788,1.671549340747172,4.212807531405542,0.6566669596287297,1.5585863822766668,1.41974265437864,2.526602579255729,0.9589985282073827
52,1.7783064328060014,-0.17250272862561322,-0.03496635520175361,1.782753442157656,1.784429095372656,0.9163074636641315,1.4470103189681875,1.6467670318350218,4.450665750645713,,0.6068309995095971,2.823087011090568,4.177758690957581,inf,0.8738790731509831
53,1.789387169768466,-0.1538966891264162,-0.0846882668427126,1.786515269726256,1.741443225953323,0.9233218210016914,1.2715047118551235,1.9660613211369937,3.837349732999452,,0.6097226960127671,2.650882528045869,3.1769525952803113,inf,0.8850407934011161
54,3.556269882903453,-1.3459241676076243,-0.37192919356297577,0.3782133637254023,0.3750494948103097,0.3899790053763082,1.317338935371711,1.1191511788297648,1.9094107146400754,2.3190708266922924,0.5915533975974677,2.0781090964460573,1.7190982345535073,2.1507721041686785,0.9556465619382839
55,3.407977270262777,-1.1453579166269212,-0.07015397643346918,1.7756562211847688,1.778633827175378,0.6915687829743549,1.802841781897803,2.661585774754742,3.717067481782324,,0.6509067234006624,2.1231380339835213,3.2160013270847707,inf,0.9140215073713261
56,2.3457306391388704,-0.9876875012999592,-0.15433914433063678,0.39535130103941407,0.3901371853426288,0.3618336089132329,1.41928627608586,1.0617975731332236,0.8851509406106082,1.0402859286171804,0.6233814453054027,1.2698356587960309,0.651425239042606,0.5472476061397272,0.9440236187683164
57,0.6275247511388645,0.20479223958058101,0.03502746607628038,1.6898573506052708,1.6724598331181653,0.18674243054463696,0.23631061640902506,0.31351073058046963,0.6594649650223029,0.8655153015613014,0.6284777104787076,0.5985241054448602,0.48224826509491847,0.5141601445805817,0.9162890350712601
58,1.0792797527270483,0.13797186378365311,-0.056749564079200954,0.7273445384488472,0.7230611539861641,0.10289927924857148,0.14481789740311551,0.22622706554600025,0.9129803391289499,1.100985686754236,0.6403206450210053,0.9289539058275524,0.7187629411503325,0.729472067578611,0.9634731241116523
59,0.7293391597904296,0.09738814855503902,-0.11519102437077111,0.18880655353635273,0.19063895167443834,0.13535258420709712,0.17477699304736605,0.22577914040907404,0.6265876654199688,0.658633924380869,0.6233814453054027,0.7183054571105069,0.47286081316821066,0.4154423151452232,0.9703423454989436
60,3.440098733761952,-1.672059971814157,-0.22995278536687394,1.7629866043765179,1.745001297622054,0.642464470054811,0.22442907874885623,0.4826235054759762,5.261981867996745,,0.6309483474627791,2.3322427890143076,4.826826918248735,3.1498829533812494,0.9475391751670649
61,1.4621468840271785,-0.29742859337029764,-0.03886518995595341,1.7639799874420454,1.751881459848536,0.8565729617865855,0.284928417344954,0.6356274253623082,5.425131893378571,,0.6125606311107803,2.5100193506030757,5.342197537219913,inf,0.8911503665954101
62,1.1935941572498205,-0.22280424268663315,0.0,1.7704490810073157,1.754043412577923,0.9201023287282835,0.3795964021909867,0.8503394702405309,,,0.6038851895711802,2.6538777222138172,inf,,0.8629220241837613
63,1.9986149922109249,-0.31871936559402925,-0.6518554436371534,0.5913967943086064,0.6013136352104873,0.14368488178480346,0.40678952156561704,0.6627783281142188,2.493730483712545,0.913826268933729,0.6447042257417027,1.3007692732961758,2.04688734143795,0.7387197778387983,0.9553418168673793
64,2.302729628177362,-0.5193977503822538,-0.5080790654506164,0.5173404436157826,0.5208797706854786,0.3025529700553503,0.4818324743016317,0.6331087775724199,1.6249590372011293,1.507400494893527,0.6068309995095971,1.6565295199679508,1.4020242311684492,1.266462628820702,0.9679853970090155
65,1.37235799448606,-0.20799416463658377,-0.10763759958168798,1.7417871532045393,1.718059615659244,0.9369254029429767,0.4972367352789285,0.8196073031367022,4.214716040098071,1.46415157537739,0.6652988471865258,2.188958832919187,3.8433277087090505,1.0445450673978338,0.9169890503420044
66,0.8883982006443527,-0.09906047738062423,-0.024981002487865556,0.08467349851939517,0.0856222928351376,0.09773429989567517,0.27475877981436453,0.3391987962255218,0.6667663918849871,0.5976600294867722,0.6566669596287297,0.7594294433539257,0.49346131108349595,0.3538840405771952,0.9709937267803825
67,1.615257882234223,0.2714290338297317,-0.825947585020044,1.7033646072984912,1.6955058013931799,0.3834349538056322,0.10195010642525275,0.19173340314420317,1.9933544480184848,1.93012726071043,0.6038851895711802,2.002645123146763,1.771066266483871,1.5677454695780204,0.8824146629195272
68,2.1780720371546782,-0.3924920603386868,-0.5236782525587305,1.5505839781862052,1.5147120635276392,0.887182030398686,0.14674507230665754,0.29651802637718816,2.5701222518439093,3.5212930042694826,0.6652988471865258,2.4123999590012524,2.316822875656818,2.3878826735059406,0.919730636776346
69,2.6098747130735913,-0.7931858907001968,-0.2664445606593526,1.766622520307703,1.7712140000210463,0.869621122539075,0.2518628180331317,0.5110130114869469,3.2841678789683755,5.713611602836847,0.648888643467878,2.396407491205586,2.9661521440708047,6.045005314036012,0.9126206105171885
70,1.2582997107968519,-0.18934229044976997,-0.020359891366329617,1.771051132645792,1.7321993132628493,0.8809322778438277,0.2743594873505076,0.5806505370336106,2.977363591205178,5.4226454551838765,0.6008849035917525,2.3010307460618087,2.9019764406819033,5.511410582008745,0.8754882023259266
71,1.7216040529065897,-0.3039394285349996,-0.017426661340897074,1.0322889365010788,1.0095586141847748,0.5940578547239238,0.3182829659589284,0.6459053827725578,4.924255856324163,,0.6180765742263259,2.43358002262266,4.739878422092483,inf,0.9135854308603506
72,1.240456686484595,-0.11435598987571338,-0.13276985851722312,0.41383175975687725,0.4141162428763231,0.29140254481677075,0.4641278380955059,0.5104717983938619,0.7573007621892086,0.7026402074773949,0.6380535849069913,0.7789955976859829,0.5659009347379791,0.4836652433281977,0.9336231642271346
73,1.6267885665913548,-0.09006075091066268,-0.28564435012020006,0.19517169521930086,0.19514473622160258,0.2629153154290473,0.4277343156510824,0.5114984582290019,1.0297838942600768,0.9558376386612208,0.6509067234006624,1.1841338668683536,0.8256157884331164,0.6520532946354203,0.9559270914782481
74,2.3066608874455747,-0.5863431583793853,-0.2753417903481196,1.6061996776924896,1.6199781715032497,0.40704789942193703,0.6958910834354359,1.2104537901392969,3.6303184736802425,1.760161743835764,0.6357360191111145,1.8928328913214911,3.3061420318942822,0.905285118037553,0.9264954377436397
75,1.6868499673226174,-0.4472791694444954,-0.36599969036882407,0.7548981803481469,0.7522273790637176,0.1342639474056016,0.4640464690117741,0.6245362950848015,1.2976146611936874,0.858144164216377,0.6309483474627791,1.09578296165795,1.0911942992267198,0.6808505325766003,0.9549797927967659
76,0.5715928242133332,0.07751883561678063,0.01778234637270104,0.19804851594381867,0.1993439785275244,0.12244428453911808,0.31351077076114936,0.3571226457929772,0.5025173484879978,0.5464590014436157,0.6207552362147116,0.4859884868410828,0.3359015696115879,0.3078001877863004,0.9680403130856607
77,1.4381572953555355,-0.21984737583683867,-0.14456211859875318,1.7148172954348908,1.716615629261258,0.43487616060188833,0.3692334651692746,0.6086971160599022,1.9568700749673276,1.448922854675565,0.6153451465759925,2.004457762680726,1.7707060600302227,1.264213940250961,0.9380396878809372
78,1.6036870963569563,-0.2988271832491657,-0.027255859676748758,1.7654078415678163,1.732056071115585,0.8997488435864455,0.4699356909142837,0.9282824533692909,4.660009102165716,,0.6602640781246099,2.2749699259610723,4.190952600742025,inf,0.8784343962056129
79,0.6127281907405782,0.17320642983221168,-0.003057150017891308,0.10696905971831198,0.10214899602332944,0.05907927372369252,0.25566240101202725,0.3046997237253066,0.47468669498694555,0.4735825716137719,0.6125606311107803,0.41703174447962976,0.3071246229546605,0.23096182159508988,0.9762989952176804
80,1.1666008138662907,0.11193316817711141,-0.02607481658120614,0.12288817977761199,0.12370180042570164,0.1170939530891348,0.12722376432474752,0.13332015424524393,0.6797821509391235,0.7396341233228473,0.585052858160615,0.8660201825342888,0.5121296576441947,0.4918595003706285,0.965865994708749
81,1.8149631418414276,-0.1970587583043043,-0.4081824034810308,1.6616055763487578,1.667915181581873,0.549976283727826,0.1573242068227999,0.3047570389348737,2.258727633575011,2.2611209267871417,0.6180765742263259,2.08684666986661,2.0637155723537193,1.8145849965702794,0.9108472818853179
82,3.2557247861973564,-1.1144103944530126,-0.19305365708682481,1.710691820407272,1.6861260645300744,0.8466308885742846,0.1874530704383161,0.4167677087863557,5.168807036401284,2.826513170285652,0.6125606311107803,2.705719585763928,4.439165486507159,3.56953269648137,0.9034960042815211
83,1.502999474323514,-0.11801024664899185,-0.38672095880471113,0.8084123020720124,0.7910259190941864,0.5837491558955333,1.930599848916886,1.3208861160452934,0.9500205862559358,0.6819440959933198,0.6619902821573977,1.4125014532890647,0.7848231290474882,0.49190386452506957,0.9455823809087829
84,1.3481908937682916,0.03059403953153028,-0.2663610509237887,0.8477699880067269,0.8194543187979697,0.6341083614479401,1.8783715957603364,1.5383717616058015,1.0335745642601832,0.9093354235187143,0.648888643467878,1.4005736037616128,0.8885469882791436,0.6410320358672529,0.943442206951265
85,1.2879698908867254,-0.13132040022612956,-0.15097099667488512,0.5931320710449873,0.598739842784403,0.45589005640856534,1.2885233804255551,0.8224325923499762,0.8332855653779022,0.6674964173082211,0.6619902821573977,1.1601331453163601,0.629029698064429,0.4005897191167294,0.9525694578736728
86,1.6043647086573196,-0.33812208559951384,-0.3570798453369115,0.6821651800248362,0.6698504726717137,0.5049881090061011,1.316348509657802,1.0870297503927118,1.3764675331098994,1.2675609588719625,0.6566669596287297,1.4289699242894687,1.1104633115199003,0.8991199323965553,0.9387122392038943
87,1.9320088694534236,-0.43488781377423247,-0.3878787984037382,0.9997787842403466,0.9770640929789792,0.5565539965978881,1.4320843404078647,1.1560709118335268,1.4453406426977438,1.927674888362723,0.6668815377411301,1.4559064719149808,1.1855760182485584,1.2924453506526568,0.9494459722448988
88,1.8631376343448274,-0.5125493128531933,-0.21614695939838968,0.5788903028000126,0.5677091442880368,0.5374116777625961,1.262913124038984,1.053278159831128,1.3509925626078645,1.7262277660960095,0.6425374456860184,1.2905398356072995,1.0815144327645791,0.9740238140691974,0.9543021642847586
89,1.5424240023312923,-0.17192760283286512,-0.3406723897803773,0.5241151066378492,0.503579832578018,0.48078629631816266,1.2708133954016465,1.0312981959660583,1.2033933900439957,1.441016999975733,0.6584896970785714,1.2721723397934916,1.0105011993752107,0.9612352339752678,0.945788055266753
90,1.385627873454342,-0.20874572538162017,-0.21401541441374472,0.9623994202136121,0.9552966179430243,0.682607566938882,1.809104295911859,1.3395316677146898,0.7921435699753873,0.792727819913532,0.6333676938231112,1.2608175418772398,0.6402360956112922,0.46139941921546435,0.9474583544371316
91,1.6580463016702378,-0.23804311443525994,-0.41924632059266004,0.7690576516796981,0.7648940587527603,0.5602219787145284,2.0848354491532257,1.602575423734124,1.0949753018977582,0.8992939998886437,0.6333676938231112,1.4515323861125073,0.939641084258646,0.7037654532662856,0.9479443064602457
92,1.6830284305591778,-0.31182202550831384,-0.33864464852076503,0.6575999688218978,0.6598079214954204,0.5049175221203431,2.1618225547549033,1.974265284430761,1.4654153149199511,1.6906376097142815,0.6602640781246099,1.5227506620418954,1.2411646719017102,1.204090306235477,0.9523054292140207
93,1.1143648180926065,-0.09163030645453873,-0.03848007505639517,0.773154728349274,0.7693925925293231,0.5511752286917847,1.8329595136716161,1.769331765708342,0.7269179242346846,0.8557849657620333,0.648888643467878,0.9629747821260113,0.6115787284545874,0.6221711917139696,0.9366300597073305
94,0.8451892996591466,0.03586924646873402,-0.0818137564419249,0.30667374100099976,0.30397901054999316,0.2591972939532033,1.592113974148107,2.0433574168757653,0.6788481243733583,1.014766859024687,0.6425374456860184,0.6823611154216211,0.41525167291340503,0.3980501098402296,0.9592239440469575
95,1.8574934336238182,-0.4129115941586484,-0.41394980181527863,0.8189014980708503,0.8013737047422658,0.6031814565792569,2.6031633115896393,2.0732087941585378,0.9799793898839051,0.8452571441352348,0.648888643467878,1.5233621581881411,0.8657495808117338,0.6238797324442004,0.9441123036145487
96,1.6974488249821185,-0.12024529207592405,-0.5757908122327726,0.9508634513931394,0.952386428074459,0.5675373404913389,2.1364451737800225,2.2820718588602804,1.299964748588877,1.4193512373349875,0.6333676938231112,1.6143946210871436,1.1135182091113183,1.0294834182689399,0.9487217877716924
97,1.3650082466013378,-0.16796551350049127,-0.18131306497304,0.9625536842415587,0.9549025794010895,0.5761472245453414,1.575701925185175,1.2478267055007735,0.8679946856553226,0.8661754893390862,0.6403206450210053,1.247073627973962,0.7036815727445509,0.6353723964268925,0.9372503069391621
98,1.1008370892737114,-0.07865835847002633,-0.09817265858785829,0.5153357100267952,0.5207918167463937,0.37765316079217287,1.236553691431776,0.7825596049152823,0.5424545739249663,0.4325196713170437,0.6447042257417027,0.9806218671102616,0.46358413262862214,0.32331624512512575,0.9343755183313549
99,1.4120533837892681,-0.06876551431369882,-0.2254748070808511,0.7113311402598893,0.6974429823669912,0.5519539710708977,1.3911329020057936,1.0035040018401757,0.9938855512608123,0.920488460937981,0.6068309995095971,1.2095438493753914,0.7919494842569558,0.6311402281851087,0.945679584295391
100,1.6118958764180498,-0.15308139049154335,-0.3747281373157625,0.9083801432371691,0.9094746253133785,0.5537805025778648,1.6694673023729285,1.5060136852419377,1.3593542346064793,1.2536867198354633,0.6357360191111145,1.497697789812235,1.16697368798803,1.101809222337223,0.9476903742216602
101,1.3367838276047501,0.017607795341738064,-0.37000911350748855,0.6492884376299715,0.6132570187116422,0.5369893975429034,1.6788470955529633,1.3451784956862143,1.0637098008892767,0.9791216427359353,0.6425374456860184,1.3543651235479472,0.8836814483085272,0.6803132225798589,0.9477205634220129
102,1.2626049862778264,0.006946131283894985,-0.1402512499732087,0.42962396014864823,0.4152019030564388,0.47470798511672446,1.2311686650091695,0.9073624120323618,0.7376371677830893,0.6816478322156106,0.663668482632973,1.0922326817040706,0.5768372897443831,0.4599353669106218,0.9348574870717137
103,0.8885515240925297,-0.0909422802930091,-0.11793231474851074,0.7377741338611103,0.7172637806325552,0.6407895928055098,1.1072484746531028,0.6315811858580405,0.4571549378911524,0.295770388906928,0.684994737851132,0.8760022129600437,0.3654032743686172,0.23277335910175004,0.9442147311254377
104,1.3217780240061772,-0.10845338134457216,-0.2258778037835285,0.7171758735329533,0.6937073137998803,0.6524332180212891,1.8978673261697,1.233087231821889,0.7440090871245849,0.6030206989770538,0.6528756675646988,1.2211566414262036,0.587748986636822,0.3930300290033131,0.9485510639143426
105,1.7356414688538957,-0.1443419247128298,-0.5730023358578444,1.1077347084577034,1.0984829298934622,0.781378145954188,2.4067647450928193,1.9362603550964592,1.304376724401456,0.828763228969637,0.6566669596287297,1.9851824190931835,1.176473265445126,0.6915744410483452,0.9470954360263164
106,2.1572820384110867,-0.18114826434485964,-0.5436763680335309,0.873809368390449,0.8531385958333144,0.7362562061685533,2.468901353348532,2.2507738888893947,1.9280365568965876,1.4391248368435525,0.6380535849069913,2.43231419966883,1.71472815155372,1.2060832518204818,0.9457856695106488
107,1.2279001854153462,0.031090321973684,-0.16550817311164967,0.4362646122119963,0.42122481041605486,0.5546776012782075,1.2916685354987962,0.8663183671080041,0.46401507647338813,0.3644481541505163,0.6233814453054027,1.2941001419938232,0.39263886938951004,0.2647980502037817,0.944269799673622
108,1.1028974321005938,0.007840989477321147,-0.026855105385304445,0.5993702751994476,0.5855722043767714,0.4496967854902279,0.5783050833683392,0.4048083817130953,0.7446519628743455,0.80836470766192,0.6547956803312163,0.8996248272316592,0.5669159660158891,0.519774770442804,0.9497411089985197
109,1.2380160641676057,-0.4257202920815375,-0.1628465668707571,0.899269258698869,0.8778372309468679,0.5399016964012944,1.0599394731407024,0.546226689007852,0.45029135633543277,0.3571342236490797,0.6333676938231112,0.9034841978269367,0.3518208880013134,0.23289896179173386,0.9447601081204499
110,1.3770722135297369,-0.07578905659913282,-0.36264168126356466,0.6756853736154995,0.6679802408401628,0.5871366685677828,1.855702100181523,1.3860749472736693,0.8170788886930914,0.7167552816769688,0.6447042257417027,1.322964903938992,0.6905224524621104,0.4676929116460841,0.9510408188760214
111,1.4716907419175833,-0.001049181146525413,-0.23010196774742475,0.6039389328984558,0.5829711853012837,0.6473858754369793,2.065723708619214,1.2736295179118833,0.9034750572161985,0.5186087330328838,0.6333676938231112,1.6078280977702017,0.8027134700624917,0.45806869828195856,0.9401608212318859
112,1.5751115305732997,-0.0934124331698648,-0.2749614910575724,1.1619706684775923,1.141130729097228,0.7493870804133621,2.1245104269761215,1.8426766493091584,1.1427322449231059,0.9868085129731715,0.6207552362147116,1.6547840142009773,0.9863866580616881,0.805372811166367,0.9455159841522695
113,0.6800153946230306,0.028546205945494285,-0.045712238481730005,0.21741154249979316,0.20554301564617078,0.31016353029509225,1.1604026678583073,0.7277262367701862,0.28084389785722125,0.22330888402159324,0.648888643467878,0.723720942142952,0.2382065976253053,0.16700650878624135,0.9127949823835795
114,1.8533222801521818,-0.11872636156508865,-0.5152277874506414,1.125506191144849,1.1283716681705889,0.5418529925103645,1.0886327680165855,1.108643541595585,1.358025394913113,1.5126974061287293,0.6425374456860184,1.593947401205317,1.126344086319247,1.1287567187421936,0.9469970080868074
115,1.6397074293201606,-0.5094131419938689,-0.36720776484415985,0.713776752550465,0.6933719208730414,0.5271689684357895,1.4223674435946563,0.9973205747245961,0.827780968414302,0.7686779448911223,0.6425374456860184,1.1828638411157009,0.7254294443683057,0.5964079916321734,0.9440470531830983
116,0.9984426152479714,-0.12337526837971313,-0.2206485164492955,0.3589260611032323,0.3558089053836649,0.4710475719147445,1.085413676168262,0.5003153339028532,0.40264382681311744,0.21119713932934964,0.6403206450210053,0.8640409506215995,0.36089070472518003,0.185564327807964,0.9467444354710992
117,1.4439203163914354,-0.30345033286187795,-0.22758368686739688,0.8063903601837183,0.804003804064864,0.6538825054307783,2.2665801815596622,1.2031697699624653,0.8972620716058745,0.6000074785205062,0.6509067234006624,1.4962580477241425,0.7810925740913618,0.5470461471571274,0.9316102457163926
118,1.2035626470269274,-0.10713990451726252,-0.2164862181918773,0.5762053042157935,0.5638860148839082,0.6064658681103688,1.910027118061377,0.9477800857106087,0.6109551089499833,0.37596227572996793,0.6447042257417027,1.3067440823618817,0.5444115968228298,0.30339262387107174,0.9435771038848487
119,1.7259441577436878,-0.4192637730585932,-0.22798763687082202,1.1045468019290317,1.094967430743206,0.7259493684150534,2.629945290552424,1.8708777144572926,0.7881736937309529,0.5110332385365881,0.62595550513784,1.4146481119498497,0.6228414072652108,0.35234940440054585,0.9375758580083059
120,1.0605417770888808,-0.33866177482839527,-0.09226529647187248,0.6715161538139414,0.6673929890615945,0.45476737268223333,1.3608396874859492,0.8439030306947359,0.37037319992215334,0.31693057325813795,0.62595550513784,0.7629737327954742,0.29513661256330564,0.20915730933946983,0.9327390258550294
121,1.291390110289441,-0.11344722102738536,-0.3127841108563909,0.8051941709898258,0.8090127632238947,0.44651580979453614,1.5293248369458818,0.8298199629768113,0.5591562168280012,0.43217631168281223,0.541134803179459,1.0511881364333777,0.4733981369744368,0.302938552266983,0.9405247752101934
122,1.1036394464850456,-0.049635080369245466,-0.25151611814443253,1.0812702509789183,1.0930223084322954,0.4059445598533027,0.8812477358436541,0.7362818749161466,0.7783991653641132,0.8029205468765372,0.6233814453054027,0.9286726276978852,0.6259089012521569,0.5718118676255859,0.9476412567243025
123,1.1056683216320269,-0.15120319658441328,-0.055438587388772054,0.40920771757934815,0.39797344199667717,0.34976600689656184,0.5465441478953273,0.5111405215349816,0.5785459481913918,0.6963065780495223,0.6309483474627791,0.7731528518822989,0.4348651603127419,0.48879497972406066,0.9432924409849501
124,1.495089396239065,-0.22094472067609783,-0.4350157467864119,0.6302996521147199,0.6151824907971222,0.37147034527547884,0.8863805440111936,0.9591991897871922,0.9666531910817989,0.8747131445784164,0.6284777104787076,1.208315553760073,0.8189974868588733,0.639435281126158,0.9558773244603948
125,0.8132025175282718,-0.20782592740363398,-0.08009217099145405,0.5491156319687858,0.5369588211705069,0.45388862015156295,1.0563632748531218,0.9477448217036881,0.4384116321425164,0.4794569224148575,0.6207552362147116,0.652090546902939,0.33730865679185446,0.32790821188163005,0.9550268700099188
126,1.6855308089672791,-0.31406347506137267,-0.18731305229077055,0.462668972966836,0.463501662653128,0.45482046722492614,1.1779208547346143,1.0451081940147022,1.0108404497926153,1.045128669544871,0.6125606311107803,1.1964456490168727,0.8623221851723307,0.8159274443219536,0.9563927080638069
127,1.6069304684221608,-0.1473335904112082,-0.28325985049515,0.122888179777612,0.12364002064105988,0.21833088028872114,1.1329463540297602,1.2554222704019395,1.1295709325863348,1.3351607161787915,0.5915533975974677,1.1114273857149535,0.9518783740554787,1.0597549622834737,0.9541563403737113
128,0.9460154303841138,-0.17248057017337004,-0.18246238030662065,0.6324164953847959,0.634009575257304,0.434038298442648,1.2622975768546514,0.704596864310348,0.3710632047808439,0.3199681812719392,0.6547956803312163,0.6277756731184823,0.3075846214760236,0.23117401055906242,0.9587559274968308
129,0.8309464983877803,-0.01237734852271044,0.07432805787553698,0.2730027592884021,0.2483459678106332,0.27681756533986507,0.4220321197079838,0.3364691788317162,0.5368061064912315,0.6145867745898342,0.6357360191111145,0.6613040422605164,0.3977670717870608,0.3752470383138442,0.9504470042077888
130,0.6784944945782926,0.10548817199507621,0.01965215764280115,0.15818068848759306,0.15003923094865643,0.16283090670381303,0.15506608693323878,0.17427774640042062,0.789661571153719,0.8188051578740414,0.6566669596287297,0.7221412534022694,0.6363650200547859,0.6091951456009153,0.9360971239347855
131,1.5046762083870333,-0.14143020190182543,-0.2853498080541764,1.4642790739041907,1.468511797734512,0.4343997617414473,0.07113286671606096,0.10973997995187543,2.030436229456705,2.5657518984136174,0.6284777104787076,1.8351542148805793,1.7792363872426178,1.955443900023265,0.9027354491647918
132,2.844387666047757,-0.5722034282373696,-0.520999521958317,1.5006570292174601,1.517686429240361,0.882798806445374,0.05882686402331473,0.10838928812465018,2.3970436502868435,2.421546442451945,0.6547956803312163,2.498059436366301,2.1410123012974718,1.9727026660518885,0.935278828410838
133,2.0702319977687855,-0.2616101587058276,-0.2073849028271833,1.1445185680011083,1.1247744408118325,0.761775595398601,0.06837918043620198,0.1217866357974301,2.3719125545900184,2.4782064760174363,0.6357360191111145,2.400933216011822,2.0062972730253503,1.5886884084201904,0.9113748576922356
134,1.8951271004481292,0.015703774076670785,-0.52524724544812,0.4032981570755061,0.4018239482716816,0.4667661021415376,1.0331598863889273,1.0403150601002396,0.7712985526673378,0.7203135867047556,0.6468212168108125,1.2510255897233993,0.6656925989101345,0.4874075644710306,0.9479667620177742
135,1.8156667961681157,0.47721670392121607,-0.5490282802693631,0.5216473641247608,0.5110657190222556,0.3577497378492972,0.8791782255404086,1.009477427925081,0.9777075885600264,1.1395940123376915,0.6468212168108125,1.2163453255744514,0.744622061302175,0.6498048747611131,0.9601497970701335
136,1.5014878436333416,-0.011583029173380721,-0.44299071860343586,0.43351149446569087,0.4295445290934686,0.3744402452563832,0.6302555024884896,0.5577658134142351,0.6748853512566658,0.5261655977748741,0.6180765742263259,0.9538195437665692,0.4962432647034667,0.31837083545452255,0.9488683025651414
137,1.2830775308060909,-0.04677623579818657,-0.2513285219701164,1.0881932950351398,1.1011048291194856,0.14948217732908034,0.08523505819637181,0.10862241417962508,1.3154661645535872,1.368998623082734,0.6584896970785714,1.2259154977086524,1.1552319177884953,1.077679079001644,0.9510882696938062
138,1.9979277056412699,-0.21228171444933852,-0.434091546066599,1.363315438599037,1.321007714158625,0.8376079041989529,0.0971390342477401,0.14591473228956775,2.354813271712678,2.202660474847881,0.6180765742263259,2.3258537199334,2.080465607309526,1.7701370052148893,0.9463258491053159
139,3.1149160880790694,-0.5833994987226953,-0.5427983072943775,1.410059747836314,1.3999105489862176,0.8601686371144938,0.1196367238262508,0.16337777959824035,2.657659683757308,2.8539958159794843,0.6038851895711802,2.9380924941075763,2.3895392601092356,2.2732707053252703,0.930676462945637
140,1.8752357616816742,-0.45950249502819396,-0.4814096742087169,0.12288817977761199,0.1245967376287922,0.09706878499210789,0.5824781848338293,0.6331651026204796,0.9712059402509402,0.740882765496702,0.6566669596287297,0.9830836440946571,0.8122823207275096,0.5431917886306965,0.9767152156740285
141,1.3109659531624946,-0.07084528361774378,-0.522750028210162,0.35284147125441817,0.2857187440365808,0.3078645497919516,1.1704908165820131,1.1686729684141266,0.980976689488386,0.6692343922147272,0.6509067234006624,0.8692481255408437,0.8590358874029049,0.5760804399503744,0.9617131558598099
142,0.7403753706783692,-0.22981660294115647,-0.1346277268302663,0.4595499637092131,0.4573748683760532,0.3985993332311833,0.7326119195356252,0.3566326590694403,0.1702648059698268,0.12234379648261574,0.6619902821573977,0.5068704926560074,0.13282017939653384,0.08912974363029806,0.9449866294005455
143,1.7296657474617745,-0.3985307423043555,-0.3198341716261315,1.582844195123244,1.5921358106703225,0.4137670545250102,0.7293390466753847,0.8633844479879872,1.4153321845234836,0.8967900865059939,0.6357360191111145,1.399582255446826,1.1755409022797525,0.6782290966715954,0.9334965705826601
144,2.1984324914015834,-0.37813746871071097,-0.5068112726168821,0.7710718280538469,0.7639702676417064,0.5585707622633589,0.18533031336764835,0.20551012276879002,2.4973016736795675,2.8058405994809323,0.6713451011121618,2.262403303361214,2.2699295586746113,2.4325808307862604,0.9507188139275621
145,2.5751656163225225,-0.9708280295234359,-0.23091592476040773,1.6362697672504538,1.6235239101846461,0.78467399496863,0.15669493051180716,0.17634439904218832,3.53202454811552,,0.6357360191111145,2.675905747775643,3.34716413874767,inf,0.9296282233101394
146,2.451966848592336,-0.660286954951447,-0.20607466488451182,1.6614872642677598,1.644471778192799,0.8756207828952441,0.1265312393471005,0.17107745757405382,3.1285069116933903,,0.6425374456860184,2.6340255657542366,2.9358089363922257,inf,0.9154901589880164
147,2.205916450670911,-0.5609953227459199,-0.3114096269644155,1.4831815116925104,1.4832408436100684,0.8809761960915308,0.11147771506012384,0.16512324368424364,2.5152614360829184,3.1742230990053346,0.680118107274185,2.337406607936082,2.307428834444441,2.870909208821253,0.9351263959522051
148,2.0883913656939788,-0.4500080989464034,-0.2877730639614635,1.5126794596633568,1.5005286594131049,0.9099203685069489,0.10787234623028574,0.19571469488425644,2.5281173091754656,3.004536286319392,0.6584896970785714,2.3957974747162245,2.2700667799441234,2.5828176112923824,0.9150778540714295
149,1.862896649014334,-0.3817359763906736,-0.1152865040252175,1.615796853840903,1.5918885677715426,0.8651014669007755,0.11908770094402497,0.20921884157449322,2.647918971857404,2.56182061605857,0.6008849035917525,2.4232472694012728,2.427539323753087,2.174751721484161,0.9117923639572981
150,1.6377472914835558,-0.3164742062323507,-0.07818792065762067,1.5326028839268344,1.426459900985703,0.8675033082986324,0.3146314212769214,0.341126302107274,2.540056500858232,4.5110039864362514,0.6038851895711802,2.263684944036489,2.303333475987226,4.007333185232471,0.9304031539687988
151,1.4421291280107966,-0.1724255510934865,-0.11600027450867278,1.7287295591873098,1.6954842775520496,0.9029851812572706,0.43142236523528643,0.5771045604728782,2.338295068812999,,0.6790044388599258,2.541970950409678,2.086809101217547,inf,0.9030840297349925
152,1.519669089549552,-0.4233276967171916,-0.1413592573250111,0.7914056723672531,0.804406857696921,0.3007823998643381,0.20656423160013496,0.21103141413127402,1.0412305567765987,0.8287297683413299,0.6284777104787076,1.2013466261229757,0.877206421495745,0.6385378981356384,0.9386864533639379
153,2.6610683798926846,-0.8048966926777303,-0.41699574356045405,1.5966889142258152,1.615640374405889,0.607278821536323,0.13252637295778288,0.2334042613413434,1.995470717747365,3.1865561384798924,0.6357360191111145,1.9926524116074449,1.6341916515870387,2.890371757896165,0.9171309543357017
154,2.4870687305966515,-0.4934968393570729,-0.635112605435576,0.1824414118534046,0.128184992859888,0.1885518043373985,0.1829791651758105,0.27371604611551303,1.456364501159736,2.2139813039196987,0.6425374456860184,1.2749517737845169,1.2950771294203185,1.101665726155,0.9602162505824048
155,2.7452769021825127,-0.594241506870967,-0.3169340485092318,1.6473445938975866,1.6503177858243692,0.5927520614583107,0.25343462104310494,0.4121669247511319,2.6787357881540976,3.5400395131822497,0.6566669596287297,2.1796793981204705,2.5495434365375997,3.0147804685246853,0.9606254023477341
156,2.76014127348667,-0.7236307982723902,-0.11658185154929206,1.7622536147444572,1.7602771141123228,0.5147222223694546,0.38382093754254387,0.6994880131670085,3.6586952039075653,,0.6068309995095971,2.453924912179272,3.4940545229889715,4.360973225476049,0.9583949359465983
157,2.161785933241655,-0.4725407468292737,-0.18570108220890996,1.7595075282734882,1.7690202850954262,0.5736635399400257,0.36712947837324017,0.6973267006500397,4.351747762777617,4.568010804732819,0.6097226960127671,2.474428405500373,4.096854636860551,4.836281906951478,0.9358042040856585
158,2.234433947618419,-0.5249171760029354,-0.4370561055374327,1.2387067682919797,1.2279281478543684,0.8028296980144637,0.2951790270382583,0.41620594300054103,2.477561958269267,3.7230012748636274,0.6284777104787076,2.3032519819817496,2.2373796828687706,3.016785682751823,0.9426338651853713
159,1.6070133699139235,-0.02025987129431006,-0.26945385532400634,0.6903788765193296,0.6919978945815533,0.3203727512560233,0.1759005027336016,0.23895263015186874,1.7539143601517182,1.8048158938935672,0.6528756675646988,1.781017372696153,1.5074467389787631,1.419600497475808,0.9247552579721283
160,2.110107410251143,-0.5029794808137156,-0.5193519926634348,1.7621194070094361,1.7615602887097925,0.37079903309472356,0.3858022254955474,0.706535476408444,2.617678079815092,2.38613179707126,0.6233814453054027,2.113710977108402,2.387099193555447,2.179366959936213,0.9199095364202923
161,2.082668046474201,-0.3218548065647766,-0.49134218439596633,0.8097373144988526,0.8134368799344323,0.26723527431980465,0.3634051685955966,0.5388296128388516,2.104739690312587,1.5297067081000804,0.6509067234006624,1.5175173091429763,1.7847401246642756,1.2146983953579837,0.9689034614084091
162,0.2571314144438109,0.08277925556495755,0.09546237509430966,0.06698765724152846,0.06860507038613593,0.09873087450185179,0.1680794028553263,0.19917726958526769,0.32601109113813825,0.43316033459816405,0.6284777104787076,0.2934021043906657,0.2206323659247794,0.2303124417577309,0.9708695805970863
163,1.5219088748411913,0.25388365709092464,-0.46236491873114816,1.4816257392846566,1.486121263289912,0.33187828228678334,0.11261401326210543,0.2013057961827134,1.6600172968401306,1.5633900333201043,0.6509067234006624,1.4626955589975048,1.427876218901327,1.1305223225836762,0.904820315479229
164,0.7883712614564787,0.07151229426747852,-0.03974707410731504,0.3426359977067818,0.34286059949787323,0.22417027460193262,0.28576971119773364,0.2675026611070577,0.7092978661376531,1.0221148788152217,0.6309483474627791,0.6541829105418044,0.5038255880829615,0.4816022934467037,0.9382758185410166
165,0.6843753492128074,0.02810002185535615,-0.06611805150576705,1.5766863414565835,1.600811361564957,0.25948765677969854,0.2925231440882735,0.4226976955063778,1.2356638818974999,1.6005802405235154,0.5915533975974677,1.031763937243648,0.945602479769891,1.0964475253452834,0.9445733845881361
166,2.5283884874772995,-0.6581976473525042,-0.4274198489706709,1.521027751971943,1.5440759827250259,0.3514557368803463,0.5888105620756515,1.0059477503601948,2.298389664252078,3.98281283339848,0.6566669596287297,1.5576364138708372,1.9751894102697547,2.18437967084775,0.9338227930499982
167,1.2173183718642235,-0.33336758624575424,-0.19942003115035528,0.8061788982004021,0.7821806535296965,0.5119609346212382,0.8196769736403132,0.40276840050164686,0.3878002948199275,0.2991018285009484,0.6068309995095971,0.8405650213460195,0.30695743869209824,0.1850836989986164,0.9244787057034066
168,0.6402803406849897,0.09538265784289535,0.07204726167935849,0.582914217936777,0.5768877516002345,0.29725272329635855,0.2219821262719061,0.15579314150084894,0.40862271609874484,0.38999602511446946,0.62595550513784,0.5563267582838467,0.23328237622879824,0.2216335080185577,0.9679381981924893
169,1.9541651516883096,-0.13984886627269477,-0.3662389142808441,1.4133884067226987,1.4151537811619623,0.31868227658059095,0.05851402677965328,0.08017654817349554,1.6384088163127193,1.4890638957572861,0.6233814453054027,2.032303535222432,1.4152868860094339,1.1291002934343568,0.9192742142705579
170,2.248668645730142,-0.37303289609495516,-0.2989981253453632,1.3453357549995542,1.3237205238392773,0.8295312271326978,0.045577874954194415,0.06618563828013174,2.3656756843392106,2.471463362132546,0.6584896970785714,2.4299135414939608,2.1117603329350034,2.013860810963821,0.8922096060282118
171,2.1267866590373763,-0.2602022653281528,-0.2914123261736873,1.1841261769066844,1.1640205331697488,0.7478755535746197,0.059555229873924975,0.09172129725599802,2.109728448269304,1.7135671436154623,0.6357360191111145,2.3451447074128415,1.887695932063184,1.4126729270561995,0.9187927399834299
172,1.9920426585548352,-0.3038125236512088,-0.2859690609531764,0.6955590256145429,0.6774176619786317,0.5996197712560941,0.06521121010286694,0.09640860050936513,2.106024323387339,2.4522309896141756,0.62595550513784,2.191540760867922,1.9048058040248521,2.199230596063085,0.9281984112257178
173,1.5253667458756919,-0.19062093943456523,-0.13948730083563676,1.5615738873827079,1.5534520409886858,0.9418825794143576,0.33603440621557984,0.44981010981752695,1.654553491180544,1.4421282188898272,0.6068309995095971,1.9803405761931538,1.4369861873988852,1.0509842396788551,0.9199630789036022
174,1.3883063708039813,-0.16449963194626874,-0.12428487190680457,1.3520622663710378,1.339585343264346,0.7777736883345268,0.18001340695129753,0.32202742668933904,2.0784718910816333,2.408613184218241,0.6528756675646988,2.1279784045994052,1.899954392103444,2.132608080449067,0.9313637746571869
175,1.7523203878227998,-0.21650785711941534,-0.18137653125323064,1.5808710106434953,1.5485504673394541,0.9157989149177799,0.1601205042669206,0.3003686960543317,2.37056640505308,5.978075385186622,0.663668482632973,1.9469328941029975,2.1615105924986047,4.996536369716754,0.924477415655843
176,2.029768486855651,-0.2653889217881562,-0.26041095976217077,1.6248176509466725,1.5906414990417599,0.9114900877239251,0.11614521621554141,0.21883514131249715,2.7006120661606854,3.7742374247613197,0.6309483474627791,2.280280152473545,2.421645701978854,3.1792785702438415,0.9141736022055003
177,1.3797143233389944,-0.1934027923625533,-0.14731943861286179,0.3302536418502132,0.3177992895805375,0.3069404769494957,0.2787961742114912,0.2833980686486042,0.9587173612712724,1.1568467540834735,0.62595550513784,1.0395575258867948,0.7829361027111212,0.8613518838074766,0.9715024124402539
178,1.7776137711525888,-0.18111352996252472,-0.18205965683162761,0.1804308202057063,0.18190858144978334,0.22952126795545605,0.15661795813254775,0.17537949269571335,1.2471747450276935,1.4335056817641916,0.6125606311107803,1.386383253959631,1.0235396168292596,1.0341820118845413,0.9398962510433416
179,1.4860988480879236,-0.20630875600783682,-0.16613848396882214,0.1914526360307307,0.13093577625877012,0.36946173127804727,0.27226766258948254,0.3612495272342578,1.2372474793652724,1.568373406759367,0.6528756675646988,1.4441589065650304,1.0466316863819445,1.0569751758033172,0.9556811056688905
180,1.620495172224871,-0.24154599404872878,-0.11771601003116805,0.5069811766912112,0.5046894813181548,0.34119635670114795,0.22926146609334772,0.25622214714362146,0.9203935674099282,1.0260485318302663,0.6153451465759925,1.2338212781478717,0.7571211049495499,0.763326291806403,0.9498657542855472
181,1.8611389123524398,-0.36931746368128915,-0.17690629551523956,1.441793972217575,1.4314272444222536,0.8714391023120902,0.3450045889767658,0.6599511629070156,2.833025856371503,2.3800009522846537,0.6233814453054027,2.289339866244025,2.587347455342492,2.0310679573956203,0.9173278692905016
182,1.9102940724833815,-0.43967363830374256,-0.1845033251670337,1.7202580884950622,1.7003270030246458,0.9317465451674385,0.18536413876470384,0.38567565538997306,2.2979720864377393,2.0571160500061914,0.6038851895711802,2.1792864322052066,2.0697645197778756,1.6290849098178968,0.8880847502074957
183,3.0555801040634605,-1.1139928485720327,-0.3031726285289865,0.3228811643939279,0.2986258038512374,0.2691904187721207,0.22954931805909407,0.43141822490975856,2.5561986971002773,4.506155341393002,0.6207552362147116,1.9339376617191602,2.306589410681022,3.4781584227982836,0.892192172635387
184,0.871132127551806,0.005980035027968067,-0.015370284063307205,0.391232717594698,0.39118880928672645,0.2654413493426302,0.362331736767317,0.36956181285701667,0.6521571421460564,0.649042824562498,0.6447042257417027,0.7234231287780943,0.4819580742832984,0.4210333335798245,0.9650603089518329
185,2.4952873482129903,-0.7130430915883916,-0.39736127085426154,1.1260015019226168,1.1222538746422646,0.506326008111728,0.3623180078249739,0.5432152008944648,2.2767310902970097,1.8679469552632586,0.5947193981915972,2.0077619123908983,2.041609284188471,1.5898727569392603,0.920380745423201
186,3.140630652681262,-1.1057917004732927,-0.330249405224824,1.3163921948017279,1.3163255389593362,0.599512508346574,0.45811544976061125,0.6719462506582903,2.5379645011066043,,0.6528756675646988,2.3676570897377607,2.3640846379397935,6.675823221634848,0.9401507517869578
187,0.8856712132172457,-0.3105128179689108,-0.12476765971059492,0.5915221615982252,0.5767469785637698,0.4043193107706416,0.6874658892956869,0.301273990120265,0.2364989814349146,0.18498540577401473,0.6284777104787076,0.6189677823856938,0.1806269241668894,0.11217846709330853,0.9549201928114102
188,0.7563719088773544,0.07434047469134175,-0.056238704084663915,0.9217447000522851,0.9296831676586326,0.2279559109111592,0.4427898630493876,0.5299570925816037,0.6397143426422431,0.7810909949504328,0.6566669596287297,0.6875628022660446,0.4918619346943586,0.5241407215317355,0.9506267009818657
189,0.8975688652913762,0.03483352639118864,-0.026717269276088418,0.1824414118534046,0.18285711352061015,0.1441257626024301,0.24078738874927003,0.2637644215394076,0.7134463390487341,0.8065892296207897,0.6097226960127671,0.7656222985117872,0.5346166980082826,0.5520492657828072,0.9691280157234787
190,0.8323155136017583,0.09394559696221239,-0.029251688518999286,0.9117832252866555,0.9073058942813335,0.14640862642701227,0.13980265579278142,0.151020555174507,1.0943303855054285,1.0739398724931155,0.6233814453054027,1.0548825258067844,0.8664542589603654,0.7014535723842368,0.9696763722962684
191,2.2475977449538505,-0.2844846488802859,-0.38734886577540806,0.9011936611873544,0.8938178408209289,0.7648866004437878,0.08828990643590742,0.13008672585021042,2.3430203053923604,2.606306478644752,0.6380535849069913,2.5328371835455505,2.0936701398306723,2.062558754641085,0.9359219284316113
192,3.0815812594288485,-0.7350179645402306,-0.33985047813676117,1.185785743830917,1.169977098995795,0.8115643031786063,0.1105744106049061,0.1466836423318011,2.637154559113981,2.9097827281292865,0.6380535849069913,2.8027272480441185,2.406358984775976,2.5875608038480835,0.9217622783434319
193,0.2386676308672026,0.02198038144648068,0.06556201299676442,0.20443785628945746,0.20423715216070662,0.16701473088559046,0.18201860235564435,0.1389770906372985,0.24604017056834435,0.2886784081875801,0.6333676938231112,0.21173663603081155,0.12591407249349654,0.11009579184046249,0.9731269648306926
194,0.48789330545772025,-0.04515948895609556,0.034455967217471684,0.34279426695424653,0.3395766753488465,0.23662129162370657,0.23940341058030942,0.17755228709092702,0.22280810123685976,0.28911023013140164,0.6668815377411301,0.3277327595678122,0.14547600062687172,0.12628617983959592,0.9488927937590776
195,0.8035027458538433,-0.24175529200954105,-0.11989861391497297,0.9268969426286024,0.9174991428212971,0.4143474266706732,0.46518210449271463,0.28334825057412855,0.22657429947584806,0.24473125599639461,0.6727386042041725,0.5114925127536943,0.18314466619161618,0.14595359468944488,0.9508652032085381
196,0.46957125619540785,0.12008481259718651,0.10114909829401231,0.5781665913085003,0.5838521542654547,0.17330860450690605,0.22356180853293578,0.23955084356275333,0.5038349612656865,0.6653710849296568,0.6468212168108125,0.42924563677356775,0.3350872940659788,0.36247309219934504,0.9652582216461388
197,0.4750948677299019,0.021454381341930007,0.12490925939664876,0.4776303913146993,0.4772083783879031,0.16020279891799075,0.22851285774993418,0.19125825440736985,0.3615771243945603,0.4626887328493898,0.6284777104787076,0.4026856410745808,0.2590059396755102,0.2693744367062183,0.9467822946954433
198,0.6928835293557157,0.17714130536560502,0.15887581061048306,1.2070115906071128,1.2049908820082706,0.11561124478675758,0.13970779127080607,0.14078251887086293,0.49212195906810086,0.6203219482195504,0.6566669596287297,0.4380055175928035,0.3398526575633315,0.36488017155452995,0.9147205725618298
199,2.2550496015358146,-0.12240079130405035,-0.5493754287092512,1.37780932083785,1.3236294564029707,0.889585481432399,0.05539317994835481,0.08778329901746507,2.3151133035271654,2.7520431416471642,0.6097226960127671,2.415007522408333,2.0591344011733543,2.223892824418381,0.9467185516232
200,1.9479875852899444,-0.283455820823187,-0.4728248445107175,1.379244380836817,1.3587641068938063,0.8869589297283023,0.13129439769764337,0.18234868014696062,2.28554346071755,2.9880315994498434,0.5915533975974677,2.2085889074152694,2.057730919546642,2.5562776436799193,0.9131438653954835
201,1.8005600950528933,-0.19931484738800498,-0.4088998528298291,0.670396584887326,0.67257984796367,0.2920063844757073,0.22296420253191299,0.2269309129245079,1.4601916547717098,1.9449557416308412,0.6333676938231112,1.6004781710626284,1.2271065987347713,1.4595358071225144,0.9658797651306374
202,2.2544703624511313,-0.5931941450400972,-0.25877344559006704,1.153273160585912,1.1548643495102566,0.41621336716671836,0.4694511957434022,0.5379689414109214,2.163466634730389,2.754061457603189,0.6699045166045591,1.8615383638359715,1.9317144390244305,2.239033738767835,0.9621056805028965
203,1.523523037086209,-0.25215650917434407,-0.1956110798851488,0.982950870098267,0.9569376718936702,0.6425755667399824,0.46546761878593573,0.5445081457104686,2.0901596264144215,2.5921507353666544,0.6284777104787076,1.9582864201233687,1.8726687622159957,2.0876720408163516,0.935304798228137
204,1.741461581397519,-0.3704092715603288,-0.17581011809666833,1.1816456806409574,1.1558301871806471,0.7971128999206794,0.45682305864013706,0.5330730578967939,2.3308363253015187,2.7709433191308412,0.6180765742263259,1.988342235374279,2.021048620967658,1.9732240754890624,0.9394359770938132
205,1.891440674577734,-0.31319458287291807,-0.2371229585758489,1.443893202332137,1.424840003794647,0.8773527816622559,0.4590556444696029,0.627571976026826,2.215445802514665,4.278102686638554,0.6509067234006624,2.067425139801375,2.001251675672148,2.817099556789839,0.9440259617586766
206,2.33225130177013,-0.932890567473888,-0.3546629955734587,0.8042290071958217,0.8058004273332587,0.33137690108551465,0.528407264225255,0.6219841122778155,1.133701743038011,1.8094345328475232,0.6333676938231112,1.1472074718475704,0.9499907914215245,1.1659778204956857,0.9619157713407784
207,0.8433122079521193,-0.004788716030453499,-0.058911410346050075,0.2700312213237379,0.2688036376275252,0.14728433474890232,0.24822467567020992,0.28780215074282356,0.46267426812063717,0.5035743626237357,0.6447042257417027,0.5631916180467387,0.3592848729145024,0.3202371416811254,0.9684707387834286
208,1.4145400776154808,0.19453136718375064,-0.36245656631150813,0.9643531397138315,0.961120058446734,0.21421578618320086,0.04197196503139365,0.060279008400595815,1.3531360322043695,1.412222167321372,0.6528756675646988,1.136625730866326,1.1677387220277973,1.0091273483489267,0.9260597495288336
209,0.4341799199619008,-0.010617617861455597,0.058404160954797,0.37943480340877395,0.3822389208758969,0.20581402707678878,0.18072106646728214,0.11988214676717862,0.3608802283332661,0.425019896814785,0.6284777104787076,0.41721722787518223,0.2585485548539882,0.23844378294116006,0.9471763952301728
210,0.8212636856352022,0.27720179967116254,0.07423522818939787,1.3057550456143685,1.305410992733322,0.09386944649574874,0.10970850622991106,0.13884966278825706,0.8183115996597217,1.0012114839964392,0.6584896970785714,0.6848043015816323,0.5903462991247046,0.5972406385473088,0.9460321644794463
211,2.280652087254897,-0.03862084007140343,-0.7573123063167708,0.9471963897141503,0.929713779063566,0.6895336197316505,0.0968476304943553,0.11762079847205768,2.6885707607199385,2.7307384863311466,0.6380535849069913,2.3372915662333376,2.451534399561845,2.2120197362529663,0.9482708425095743
212,2.207098840563528,-0.43415738456193087,-0.36150640161846487,0.08467349851939517,0.06652703046671679,0.4213047088560271,0.07871692542971374,0.10921372081124076,2.222280389503745,2.898551508559786,0.648888643467878,2.1302203485557456,1.9932097945614518,2.3005281844868684,0.9455413131470866
213,1.1481961654904496,-0.12891462543338805,-0.2511644810354252,0.6121017100252494,0.5779567209567213,0.466757151702112,0.6948794052535286,0.4647843458177723,0.4897122703473973,0.3784557606217925,0.6008849035917525,0.7814685060667098,0.37894826684851696,0.26651441468439363,0.9552483406941228
214,1.3701510884051478,0.06165703901042474,-0.2275069798105085,0.6725695336959928,0.662809351738778,0.5346228435659175,0.9658483589679614,0.8084448144555052,0.8737071827698547,0.9562604668413152,0.6447042257417027,1.128453130679131,0.6837811917383096,0.629102112669185,0.9519142485108768
215,1.111355600188722,-0.03832796140127159,-0.3706911335123812,0.8008742888605002,0.7883893177175411,0.6054253273169765,1.6932685224004929,0.864245471732253,0.4962164656184574,0.2880604510230278,0.5713653840954815,0.9737138866372425,0.43083496742413147,0.22384537722228062,0.9463455759124448
216,1.3892321837194161,-0.16449685214286147,-0.23471597794436694,0.9770565360890694,0.9449134387051218,0.7453858277799904,2.050388692010613,1.1670558343540303,0.5734567685423905,0.3463540538195187,0.6333676938231112,1.4436410279724434,0.5064891238937796,0.3014450202200776,0.9536491819149742
217,1.854147798656612,-0.09089294431451167,-0.6139015532138912,0.5268815724471215,0.5053216008800321,0.6396819287338686,2.4353903378506563,1.9447741242557743,1.4549721238636415,0.5924403248885007,0.6468212168108125,2.203947123097046,1.293761158945953,0.5722689237308072,0.9544067104917937
218,1.5578513921891475,-0.00536838617464408,-0.22134745939824296,0.27825589959769326,0.25408847644476695,0.5960999218123909,2.1453486255907244,1.5764476633525892,1.027578233581053,0.6288536887768172,0.6652988471865258,1.7858436687987507,0.8991412593724631,0.5173615947457761,0.9475002368029354
219,1.7632170365807223,-0.01105177139674507,-0.24488983356762328,0.578436781130574,0.5286637211338949,0.651511814887331,2.205440171549563,2.0642976924610044,1.1898746380090481,1.0394567053298176,0.6584896970785714,1.8959355014782215,0.9954367567515267,0.7074633843382551,0.9478906629232929
220,3.3922714443561643,-0.6267624853757465,-0.8142576899389518,1.537222244895359,1.5118958544148302,0.7820354490154098,1.7257535439608518,1.9209789267135908,1.6516597371561876,1.6991980048510986,0.6068309995095971,3.6738813785365014,1.4093246083945898,1.2123711740247678,0.9320858799568251
221,2.4857072904714874,0.00017542874188710214,-0.016746810678363686,0.7269408053156586,0.6961821737278999,0.6227381647008711,1.6014703128991206,1.7458362292741598,3.411048881082337,,0.6207552362147116,7.2966910851390905,3.417726683613366,inf,0.9389054944816261
222,5.703782474656201,-0.019012608248854004,0.0,1.2337612891705874,1.2327737657443099,0.7633126708944152,1.5843336788332518,1.8093165392721857,,,0.6008849035917525,11.407564949312402,inf,,0.9163048341151754
223,,0.0,0.0,1.3223102583770345,1.3345022898331076,0.7873533894948359,1.629810416968233,1.821448011268262,,,0.6008849035917525,inf,,,0.9265815535454691
224,,0.0,0.0,1.1567294636025405,1.1340000901524911,0.8409663848053337,1.595505887703592,1.8125045282157677,,,0.6447042257417027,inf,,,0.9493015435317229
225,,0.0,0.0,1.2884411405263894,1.2783617103960094,0.775856270864664,1.8481352625072482,2.02698682908398,,,0.6509067234006624,inf,,,0.9475623308170414
226,,0.0,0.0,1.180654089461894,1.138501873280843,0.7933077675680702,1.9145431997776914,2.1578800885677087,,,0.62595550513784,inf,,,0.9369331313073397
227,4.0943445622221,-0.013647815207407002,0.0,0.8716116768394071,0.8516081937595548,0.8188284473359817,1.5754441309634462,1.5629781718096976,,,0.62595550513784,9.798127036878302,inf,,0.9408294511169811
228,3.42817185004284,-0.2472338682246673,-0.7609315801310386,0.500922988045584,0.479748136257191,0.6645856175801483,1.7985940011197095,1.7510937404788225,1.7257887803284444,1.5487827445411257,0.6333676938231112,3.524495598006649,1.5321836345910136,1.2033912399012865,0.951905572639432
229,2.0183688959784742,-0.17496971843462727,-0.43701726343239977,0.5354583046174165,0.5295182742559997,0.686352305066204,2.1299650381522763,1.8611965399999382,1.6461092599119411,1.1310050406888232,0.663668482632973,2.2168152271012236,1.454006039757683,0.8072269116898457,0.9476118675808438
230,2.3254625142130183,-0.49525775760638435,-0.47317260622256274,1.1168835978695775,1.1068677111908787,0.6901114635945053,1.8195280284154733,1.5888828222706795,2.13916765771503,1.7419757093211792,0.6425374456860184,2.4010558176180563,1.9222827095964297,1.2320239423234418,0.939525208701674
231,2.179786667050365,-0.1993992636703137,-0.6971982780648923,0.5656920339094522,0.5684368176683755,0.3949351466148131,2.1942006461029644,2.083618342628786,2.4365029135867524,3.298353347338689,0.6333676938231112,1.875141078167106,2.1603058428075093,2.70867893422572,0.9521460041761939
232,2.410525967220292,-0.7905890372990527,-0.37587362390556756,1.2399194552957744,1.2257902451009923,0.7757371028572247,2.53869233814359,2.4227095886205756,2.6860067219458212,3.1928598617983455,0.6309483474627791,2.379826173337493,2.4319582620135978,2.7671391174722166,0.9452499402467623
233,1.9711454076411437,-0.25482600491740703,-0.4964505864533673,1.1795624975979646,1.1380385023015802,0.7435600143997776,2.2369418297812333,1.6765773714915033,1.9794742275613215,1.059786447190633,0.6380535849069913,2.170777407321371,1.8019396667790315,0.8823399881774097,0.9253757920046194
234,1.968932249182485,-0.3585313699635484,-0.549024507954674,1.240635997645967,1.2610579925549088,0.7154446606096416,2.432837457481338,2.5357403377635594,2.431439603886282,2.413667954879865,0.6468212168108125,2.218346073958331,2.2250832629358266,2.008308554816984,0.941786237317965
235,1.8226661379607636,-0.2939361974300102,-0.3641691280655598,0.8258255256229989,0.8255404999195305,0.5769569067231101,1.9963695981804723,1.8868815006340949,2.0219336436208044,1.9735973175942252,0.62595550513784,2.1205413525652617,1.7948205541283988,1.4145607992697071,0.9437187499117492
236,1.9166880502667545,-0.4011090523066223,-0.4075742843455187,0.981667560827213,0.9815378636000296,0.6339612872298485,1.9400933060238925,1.6943315660503895,2.0940598453283097,1.5571876029473355,0.6425374456860184,2.1632096987489415,1.8382518693264454,1.240685527005595,0.9476467341234325
237,1.938307595055885,-0.3590564669127505,-0.5403313227591084,1.19330664250693,1.168108956563771,0.6805746608618652,2.2394199617791104,2.146691278050081,2.3715196664854057,1.8822616234138538,0.6380535849069913,2.0652318678777224,2.1307763481208783,1.7392860596423265,0.9347723252072861
238,1.3559916246721164,-0.08431174901979321,-0.33635054669686826,0.267340685656489,0.24375454528838147,0.39378937326575864,1.8221161459120585,1.6932789128211592,1.1705711013648679,0.9330281465437528,0.6509067234006624,1.5271413363748259,0.9973380885329978,0.6648375977188328,0.9384525517602649
239,1.8037867901373341,-0.2663733660483154,-0.35987705883648513,1.2658455188202211,1.2427354363238972,0.8031506187507914,2.243346107185357,2.000135866398128,1.1498592674329742,1.197601253627669,0.5915533975974677,1.9425823589626385,0.9350706265257513,0.6582192995003668,0.9502876261424541
240,1.2212220690843956,0.08879358312347096,-0.19417290712484414,0.21731486237733605,0.18442576616298179,0.5745228931656245,1.656585967527161,1.5044855950725446,0.6018415981381232,0.5643107845716995,0.6380535849069913,1.2982020870285842,0.48949896207196947,0.34177142618484735,0.9468957011418733
241,0.9747673356344511,0.0003663957187772793,-0.19700174533779258,1.487892948906444,1.4878198479337812,0.334696794603279,0.9464371876090132,1.0332962578401026,0.7926494942781274,0.9303157033742806,0.6740851607140061,0.7773745576881188,0.5757429587372145,0.5778273947195411,0.9466876662983917
242,1.3500337665929765,-0.2025071942529495,-0.4713937937646719,0.9630201503861638,0.9423533955950659,0.5281485285659412,1.4259212529624286,1.0063538964757406,0.6472713317891199,0.5100405718090579,0.6333676938231112,1.0806741435370968,0.5047760117049147,0.31962733268326865,0.9357492895108053
243,1.215069417473642,-0.17618510977274027,-0.18567013400274668,0.7434465956455305,0.7053062053378063,0.617780538856183,1.479695309824838,0.688964434928246,0.37594453147279094,0.18994644400852212,0.6125606311107803,1.202936304640337,0.3281012737187202,0.16644254522198898,0.9240092030584347
244,1.4890140159607357,-0.2430233662648814,-0.1599040424882765,0.5361170077833227,0.5274488757972804,0.49689240929171835,1.1375723465882017,0.8728453669514817,0.7932881233476543,0.8937581992873618,0.6602640781246099,1.2387176233289845,0.6464005976449297,0.6083583794971532,0.9493070154350494
245,1.1865369201867353,-0.0801599299868252,-0.22701141368412864,0.7990331282460629,0.7833194202394134,0.6058382876992339,2.238144044139577,0.9001290941156799,0.7211534451161454,0.40086632728320104,0.6333676938231112,1.3354745121232574,0.6451881252643066,0.36343913580941534,0.9554822995920824
246,1.3941229376779873,-0.19578730467483585,-0.1333535566950515,1.1228481272106263,1.1108677171350065,0.7603016134868752,2.8345199022433376,2.625378826616349,1.4033240369355926,1.1119662629024865,0.663668482632973,1.5784238589049309,1.1379945918677956,0.8864872014835734,0.9395914828718754
247,1.309203755940613,-0.18652939530236,-0.08615554034365103,0.9185393360874068,0.8702450046965042,0.7430964678844166,1.894750452888381,1.3037508589165812,0.5621261484514765,0.31413410599811753,0.6284777104787076,1.3471591217048553,0.5135932190101512,0.28103752973311236,0.9448947068219486
248,1.4318823402791039,-0.17336714657767038,-0.15303307210484052,0.8832302045184773,0.8793294587453058,0.4697514409435249,0.9253104894120328,0.7310965056117962,0.9946842267989929,1.1231734345270787,0.6528756675646988,1.1140982462035576,0.7523129327202773,0.6637718157338008,0.9437700939861084
249,1.6767512238901943,-0.3569722774115036,-0.4298121518800119,0.765357186179819,0.757651499309437,0.548351909689177,1.574580859970616,1.24992379213343,1.0533853660648522,0.808489487414191,0.663668482632973,1.16710528511341,0.8722612076072289,0.6368620960586149,0.9416232084899939
250,1.6021909778718548,-0.13197723053923294,-0.49152024047851856,0.6697835971883295,0.656609380810006,0.6677905292446888,2.0491911553221547,1.5880292588672549,1.1994094695370274,0.9374345842747644,0.6566669596287297,1.6366378323607549,0.9652521729130645,0.5206660485887041,0.9444223000108589
251,1.2915784041957497,0.16527929691448895,-0.12517278761453499,0.4340987069103599,0.4017986238127143,0.5723528887293575,0.6459147630320782,0.585248118431076,0.972600053062833,1.1501520563006609,0.6008849035917525,1.1183729168462646,0.7797846431716101,0.803082549155786,0.9366236343730853
252,1.0362965686591852,-0.29405529505939926,-0.2650888557999919,0.9494239563316569,0.9396990325524646,0.5328203528142,1.4458181208258647,0.927916950537468,0.26144180488903634,0.1999805978771568,0.5915533975974677,0.8120308216603618,0.20276128758812428,0.11125989517840523,0.9461959283990595
253,1.6175819889621932,-0.03598802547735225,-0.4278838072079143,0.7039897344169037,0.694823264383038,0.628689699075438,2.466684703365823,2.2758398710050165,1.8329998875667923,1.7005468785355,0.6038851895711802,1.7829979635594824,1.5922068378284195,1.2069001116691935,0.9403909068364406
254,1.817104627369408,-0.1815012848565002,-0.4259661826198349,1.1873424258705985,1.1922042662821164,0.7674895582018295,2.3483906294737915,2.304999440295256,1.9965632782633926,2.3001013696024164,0.6566669596287297,2.141695267543739,1.7742242081635302,1.602767515272252,0.9537858465831811
255,1.9211748902572667,-0.5496937890341796,-0.35568984023413197,0.9846344089142645,0.9815593785483876,0.6900386628488591,2.047270654328894,2.1765587597246947,1.9840356235401224,2.7625644456853786,0.6509067234006624,1.9201990850729673,1.5793464196069642,1.884571851671438,0.9350258656544088
256,1.5066077328850087,-0.3600343052487095,-0.17897064093006249,0.6211640725369194,0.5804913167089025,0.5372082062232835,1.950883530835591,1.4147907356661418,0.8066672042693606,0.7435008376538489,0.5978297680564633,1.2174333629001652,0.680057060960132,0.4968445277433162,0.9382853343741027
257,1.51069736906998,-0.08286693206827767,-0.41761005901330417,0.7678396664722205,0.7466511886841759,0.7103929106375257,2.0595368529071805,1.9175793987513674,0.9590010283554765,0.9725200684354617,0.6097226960127671,1.420287871046591,0.8010245018187184,0.6553537379747434,0.944306892831634
258,1.3802965070335498,-0.20229580785108525,-0.2245317956851336,0.6434123881675116,0.6393872929597495,0.6023056360636763,1.4335920943452207,1.290187327130686,1.075421827413325,1.1306392410772526,0.6403206450210053,1.2960474832721125,0.9092092657613711,0.9256590748570582,0.9387927442633712
259,1.3348326446799823,-0.062303863024037565,-0.23236532484565098,0.6139070459730126,0.6038957477459981,0.426022589869238,1.066588876343601,0.8197258093358066,0.9332607778736847,0.8666545697884936,0.6619902821573977,1.0514106871838156,0.7386835027251782,0.6087570952791858,0.9461836318921635
260,1.4026889616866354,0.10202852634768189,-0.2715019250453653,0.4414382209272042,0.42495710643104023,0.5171515058323978,1.4823138382479302,1.5590345376112427,1.2227013448039228,1.0816409461372145,0.6447042257417027,1.2354634714173067,1.0322908721094397,0.9010094399141063,0.9456141356647311
261,1.5681597725193708,-0.20926811158329517,-0.40047397052550254,1.0324135895400395,1.010210327965583,0.6779843282764283,1.6656837264781386,1.179729112420527,0.8733767269286441,0.6253316040290886,0.6468212168108125,1.2755483731857264,0.7471348346755006,0.37140819771098277,0.9395859068508294
262,1.4891263336191478,-0.17553645688929387,-0.19624823301123195,0.8410754211253021,0.8189430610555515,0.557689493113173,1.201531914251905,0.9306772072500038,0.9514083828688762,1.0289144537211925,0.6207552362147116,1.192922968139351,0.826992594226458,0.749478268977453,0.9480486301772082
263,1.3228177179746097,-0.12113506922377859,-0.18485713896609746,0.5027604284893619,0.5015181272018456,0.49440629966226657,0.8910073963530991,0.6927840996689115,0.9419116322549426,0.9614341597599134,0.62595550513784,1.1619071390404234,0.7514175091394755,0.6517802769372137,0.9375160832633728
264,0.6945291588169847,-0.054926344827634865,-0.0293651447991658,0.9056423867660938,0.901221731802698,0.4271832331018464,0.7252518377330542,0.5211035157611738,0.4314355041558862,0.415275010018034,0.6619902821573977,0.6210539350182649,0.31181795200330653,0.24046394784247496,0.9414455214775979
265,0.9303756193905363,-0.049403180952809045,-0.10407736627435338,0.6080355320924218,0.5738732395810905,0.3475712208122618,0.7802731929099077,0.6424397927035546,0.5448528986910379,0.6004063379238134,0.6097226960127671,0.7330899320979924,0.4259095065852124,0.376878270642867,0.9517398024079168
266,1.6227453032063732,-0.15794019033453943,-0.3828409981437838,1.0038836690770903,0.9781577188401792,0.5843820213982668,1.8597611803215477,1.6832434402700747,1.034249012559481,0.8642186694813586,0.6333676938231112,1.461736556286749,0.8844521741894285,0.6504328272626975,0.9458527592524256
267,1.1764813394927633,-0.109770806040976,-0.26248078204324166,1.02199410799637,1.0289388081790596,0.6214319758007278,1.2512344526538084,0.786852622085624,0.6265187577851822,0.5619243198316038,0.6284777104787076,1.1240326660150208,0.5024948905178174,0.35639241815637557,0.9540878757371771
268,1.2533578185259373,-0.014107585077335116,-0.21648145146927966,1.0550266383629643,1.0056066779818473,0.47683452941652027,0.7302575852261194,0.60793582864265,0.8729179158337612,1.069792822561416,0.6602640781246099,0.9316864173521285,0.678251620123654,0.6528922969584307,0.9466853955471595
269,1.6082984145187276,-0.2286146428512733,-0.14859812234667913,0.4625118578531371,0.4646643361701478,0.32192523037409226,0.7444749384088991,0.5619610317336386,1.1397427965058229,1.082877609629581,0.6207552362147116,1.1769342554435795,0.9108083112756429,0.8024292111742761,0.934955017906912
270,2.144628305500716,-0.473756420162298,-0.3194366310460368,0.8357424529006048,0.8440608075806435,0.5856926711541451,1.0194388578607607,0.8850540340908328,1.5678617700177109,2.1865195924461425,0.6284777104787076,1.6067193887481537,1.319279546791162,1.6115126019749608,0.937182725528507
271,1.3095484562418909,-0.20742794940939102,-0.07217206899798778,0.6166757928268218,0.6141199306401985,0.38701514677909593,0.5896183471791581,0.406259705157175,0.8028350550210592,0.7963886144953302,0.6207552362147116,1.0152520132899507,0.6492289049793473,0.5499915524764748,0.9516896080768821
272,1.208696443700387,-0.19588699431523482,-0.25388868352668453,0.5908983721934851,0.5844841172086296,0.360894049027681,1.3594172337254893,0.6847908136570768,0.4891063107296372,0.3110322367451873,0.6380535849069913,0.8896217537981088,0.4146626052722058,0.24887824539645076,0.9517207541115135
273,1.2219442192179346,-0.17865322041099152,-0.22598343211517596,0.6296514209678418,0.6245721858870398,0.457153599491061,1.359327722554155,0.8604726164279006,0.5384625724529266,0.38684881557788814,0.6284777104787076,1.0246495651576994,0.45742175135595997,0.27625337662815824,0.9566625085653021
274,1.0848297886923917,-0.06417118550776668,-0.0648007831319547,0.8473156466356216,0.8316446197371543,0.4658710312737557,1.1606033817970913,0.8153312411152978,0.5932852588143804,0.5211754324199745,0.6207552362147116,0.941608539858445,0.49832103709407727,0.4154799193519887,0.9531219752935782
275,0.8654610797325797,-0.08365898527795612,-0.09233987886748068,0.4402756097103302,0.4346469657077138,0.4186852407439629,0.8406545770923146,0.5753661318750546,0.3831223079148199,0.37384986739028975,0.6207552362147116,0.6646677092380766,0.3088402617356104,0.23309792653110656,0.9469143994551239
276,1.2512140851336249,-0.4032440990458948,-0.058747697387472986,1.0664986385890751,1.062552084947669,0.614768233046777,1.2478942842085232,0.733751727536305,0.57220367736545,0.549624831053291,0.6699045166045591,1.0532565869473125,0.45502965460301625,0.3257546199343324,0.9387885722827081
277,1.2206692274709163,-0.10757399514288501,-0.2227893895493761,0.6892758760767236,0.6726890874445978,0.6227526313922858,1.1818280706246183,0.8290638622048467,0.705568101783343,0.6289464506892951,0.6357360191111145,1.0837893597764714,0.5788735361171737,0.45889777752158484,0.9467619973258263
278,1.17495852329782,-0.15667115628333228,-0.21740595738351243,0.7167641058875276,0.7065011312543023,0.639093956057713,1.3582731784719153,0.7316321740070064,0.4253653831405403,0.30906848165761686,0.62595550513784,1.022577602392112,0.37754526666431276,0.2655327233759043,0.9452094219793958
279,1.7912142658627928,-0.3370306342537548,-0.3309130440025583,1.336141298026881,1.330298516884392,0.8280305084974272,3.197102650968203,2.976975781705836,1.6272301009650214,1.2512915648076033,0.6357360191111145,2.0325579557809856,1.5414067698703129,1.1194296937516321,0.9478118996289373
280,1.7794759203073722,-0.20414033726543124,-0.44481118894328087,1.00715469036343,0.999559480578587,0.701722996677729,2.3667329360387335,2.194444799948151,2.1759995348744936,2.5141568101626417,0.6357360191111145,2.031201793511767,1.8925564681347995,1.7408034998563529,0.9326534367750493
281,1.4227833554572689,-0.05877156310119269,-0.3072998548313649,0.7000132801019895,0.6847663546369612,0.5770547263442527,2.101774715381567,1.6277067045598783,1.3017718345057725,1.0173344165855323,0.6425374456860184,1.519698777679231,1.1403552251547238,0.8409637141104118,0.9400852122675526
282,1.718272829566017,-0.17563161108452796,-0.27520067513082425,0.7558898978564775,0.7390548860037034,0.7107514262949174,1.6292213374586844,1.275992334375578,1.330724738929796,1.187198377264862,0.6425374456860184,1.7318566764950118,1.0863804836419537,0.8246072444039592,0.9430728974244141
283,1.053076144567045,-0.12219614217370389,-0.13769935114466259,0.7115421304177166,0.6978981081197521,0.5953505987512755,1.3531593036429002,0.7713142079712865,0.5357281441782022,0.37997090177211645,0.6233814453054027,1.008710648072829,0.4420629766811341,0.28561421116133784,0.9453138409223049
284,1.1965360204127913,-0.07309800087359719,-0.16694387079101436,0.5930139706398034,0.5418092211710418,0.5504345556064569,1.6665558735746653,1.0834409730460304,0.5663280582504042,0.3666262913188279,0.6425374456860184,1.2720137480875053,0.4943379172060168,0.2629884030465121,0.9586725847513811
285,1.6313638347306847,-0.22377343698634067,-0.4162854248398377,0.9217437240467026,0.8969573170219229,0.6546390162062313,2.5521978682340474,1.9012614697780057,1.3337378074802202,0.6157080877155617,0.6309483474627791,1.7435408969575807,1.1478313612721676,0.600479491700538,0.9504590215715363
286,0.8846706810086868,0.14423870544329132,-0.13495196864470183,0.08467349851939517,0.07951471471922071,0.22787428929252052,1.3509591665783944,0.9905884842204151,0.4176762313865794,0.30387164510936343,0.6668815377411301,0.9068630898542238,0.35008082886774433,0.2313585589389438,0.9584525658556227
287,1.4099381509311184,-0.34062295405979426,-0.22481784621581552,0.7099732203514685,0.6933642141277315,0.5640803940995354,1.1881143252170658,0.7537952282670233,0.7732642897660275,0.7524648870033328,0.6447042257417027,1.1627953174450227,0.591539923137033,0.4561772310810991,0.9515061883819421
288,1.405563724316203,-0.10664412006312662,-0.3439135969737093,0.838668621184283,0.831508399920596,0.6145110380219289,1.5647794167680467,0.911469136581001,0.9160392447208242,0.6211801913887496,0.6357360191111145,1.4480279309252517,0.785860630782559,0.39750928787331663,0.9387891738066911
289,0.8040959417810541,-0.010136448949833565,-0.04353304578684736,0.21302129952620005,0.2087094877439498,0.24983893586397748,1.589457950735476,1.1113680007934352,0.49694003018646604,0.41222564061828154,0.6447042257417027,0.7313106749881614,0.3991363371999667,0.2933415533593429,0.9249984590221302
290,1.8274478943353984,-0.305350718176004,-0.4322538431346156,0.8940146637002085,0.8883994359775153,0.5034442536120903,1.7037358414735426,1.2761313989399026,1.3308285451397595,1.148362306245099,0.6309483474627791,1.4023785769514399,1.1101048406067948,0.7405813566022252,0.9405042369975718
291,1.019535851250828,-0.06252073010259962,-0.027620955598370522,0.3190334136545234,0.3040254674777249,0.3116161181104349,1.2033175440424797,0.7773574563769234,0.676225204543446,0.5615216914985331,0.6468212168108125,0.9511122468161912,0.5426683444827147,0.39537122393779855,0.9594176905810515
292,1.190440472876737,0.09052970453932174,-0.21205110246426184,0.2256559932866077,0.21867652307500096,0.3692423258423156,1.2901992367822381,1.026053067990309,0.7723503409736784,0.7828026373244678,0.6566669596287297,1.0046970206950254,0.6227351551113537,0.5748049433533846,0.9506912549492305
293,1.5912641556706304,-0.31215871561862996,-0.2679038124033616,0.880627937037216,0.880168888653672,0.5538316760464225,1.444264502112191,1.0843659279914943,1.0999929756173077,0.9501458503953017,0.6357360191111145,1.378502573868208,0.9128129268676071,0.7066414678402873,0.9441710552783177
294,1.3255935833846408,-0.19699954848551504,-0.23045910368023548,0.7681068991295797,0.759293643107451,0.5211687810421312,1.25277650329463,0.8471884722747522,0.7491679722444801,0.6613685783668717,0.6584896970785714,1.232334175626002,0.627989685470937,0.4517505579182222,0.9522466451293172
295,1.2669156014319813,-0.2497526246772227,-0.18419924521134962,0.7834530416521712,0.7878898006705904,0.5421693237271239,1.523854970610132,1.016238142074498,0.7579861890548777,0.676502330429698,0.6652988471865258,1.0955170837608073,0.599962978545614,0.3902031402968907,0.9414245185217323
296,1.2902282979003976,-0.1539799678894579,-0.31768644738970186,0.7942578614076622,0.7904596122358466,0.5209134199779335,1.6953079719089208,0.8471881291204382,0.7056525139213661,0.47219149867646554,0.6652988471865258,1.0275327069871576,0.6059133301303984,0.34127519379187704,0.9525383284607121
297,1.133151812699966,-0.32878794998567507,-0.08619652158173396,0.7989343947353829,0.7924724318052087,0.5902419150033835,1.3764534648317697,0.7503437218391988,0.4238170536429704,0.34187980609387814,0.6153451465759925,0.9527818404565702,0.36714234469677925,0.26455014869495375,0.9447544699738442
298,0.8066651121616945,-0.1178283442428662,-0.09693315935891439,0.9554307034451457,0.9468693684753403,0.5650294882834953,1.3705618073670625,0.8873735444747606,0.4140379311845642,0.35646842882506946,0.6602640781246099,0.8529247729190054,0.33309897276007383,0.20772051941284833,0.9433520433283442
299,1.5115504512381486,-0.14088537848472638,-0.26997681416293506,0.8068481873174024,0.7904811012354539,0.612303142743473,1.265142182759098,0.9346172817847402,0.8646277220029664,0.8050931100230163,0.6602640781246099,1.2295185585159085,0.7018861932256648,0.5784778841166042,0.9357041068761451
300,1.052450390050693,-0.1849277139501172,-0.13380273526766118,0.4200826565094404,0.40884969220278305,0.4012269643685047,1.6577460251209417,0.9940749540648277,0.5171518316504514,0.41151956590183997,0.6309483474627791,0.9338891236167765,0.4388091951031177,0.2817950738393503,0.944360797327902
301,1.3519657394174869,-0.10037770248725886,-0.262387593335776,0.6736351557899876,0.6697071362853261,0.47968577550539854,2.1632084118068438,1.8007318999623765,1.1232842797566311,1.0200131648069293,0.6038851895711802,1.2435224604639181,0.9790199248565912,0.7352520488930896,0.9487084399851046
302,1.7549936245667548,-0.2364502834404305,-0.5002614622621824,1.1539626057337249,1.1352629725083125,0.7319534393204726,2.758703935898611,2.3224230231273224,1.9134874714727361,1.8537335180132033,0.6727386042041725,1.9957542017035037,1.7488728971473633,1.2643429159263275,0.9424105177500054
303,1.8674132509410681,-0.07383284659065215,-0.3051465939839413,0.8967982228293795,0.8752511458420281,0.6391722236406642,2.25277549761472,1.8898960710360972,1.5815877033428734,0.8922102944052156,0.5604843169999094,2.0992815030062553,1.4195739221241326,0.8525610304314782,0.9539353831504088
304,1.4268502800029161,-0.06740364265338605,-0.3280175297985971,0.7343106827090369,0.7064947072343413,0.7190542169829875,1.9900365995253606,1.4841583474662925,0.8154583508763382,0.6072694045272732,0.585052858160615,1.5864269297932991,0.648603362278819,0.4166395755939842,0.9420367131956372
305,1.4737156871464672,-0.15985543897984855,-0.38527658099756473,0.9817303798122894,0.966828439204396,0.6696721828191773,1.7713126229116598,1.1746908684126185,0.7556497928858213,0.5184065495608435,0.6333676938231112,1.5530050703996976,0.6410246160400025,0.4060633731574177,0.9531597114498248
306,1.4842291935279797,-0.003008259455022033,-0.33977020219150944,0.8283607904460352,0.8122243018523381,0.6428356186878552,2.3401716384387337,1.8864807195719817,0.9477504349562693,0.6523676931365188,0.6333676938231112,1.635838927958528,0.8855934031789222,0.5300475871534716,0.9211442298637569
307,1.833614110267712,-0.2293957731457259,-0.49763892926328335,0.8143604064947586,0.7938030187096068,0.7444097773649616,2.7806921887338176,2.8407254391914143,1.8431296689899332,1.8799998578116648,0.6125606311107803,2.1657259102768482,1.658082738328442,1.3731562236824588,0.9307450701289489
308,2.224229723211953,-0.19012607451776198,-0.5021453166113818,1.0844735475836187,1.0293366960501116,0.8154608879407154,2.6499115528058184,2.6318389633278305,1.7845486176438923,1.5643167056808194,0.6233814453054027,2.4846400186705693,1.5749811074931457,1.0826426104109772,0.9481715029841697
309,1.888392840660712,-0.3813204948369707,-0.4017174708002393,1.1423636073622694,1.1483914803455528,0.7186640128716454,2.5127781239813523,1.5750757110831914,1.200547357689944,0.5908078255015824,0.6528756675646988,2.181055996174636,1.075175615237334,0.4469721699901202,0.952121039717306
310,1.8649837602184782,-0.42837230236497104,-0.3173693734015509,0.9536254681643043,0.9498941920016065,0.7037955086225208,2.4091230379306645,1.7395139739597747,1.269059805340065,0.6056743628899268,0.6233814453054027,2.1072924698356124,1.1207922941178985,0.44711096307450354,0.9439944309750716
311,1.3244882478245865,0.013663595712987142,-0.2832413484647879,0.7781514780008968,0.7453829753124515,0.7232480552249798,1.5209483511493125,1.206908712652134,0.6004506013976666,0.49948190163516376,0.663668482632973,1.3932965974329157,0.4509498608088611,0.31183617576326744,0.9519797329298054
312,1.6304371390700383,-0.2159012035149982,-0.489670340683938,0.9912816136051191,0.9718637312094252,0.7172287456967683,2.4319655757515997,2.0963924175648296,1.3223712874435667,0.9009035672901214,0.6357360191111145,1.8556937285241464,1.215480740196703,0.7778737375459082,0.9384667165744169
313,2.186427141392114,-0.6738836900596354,-0.4375108214974492,1.3126025543003383,1.3184200090037408,0.7715458119010004,2.9294747114765807,2.8175433768961384,1.749112190956655,1.9922025054252597,0.6403206450210053,1.9692925092902125,1.5488132906176655,1.7156730455025877,0.9425140474713387
314,1.9569575855230723,-0.41916092700296004,-0.430763155532474,1.0906409367422258,1.0717736229066719,0.7010282678619926,2.4352405458577198,2.150685027792389,2.335176646874757,2.380293523557963,0.6097226960127671,1.9873689203489449,2.114335996279448,1.8897596304795887,0.944880371563145
315,1.8916502276228522,-0.322134209264897,-0.5117137031228916,1.149537281652656,1.1027676435242377,0.7448269278863145,2.3402521079041883,2.4140733509242653,2.536977767995075,3.452067059713069,0.6380535849069913,2.109305279298336,2.304326694790877,3.122731964315298,0.9384997235315199
316,1.5420072079504166,-0.1630393971973365,-0.2117753503093417,0.7352106341133661,0.743724070643736,0.5902454363758162,1.6131521487441327,1.3828298983528586,1.1819660395066027,0.9867147446842447,0.6284777104787076,1.721114629658723,0.9296105048242177,0.5807294725921202,0.9462464502123105
317,1.732903880613492,-0.4050215975776883,-0.33337971239261155,0.962663469219425,0.9543371024374466,0.632231248791842,2.216134077389293,1.726644658095636,1.0841842017363033,0.7688575457386345,0.6284777104787076,1.5955897972823816,0.9731333385987294,0.5934573453105446,0.9447639028036952
318,1.559280410977269,-0.0013423093295694688,-0.3331591326636325,0.4468099415942183,0.43836316178149837,0.5474200797831089,2.1216040433366827,2.000057913019918,1.614763254764427,1.4448205760408013,0.6713451011121618,1.4983438649285135,1.3696794893038893,1.1165703440305785,0.9382423219663641
319,1.6321078321413491,-0.10140092153502,-0.34806682727202287,0.759055402793124,0.7391830440583348,0.43964735391989623,1.9911451292777933,1.586349544466246,1.7934280564570444,1.1701330664701417,0.6403206450210053,1.742271136136861,1.6009718522647383,1.064899493402842,0.9126217431323157
320,1.7070385349064694,-0.3716098445725248,-0.39416018436166134,0.9117966428238514,0.907244143267905,0.6767502414997917,1.5060389057147656,1.5247672350988672,1.5998300901516493,1.276336406019888,0.6284777104787076,1.9127225558910694,1.4327248106665942,1.1335797645900731,0.9443362715423311
321,1.789339456162234,-0.3584860894684727,-0.4457219372047947,1.0441479698401306,1.0366102104604147,0.6170612797309677,1.7394006057081022,1.7880421435330422,1.6880495751456812,2.7236685502873414,0.6619902821573977,1.7249734755500046,1.370456366113985,1.5680759213370654,0.951399529334607
322,1.6508332049999563,-0.3078478015340227,-0.3189974763978107,1.094820405130521,1.0786576106626142,0.6910812069355022,2.451502021829937,2.207960263938511,1.279669766007707,1.140244637322064,0.6357360191111145,1.4765108690584687,1.0668727104885074,0.8360523103336666,0.9548385072117496
323,1.9233990312291924,-0.5052604053380951,-0.36182665234370326,1.0195939473497155,1.0179309314347174,0.6355342698172686,2.0113913162268378,1.908900717005455,1.9239235517592752,2.0123241360904696,0.6207552362147116,2.0374042858887784,1.6208381987632683,1.1826500348571147,0.9456678272943936
324,2.039482182390975,-0.22793016221142315,-0.46156211987157447,0.9186558015569055,0.8965931027429875,0.6840338233090916,1.4746774847900335,1.189638022296458,1.8409715440811074,1.486175037787199,0.5978297680564633,2.1034610475240565,1.5925549221592,1.0769156217674603,0.9426970374852591
325,1.5950290150445101,-0.21718441732323057,-0.34884182619699533,0.7759686149326845,0.7621329003058357,0.5908664150496731,1.9149064955493322,1.826041458021188,1.628644043823807,1.604788420501266,0.6652988471865258,1.635724850842274,1.4105992088277775,1.2074070880635082,0.9366035318132955
326,1.1264350256675941,-0.011075788716890411,-0.14569587498773962,0.44965313119034983,0.45029781918961737,0.42879341437766677,2.237337873796321,1.9594369963994653,1.105263416512816,0.8481210720117418,0.6447042257417027,1.1777276486836543,0.9159480530240063,0.6755409346320369,0.9448925697130217
327,1.7454566946904513,-0.22508391922725846,-0.30645115001948187,0.7332622980846307,0.7046406742214932,0.6929425470290319,2.079799725475311,1.769199891686446,1.289631978396494,1.1701360891203711,0.6284777104787076,1.6923365462369822,1.1054560303660896,0.8582970546878739,0.9455253463296949
328,1.4352215438845677,-0.06202797976075214,-0.29144369632114475,0.5419646349215843,0.5349269050424359,0.6521680240262867,1.7020258326576518,1.294389410949524,1.08446499614503,0.7686714367597399,0.6602640781246099,1.572731040093322,0.9485630071470676,0.6119138953157209,0.9423357185336864
329,1.455734715931866,-0.08129873094594164,-0.1581861843692659,0.7854543160825624,0.7601537006230856,0.7081135352869137,1.1978458893389174,1.0995043226267183,1.3655643026851585,1.425363779568245,0.6740851607140061,1.5812824676852455,1.1148391625516907,0.9067840220193639,0.9473442486902954
330,1.5177874028373708,-0.2192244978662422,-0.35058174523219243,1.0288695240910821,1.0167302505939233,0.6364607722446324,1.350393996814094,1.105606702922504,1.2779007541144254,1.4747341109176058,0.6727386042041725,1.444865537144428,1.0938639193410788,1.0423923573708815,0.9519119645262402
331,1.5118855418673722,-0.1173963539994074,-0.30990846337538624,1.0400902468249542,1.024234086803733,0.6829894792731122,1.3087282531994464,1.0192573224680146,1.1055424818449018,1.1368724733407918,0.6652988471865258,1.3479287142863428,0.8937703531517062,0.7379411582162981,0.9466551536247187
332,1.311826761587135,-0.19233491495709143,-0.2377564426261795,0.7944787666457811,0.7785993713243476,0.5597727087984552,0.9192506129714673,0.9050506651940937,1.0847270479400148,1.3759548119510485,0.6403206450210053,1.2055295710141871,0.9121447275640232,1.074884217972617,0.9571818673195838
333,1.529715501364138,-0.17852817155720868,-0.2561420484433208,0.870204809654195,0.8806825122288722,0.47523247365531784,1.122364208718181,1.0196503932362653,0.9380625908112096,1.0846611767655778,0.6008849035917525,1.073919676077738,0.7427474288565017,0.7768646427253784,0.9527165289201901
334,1.6363014011084034,-0.4964716610906612,-0.27715978687649956,0.6005427447812008,0.5007910038360696,0.428074627654438,1.3194979099613262,1.151500210271248,1.0638966675166652,1.2085730258803586,0.6566669596287297,1.2300126202836783,0.8352192475940443,0.9223118017707158,0.9547621965509487
335,1.4009539273558846,-0.24521456358810856,-0.2431157177586039,0.6378402413503375,0.6232853178415296,0.5622764222812742,1.6728212164185001,1.402862071404956,0.7686416480555506,0.7742889156198698,0.6097226960127671,1.191349115719976,0.6173530742383911,0.5209115754235981,0.9362298984073468
336,1.6372451094864906,-0.18458284617259468,-0.41095984383976036,0.8189014980708503,0.8073539998944105,0.6340679987025485,1.9359926879861828,1.3727610372221362,1.0582315702824983,0.6204692690798854,0.6447042257417027,1.752026067009455,0.9275986599090512,0.4702952641856682,0.938498978424486
337,1.4443859742331675,-0.07605087810214384,-0.4110084343067537,0.542146470086475,0.5337874206791942,0.5616446187282267,1.7658150667733812,1.439859920067308,1.2586724684416324,1.0315448060335592,0.6713451011121618,1.6190394152459557,1.0807119830415592,0.6984504743948419,0.9486016705271076
338,1.7165603748852003,-0.1738707541188843,-0.513698174720624,1.1497955055600841,1.1277790175675637,0.6969384140682278,2.197994022713496,1.9074074194861357,1.8396915775975524,1.5189077997461173,0.6468212168108125,1.851438704729656,1.5699613842500189,1.071433967614165,0.9468090093500964
339,1.9099006440786335,-0.23470099153899138,-0.4729804379633296,1.0690984930711391,1.0451728541451384,0.7520462433871996,2.5706196374959998,2.3504956375197508,2.243833624670902,1.9506086081264227,0.6468212168108125,2.1121484049811,1.9365856459889483,1.3574160203812036,0.944179819943728
340,1.5539465936117394,-0.14144340632664265,-0.20878403720740735,0.34102260279914126,0.2976904339321663,0.5356004319405555,1.8652974868765972,1.6164452328854622,1.3569412587485232,1.1315063621794785,0.581717464821069,1.732547609596209,1.1421476689149483,0.8412128479906985,0.9438095758061529
341,1.7589011495636004,-0.21525606652736384,-0.29104855197637036,1.165516512859294,1.1433608602171896,0.6488743894443052,1.4849104003470284,1.3271067078203267,1.761511983329868,1.9107542926959635,0.6778444222523095,1.7634960039551955,1.4826939221597197,1.3769179605598434,0.9443682899495454
342,1.2354940833745136,-0.016551457519031754,-0.09910186575447921,0.5136298859710372,0.4347260165296345,0.4887908667977527,1.3525012145594366,1.0763434101732472,0.845892487809417,0.8848823508497132,0.6097226960127671,1.1205511961868635,0.6797109855329405,0.5877597708914135,0.9536324069885659
343,1.4890622927731392,-0.2133390233768464,-0.2780447133927745,0.5788448596389066,0.5479242000060607,0.5249524631472711,1.862897717192262,1.3737180028019353,0.7605004941084084,0.7088424302979114,0.6447042257417027,1.3209228536784277,0.6211170167987868,0.5104641282032852,0.9424803338372405
344,1.7054629919805921,-0.20392211537985305,-0.4102588539500315,1.0329124764667488,1.0215840778356406,0.627587046245745,2.2293963821615237,1.8433976229682085,1.2946970062160081,0.8660716475360734,0.6207552362147116,1.869504817852908,1.1566866631857917,0.6998131057141658,0.9518554713696441
345,1.963681946339962,-0.3882846295458956,-0.5457579347857995,0.9936054242664087,0.9856142118628003,0.5939136961721343,2.0138845935604355,1.7823523338980185,2.1341779057713675,2.5119861879122785,0.6207552362147116,2.011824430932667,1.8492942446337113,1.849352787240619,0.955563496882124
346,2.0197141146704447,-0.3523828843248952,-0.33661061200728326,0.6790567679564361,0.6363717202837181,0.5759624661666238,2.0446148628689294,1.5458059527532546,1.8249800287573115,1.7173261344037614,0.6547956803312163,1.7997916409253192,1.569261287410269,1.2563199649700227,0.945329025992136
347,1.3763085358401332,0.04726423845774286,-0.2303008543454682,0.25251842945491937,0.24578886000398992,0.28130295327690025,1.8206680675826648,1.7759332214765216,1.5422804447571534,1.7309690409387202,0.6068309995095971,1.431338218135969,1.3487451858660724,1.3392371442902362,0.9222224055658965
348,2.1206120424921395,-0.47241017498608473,-0.5610380088823852,1.2088484213324053,1.2081122551850327,0.7169934365465083,1.9962942472316687,1.9809830284734644,2.672505890442403,2.837151568490708,0.648888643467878,2.3880219526112176,2.412892810502969,2.655406467616788,0.9403584289818139
349,1.545428209725583,-0.06621330262037572,-0.47076256976731995,0.5651413797559585,0.5533388445556109,0.4736425002976706,2.418194276990215,1.9241509213872314,1.8454801925121356,1.421185116932459,0.6357360191111145,1.6913712951967865,1.6456001141660976,1.0775784170165577,0.9095123950981457
350,1.8026874625835831,-0.25955824941107997,-0.4862772506177711,0.5663884309169291,0.5284098229803303,0.5767459022894248,2.2412930077762034,1.9206262195705306,2.1405212800277655,1.6594960724821453,0.6425374456860184,2.0727087026386517,1.9083071742764457,1.412833916354503,0.9430585568604649
351,1.888565010655882,-0.10547248059916803,-0.3090377587241697,0.8252705384472195,0.8209462602702653,0.6996820511312674,2.03547409961056,1.6143243131194676,1.6606291939443147,1.151716098953005,0.6528756675646988,1.9738410548174024,1.4526741348290428,0.8752636301846853,0.9443524553318436
352,1.66458423400321,-0.0649023145853147,-0.31597044570839394,0.8619470709455159,0.8465570033951934,0.7205419821938001,1.5245876417405457,1.4456143687949248,1.5405326797862713,1.3523968623011604,0.6180765742263259,1.8266960391089513,1.302186747232545,1.0139519850410386,0.9448631702483923
353,1.2742783153687351,0.12409881433231418,-0.08684548088466548,0.35473155617010393,0.3524362366615697,0.4320483213803557,1.5258216598565115,1.2829494379564086,0.9626095624601404,0.9265558972531177,0.6038851895711802,1.2533575896919609,0.7981229735915524,0.6829136131582987,0.9593125617865745
354,1.3152656011127992,-0.1521236120660211,-0.06835071503078205,0.7443360201821471,0.7442272070613903,0.4945042953633716,1.1666731761867282,0.84790746699271,1.2607581854189607,1.4612412124383591,0.6357360191111145,1.3063747379440172,1.0475036494375791,0.909007378483047,0.9536199406385882
355,1.42592778976195,-0.29627394405368146,-0.23258578100171645,0.8608439289534475,0.8459726156432589,0.6177456598820311,2.02753364533987,1.6557259482052058,0.8137342391187682,0.7831888822205502,0.6447042257417027,1.3565198324186596,0.7058242627237419,0.542999107767546,0.9399223768490531
356,1.4827741220446424,-0.15706269281355145,-0.2919136949382003,0.8805655611034812,0.8781754848293352,0.5938855954993904,2.231267171515931,1.9430368959794557,1.2559208973946445,1.0350165649613254,0.6447042257417027,1.6132786118200382,1.1053271032216885,0.7476636633641436,0.9440924376187246
357,1.5551067113578634,-0.09200633279755865,-0.44738269346933496,0.3745531330033298,0.3727729262644619,0.5548586804832715,2.2586110224854394,1.976239531929215,1.8738578167207018,1.4332273208876032,0.6309483474627791,1.5843117894868801,1.606084564059452,1.1592706583542136,0.9430579738816369
358,2.0215450789949605,-0.6055075723627245,-0.3968872244299546,1.1170177295833479,1.0640470871880743,0.70896102000113,1.915239281206037,1.8236775202785973,2.1986979870358967,3.069570962267439,0.648888643467878,1.9987836386623814,2.009383227318667,2.6202745902198243,0.9400963010358016
359,1.2811629226214956,-0.031165717720642916,-0.1975239321456812,0.6577971704383887,0.648513848791062,0.4367401576953507,1.6641835540942809,1.256751236684226,1.5480161841576399,1.9861246795436378,0.6284777104787076,1.1679623668029029,1.1947266502608482,1.2822798837085816,0.9338463032392856
360,1.396168851523527,-0.20781162144177778,-0.2500420264825793,0.8075588483546907,0.7913777364858681,0.5871330006773219,2.8875122188337974,2.7936760905973306,1.3764712568505457,1.74386598812377,0.6097226960127671,1.4131860565882066,1.0730548162129303,1.0592118648485167,0.9468118353310444
361,1.823296290449548,-0.4453941896562406,-0.3338909315101769,0.8671679011614768,0.8499929902397035,0.6659108192376701,1.9296672511401072,1.7613233172681069,2.3294987879381264,2.4088453482199337,0.6425374456860184,2.081131858349366,2.1097236042535785,2.0987156742927024,0.9371190648009549
362,2.2304529708966214,-0.5553253428517038,-0.48427373647468136,0.4435352165094831,0.41226369095918713,0.5594297299532276,1.6893451356635556,1.4448845862193156,2.7578901170955374,2.516525340319573,0.6528756675646988,1.9608884322360265,2.4372675843677385,2.1115691327577255,0.936016645198189
363,1.7871182048946925,-0.2531668136822669,-0.30077659926472977,0.6852719628721583,0.6832649000095546,0.6223276857609675,1.8729539102738932,1.700158460444605,2.057190144861336,2.883671584125601,0.6233814453054027,1.7437950427115378,1.787890747104555,2.2664073643113496,0.9381785257545976
364,1.860551582282644,-0.41319876803124445,-0.4555513661741689,0.8197871865723734,0.8196447131559322,0.652671836920298,2.313400316960412,2.116252398728492,1.7419011637964608,1.84457983630908,0.6207552362147116,1.6721410818235292,1.547568423793249,1.4461547490435696,0.9333441852015254
365,2.1643606014278722,-0.7713494610546796,-0.26433088656122916,1.1411526599193964,1.1334824831048242,0.6901871761320425,2.4270417650723655,1.5384124023619195,1.491538202512731,1.5581206731747297,0.6652988471865258,1.852288262302877,1.2727936832789628,1.147592152164678,0.9326017793835166
366,1.8167628406284952,-0.4070483153259039,-0.4080387710759938,0.9656033772812657,0.9341821841108426,0.6858794680962662,1.9900392383439314,1.5077189992949744,1.0293999476083031,0.9441037290476644,0.6380535849069913,1.543286110001555,0.8125825607742625,0.549007773323229,0.9420862255365989
367,1.0503086690945227,0.14121256357285217,-0.13733618273958048,0.4253206825704049,0.4185376798844662,0.3815344275559573,2.2968930434325756,1.8139522697645698,0.8885404757708424,0.6643167699869776,0.6357360191111145,1.1141998120098233,0.7289933123330811,0.5159623201395355,0.9384132703505953
368,1.400015846691546,-0.00020662285578143536,-0.4310416660141143,0.7367116028513805,0.7481135496085886,0.357129321702589,1.892940296488252,1.7882795006387933,1.660158719489237,1.5831343252394308,0.6207552362147116,1.487761232291338,1.4189431802257244,1.2630823448718969,0.947973684007326
369,2.09100841298029,-0.3692341257922894,-0.5779329501776327,0.9393018257008248,0.9221289372116838,0.6823998150642548,2.0215747980698247,1.8687287145691283,2.6357251307401515,2.8468253107396344,0.5915533975974677,2.1504364158374605,2.3850004321359557,2.372318431008721,0.9418670033475354
370,1.8006830049775833,-0.07939181086826386,-0.5594133198122789,0.7035314525549716,0.6912569010764045,0.5789675183244758,2.117358399843064,2.071047356329321,1.9899833651202663,1.9334329517078273,0.6740851607140061,1.9573419100177334,1.76912403775831,1.5830247193701188,0.9175342117098049
371,2.0302388486046117,-0.06365904773448805,-0.3743993997679719,0.7890343160088527,0.7673087930733657,0.7053055101999198,1.9211849255324005,1.769881991788533,1.84494333362615,1.6404539379923992,0.6425374456860184,2.1819419538050626,1.5764066756867066,1.2439878617897915,0.9377347763567658
372,1.88370173906243,-0.20188778359520176,-0.4124153372693603,0.6078741959779373,0.5864911751501272,0.6260352105241256,2.0661172500423084,1.897283340223502,1.815254986019794,1.8885593454623977,0.6425374456860184,2.0956612619267783,1.558709417501283,1.366314950521696,0.9426932025118344
373,1.9291292508726154,-0.37605534063510715,-0.48384603418960864,1.3965550622137395,1.3811192884885681,0.7582038499296504,2.2520068570091425,2.139122842997349,2.379922731122329,2.317087126874085,0.6207552362147116,2.2663603161710815,2.1555628155021123,2.141454731180617,0.9435336047148468
374,2.3652018053671373,-0.7480025461830927,-0.4612799692091056,0.9674785021066683,0.956029258784207,0.6486200237736041,2.20000312865858,2.028736307157183,2.736598164228031,3.2877111752425443,0.6153451465759925,2.1117810955187517,2.493389090469339,3.2188758248682006,0.9473191271412498
375,2.511455382587631,-0.7636402540944972,-0.5269882635174834,0.6638951803975326,0.6628688372043063,0.5024930260934022,1.6333855204673398,1.6575001275273034,3.028444977877305,4.49975403927837,0.6447042257417027,2.256550043421034,2.807134471765037,3.5106670900701147,0.9466568011175414
376,2.071846177494337,-0.5886017182515869,-0.29199399434905926,0.712470652413187,0.7002285534917165,0.5735911655096202,1.9869759557009223,1.8671009936693286,2.741260060817709,4.768212786804622,0.6547956803312163,2.0929546561604226,2.479425707004678,3.9448128282511368,0.9275543009341172
377,2.004147520933857,-0.6006857836190252,-0.2919930382421265,0.9089081500055619,0.8892266272412169,0.6728241402809785,2.2594662120474,2.0383753600567576,2.746332757014427,,0.5978297680564633,2.0546838905541094,2.517696472610991,5.736572297479192,0.9451968069364696
378,1.9175068557444572,-0.5905809950802281,-0.28013849597867096,0.9809746933787489,0.9546288745221617,0.6568973739530342,2.2271326411158303,1.9975744860793547,2.839006474779303,5.291617192777473,0.6727386042041725,2.1649510167859236,2.5962234176787486,4.700480365792417,0.9433171085435054
379,2.056159687313996,-0.2916077215600166,-0.5726195337136443,0.6323896946963673,0.6151710549565673,0.5607401896896067,2.0457670397445593,1.532389119949467,2.6880364647595534,2.0420673607244573,0.6125606311107803,1.8765914047447525,2.337287726172538,1.8091907556060227,0.9410109806817776
380,1.8365112374705856,0.1678078280798183,-0.0838376016932676,0.5151867775619526,0.49639766634014537,0.5502958260519226,1.5056440862485767,1.2075483166273344,1.7142947509542144,1.4603062950980645,0.62595550513784,1.396299804602843,1.3288965553343377,1.0680564429232215,0.952285079382749
381,1.8093935124476612,-0.3062679237067929,-0.41596827980269224,0.845445976982359,0.8457997719888338,0.6111644886274437,2.261813648550413,2.0658659995199193,1.7498211621864161,1.8916385803094469,0.663668482632973,1.8419305864744187,1.539464167891557,1.6127112377790696,0.9449132018291025
382,1.2767567299917437,-0.024151147394605332,-0.19660230945014334,0.8164663607252944,0.7935584511075546,0.5433536154826747,2.7519559719139233,2.523221317164642,1.2763577020051189,1.0538700822812441,0.6447042257417027,1.3254710662298004,1.0691074907343354,0.801775030555243,0.9315295560145568
383,1.9525512795639193,-0.2617436274431928,-0.32177127902553615,0.7939191988754358,0.7632108572048661,0.6588579078900887,2.552879982484923,2.2779389089656124,2.069444426208857,2.2029315106127094,0.6207552362147116,1.9400274858971578,1.7929199660508814,1.7719841639629967,0.9411776862409283
384,1.714275163796719,-0.11692290516658566,-0.32931295842460595,0.18508749434778254,0.18142331010520532,0.27792401878527917,2.192691912928939,2.0213710952427584,1.9762011911748338,1.890560646268004,0.6740851607140061,1.655307346092555,1.7069898866120439,1.5114788786744595,0.931394282959384
385,2.264820161712982,-0.3113765304247378,-0.5165704273689761,0.6100950978669211,0.5767155229716417,0.65853676082874,1.5546048875040654,1.460330570994506,2.132473587307915,1.1750684732443615,0.6528756675646988,2.396285458134472,1.9380097737182196,0.8911848107430788,0.9376042756956335
386,1.6475619825372088,-0.07126747983978132,-0.5398581634838636,0.45925652043737636,0.45190904610591914,0.6185143091907683,2.2937897431775514,2.242888316249336,2.140015380079277,2.3098224270672634,0.6652988471865258,1.8026856093616084,1.9242419123898578,1.8998939117686067,0.9454900305467808
387,2.2138900471652354,-0.28558980154153213,-0.4148994009686805,1.058210840600868,1.0140708828043583,0.7087562072218486,1.9964505248813815,1.7993015921672293,1.90529569132245,1.7318675667076475,0.6584896970785714,2.354346333108432,1.686773467876371,1.365030270366449,0.9371415653492914
388,1.9555688466763461,-0.3746821265332675,-0.5214010034855816,0.9650466870406186,0.9464702292275509,0.6607372468527858,2.517520889124516,2.59817909919115,2.3946047304119067,2.8645505426788227,0.6699045166045591,2.3508420660018188,2.141991990592021,2.1962320214234676,0.9532297606069485
389,2.274873555862471,-0.3533817732977391,-0.665734700658376,1.356118977206587,1.3130222831265552,0.7872699046505228,2.5468263863243417,2.6605362574971787,2.8008240181686324,2.860682065900902,0.6403206450210053,2.6416384355829585,2.5715211226247714,2.456735772821304,0.9435054763910115
390,1.9696977356713894,-0.22411992235445433,-0.4487853661382968,0.8710844817739122,0.8572527235438825,0.6378002125410904,2.40360238088534,2.1389248771238583,1.7545183196652303,1.0388022895835973,0.6380535849069913,2.2378382602215163,1.5849536114786869,0.9448972437856629,0.9389650384911494
391,1.6278362488066562,-0.12779268911957853,-0.4762828839594405,0.4645533459105574,0.4486143824514446,0.5828862012341655,2.0867710089754774,1.8782206582843037,1.5810807663365436,0.9775112038715992,0.62595550513784,1.8601810753467143,1.3998061377639175,0.8912804965110899,0.9494942992285261
392,1.7684915686005207,-0.2134819145321586,-0.5831333884751244,1.0870861501903244,1.0759782633870751,0.7024345273173557,1.7745440457793697,1.8199406611567424,1.5764887912110808,1.6681687185841274,0.6699045166045591,1.7038096438300225,1.3935862835004686,1.4124640788532754,0.9470999310619012
393,1.6049066101295957,-0.19981319546145382,-0.45850964910051845,0.8673689546115306,0.8458897976078724,0.7169062308718925,1.8873784005280627,2.005067328039008,1.4873745235349638,1.8923201781864851,0.6566669596287297,1.7009442250122644,1.284177869429711,1.4716280864278426,0.9468784299798675
394,1.4631321121325775,-0.17080475755932434,-0.35828847064418456,0.709956654798497,0.6700593483056034,0.6241408745662708,1.455794763994233,0.8868928899811515,0.801282563536308,0.3844623456069635,0.6668815377411301,1.4996372687502528,0.7219824654206882,0.36170859779482284,0.946730204774103
395,1.1570748387502152,-0.26989282363657435,-0.1559119745140455,0.8443445685280393,0.8220009689537942,0.6305733563070296,1.984616132011786,1.4128309739841323,0.4116153517241614,0.2853743670540672,0.6309483474627791,1.1048651303338752,0.3507078573827838,0.2219653374213731,0.9459015495937587
396,1.3185700415456783,-0.2591018324782183,-0.23413023344869693,1.1330203331889814,1.107766207644077,0.7267886732586935,1.9001100858597044,1.2948856038577343,0.4973384043816862,0.29876607528660726,0.6153451465759925,1.1692493682675504,0.3985668694757306,0.24509877355756537,0.9476804086296869
397,1.4825273543085826,-0.030616836434099404,-0.38846335091128814,1.0252129049571097,1.0091380362505495,0.7266168296725193,2.8150550358193587,2.302698763465494,1.46803263172301,1.2033369305228834,0.6309483474627791,1.6056119076005713,1.2577285112445629,0.9665906978645398,0.9520326066794307
398,1.3621228976435718,-0.13107697840471044,-0.2375664317485367,0.4825881937576758,0.47295278304859073,0.5104477556985646,2.2578116651614515,1.597315051839972,0.9741187616619046,0.6449557801879331,0.6425374456860184,1.4845689303882312,0.8568724977083971,0.5505316111665103,0.944112132309449
399,1.42797158163641,-0.10176900054117843,-0.26737052733617617,1.0335829076980818,1.0095916118932826,0.7452633102058029,2.164565035067632,1.2070209901647369,0.763393809208481,0.4310138567562909,0.6125606311107803,1.4668297827496075,0.6855170358085264,0.40041049813804086,0.9511260209495179
400,0.8344816356039494,-0.02232753568311663,-0.10216112214751605,0.5057812180840343,0.4392657008229982,0.4833405627225117,1.068689865364255,0.5371054856112685,0.23129139876695637,0.14557652099854593,0.6447042257417027,0.7530151442698962,0.20077555985947365,0.12609797054063726,0.9563764314434331
401,1.6305008019243696,0.14045454962372017,-0.26034942700582664,0.3458280430384208,0.33425195961906023,0.3153811130608323,0.2596398932076032,0.2517622635344611,1.382093314047602,1.4278128941188013,0.6528756675646988,1.327983525153725,1.1439410904111063,1.0716046746751204,0.9590336066477206
402,0.6237302134184303,-0.06942137679000143,-0.15050936216149047,0.2026936958102423,0.20092368686578962,0.3141489900537986,0.9214191349675107,0.7674589591046083,0.21359072345954508,0.11888950245046623,0.6284777104787076,0.44833781501355896,0.17288154597696068,0.10039588354895096,0.9717882713948336
403,0.3267149545979091,0.03224434848190144,0.037376722777037186,0.2127778966817606,0.18992862411720388,0.3117630894061867,0.3538549142493904,0.22911667014221376,0.13327784980557794,0.14086228839945533,0.6584896970785714,0.32462272026406364,0.08541951358721417,0.06854927702544503,0.9537757949102728
404,0.6307795247261943,0.18211404630079142,0.19020192081659093,0.2703566767940242,0.2689826419439391,0.25035597556890776,0.16388737225010086,0.08119859119482795,0.45273328747393177,0.4941742530910754,0.5947193981915972,0.5053406935354211,0.27763394666757624,0.22591882879724307,0.9384686741029805
405,0.6840938346697165,0.423805774349695,0.22618904991158795,0.7869245334008617,0.7926787551873483,0.09116483056008377,0.08154409511635863,0.06295735771702937,0.7165844956823109,0.7413705747415311,0.6309483474627791,0.6534778501017389,0.5295673245412146,0.42700403570676254,0.9451349113265933
406,1.9566846768985864,0.10989840633651204,-0.7643592673465993,1.473088986570825,1.4449121034844734,0.7917732017958282,0.021679795431548306,0.02735727369735293,2.636143861649687,2.7174794092615295,0.6547956803312163,2.326991635395285,2.418718573371806,2.385188621529256,0.9431117150128493
407,1.9393630822918084,-0.08994027304871044,-0.38977548055422784,1.42946726103765,1.403546215751726,0.7908024459383228,0.01987240033487435,0.024494598141692442,2.4433656414622225,2.420660990370836,0.6727386042041725,2.1994270008914194,2.2345949289008424,2.137261112568662,0.9347877332993709
408,2.1618013400351903,-0.10986054171901549,-0.5331847401967016,1.4004518663381835,1.3770564995765198,0.7658846679807961,0.01988056308091094,0.02630482723307076,2.429542844329235,2.5220090986758295,0.6566669596287297,2.2379424106147785,2.2140299303013267,2.0652434801745434,0.9358384945633007
409,2.2521492405422214,-0.35179706122804555,-0.4978489319405045,1.504196146701078,1.508211881804919,0.8270543271818186,0.023286079934816056,0.03839796711585139,2.4608783392624907,2.6272420551779243,0.6125606311107803,2.280714887835245,2.226119397431985,2.3157631853746006,0.9322033364117688
410,2.3200968148282084,-0.4067284217720454,-0.4776259878381483,1.6193087277206981,1.5870909995177087,0.8318698147632853,0.020627169728452393,0.035300467797559,2.3864579174053344,2.5680907065357643,0.62595550513784,2.1911431070203515,2.1499548721550927,2.1538120844009057,0.9348060598081063
411,2.2609230687647344,-0.38320257127782553,-0.49915395847305843,1.5500905160687164,1.5234760167034815,0.8298717393891437,0.028076029859852285,0.04574224296487844,2.6453652432215256,2.962110442217163,0.6097226960127671,2.320975384772394,2.409506103292872,2.6166404507007166,0.9222992566581305
412,0.7266880067253197,-0.24078851906146387,-0.10792578555450377,0.5089560754005663,0.47440054905276385,0.4164190730532152,0.5883481499678398,0.30710574622940046,0.19698608413379545,0.12456499421930527,0.6357360191111145,0.49886045570771753,0.15679828044123625,0.09495278739543038,0.9387008320907477
413,0.141313864063037,0.023733772862413488,0.020130612153708122,1.185843046322847,1.1868854181151787,0.25324460697251555,0.13370208380513168,0.05888286956980143,0.051361543694714074,0.06464590326322432,0.6333676938231112,0.14019481382826698,0.02946063123882773,0.025886449897714957,0.9184319578127429
414,0.33361757949144744,-0.04797384533262672,-0.022141497010331024,0.4240750436583659,0.41488496635019895,0.30871654655466196,0.23589130297694577,0.11169572482309184,0.11472552935535375,0.13645287809142437,0.6284777104787076,0.2531446735870599,0.06753514453673726,0.05491909162815408,0.9588545232918754
415,1.5957043953027876,0.266246186351758,-0.30583269604527996,1.4956037594776153,1.5215214106994668,0.4481829849971373,0.06943808689989628,0.10714134587846912,1.6510038558303957,1.9715191969100938,0.6309483474627791,1.7266586062343077,1.4196381925004462,1.5704258731590848,0.9265969728270077
416,0.26828353003922184,0.07792314832429986,0.060686228059374736,0.1515848085745051,0.15416217828837367,0.08823934509112137,0.1657126250803911,0.18314523185188689,0.20510459626748687,0.2487240745315132,0.6207552362147116,0.17789138451463934,0.10983513336926962,0.10798629878157719,0.9840177312694129
417,1.143963601902987,-0.029355976967003428,-0.07005016979914036,0.3108102892920412,0.3139308225866215,0.25948642282718337,0.22401886854588263,0.24909890255609457,0.8039202870755839,0.8822077388738376,0.6309483474627791,0.9773685813827454,0.6263634185537129,0.5869142620396386,0.9528846129916441
