,acc+bvp_XAp0,acc+bvp_XAp1,acc+bvp_XAp2,acc+bvp_XCond1,acc+bvp_XCond2,acc+bvp_XDist,acc+bvp_XFuzz1,acc+bvp_XFuzz2,acc+bvp_XK2_1,acc+bvp_XK2_2,acc+bvp_XPermEn,acc+bvp_XSamp0,acc+bvp_XSamp1,acc+bvp_XSamp2,acc+bvp_XSpec
0,2.497138578120784,-0.6369083824250299,-0.16612212506936574,1.045146314836143,1.0535166297294491,0.7168929124512438,4.069665327625959,5.016208036428926,1.7562908269082407,2.2818836134913885,0.6584896970785714,2.1249039157565934,1.4602163040664906,2.1253512429839136,0.9503689183227659
1,1.9136038597645053,-0.3227759288266787,-0.10653411170586863,1.3647166754257385,1.357223734023701,0.8191384764294001,4.380059734942461,4.830702471229242,1.4972254237318723,2.254436161912418,0.6619902821573977,2.0590290785848198,1.2514139398088713,1.4546351295514546,0.9384920178587566
2,2.146963466896944,-0.571446596354728,-0.11254670367471606,1.0570397261066835,1.035950079257397,0.7309538864924148,3.927039356868824,2.9683748689069627,1.5287276731062267,1.3964290460709972,0.6468212168108125,1.8476246020694505,1.1726280766812343,0.9291261132212303,0.9419278938253963
3,2.285201289753155,-0.6627169880111523,-0.27914460399823976,0.6610285846388092,0.6315647744822109,0.5154226348755074,3.911765456901148,2.610103517514772,1.3069786106917638,0.9480898572542008,0.6153451465759925,1.7613595968369717,1.0832742693853394,0.6424845779474838,0.9387859400162611
4,2.2824870342037733,-0.4203051508202764,-0.19803830949104959,1.2362095878203228,1.2342649928362524,0.764145663420761,3.817435933920909,4.977783999821465,1.7168189203934483,1.8976121936686492,0.648888643467878,2.130781620787505,1.5883279719749528,1.7940525222850932,0.9479669124324239
5,1.9544892113109935,-0.34005820552736354,-0.15235544493113043,1.210043942105647,1.190667151490252,0.7609517316270548,4.15605283123323,4.641206400073549,1.8243772816402977,1.7035983489985105,0.663668482632973,2.1826315750333194,1.6008027886177933,1.5533928576587996,0.921767871587443
6,1.6624583441819916,-0.30599827188816453,-0.12170483203209684,1.2711687464436965,1.2477375675891622,0.8107584536228036,4.300847453401527,6.209230362065056,1.4813657084216192,2.632703836382055,0.6153451465759925,1.9522412594175538,1.2247464727483943,1.463234091881062,0.9394505504780695
7,2.360876838400631,-0.6144791681548569,-0.2339606276761933,1.3056980370338538,1.29067945293628,0.8198959785594709,4.920687362485684,5.644058162052948,1.943078324718344,2.467735176150141,0.62595550513784,2.131343208222707,1.7957934350154876,2.233404233913722,0.9141054240388287
8,2.469523531650127,-0.6396484605399273,-0.23839146367267577,1.2928744509857113,1.275029968760927,0.8071521375626528,4.3192291515744285,3.8087339569149066,2.346219711794975,3.2860454996640924,0.6357360191111145,2.178402823095632,1.7623626511981685,2.8320704867889663,0.9457175456002127
9,1.8657719172909601,-0.338349199845336,-0.22342593855188025,1.3335355349704232,1.3438144089582118,0.8418736429714632,4.425885238349794,4.78510094322614,1.962897729349523,1.7519701386503748,0.648888643467878,1.9855869662082117,1.6100045534821676,1.4386536400450103,0.9367863668152786
10,2.1641734611134344,-0.5556918977382201,-0.261599288770406,1.3161523883285484,1.3031008837276226,0.8201297049404929,4.875459988957926,5.179131406345108,2.2691130536724726,2.124303031190645,0.6333676938231112,1.907020687340929,2.1072811672076353,2.060544301498469,0.9343176604723201
11,2.007121101721011,-0.4529323392849448,-0.2105344838650101,1.3903628418541187,1.3889723227771422,0.84376838502749,4.572399129400552,4.270800329981339,1.6730859573362642,1.4107644906296914,0.6619902821573977,1.9001616430786865,1.5050437599810076,1.2010765117810875,0.9439292746666624
12,1.2039179260215696,-0.15501521073143024,-0.13935198569766666,1.3837257823466604,1.3652966638693476,0.8400524996876876,5.334500869545469,5.578078291771802,2.2486024123946855,2.639546259417164,0.6468212168108125,1.9109184510643695,1.9693905788742487,1.8168289019989143,0.9213920995971459
13,1.7516395526002886,-0.3449574760069952,-0.1939861285360577,1.2844841647697922,1.293799753807959,0.8161483315366227,4.46347182900238,4.309052342495675,1.9827098643972672,2.459028653490099,0.6425374456860184,2.039793569387391,1.7286102082658386,1.8739700688743282,0.9102729497161492
14,1.4694817232956205,-0.214022872572304,-0.2446271801025614,1.140389197746929,1.1252074310537061,0.7622238550922559,3.732634159436058,2.7715874379250898,1.0442637173347071,0.6193364366941515,0.6233814453054027,1.4703525273746532,0.9034899038388428,0.47212973938598435,0.835924073499756
15,2.4472938229443706,-0.6697291986516843,-0.2355825532213811,1.3484364384268037,1.346038838902738,0.7795833078543732,4.727462296533997,5.621420787635421,2.072573607006395,2.54991895755703,0.6233814453054027,2.146721595163113,1.8731341150682488,2.1619625653678396,0.8437277339031476
16,1.6924264488628784,-0.35975273103581806,-0.12981364679186008,1.2759083969544482,1.2483179484116373,0.8163063103718898,5.219673465235897,5.80139476712677,2.2877207941536897,3.5885343798581086,0.6447042257417027,2.02142423753253,2.048552968241276,2.5092740062362946,0.917517955592842
17,1.577291537205073,-0.30752666363738085,-0.07010583507348814,1.5118208266258524,1.4995924138778862,0.8979097633668071,4.756033985064815,5.266642689461327,2.43932814534584,4.035180818915796,0.6740851607140061,2.211627807646963,2.1606685423843426,2.845613857254671,0.8375162967280405
18,1.7716663128692127,-0.29653323323406583,-0.1437837650312107,1.3460106869153723,1.328381901313696,0.7788187619944469,4.59777308334802,5.08674462178211,1.7836438519273983,1.8395687011258628,0.6309483474627791,2.298703746286073,1.5576743357301794,1.5325936527999149,0.8304778664787107
19,1.5257221708510096,-0.3054887169755488,-0.18746942919506737,1.2900609580261946,1.2804939539739648,0.8206848453457504,4.450574554484949,3.953494751531294,1.8683030491823465,1.7470717547963188,0.6357360191111145,1.8152328254136971,1.701375407759786,1.568391476211635,0.9022586991834861
20,1.8769965265990878,-0.4025229989507467,-0.25655752544356525,1.0287112149516313,1.023993821038909,0.7674575743427368,4.084211517936296,3.7612009929151444,1.4070551901373871,1.4434644717106402,0.6233814453054027,1.6777762362793434,1.2109968002531242,0.983495210335846,0.9306766840391895
21,2.042200577876965,-0.4635494518693568,-0.3626301653330011,1.0475378044191195,1.028759251414315,0.68207332037939,3.4496764395461033,3.8575294017949906,1.499984801110711,1.681233427722154,0.6668815377411301,1.7720222035450233,1.2541692774936763,1.207415148516909,0.9365495183127628
22,2.0873405391914104,-0.46860653326646146,-0.20300841021838018,1.4720176841884807,1.4757321098134637,0.8836458579776645,4.551118798091295,5.7544311425877,1.367540882102863,1.375321980668307,0.6468212168108125,1.9408010007872107,1.1612799307975006,0.7836247655260613,0.8998529526275917
23,2.063134570593352,-0.44234815862882165,-0.30470960963997157,0.9690239153684149,0.9645021156325132,0.7335734084878084,3.7683674889495573,3.6842413975189214,2.7428608376345966,3.41251571339427,0.6153451465759925,2.147767968623627,2.189922852230203,1.9399754135354987,0.9423546883924767
24,1.6199032790336887,-0.35395071371348846,-0.21217464441083447,1.0918226267395794,1.0700791333261919,0.7329225696947301,4.006458308907451,2.850496967279442,1.5506411945884035,1.0351331357045321,0.5915533975974677,1.5677629484624072,1.1807620852055212,0.7173886627139183,0.9239291244176072
25,1.7326271949499552,-0.3484723218757567,-0.17124207709688538,1.334291594313249,1.2906845113212904,0.8313928399788704,4.120256559054962,4.539949579249059,1.856143546406999,1.870875215042347,0.6566669596287297,2.035956429740097,1.6013853154135196,1.2162898001329743,0.9220054328294083
26,1.6499230457802019,-0.3113369053726554,-0.26792508129497683,1.377587667808761,1.373169579964635,0.8242344367867891,4.05726350960448,2.9075768688937824,1.5494975047475843,1.2071347527066945,0.6068309995095971,1.8373846472543305,1.3600558968938052,1.0856461426708424,0.9448892467940766
27,1.7108749009894975,-0.3050226221534676,-0.26568653009359255,1.3905100214004784,1.3574203173359087,0.8613387110435414,4.4291880698884185,4.765441284814154,1.8522685897160962,2.2100965702538655,0.6528756675646988,1.9942837333395291,1.6114808140639005,1.6384855978743311,0.9171511306529094
28,1.798128820311052,-0.3717569669973734,-0.4177831484578598,1.2671056027306988,1.2516485258179721,0.7599935863100236,4.6454123965392276,5.008257594547884,2.510795346508949,2.7605778615319796,0.6038851895711802,2.045276321064161,2.2688840023794747,2.076124789053842,0.8569878299990042
29,2.026605486815261,-0.6968793745860193,-0.19066813315370643,1.121691063454101,1.1157248657303749,0.7686686889174908,3.3918644788345476,2.681682810123043,1.0048146753190883,0.5525323173819883,0.6153451465759925,1.7186329309039503,0.8975980251071008,0.42752510878447053,0.9242255301171258
30,1.8978541114716545,-0.4497184143189331,-0.5581986156670626,0.27825589959769326,0.27790234926048196,0.42624469574403484,2.53954456326649,2.3799682658073844,1.5578893118019193,0.9857885316712169,0.62595550513784,1.671963645773973,1.3177865561024706,0.8124223826210242,0.9473927283433662
31,1.9336883883586249,-0.46812875299379814,-0.13653626089699017,0.9154674287363588,0.9194642105722151,0.6252294855704256,3.468894000442023,4.100228962167888,1.295325882067502,1.2643681208231672,0.6713451011121618,1.7076021612213317,1.0362479440120658,0.7992949390844393,0.9594917143026538
32,1.5467809054220334,-0.12013914748954391,-0.22433604179586558,1.2962586991414837,1.283189025946752,0.8141702692816818,4.779708449528571,5.106440538007135,1.9514670598237858,2.217786175311351,0.6602640781246099,1.9417300091376835,1.683444604587259,1.4073655157593632,0.8780512666857473
33,1.7238351836750991,-0.35388627788142946,-0.1884971226754766,1.1593050903698876,1.1171100190203267,0.7944236747742003,4.046794052366641,4.550824136530052,1.8578904264297835,2.4524279446893598,0.6153451465759925,1.9658747894749102,1.5507334436985727,1.4500101755059984,0.9463494512272973
34,1.5923699533482676,-0.32015831152073104,-0.3062953074349734,1.197113041193817,1.1774329676127888,0.7794030203125583,4.16562326624853,4.174545904864354,1.6953832611876367,1.9592070059252789,0.6309483474627791,1.7760173622794473,1.5235263656562084,1.3201762390671672,0.9469589413481433
35,1.5583328888924615,-0.2945013448697119,-0.1975099399583651,1.1626484408481947,1.156430611910967,0.7784880715008163,3.5285634253833136,3.761952308852449,1.478739824216315,1.7430715998418163,0.6284777104787076,1.7622006669865107,1.1996670926147242,1.1212072103626352,0.9257297331783058
36,1.6378835680615782,-0.42270693034985346,-0.2666707159095311,0.9169025147984445,0.9106806772119639,0.6263711980063621,3.344961140671709,3.1004878429829943,1.727116612096742,2.7360543370189094,0.6403206450210053,1.6227483264939526,1.4800743531776785,1.9857741558943363,0.9480878910160584
37,1.4779180074490332,-0.23548966440313912,-0.20337275383684766,0.7266103348734964,0.7103797644702597,0.6175290239184951,3.399610322250301,4.012384351493239,1.185087756434064,0.9877401552842148,0.6309483474627791,1.5342789055093955,1.0051543302999735,0.7228721469861679,0.9013078583467479
38,2.381158509407342,-0.7433634723605369,-0.26732376818753806,1.284081685757162,1.2793854950454966,0.7770825043814945,3.9567322158162046,4.135787763438252,2.1000469591985813,1.3717733156331462,0.6602640781246099,2.0558986412457845,1.825487394720472,1.439404186433839,0.9506206927208115
39,1.5024221867595886,-0.22408203322779974,-0.2544882539683081,1.0474055943032325,1.0479811424341334,0.788514254487601,3.978737130181615,3.494724576568289,1.3975965619379966,1.199518876059723,0.6547956803312163,1.5365489369232368,1.0774039407998577,0.7217689219801495,0.9094559438939125
40,1.725396478147598,-0.3270888560764639,-0.26434605469607836,1.2539454826090117,1.2601062646399905,0.8011284190743956,4.426576626622694,4.0396218457561295,1.5628160435289133,1.458998325397077,0.6584896970785714,1.7889633819260538,1.348332455949724,1.0433330929433353,0.9462959350600084
41,1.9290834351457833,-0.39806517117919127,-0.334736256011267,0.9357463899753561,0.9244088423208812,0.737504655059557,4.244027071172432,4.294143246940051,1.8553784972485468,2.162694959482262,0.6233814453054027,1.8506605771482159,1.6518315226655207,1.848288836270041,0.918345750485527
42,1.2873350211309067,-0.2071884659680857,-0.14322914880946222,1.0859892346171007,1.0653426847772427,0.7353442647921854,3.6790826474501586,2.9633088691842397,1.4747907394809678,1.3547252459843786,0.663668482632973,1.629300541530352,1.2499334719553568,0.8668038544681762,0.9442946207459167
43,1.2504917826125446,-0.10611526779429176,-0.1109902947982832,1.378792560348838,1.3728440250896352,0.8595362154996019,3.817870190672497,3.015188843626199,1.3138706723785736,0.733225620822405,0.6468212168108125,1.6931214993310555,1.0855300089547013,0.5766169414879988,0.9427683871063243
44,1.580403866691828,-0.2640864227452769,-0.1845392225767481,1.306849117431288,1.281828067705766,0.8385016467512078,4.443693138936737,4.134605476430715,1.7579163202323482,1.7803754461450645,0.6380535849069913,1.7967720110515992,1.4913943486485102,1.3406136919271157,0.89992827933522
45,1.890549604237317,-0.38542016343738766,-0.21283485182937778,1.2569059514958552,1.2464730000206674,0.8250098477602321,4.339816237091266,4.191340027463056,1.9660997623637069,2.098652749693773,0.6684167106117298,2.0311170944052925,1.761642490196036,1.6772691596286473,0.9472532252408805
46,2.0957342083192443,-0.5299658243069494,-0.3002195003426908,1.3461898843054905,1.3348895673472554,0.8540850604337161,4.234251439558743,3.8643518097390253,2.11396605636282,2.6287061842828137,0.648888643467878,2.066547253694603,1.8544043824778442,2.1067159595994953,0.896636345470234
47,1.080654584473246,-0.15823085122273628,-0.1539487253122206,0.6215988826004961,0.6036879958098488,0.5807080374099093,2.0301264328500817,1.9101190663613719,0.4964207888906365,0.6161827882891989,0.6357360191111145,1.0705432687405174,0.34145643983484886,0.2682183859197815,0.9287631924742795
48,1.049791735631905,-0.3563240256558411,-0.08737652594723264,1.2052946692211113,1.1715582356619663,0.8015976250364933,2.955373108967859,1.8997751165500114,0.3606745098008443,0.16830738645690793,0.6509067234006624,1.1246483032189512,0.2879900332405414,0.06582004769916192,0.9126793525600034
49,2.1026232233937936,-0.4782873899865174,-0.2523582670513187,1.3888079550969692,1.3820537559086503,0.8386580854400302,4.628692947571643,5.475156320918858,2.2099135772960405,2.669851360272275,0.6566669596287297,2.0600747391889858,1.8875754438823116,1.9265252775135848,0.9021630075221819
50,2.070148609445016,-0.514006065071536,-0.3180700471870379,1.2829444668580725,1.2818654719110771,0.8413091024566722,4.325161720724927,4.718225667157928,2.1826452696005565,3.333872586075157,0.6403206450210053,1.9458434846107702,1.9131654855317588,2.3500589479040475,0.9135806007658935
51,2.185004643290408,-0.620775481074924,-0.2812707689601678,1.0677021659892696,1.050251513958813,0.6658876081267875,4.2347341412505495,5.752084128399199,2.444290766568117,2.8731340788228152,0.6652988471865258,2.1064702140677554,2.240618369244846,2.3242779176053054,0.9421113391096421
52,2.0967881375613766,-0.423874484167275,-0.24694092477981927,1.3256505643949195,1.2982629787440099,0.806286524830453,4.148694300740859,5.808576997408173,2.5214553560218382,2.9706829611152306,0.6668815377411301,2.117859021955479,2.343691936257696,2.669347872083172,0.8923334138794492
53,2.060323987092114,-0.37763538951093006,-0.23754342103486636,0.9756663704798796,0.9567313481273683,0.6635730274918121,4.141241952132106,6.76416264396826,2.3385759542907034,1.8678132564864034,0.6425374456860184,2.0519993251834405,2.1329996053067912,1.8754584881047018,0.9409567067292038
54,2.2664845098599686,-0.3768439083426281,-0.2784334818950431,0.9696834993980017,0.9553050172621792,0.6502157792703424,4.380126910233161,7.680495300931892,2.7962247238736655,4.879127469732344,0.6207552362147116,2.109396866970699,2.649183532316927,4.703074400969463,0.9510871342335468
55,1.9467662647647948,-0.5048281978009015,-0.1643256061975998,1.130560828657169,1.1049515337805225,0.7250943455159471,3.973131730842727,2.483913089130701,1.5018287099989107,1.5629692564645614,0.6309483474627791,1.819130666024187,1.3731573243515833,1.264462190494048,0.8997780697979756
56,1.5900413034403975,-0.2609902921898446,-0.17522598993686037,1.1718719651285807,1.1658409337462992,0.8066455491021531,4.274879569888386,5.737983843431739,1.7962171000846343,2.0040731190513683,0.6284777104787076,1.9771256562082349,1.6000136752838363,1.5096573235697488,0.9145726357945912
57,1.929643463045592,-0.45846058330457623,-0.16670122358918732,1.4545091225251288,1.4340995514196688,0.8426379014440954,4.767512501941799,3.813354150241966,1.7741384062325922,2.072188117549379,0.6380535849069913,2.1273254499565524,1.5776833860872677,1.791759469228055,0.9385864820033927
58,2.05169045341964,-0.36551711335561493,-0.29685992352187857,1.4087109481789561,1.4028334325847711,0.81402326729859,4.237529806742296,11.915200347398692,3.0565595383123636,4.949126883830697,0.62595550513784,2.289888262199639,2.8335425260419616,3.5115454388310208,0.9238312150395896
59,3.28932282809991,-0.8958122849281592,-0.13182589998594302,1.4147799643972425,1.417567705659543,0.813266313388272,3.935680995187855,7.929361631055713,3.144342953545871,,0.6668815377411301,2.2929648496170554,3.06251093077093,4.953476880256307,0.9622610424778245
60,0.7804411449750598,-0.06617689590864849,-0.01744569489304596,1.3084403432440024,1.297526065690972,0.7999840307240697,3.9928994550033825,32.04258425183869,3.3232546588341907,,0.6097226960127671,2.3771889145564957,2.7078107948286223,3.614515038825074,0.9139697494660909
61,2.359353793608895,-0.31849355677135094,-0.19039806356217923,1.3579553090003353,1.3614204295156194,0.8524915496051406,4.03338521149617,10.870798732767112,2.3389881842621234,6.096976363944346,0.6547956803312163,2.265075244244394,2.230742404816334,5.813135011583565,0.9418645995865838
62,2.5414826789504814,-0.5809223425728836,-0.2463008523080253,1.2156845966093615,1.219601244000613,0.7321996117092665,4.364767346828689,7.021132277531719,2.868558860202341,4.648619795903,0.6233814453054027,1.9310981678501553,2.5057367033187212,4.485823428355525,0.9574400404681718
63,2.1272748242236994,-0.44624912599822436,-0.18042830453403055,1.284812297383717,1.3038846831337445,0.752430776655297,4.4831487806710655,4.839579970007539,2.185580464491273,1.791449093556262,0.6425374456860184,2.213150727886479,1.9082225067235414,1.6989430563021326,0.9431479012134075
64,1.425704484702577,-0.210090756044152,-0.25286968182065794,1.0078123858081416,0.99996221428109,0.7536840429271726,3.959612903540491,4.740285025216496,1.6527600512632543,1.1735672926866505,0.6333676938231112,1.8132555295729418,1.4719381763329074,1.1667786350102558,0.935114813694513
65,1.9318826486709506,-0.22123087050788104,-0.21235852913345077,1.2220996641635269,1.2198437280391046,0.7913742053398877,4.117234169005823,6.4020330545256945,3.2826468780380385,2.9097827281292865,0.6380535849069913,2.1572349291200608,2.855068422076892,2.9295256953157227,0.9437275737011769
66,0.832135612979642,-0.07431901805047482,-0.011668328624088184,1.3556920999853268,1.3580920729481858,0.8398943959217382,3.8001661043041,21.573300369509905,3.145972460216777,,0.5915533975974677,2.5544711131739093,2.646517909413565,inf,0.937044974749084
67,0.9867962794174396,-0.13206039162158115,-0.019248371222426255,1.3862507542977736,1.3566317033763564,0.818239594599584,4.166939918905409,5.830666557965531,2.218877281431416,1.5003990254346264,0.6602640781246099,2.1258345812495465,2.2076135518654936,1.3770233296919578,0.937309434392224
68,3.1212645246315938,-0.9215059300642576,-0.32504899863965325,1.417424854474514,1.4144492647781406,0.8029565718058396,4.4217984690841154,6.779026353377383,2.5403263219874477,5.672334131196443,0.6309483474627791,2.0829142311588087,2.4862455173062497,5.228967288413243,0.9506125857111903
69,2.113123859622781,-0.7155992719251021,-0.18354584049138253,1.377523529861659,1.3530272338136302,0.8194764946511378,3.9972637715104855,3.6236846668845266,1.3978532998196012,1.3781902842688194,0.6180765742263259,1.825798961451579,1.2068278440254567,1.0009362844852059,0.9408143156671288
70,2.0250262823173966,-0.5593835013533615,-0.27497479960330284,1.2651164084809727,1.2633506670603045,0.7873324825178564,4.214926212391953,4.341906533354142,1.8316444420437246,2.075567559145107,0.6380535849069913,1.9072451458357549,1.572634757860869,1.517510163649611,0.9522477803187257
71,2.315700059324818,-0.4800046000591184,-0.3530927313572044,1.4493325473339873,1.4084410355321395,0.8604678169237123,4.693539972801197,4.973554538230339,2.141253718998305,1.5272301861553914,0.6125606311107803,2.0697112570372598,1.899470162230835,1.2877807615980281,0.8838637951806092
72,1.967688717193915,-0.4387705191884121,-0.2145038283532441,1.2661561552731173,1.2561455951569778,0.7874499414061503,3.975689171741888,3.0704426224567714,1.5593367453697724,1.3915254691637176,0.6509067234006624,1.851651026468661,1.3105294547229946,0.8821048811577082,0.9176060211259048
73,2.7505910352151695,-0.7517035840967852,-0.33652991285462386,1.311982655503943,1.2931488452270867,0.7332766790181812,4.8343639517107535,4.806589848229499,2.2174840803093243,3.1694579214124827,0.6207552362147116,2.223055337370741,1.975169355338752,2.8026210093386563,0.9397142465312154
74,2.4006047352998388,-0.6370552351197205,-0.313680963102424,1.3343498713813735,1.320227180956477,0.7712022047234509,4.375610360451955,4.161150657525483,1.9822497316079748,2.0276209326288024,0.62595550513784,1.9861536072562789,1.7361677340802901,1.5826850133622645,0.9344616250304879
75,2.1195106376067794,-0.4358080510592184,-0.3238302517783786,1.1998581167388473,1.1986866903837907,0.7341769361627325,4.3069822405829745,3.541047400738919,2.1875669793235053,1.9552373111917882,0.6468212168108125,2.1274187030922564,1.8795256688490107,1.6229682541484785,0.9042974500173139
76,2.1576736296907235,-0.42112358016095996,-0.3571222403980201,1.2683626629507785,1.25937380972654,0.8161631282966278,4.2464569844737685,3.9920127151502385,1.8706354994305177,2.3469952700486107,0.6125606311107803,2.076689775707482,1.6465511059237656,1.897426686314447,0.8873347629315192
77,1.9677533505135905,-0.33655845151479036,-0.35553626207389893,1.2965177046872498,1.2672095541082276,0.8040925966590771,4.36456715506718,4.289674889410939,1.8580291267814604,1.9780998608145828,0.6357360191111145,1.8576144120240792,1.634237337906207,1.5753538956543638,0.9500806809958219
78,2.049491012480835,-0.3049271529939579,-0.4852649378040035,1.3146826690379347,1.2958425562948486,0.840709711666542,4.2391242634410755,5.084824806354463,2.586603040457985,2.0435586011522124,0.6125606311107803,2.0366375126882708,2.36877148222051,1.5905099025485814,0.9366906199562589
79,2.5348209098901724,-0.55405252334885,-0.31970879261219376,1.2350812290797244,1.227408005090073,0.7457294999428808,3.7254955156889005,3.445537970803826,1.979767482474879,1.1731137950786363,0.6509067234006624,2.2548536901728555,1.8851858313113745,0.932471176330113,0.9540113109917455
80,1.7749988954501872,-0.30390465099855035,-0.07476178003082293,1.0853822880922375,1.0897174718335065,0.665234173529781,3.914266565448744,10.924017594203162,3.324050692616054,,0.6357360191111145,2.2508363467848684,3.270624571077378,inf,0.9420699109958124
81,1.704395188875918,-0.31888976876780234,-0.37275107678045677,1.0054753729612877,0.9803346208424107,0.7081274661936334,4.000151458811385,4.114794868701299,1.9926958457938326,2.509643249441001,0.6619902821573977,1.7738540653592205,1.874950339795519,1.6428684186746287,0.9208457607395302
82,1.5576904265493547,-0.32420654862496406,-0.1148609186182512,1.1946642521257924,1.1865788120647611,0.800652585422634,4.599975412337721,4.061140058600574,1.7198380185145958,1.2690717253365476,0.6509067234006624,1.899493169031437,1.4760364658821405,1.0528900393300147,0.9098044103318631
83,3.054529059977248,-0.7776157792139161,-0.5617981315932241,1.4977829394918818,1.4995509833445206,0.7408916187390757,4.582048494729771,5.635112850253126,3.0197505581801387,4.600966892416115,0.6207552362147116,2.3871751612946652,2.7550885752800274,3.7803945629497093,0.93436807499645
84,3.2222482769785112,-0.8213725201532055,-0.35614904994063007,0.9194928678789539,0.8982197348120644,0.6337714818521788,3.460650224464571,8.281209898756927,2.846450851226128,4.746890017335801,0.62595550513784,2.009086635220825,2.3632097148104805,4.47031924181956,0.9455957419682214
85,1.6270097356039646,-0.03904051065543701,-0.23817815861498348,1.2474095630191968,1.2374060741251462,0.820844584793688,3.7864436350201047,6.137959156592496,2.014227964548861,3.4783786918722934,0.6153451465759925,1.876228625854505,1.8960324371984822,2.70805020110221,0.9478655482253989
86,2.0803024569922752,-0.49528320698701,-0.30618642819921515,1.2670076726132555,1.2501781690175662,0.8172165223915214,4.547999908345907,4.397588582332309,1.9934541479341303,2.2383804247432906,0.6887264468386587,2.0265539632831264,1.6976073049754499,1.7672016184463908,0.9508550419631167
87,2.081868220303217,-0.5253341890113277,-0.2837056176801035,1.3697353410970095,1.3440211339176698,0.8064557017300156,4.15471321776104,3.9344949178752078,2.046956412107206,1.863739605100132,0.6547956803312163,2.0629559565311855,1.834725931626303,1.5566397268671295,0.9372049256172837
88,1.8322017746779777,-0.3546722858959276,-0.20351496492202467,1.086448902621562,1.045500527932669,0.7618646623221154,4.358919527342475,3.6525352775125084,1.842373234556425,1.2629836722131411,0.6207552362147116,1.91551027666423,1.6716151573859919,0.9555917372913199,0.9265708506622243
89,1.6685424885199263,-0.4442947946048251,-0.1802123843752952,1.1760249968911196,1.1425348026651432,0.7859045923699532,4.163723243250299,4.387695913045919,1.4714685216902292,1.3515795970126272,0.6233814453054027,1.7533082828538022,1.2890498320402441,1.191248514661562,0.9381952481303654
90,1.699447835705144,-0.2602137052403316,-0.3178095076963098,1.270286018845511,1.25102385109415,0.8558756493032413,3.80791915628404,3.601129409299005,1.4065240115087856,1.4749043671536515,0.6584896970785714,1.710363831024061,1.2086131838824383,1.0402540735084276,0.9373398077962259
91,2.1109219202409397,-0.3996750929141486,-0.42361171505265943,1.3910296772796016,1.3919587521327967,0.7925447164946738,3.7093342238076006,4.616802451312724,2.1071852665706694,3.3550631386461847,0.6619902821573977,2.019915562365809,2.016789220409877,2.816983274936175,0.9361235114656435
92,2.971785389342332,-0.6439750337835034,-0.49777920512580515,1.416923736454019,1.4203641754690295,0.8128098884519958,4.1090352097562315,5.779530710985184,4.104971126731185,3.381074187559451,0.6699045166045591,2.298703746286073,3.321963821659621,3.589672804030488,0.9458115440113931
93,1.2794443961598359,-0.16977203820463121,-0.04742280539515481,1.0638037733186154,1.0653678000690696,0.7049016239088068,3.1750396338813855,4.315500333031678,1.921567510344479,5.94784101923282,0.6233814453054027,2.1384840823136195,1.8407476728079768,5.636573724962751,0.9521742808585743
94,1.884988970080218,-0.15988651558548683,-0.30818344325725494,1.0452575355674247,1.0381326791609595,0.7769843701557293,3.8318333770900086,5.127984887792028,1.835119652718952,1.5946332368515972,0.6468212168108125,1.8641151314201954,1.541759839793071,1.0614675089794972,0.9312877445178313
95,1.6530782445803482,-0.31530191860739026,-0.22347351250576988,1.2605921390247645,1.2438342309590527,0.7915514256624584,3.3897815980846158,1.2136156635638429,1.1192805684625957,0.5484734404497351,0.6207552362147116,1.7426518951210273,1.0390448461494814,0.536692529204332,0.9336590626600766
96,0.6497694406752408,0.2566006341469287,0.04963864505316362,1.3590097854524965,1.295567341056674,0.5055890308437835,0.5622744886848626,0.22859590974050792,0.17780442680186853,0.13890557683442856,0.6468212168108125,0.5103997885207641,0.15004359442162868,0.07786389180408433,0.933138290335708
97,0.694428786073397,-0.27559019451832556,-0.07785102533955521,0.7621789885756135,0.7441592780905697,0.5497248865045906,0.8414872121072513,0.1596981057179757,0.10939051663665542,0.049223920317573805,0.6425374456860184,0.6301515156798885,0.10404916767776667,0.05631434811608098,0.935681360062723
98,2.1124432077247945,-0.5107085095181583,-0.3265165244940572,1.4517615309329979,1.4140464855459607,0.8416696697120912,4.451961923648473,4.598012313290512,2.0349602746711506,1.0526408954183364,0.6547956803312163,2.0374895192150606,1.8422814423758977,1.1308643325052976,0.9411150869424237
99,1.6834365218572565,-0.28043252511174066,-0.41265511242125996,1.2092027892440593,1.1996373606790738,0.7790805391147347,4.174100996177808,3.6342889752926295,1.7386281559003844,1.7247633507187892,0.6403206450210053,1.7022844628004523,1.476036069776038,1.1593702882773398,0.917634039200341
100,1.709733140492668,-0.3219889467958055,-0.30684439526614155,1.1667243641688207,1.1437523757746995,0.8118661975803229,3.911486692693022,3.7973843026443617,2.137036207872483,2.5720839908202655,0.6602640781246099,1.8408796878594689,1.8754851639300703,1.4646634282353974,0.8719248231836213
101,1.5027595936773905,-0.2059808480654901,-0.30515568859029174,1.2871692399009345,1.2627901504877845,0.8061861276775332,3.641272870677932,3.4424067140507426,1.6834818794109077,1.6994618458861706,0.6153451465759925,1.7690199822585655,1.4311431336774811,1.4932313034668838,0.9439338435505592
102,2.2087512534567373,-0.4753835796710355,-0.44555753622123356,1.342864419938198,1.3391433395177392,0.7948948819907811,4.070943710122177,3.969591079108641,2.2207975208832202,3.142672445330663,0.6566669596287297,2.005365316061776,1.907213399300093,2.006048507793847,0.9495021475551962
103,2.520710395480035,-0.48908136960788584,-0.48649401566951517,1.210654639421823,1.1973298718329242,0.7602454895852919,3.2517752237318565,3.972748877046607,2.731007795416673,2.748292786578838,0.6652988471865258,2.153686275321736,2.348125397679202,1.9569933859332957,0.942668383413179
104,1.847518187084514,-0.21525491865125512,-0.22360579842777495,0.9479939769900656,0.9171932053828686,0.6344316041627713,2.744723238617881,2.6791933501196423,1.7857274529642222,1.7520194413792907,0.6403206450210053,1.864975531559314,1.5770438446230963,1.521414316429551,0.92605210192889
105,2.286585006945485,-0.25860165576239347,-0.5038987300824703,1.1364405960044957,1.1410787066274877,0.7492277843883012,3.1224162559607107,3.6887231601250803,1.8909617410151403,2.493642284147276,0.648888643467878,1.9989476537521373,1.6224808577771928,1.4128166482060593,0.9425982660661093
106,2.2876033463377867,-0.17557657018469786,-0.5686348943889427,0.8721183262151713,0.871713789346732,0.5498340016458362,2.680686423239368,3.034613609245452,1.8972004346958864,2.37962089574667,0.6468212168108125,2.054770609541286,1.6889170810676455,2.3408672795650625,0.9326810149361899
107,2.165283575302042,-0.4166963290747121,-0.39183738083919223,0.7172102840058197,0.7195052482856865,0.4925261979358252,3.239022702957918,4.226190262139216,1.4689124260168465,1.4475872038932025,0.6619902821573977,1.5364972880323853,1.3677705750558908,0.9447803431784816,0.9444280740354725
108,3.1168396802501137,-0.8798114849545935,-0.6657455782315088,0.8881778793693044,0.8889611056927037,0.6554663061702464,3.057690721465543,4.135988475196128,2.7984847053725113,4.5576480176972725,0.6602640781246099,2.092144100885712,2.487791613923838,4.342722584714852,0.9297109007899689
109,2.8740784907522396,-0.5656204490122332,-0.6058094600835614,0.7142608710367454,0.6929582946805648,0.4725358324422992,2.5913961745272425,3.056805753993389,1.7730466448535476,0.9806607811043775,0.6528756675646988,2.003221515768427,1.5410767095344018,0.9455611141742682,0.9263865758416845
110,3.102289849876305,-0.659346370315955,-0.19554066333023418,1.5263674000373533,1.5212813899485087,0.8547427557678544,2.884569254657023,3.2878715138129473,1.5785350633649216,1.8115416792972905,0.6008849035917525,2.1348133172148223,1.4183704214452146,1.6498234480836746,0.9095796870110158
111,0.8140787215171855,-0.07387308047684968,-0.042811536273946925,1.5056113774719029,1.5117942342925719,0.8558766254022464,2.869122977726622,6.353595326290408,1.796331785351622,,0.6309483474627791,2.232437333091964,1.7672032936608393,inf,0.9261500490124418
112,2.305218959326086,-0.22380861876364588,-0.09892203554200617,1.616058093241993,1.6199241397223167,0.8749060661016977,3.177968613468643,3.7314680541379848,4.770576531157797,,0.6380535849069913,2.6413265690593017,4.72318711241855,inf,0.9049850467077328
113,2.3466639354502306,-0.448454507768629,-0.19840887185412015,1.052242717919286,1.0462512481570747,0.6639801326724474,3.3091010408322146,5.002898356499756,2.638193496949649,3.6940648875773534,0.6097226960127671,1.9264343725546567,2.1793082346198136,3.517632708219671,0.9372624069439269
114,0.3229178027662268,-0.030079310135481888,-0.005441648168803063,1.5442554326570725,1.5322266964815163,0.8333524920438795,2.9672648465161706,5.619156924418029,1.9151347949452235,1.4255038886534046,0.6038851895711802,2.3564548029067764,1.7635495060959019,1.5904671538043194,0.8947647581738862
115,2.891872323171094,-0.9169406391080994,-0.3747524539653496,0.9264030486632505,0.9025380332467683,0.6018012573157576,3.3936427334692385,3.9399074868952773,2.2053305709894273,5.858350448481759,0.6380535849069913,1.9442115924197318,1.8765498217300896,5.101896885374581,0.947355643330043
116,1.6193270834831814,-0.36365924786751214,-0.19435483146270935,1.3126845502024194,1.2729897031060269,0.8221931104670095,3.9004993349253225,4.194506826038109,1.5674547984736438,1.050971784184028,0.6333676938231112,1.9309449111448744,1.3761551471381652,1.0451520476896106,0.9252129795282157
117,1.5319600202320727,0.2748534773560062,-0.21481373525910652,0.8037919185010799,0.8023518946511741,0.5138299701849376,2.229564077485338,2.4975521377905254,1.3730050609660605,1.1712552772469966,0.648888643467878,1.6645396192173352,1.2242334173151326,1.0479981385848725,0.9376848116509233
118,2.3680414409951007,-0.40335148120770303,-0.2033616591534726,1.511283924712399,1.4981543703995925,0.9154603963217555,2.041779851664837,1.9627855286606217,1.8915519517020303,2.145192671595035,0.6447042257417027,2.175658799421659,1.689162604522193,1.9151224316779132,0.8850224947688026
119,0.40465714505958,-0.04930657064191603,-0.004647715366027969,1.5718406146390402,1.5283531724135646,0.9509702251574524,2.1907655624766487,2.7682362472972812,2.208689821063992,,0.6153451465759925,2.14729220858801,2.114288273010004,inf,0.9136602782084529
120,2.284694582156165,-0.23151178761043906,-0.20552684854141923,0.8978551153968886,0.8974293499567108,0.6526327084298706,2.266821940719074,2.299889438181312,1.6703172687864016,2.8449445762403083,0.6125606311107803,2.1167511931863427,1.5201685219968828,2.0569124286198077,0.8915283126355313
121,2.7846251963353703,-0.5267511424847289,-0.2938173917392459,0.8329876364875706,0.8317358835745327,0.6214790197836123,2.4278553855050182,2.8469167214195483,1.529005077089889,1.6743688326472899,0.6425374456860184,1.7277836063529601,1.1410223736286442,0.9818083973178984,0.9589053718396972
122,3.1749234380439453,-0.5504411536815554,-0.15862508081492566,1.6422615286614999,1.6387074170758373,0.8305160410349528,2.1562715369493617,3.450875702805444,2.1732630607351067,,0.6380535849069913,2.5061983852556224,2.1584859282648763,inf,0.8825254985503382
123,0.0,0.0,0.0,1.756561545621442,1.745995738084094,0.9589454271571999,2.2509536730549473,3.628089388203528,2.7047112998366956,,0.6207552362147116,2.995732273553991,2.7113891023677246,inf,0.839695803963073
124,0.2977811971962378,-0.03075951940631375,-1.120430396415376e-05,1.6293162499409086,1.6135106205087493,0.9414294413124369,2.4467941479746678,2.6756305253539163,3.033778616675043,,0.6333676938231112,2.3781471132164667,2.6375007227033334,inf,0.8368127369965302
125,2.906794867206332,-0.5072024668058557,-0.2538254896788353,1.0537438381227988,1.055542068819674,0.7317749349353359,3.181033588388751,5.681378892737397,3.461172798201924,4.6312598350405185,0.6357360191111145,2.203142051100257,2.0010173771290503,1.540445040947149,0.9350535270517982
126,2.012260534975371,-0.30933649067563984,-0.01933273003700409,1.1598303571152326,1.1781242269437635,0.5936270053388607,4.573796820826217,12.478719079370899,8.262438571025786,,0.6333676938231112,2.445301395195641,3.3382460479294225,inf,0.8942529925941625
127,2.486939197663276,-0.3730408796494914,0.0,1.7852788108556092,1.7980688022749942,0.8553037213016541,4.793508405095273,66.20932420369641,,,0.6566669596287297,2.703394389566016,inf,,0.8554462694539812
128,0.0017529093956224272,-0.00022787822143091553,0.0,1.7621697443876556,1.729786507377492,0.8764950981176055,4.215973067172861,75.14931837298793,,,0.648888643467878,2.0419316929301843,inf,,0.8890677146155034
129,1.7561997424831082,-0.2364691481863638,-0.03279221490428547,1.2993364602158688,1.3113025580849003,0.7915694667332865,3.642661262919897,2.801199658717326,2.2431427584995083,1.099764090180231,0.6403206450210053,2.360920670007009,2.2475884172465967,1.1086964077347359,0.925858417099134
130,2.9466929362596295,-0.4806728458809833,-0.257984737273409,0.8994693178899202,0.8881565444981419,0.6276250801598355,3.514735981588368,7.042281026847615,2.6515609794460704,4.824808454428257,0.6309483474627791,2.308379626702382,2.290146016567041,4.61181472870676,0.9413258508351948
131,2.9354120653220708,-0.4694316515400889,-0.21494936719098523,1.411802040564679,1.4211738119326258,0.7725011286380845,3.464880062810765,7.033046843473782,2.1869680704242995,4.718472804612224,0.6038851895711802,2.4093045562944493,2.188117942902816,4.730700908435301,0.904146925698335
132,3.0507162755227215,-0.4944462770825978,-0.09535886951846173,1.6211004009572245,1.6258155342231524,0.8814374039727275,4.244440681325537,7.78248722156189,3.1036578537619657,,0.6468212168108125,2.5901190282705318,3.1103356562929947,inf,0.8680727940877003
133,2.586314614493006,-0.3579385970524221,-0.31563292811059007,0.9417243420100869,0.9459166675918701,0.6787564301095946,3.0369636430277622,3.2950228956464214,2.644431588910091,1.1364133395680558,0.6619902821573977,1.9331694355155946,1.8039669916061147,1.2073990652700226,0.9396129279204195
134,3.793772743147416,-0.7630089093361281,-0.28909697072529045,1.7173267252407727,1.726905635180995,0.817740634383846,2.5484311845754934,4.575508099252555,3.179991628860191,3.9477435475415343,0.6468212168108125,2.4746923273810286,3.1459752405646655,3.484312288372662,0.830477934187709
135,0.26341826266419033,-0.02370764363977713,0.0,1.7561680735348113,1.744472270792219,0.9412416268565654,2.4716316901894566,2.3737831361581736,3.180393221467105,,0.6357360191111145,2.5200503519235813,3.187071023998134,inf,0.8481312656209037
136,1.0666331776395988,-0.07790323958065636,-0.0003165267795809002,1.1280766649606262,1.1093327545160045,0.6556723168479788,3.0502571637094404,4.304413928946349,2.302609293713498,,0.6207552362147116,2.9648798100712264,2.095295929585166,inf,0.8786755870373454
137,0.46687076671267785,-0.019046614769608283,-0.016746810678363686,1.652629668534076,1.6652375497062362,0.853648240161292,3.257668589270228,3.594707878894919,3.037209512910009,,0.5567373465730988,2.659895159215163,3.0405595253483635,inf,0.8604416848848678
138,3.250090743935109,-0.619474678213762,-0.6109582476473976,1.2120608865966394,1.2040465804205422,0.748675991881515,4.146729893151914,3.897922007403472,2.7233179625094985,4.863906475721989,0.5158180382284114,2.1975246223452216,2.6850106691237188,3.8859723282282035,0.9532799804120793
139,2.46367831947674,-0.503080712670505,-0.09090964112009536,1.7369262973441584,1.746720331898725,0.838602084096165,4.597357247137933,7.136636337653814,3.3240426608716795,5.659726514341869,0.6207552362147116,2.410417797797261,3.3169745424980737,4.070734696582967,0.9032871413858833
140,0.017533918238344118,-0.0011104814884284608,0.0,1.7324494467598135,1.710200866682652,0.9356166553958761,3.896711549853211,17.815447544532155,,,0.6233814453054027,2.7743680821398584,inf,,0.8934102712746221
141,0.2726699179239774,-0.025112047234542655,-0.001246044831441824,1.731442008865745,1.7258297767901534,0.9351917370669998,3.579464154554126,20.65382474086484,2.1855796715839872,,0.6333676938231112,2.4162516131385896,1.98552431692031,inf,0.8927173262180146
142,2.857772279997759,-0.5260960592859283,-0.0930219865360363,1.5253833963179262,1.5358560277402453,0.7334625049186176,4.192849504793575,12.404356064548242,6.930029298400876,,0.6357360191111145,2.3914163067006613,3.3123661679555396,5.703782474656201,0.9078656727964617
143,0.017341464283500474,-0.0013295122617350363,0.0,1.7890680235922927,1.7846359046679805,0.8793320512053832,4.355748418013745,23.58557172142039,3.117703563253923,,0.6309483474627791,2.5827400101367632,3.124381365784952,inf,0.8706417135661747
144,0.017530112764181118,-0.0012855416027066154,0.0,1.7877461173058382,1.808546093287761,0.9265374193595357,4.583706000734386,31.59215544643125,,,0.6038851895711802,2.6273922980847555,inf,,0.8721018061992613
145,0.0,0.0,0.0,1.7890557591654113,1.7770924324025068,0.9165913171320108,4.620906151916768,215.3432338056982,,,0.6125606311107803,2.70805020110221,inf,,0.7947522414774675
146,0.36718813610057166,-0.03059901134171431,0.0,1.786294240447555,1.7733545075438242,0.9097439876181503,5.231282439755084,118.27349983113265,,,0.5915533975974677,2.5978514088041345,inf,,0.84219027626984
147,3.039553846374183,-0.41849240868416976,-0.2341319496352451,1.5059908039030612,1.52522714025477,0.846554375757258,3.893628745648722,4.482676674446493,3.101181036082474,3.7038184554468536,0.6153451465759925,2.509745939801646,2.502557411395307,3.622672875875668,0.9137590497924624
148,3.4703901894235054,-0.8802399617435304,-0.24185286617006982,1.7535696432074386,1.7620053039414916,0.7817091027126555,4.141204497437832,7.550471791682248,6.3816250046164695,,0.6284777104787076,2.4543127847033666,6.062880406712871,inf,0.8881270094034623
149,3.470106684722466,-0.863156186454171,-0.22414390809220183,1.786498886832673,1.7930475464424338,0.7688975845715982,4.849337792119535,6.700615795077824,6.520216285203956,,0.6284777104787076,2.482775588779046,6.285732030918098,inf,0.8524434029846325
150,0.4569712730751803,-0.03808093942293169,0.0,1.7527268731389802,1.7479335014901858,0.9194057380078685,3.329813744685368,49.736276702962485,,,0.6403206450210053,2.568723135881111,inf,,0.8598791214757568
151,0.25523940023230984,-0.02467314202245662,0.0,1.7662368361100085,1.7531809826762634,0.9093241946115586,4.841101798957703,57.453198723105686,4.058661332289959,,0.6233814453054027,2.4222448886632892,3.284876487258426,inf,0.8887109113130414
152,3.030695003769593,-0.7568443449937452,-0.22225128182386233,0.7870363317271123,0.7574745388863099,0.521660184553302,3.7588027584094825,8.24724594976672,2.954693808865758,5.293282472096534,0.6333676938231112,2.047598403380407,2.5903245690794923,4.9778825076244475,0.9211609258878808
153,3.4914739277059357,-0.9839629287217332,-0.5232054736573123,1.7246945942152294,1.752293679582066,0.7982649277579198,2.598119780847538,3.728484861844296,5.691330457631702,2.7966602071359707,0.5915533975974677,2.213049127683191,4.975008116453105,2.2735975561207935,0.8369471612582571
154,3.679860616518548,-1.0919751243183797,-0.30493498936878427,1.7796677212480125,1.7875225636807255,0.7284877676919465,3.5471761161189956,6.526554747395132,6.8812148473548564,,0.6357360191111145,2.3224477220902973,6.19474546932594,2.1972245773362196,0.8525196737898874
155,2.8332873885159464,-0.6721072665934121,-0.016867636370610922,1.0144480417947215,1.022786740445435,0.5642092680342088,2.920453204991559,5.031801337980688,2.6966153389717213,5.680275182569256,0.6008849035917525,2.3241492709098863,2.3023580524663365,6.0879104453762345,0.9536760629278221
156,2.2539763900578227,-0.43168872343677644,-0.14162229769289467,1.372832834832438,1.3711833646259692,0.7593217700894171,2.819478497954822,3.1268393099019214,2.065383631851184,1.5958411596044761,0.6380535849069913,2.059638914383656,1.8364013865378803,0.7569205489029034,0.9382081214178659
157,1.9307596599632237,-0.3762289973202109,-0.08734315429306011,0.6822219435071537,0.6803400125329447,0.44084504181722706,3.4422197302014474,5.365832483747577,3.6660483974850715,,0.6713451011121618,2.037745262790897,3.1877347798048734,6.182084906716631,0.9486357996532444
158,0.9473474262267583,-0.0987849686317758,-0.011738897761345998,1.7624655714169228,1.7688554503366833,0.907267640653472,3.5965993649959813,8.40480083206245,2.5872738420452954,,0.6778444222523095,2.423372637670728,2.5789638536108326,inf,0.9009503796912572
159,2.2850461638547026,-0.4698144219488998,-0.06497576503677499,1.0155126852774274,1.0211874985530494,0.6656579095355015,3.449555394341691,3.817003207192928,2.1212586285803208,1.1692233267454724,0.6528756675646988,2.056332838638738,1.8364323501849937,0.554452031387363,0.9467671169986106
160,2.5612873272446723,-0.4719744969487212,-0.13419683716585132,1.5099895931597183,1.5050590971168745,0.8105548348914732,2.87868608383603,4.044599043397579,3.5407081729408922,,0.6309483474627791,2.288024941662716,2.353348292989336,inf,0.9335864479409482
161,2.1509519916351048,-0.4483631177249532,-0.24349705971306101,0.7282760153355885,0.7301133013099659,0.5177796100907072,2.9208483594530406,3.0751937690232647,1.9864861654169763,1.4006385542609072,0.6528756675646988,1.6509545926370341,1.9349672304353864,1.4432169425883952,0.9640717188149688
162,2.4494869586093433,-0.5260132240329244,-0.05897288699373926,1.7022547981237048,1.7059933249753516,0.8354224934754759,2.8484755211538118,3.309052577394396,2.4947581492081814,1.1291690432533048,0.6357360191111145,2.131905111215577,2.156833589034748,1.448945326081558,0.9253141280056221
163,1.8595150386505621,0.08921407418687788,-0.44438941837614065,0.9302814210413206,0.9095744322429613,0.6443825616295877,3.055315464122464,3.81722020076427,1.2630997549061471,1.7108311613252776,0.6180765742263259,1.4476498054776308,1.1685811505334203,1.5294069005986002,0.942183039221816
164,2.4522919732199817,-0.2829947924160162,-0.608442816244922,0.9453242993789992,0.9028599248517496,0.6080903004759483,3.8037410823484277,5.430843104310261,1.8896306437068966,4.1770721983527945,0.6468212168108125,1.893496926465971,1.3699695595079073,1.7673715154398968,0.9010091869994213
165,2.785148228027762,-0.44026957567195035,-0.5869888007599993,0.8404759922722786,0.8343088145446068,0.5348781510824338,2.785689409661831,2.921533196682181,1.4411538362195366,1.2543846180622962,0.6509067234006624,1.7167138415725876,1.3903225015400777,1.2643801124492007,0.9630882490895066
166,3.154390624047024,-0.5124322360412586,-0.13514314968053817,1.5931901834588367,1.5954487880360435,0.8119223657392854,2.234616683498844,3.0364803801502065,2.431110361976549,3.762221988016909,0.6333676938231112,2.492804421915141,2.359403635586596,2.4949138812642455,0.9196830921765005
167,1.8411284614464558,-0.18544816516642898,-0.07632747801835196,1.3757276963566487,1.3809776039476527,0.8261163642867667,3.2032477668877815,2.8778560975294663,2.173878143778046,6.375961509647878,0.6309483474627791,2.1512001390249402,1.9552170044314299,6.202535517187923,0.9415817431959179
168,2.1684484166567257,-0.37217081912270067,-0.3358594415758701,0.6552582924882883,0.6627896064774924,0.5418919751310658,3.1493102364234655,3.359789614924548,1.593415753203931,0.7452291960743758,0.6584896970785714,1.76252434395972,1.492266552608608,0.5921728899755173,0.9322049959772019
169,3.4118134131124065,-0.8512284332896684,-0.33962504698390056,1.2216687653714646,1.2261679138821373,0.7168850329340284,2.665993774907717,2.968832297661501,1.7555200363971837,6.372291780758915,0.6309483474627791,2.1677628671866005,1.7337599036076796,4.210205312513793,0.8640078910450061
170,1.6151351810650751,-0.1533700058630167,-0.034422017611225736,1.734527647979905,1.7331370104432462,0.9342549068654991,2.7557915016742767,3.6357952722936306,2.133715468357514,6.794582860701056,0.6153451465759925,2.4658886439522383,2.13706178529754,6.111467339502679,0.8768145481225956
171,0.37965737858990356,-0.044306386772151235,-0.007580121635135586,1.6887021053356044,1.6963711356943434,0.9426714156542895,3.0950814755471208,6.458707531060313,1.9594350538418033,1.6253751900225093,0.6038851895711802,2.1156445903437966,1.9615151471242032,1.633311725338998,0.8824049756605351
172,0.4534151141995858,-0.04818276399583028,-0.0047156659941213885,1.7342901408513112,1.7532928653960924,0.9552389951419256,3.4171275059358943,3.8902619998712504,3.4234438328756394,,0.5677978065141052,2.2703330491568576,3.218338045882398,inf,0.8648776729148941
173,3.8649828851375836,-0.9994072005520351,-0.1641885855038952,1.5978713440038654,1.5981162818856527,0.7662393789789077,3.3703368851698183,7.09738341957225,3.324339482050611,5.700410090978312,0.5947193981915972,2.3694373999818863,3.2823853357436037,4.3694478524670215,0.9177159438599265
174,3.408011216180995,-0.8192797344189148,-0.663154746152773,0.8242054582322098,0.8280792420816798,0.5487601848227605,2.7295930378615276,3.7841445059236936,1.9641100991062639,5.796022248740541,0.6008849035917525,2.024616712729904,1.8412651367003872,5.056776450094111,0.9485649959386708
175,2.6610940081770122,-0.43936522768417463,-0.28255207996069626,1.2135192484648263,1.2159067677422657,0.7683177069124514,2.9129890598294814,3.4421428942694434,1.7093361027852931,1.5476042297500254,0.6425374456860184,1.8039670123357998,1.5797179442417244,1.3748954427101017,0.9409404695998879
176,1.7937820466092256,0.19156140843093294,-0.13699825094123685,0.7518913538440106,0.7474403602054989,0.39344312740477727,2.1930876282902605,2.1393079127427126,1.0577781603404393,1.7703923658687606,0.5978297680564633,1.2454894845288695,0.8961111890593527,0.9150618240293693,0.9433421281545958
177,3.766702113629343,-1.1361114312745628,-0.7601859914006457,0.8379264246936412,0.8274106321561798,0.5643870799934048,2.4224106889083616,2.290446788562361,1.843170004217405,5.2178510425378635,0.6068309995095971,2.135941348919321,1.776637366442548,1.8251053109700133,0.940654840601469
178,2.090913891804151,-0.02393533347930754,-0.2801911535422128,0.6638951803975326,0.6622916941378888,0.3497253961443246,2.2768778721275855,2.026555023945064,0.9178085383080828,1.0309537035656784,0.6380535849069913,1.6225794408572747,0.8903152454708944,0.9753140723236161,0.9291155104865098
179,3.3422082959672936,-0.5423413124384917,-0.27294604765881847,1.6547332183736296,1.6558848303929408,0.8887117174347585,2.5804074887686443,3.6548823593335746,2.011692589082041,5.68871405121512,0.6468212168108125,2.307485971593757,1.819381782333904,1.6073739282132489,0.88458496804621
180,2.661876339988322,-0.23443258610494866,-0.21927724022406703,1.3188398790455187,1.3304196590438195,0.8175472818311615,3.110341654543473,4.1648570917686225,1.8730852713189126,5.116602211165956,0.6284777104787076,2.2072749131897207,1.5553706911638245,4.754547587062692,0.8755042445911242
181,1.9711684407627033,-0.2172184627236369,-0.04560399604472352,1.066819249965613,1.063052059077723,0.5714935757685622,6.239009438651977,5.283303718138442,7.0187123529843225,,0.5713653840954815,2.590415324568996,6.514564531749361,inf,0.9242512431332529
182,2.405176969672506,-0.3026310526818575,-0.09856802567733133,1.4091039916936654,1.4131793736140557,0.780974089087202,3.741153530238311,4.428195615616629,1.802036972847457,5.671422554105059,0.6309483474627791,2.311289533624192,1.7937789919608842,5.356586274672012,0.8794773831574545
183,3.249933244123124,-0.6792948862140666,-0.43670970194034786,0.9800735958841649,0.9653723156086712,0.645792190506086,2.922133713503464,2.083970978793962,1.8757771636466782,1.6027377386635364,0.6403206450210053,2.024027858874823,1.806927323464541,1.3761005929303476,0.9398270071148008
184,2.740685046353842,-0.48247956952084103,-0.4969059394099524,1.103186808003599,1.1023766653372957,0.6770516688615196,3.6403080630525926,4.573156689411556,1.766530856466341,2.0574612853584933,0.6566669596287297,1.8498830545785632,1.6092966096219392,2.0990605051650406,0.9582320666832944
185,1.4622122712193613,-0.19682292377862143,-0.27643071010739495,1.408979517996499,1.3876639422369552,0.8515945132989571,3.5350776466259837,3.0288853933496065,1.497759112494668,1.2595842192687245,0.6309483474627791,1.8672016643949134,1.35976233732304,1.1383147756547052,0.9396150620981679
186,1.4967008965021158,-0.2324729607562439,-0.2311651544507373,1.2564837117564986,1.2476164438809816,0.8441352463349211,3.9988184813490184,3.8980803881754826,1.93333100503077,1.6433003479253963,0.6008849035917525,1.8235941927480734,1.6295984840324622,1.1127567960542744,0.9161040274536951
187,1.4258421678763762,-0.054119360301060127,-0.2885195742903601,0.9078787050990869,0.8903713633593624,0.6699854461154664,3.889990940287147,3.2231526291326467,1.7547825580438183,1.7468554680457202,0.6602640781246099,1.6819488698966174,1.5645265665699877,1.4840060515986615,0.956770762655905
188,1.9946789230647637,-0.3832409078789838,-0.36880162257811344,1.1107313733036246,1.1204044752047184,0.780493000630241,3.7541166333431955,3.93213750167561,2.1259386514442973,2.7047113750343508,0.6357360191111145,1.968417096397571,1.8769862216891793,2.115424259559342,0.9272237078042106
189,2.055197635426464,-0.5284320082381471,-0.284427038034474,1.132781037985076,1.0916195933627386,0.7295543915751778,3.7111208117777634,3.6785337024477975,2.2754762385549543,2.1683958410549216,0.6447042257417027,2.0675129708145623,2.0436387097239197,1.9257752406462574,0.9500908858900152
190,1.9000542172420078,-0.3040138355248596,-0.30176289108171217,1.1262931687043019,1.100120822780166,0.7485261550893528,3.368961696595168,3.2380533343986304,1.855301975575316,2.089408420394484,0.5915533975974677,1.9772059033695346,1.6446381494082434,1.738348717488346,0.9082238588390757
191,1.8407287605707219,-0.2251396184576011,-0.32211641961090337,1.104911517539921,1.0816173630717318,0.7558923623517845,3.452085702789829,3.3526269664417274,2.0483281676162344,2.2141382516739596,0.6584896970785714,1.9059738800074133,1.8099342464944423,1.7280774791921003,0.9112220381707572
192,1.9347509851537024,-0.5260066217440508,-0.3370780674942571,0.9889951307105121,0.9802339348941744,0.7534300253299048,3.684741583825511,3.363694718143377,1.9868603955135384,1.9680779592856015,0.62595550513784,1.9627850662801583,1.76969802531591,1.615958662134537,0.9336251506743292
193,1.8815362391175128,-0.3690250797280933,-0.4449837510847232,0.8128742487053803,0.7940645546591198,0.6883950777649321,3.3265988948006187,2.9450662057472594,1.8848162884726836,1.991512612331322,0.6068309995095971,1.8479771492262835,1.6578402815659743,1.6288705119739766,0.9284327300646643
194,1.7796121121166784,-0.2953986147855504,-0.44505559151156837,0.8321938746525183,0.8341502035149011,0.6789146095630599,3.0691279713307673,3.1897200443217475,2.2464159459446504,2.4061031821160923,0.6153451465759925,1.9967357165868158,1.9086427461226616,2.303689455337099,0.9521070067336698
195,2.3580046286480703,-0.02729376298253605,-0.9489387260717422,1.0153673573198243,1.0114754475934846,0.6483288803115801,2.6509102713864494,2.892270066949438,3.2648961650068773,3.1529562914376656,0.6309483474627791,2.203745794326485,2.8546801636061194,2.7937909298903842,0.948685323448283
196,2.143730874807825,-0.45486189670264454,-0.47507315890609336,0.751813879178217,0.7207194619974719,0.5657502661131042,3.1961439814695582,4.552011326502015,1.864324160937624,1.1992966300897565,0.648888643467878,1.7924263582157587,1.6888970679256816,1.272089002987743,0.9513520045807844
197,1.7966916627975391,-0.47644143828696184,-0.3539769956613317,1.1703122038517724,1.173293728949576,0.7786581326059008,3.857595105133403,3.14386556171109,1.8340594375683195,1.2974805213902478,0.663668482632973,1.910017617732675,1.5428239970818187,0.8882563643609503,0.9262410039996634
198,1.9705697960616941,-0.3862186086664129,-0.45147537308484476,1.1043970444355762,1.098281771792214,0.7549684451760789,3.5249557828294025,3.440905083155468,2.384130649847101,2.511192975013743,0.6357360191111145,2.092144100885712,2.146840951162655,2.038681182340962,0.9507789936098856
199,1.950722661331225,-0.4662777486666496,-0.2052514669098765,0.896855207775928,0.8797557801748255,0.6333621429226957,3.366363799849733,2.952827641355361,1.7750080721182517,1.8746968506500812,0.6333676938231112,1.8175560242720652,1.5441001827695575,1.3713473504563536,0.9214839343208387
200,1.6094965464766147,-0.22328377169049873,-0.4077521003247301,1.131588125054006,1.119693693100358,0.7769102091141974,3.3477131106016893,3.0571864573121355,1.9440318603047329,1.4475787987749058,0.6619902821573977,1.938791105243562,1.740358064227798,1.24378054420579,0.9220683985705721
201,1.6611409405722675,-0.26329141935129874,-0.34867864767390283,1.0899661251077908,1.0736916189420096,0.7121920163130979,3.5191148650752444,3.1487663372487513,1.987090437643164,1.8507354143184485,0.6008849035917525,1.8459341036743269,1.7280306219769714,1.5383342222214575,0.9117785745677789
202,1.9012449747064406,-0.3172567816407682,-0.36023503369540305,0.9455070859141066,0.9292855633556097,0.6798152665105196,3.780720653894417,3.328809328055598,2.0667796302165646,1.8662668256273205,0.6125606311107803,1.8851914140206076,1.81351393424462,1.5022836743222472,0.9187746818030292
203,1.7725804302046255,-0.28313703692376346,-0.31686210331230785,1.1073779945136122,1.0676292652685904,0.7527509072194548,4.2469053371661,3.9722341470710196,2.1125735484306225,1.963497352225048,0.6403206450210053,1.9474780442274755,1.8896436530275527,1.5690283740962236,0.939288269790419
204,1.9567656195581955,-0.41566481178026715,-0.2973953611270116,1.2974703831636543,1.2869994842130705,0.8432747286752974,4.147162388092019,3.4799181818142175,2.148867319078865,1.752015867404262,0.6284777104787076,2.008506853037027,1.9158136802015253,1.4549658958431515,0.9326599118053017
205,2.1585853388903464,-0.5748800350400288,-0.3254623871531741,1.2598422937623595,1.2294838376439952,0.824195276331442,3.863337846708523,3.4909655224071114,1.8277879359366795,1.7743117567339097,0.6566669596287297,1.9543568331742798,1.5872527022046206,1.4841393965274037,0.8784030732198562
206,1.6817881041763298,-0.16839362961103388,-0.2791870720524488,1.1645349472590998,1.152692020806527,0.749644031635654,3.411460328502971,3.385082144580376,1.8643100420780039,2.1984925732148324,0.6309483474627791,1.8099234398557262,1.6324432188445,1.7626627734242533,0.9405654780114578
207,1.6784686812559766,-0.22988066950944686,-0.2618403815645314,1.2812786919546908,1.2481284001165907,0.8121425136585166,4.328338557921151,4.757939519718231,2.1177520425384775,2.8712490641270434,0.6153451465759925,1.9053761960150226,1.8477455268272676,2.2608156801177506,0.9363394519636027
208,1.8948149032872523,0.07804009000959855,-0.62372426212191,1.079149973791421,1.030509135192573,0.7063258375515435,2.650495392601924,2.6119118605956246,2.102145123465837,2.6751190151827764,0.6468212168108125,1.98219384613256,1.8234691433046761,2.1465808445174646,0.938550779503927
209,2.217157272634422,-0.46023559843509076,-0.37672784493592404,1.306117134992157,1.3186284751918707,0.8367419827041224,4.26586316819835,4.911345325761411,2.076937466513323,2.9789817639299256,0.6207552362147116,1.9562411078936786,1.6689335058312638,1.9388459185560998,0.9393884468692476
210,1.8788334098533521,-0.4258453112948509,-0.27049366329985325,1.0355467789825445,1.0329534297433183,0.7290319009208263,3.492312181336505,2.80486641611628,1.4416273243241369,0.4968737866001065,0.6509067234006624,1.8174876178007862,1.24533457709407,0.5287289152585178,0.924098260254821
211,1.3335998979903159,-0.04037394694139984,-0.2415804969261776,1.1007599668003478,1.1012061865123597,0.7716000815303589,3.49217062223025,3.253561461825279,1.7588803489511788,1.6834957539498332,0.6528756675646988,1.7057041046282342,1.4635882200511388,1.2675425464895038,0.8876926580626884
212,1.608207159981984,-0.2926549275583476,-0.14366186367796646,1.3135992544015247,1.2938115411299758,0.7780599140460321,4.465595552734206,5.11560306004899,2.180499324126076,2.9611468962938914,0.6547956803312163,2.158196190368741,1.9361483718533596,2.4849066497880004,0.9518425384185805
213,1.5921394232724217,-0.27896610421923007,-0.2084731349708856,0.8673832612190264,0.8570203693080183,0.6562778139231437,3.6291813504840533,3.585698455622748,1.5040829235508417,1.4209256062310827,0.6602640781246099,1.6211731686525213,1.3209130249303223,1.1765510612083019,0.9455992116019543
214,1.6433641319892438,-0.15449106204283192,-0.4379929180453676,0.7861277957948244,0.7733639885833632,0.6202963307886589,2.976873957332311,2.8976157906007347,1.570162576283634,1.3795941873493267,0.6403206450210053,1.7523464668712199,1.319307388244237,1.077498943601639,0.9338387487139181
215,2.0436554607373307,-0.46656154930817006,-0.4654400521834635,1.0622135956851055,1.0493786305627342,0.7282974899931464,3.122646744243609,3.6985879459168807,1.9917021233654026,2.5065369826436625,0.6309483474627791,2.1423576758953793,1.7763543176835634,2.190535589185423,0.9346862232209744
216,2.5255733879880458,-0.5968353334586137,-0.6322420356473323,1.3265784701514927,1.330426797582497,0.7992771245931363,3.78472806492637,4.553761180064979,2.808615755954143,4.8608342766850186,0.6447042257417027,2.338442579251757,2.5426275104898552,3.636123101674625,0.925786503129798
217,1.8953688348178839,-0.4037012053643186,-0.24289459231170735,1.1591493105807524,1.1411179661139426,0.8034211815981808,3.6597663529051214,4.219679885121672,2.0842775812111456,2.402154112817526,0.6153451465759925,2.0249533563957662,1.8865142477406798,1.7277763493821838,0.9417195467928334
218,2.665743745553856,-0.6900419684508331,-0.5018645837816593,0.9016022430842435,0.9004717016022523,0.5552931514454903,3.613897546783021,4.91810181585633,2.3850855155377366,2.969697448075971,0.6008849035917525,2.1892564076870427,2.063693184711697,2.1307348360673863,0.9280770378712095
219,2.213488631947495,-0.5895441707753507,-0.48170121477587735,1.0263657307139664,1.0049262905148317,0.7388571514771342,3.1049012366146735,2.857328133470599,1.9246401019656922,1.5887948326945236,0.6284777104787076,1.9146052992269007,1.6163211891100386,1.2699882747772473,0.9479666939158743
220,2.161795392923613,-0.3729060452333106,-0.719418541035813,1.1162499360127989,1.1073424506710752,0.7185952663770033,3.4641875935399864,4.588514641557763,2.6844575924201903,3.078009136190729,0.62595550513784,2.0482013059437794,2.2552195503810957,2.9144893509611016,0.9387810974152744
221,1.5935384754557946,-0.17040706579793707,-0.30914839009293915,0.40831514728970875,0.39517710346866985,0.4089662125328232,2.884290366783583,3.556215361541206,1.6206741516702403,3.576526324268196,0.648888643467878,1.6431096054718313,1.250868648018445,1.629100043779343,0.9475230906362938
222,1.478138734842034,-0.08330242855814096,-0.3937771324684216,1.0560400665263232,1.0388191692286224,0.7924264537828457,3.713893081334736,2.779549675475404,1.4556024655667834,1.3214280136740142,0.6309483474627791,1.6876397230063616,1.2225266622179827,0.8434293836092833,0.9209695060272295
223,2.1716051075805014,-0.6004193293325818,-0.32269382872468666,1.1479462394508562,1.1211084000544385,0.7316115070383972,4.2502914318470175,4.940260480816477,2.602027600563592,3.6755785963120204,0.6619902821573977,2.172141796968756,2.4532310963368547,3.5240955179853093,0.94557535847808
224,2.4885535036480606,-0.4785807239505975,-0.3159248436037466,1.0932329060539763,1.0781228457579095,0.7441985891283435,3.568228500258433,6.138256221225883,3.3439454903290566,3.554977022770497,0.663668482632973,2.2980398825750354,2.8198094958283693,2.706196632452887,0.9563357844166689
225,2.5032891625445592,-0.5665125002990832,-0.2940972137639929,1.0126277187795862,1.0169304848025096,0.6147242058260765,4.122367343126255,3.3479027795430314,1.9710525454660797,1.1492343960053744,0.6180765742263259,2.1602178517071238,1.7131187713311888,1.3296705637053994,0.9524439307320658
226,1.6547486906914706,-0.3173201196505908,-0.1864755918581316,1.3011803618605613,1.274074597182257,0.8313646943904837,3.9325665371063363,2.5123478291115457,1.9322959025276272,2.276488988875902,0.6284777104787076,2.00925234903345,1.6451183303946109,1.1907501761906212,0.9481853045553521
227,1.5001121688971784,-0.12915955336743784,-0.2550748879367015,1.3573326580673883,1.313133516453165,0.7857148968028027,4.5648054807512075,3.795131493368226,2.7379960919048933,3.358038110064793,0.6509067234006624,2.0023159050367934,2.254547586683082,1.144348297990794,0.9414404946201257
228,2.196977063272837,-0.3909924756263736,-0.3909528352633884,1.3179170229924166,1.310507980246663,0.8239875675337852,4.1532265575780745,4.197907689265459,2.7779505546638643,3.7544999419229987,0.6357360191111145,1.9713647185277812,2.457986488153922,2.268683541318364,0.9090809780106405
229,2.252465558921561,-0.4940967169949813,-0.2327479605929852,1.436339981693959,1.4330657677633152,0.855810746168049,4.202147118419947,4.426946142974835,2.376556631873286,3.385259266906655,0.6333676938231112,2.265075244244394,2.1448937220860818,2.7491007409325676,0.9491565318937404
230,2.550043753887842,-0.49089210893148294,-0.5903033049476029,1.2077638898181418,1.2070266627586865,0.7683744817395427,3.845507520074019,5.8236207857067965,2.7701519139660062,3.840784310520011,0.6038851895711802,2.01066202628501,2.4460881545848077,2.746122149051618,0.9476499989959836
231,2.5186751221845336,-0.5459921949761373,-0.4774937257255204,1.0089721085507766,0.9736976211093621,0.6453890619737713,3.7142434707925975,4.000901530906454,2.1524535264022338,2.9354478536493205,0.6309483474627791,2.072179088361995,1.888800761792682,2.24257841208093,0.9478315266307785
232,2.611948927860758,-0.571796531258287,-0.4909908298300318,1.1569234758881626,1.171634919046454,0.678067554969705,4.009527546764412,5.8965580565273985,2.849525059749886,3.7544999419229983,0.6333676938231112,2.2252126138763884,2.479164222195151,3.484312288372662,0.9463022427163564
233,2.558607245618057,-0.4931870133277442,-0.5092003654214821,1.0342021727586228,1.0288322120997675,0.6623924423782905,4.00957316321312,4.565387497447152,2.4799878626621505,3.2145258284425906,0.6125606311107803,2.1733127572899065,2.3325149853659215,2.7120824646301482,0.9483605981589343
234,2.3019648718432366,-0.31998425037525446,-0.5340421792703349,0.8356128772291184,0.8233430317419864,0.6308722112955012,3.5559294824392156,4.349682416839942,2.1399342228039986,2.0088032670839446,0.6097226960127671,1.842772101250586,1.83023400370706,1.3784511836588647,0.9449403116288145
235,1.9002847335252415,-0.18371610120883264,-0.4365335132376532,1.185073745291737,1.1756701252125439,0.7394436021086048,3.6672729271364557,4.764026579452889,1.6483010298810223,1.879341725942163,0.6584896970785714,1.7095652316020684,1.5969282145907895,1.7008140578107231,0.9454011821063609
236,1.404342989397046,-0.24149585476480484,-0.1588446582451403,1.044035906324738,1.0352254989578826,0.7394540025113937,4.315300711949765,5.342177692380492,1.6816738560116267,1.9897478823983419,0.6180765742263259,1.8648320801173812,1.4987484379734675,1.7767838826801912,0.945748178273257
237,2.0900696924529205,-0.2630512227987739,-0.33364560056862436,1.274213879858744,1.2566603679350379,0.7977500052349825,3.906579281970642,4.75743817525967,3.1050312876358457,2.968365462974868,0.6038851895711802,2.2297477690417793,2.6825516243336143,2.603445257826382,0.9351868926003833
238,1.5185963812220689,-0.10845085409456334,-0.27439854963480187,1.2193020016510618,1.1770229950595676,0.7880962478766192,3.565070330299404,4.1426761514318855,1.7916474495590893,1.734920917466883,0.6233814453054027,1.6510125048999718,1.5472440327654933,1.5135094945884453,0.9519709962390981
239,2.37009973909902,-0.5045855400234781,-0.281882939653331,1.1723132162720091,1.159582222101497,0.733999839932261,3.642637481058508,2.6087889279009553,2.099762004384962,1.3626350471415003,0.62595550513784,1.831470969464283,1.8640974728004498,1.2062124469194409,0.9466193018057718
240,2.243260597918215,-0.4482659133881419,-0.3409873648277254,1.201048062192781,1.1723421409813304,0.7556155254413596,3.348355095269699,4.019144309421707,1.6817580673509847,1.738642123448955,0.6811855325194978,1.836059728124635,1.513494420385682,1.3634487422809898,0.9411480200755513
241,1.7462261792468747,-0.27598405022710476,-0.27661193133017403,1.2447467669038166,1.2316401966441877,0.8081653565800778,3.5605143575207845,4.630579644320887,1.6128388579533128,1.2625663609561206,0.6403206450210053,1.7053371545904796,1.4443236012562481,1.0955066961099567,0.9466139489305441
242,1.565492067767783,-0.18774800108732687,-0.25472728439360953,1.0196284735916112,0.9868326202930326,0.6976218307524726,3.4295510843641495,3.7925214829543514,2.033667241882897,1.3800720846105128,0.6468212168108125,1.720866182452476,1.7629884328906886,1.2478871123343895,0.9431721567338769
243,2.3466012585188665,-0.6047518130756158,-0.32888077785460906,1.065033388908443,1.0601274172063875,0.7245866237832609,3.479486030566012,3.1743231773930702,1.1950587577514196,1.0133125639955531,0.6153451465759925,1.6858391103117145,1.1288687436634604,0.7303598981066822,0.9541458257355481
244,1.976406380831333,-0.3436569474749813,-0.3789106074328787,0.9268012137584013,0.9225139465288457,0.6507192527121549,3.10571853277641,3.7683189699273267,1.9951608991835088,1.406501640269251,0.5947193981915972,1.7879666709893587,1.6786585159952518,1.120923397653661,0.9547664213573787
245,1.661416604314817,-0.17839232218227064,-0.24277280849603328,1.0149688297831467,0.9762314050266464,0.7641895003066546,3.2204194152633927,4.871088416783516,1.8075138663581571,2.257480773996298,0.6125606311107803,1.6802180944951477,1.5725592820487344,1.7282991153108294,0.9256084928706352
246,1.5199534034439455,-0.21516445005063467,-0.2761325796098618,1.232506208474264,1.2175395837555802,0.7898586372793012,3.8784306580216037,2.48379247418869,1.343451592197494,1.210050949394494,0.6207552362147116,1.6306048032480327,1.2151760713202568,1.0557418962259904,0.9098533889991617
247,1.542368237258014,-0.2551016823463206,-0.20762197828078965,1.4539965040311376,1.443226570559335,0.866533331233668,4.352307090561521,4.2528303302981145,1.6346266491284949,1.5099724659824407,0.6584896970785714,1.7348751670273435,1.42967031329581,1.129877360282161,0.9023091986065828
248,1.7634116492377458,-0.26030851329801474,-0.40214906989543586,1.208175800869583,1.2127745418214753,0.7705851153193695,4.2392671585249655,3.04078080273759,2.1110008740569213,1.5414739349781044,0.6447042257417027,1.99550897343563,1.8395529908563877,1.303406701314123,0.8598254061072356
249,1.5557276807118783,-0.1579896958174506,-0.25212615583593534,0.7848695513048208,0.7319324224409233,0.6602043264402653,3.1266277363180937,2.840594497530276,1.732070650730522,1.5668970744934854,0.6509067234006624,1.8148234088266066,1.5171589038140758,1.1305315729458858,0.916476778407751
250,1.7160311064100766,-0.3351901977951388,-0.27391097501725215,0.9429640910102449,0.9132593676738907,0.6696582372862573,3.4780015680326652,3.3798032331263403,2.084083624633455,2.2248836116325914,0.6207552362147116,1.9034361864526776,1.8393129775739894,1.7955188721519608,0.9352816234175148
251,2.2138149908804285,-0.49485777049941937,-0.4924891978614358,1.2448694539335994,1.2367757739254874,0.7651764761661648,3.455001635352853,3.765580501995846,2.0731589804487625,2.446457777702856,0.6309483474627791,1.9619153291231384,1.8578324001958368,2.0583881324820035,0.9232212239788804
252,1.8275954778727983,-0.2988797797281991,-0.36010208215154754,1.2637779295215674,1.2468897466701427,0.818712466145461,3.0452904546336472,2.985354427958613,2.1506554457778884,2.2494918796537715,0.5947193981915972,1.9834043534828938,1.8974430344768027,1.660249504419409,0.8970042753806691
253,2.1071091163713653,-0.4742322420887534,-0.29896837568761375,1.221446099081003,1.1814036179184495,0.7861287590408547,2.9845097392486593,2.8728356211857298,1.8948312867791297,2.424002274074919,0.62595550513784,1.9454546972336866,1.6714142209039775,2.022375035380966,0.8869950943497635
254,1.7458461498473912,-0.26839586811859795,-0.31980398070639343,1.0535057724790329,1.0401451665467933,0.7498976768345147,3.8461594046223238,4.207517218612443,1.8335797199456918,1.450788934004231,0.6333676938231112,1.6800988410217488,1.5715297703182598,1.0258378278468157,0.9110445804079775
255,1.592397986797007,-0.11573054032319707,-0.31378340458595533,1.3151115789835879,1.30041315464772,0.8017035367313939,3.8731661465266107,3.3244050089091313,1.6548405444299021,1.3561853057121327,0.6357360191111145,1.6593286820475655,1.4104090048169213,0.9675966206408343,0.9494204259428157
256,1.7573861847540022,-0.2213106984128742,-0.3766017854748536,1.2452587740294743,1.2346610367007047,0.8170149502980708,3.4792141804734547,3.2244488940739062,2.0024481130329366,2.020394887537063,0.6403206450210053,1.8498830545785632,1.7719609981992148,1.5552394489561423,0.9475653401228397
257,1.4163087960510872,-0.19733158354216224,-0.18596002848455329,1.145276645444037,1.1290144927407508,0.7694645073914536,3.805945106386659,3.4596736384263007,1.6898492257678586,1.741871962773901,0.6284777104787076,1.778316893531566,1.4779147178804035,1.3324092726249113,0.926629526667832
258,1.887739816584961,-0.2926450861324087,-0.36263247480305616,0.9801085890863496,0.9648427570528507,0.6771904912196547,3.9897590908063867,3.7217002350961574,1.7974470291407674,1.8692337911119212,0.6153451465759925,1.8610380958248236,1.5445020352714687,1.4962407580878814,0.918414918577137
259,1.7709623306787172,-0.32330417658647953,-0.238502447366474,1.1716453940300684,1.1431593825158468,0.7492811108352304,4.253123312127792,4.3234856410388,2.274290711258092,2.8593542764748943,0.6207552362147116,1.9564768920736524,2.01624018202675,2.29318431870934,0.8854005160098122
260,1.962266703673893,-0.3560096222774315,-0.39053849199448754,1.1674620156216853,1.1641923414694104,0.8136139040378286,3.6636474776163013,3.0896893965843826,2.0022417529079406,1.9064412226148342,0.6180765742263259,2.0649689982157486,1.7263123895162686,1.33028546707152,0.9286200494608774
261,1.6177770699151024,-0.20364481545406538,-0.24284370892705856,1.320863679828625,1.2962308608965676,0.8469085394329776,4.37751878849659,4.497155941993404,2.1381044803505205,2.0019332337581055,0.6207552362147116,1.9966538868744017,1.937841974405803,1.7527573114247859,0.8677178556919062
262,2.148462407395947,-0.5086164085273774,-0.3463807696330794,1.0487438567635166,1.0103093643923153,0.7046546279720531,3.690331084534995,4.594591312458167,1.9836304705225345,3.248521973079575,0.6509067234006624,1.9573419100177334,1.784001113631944,2.6099761203144167,0.9421571477027609
263,2.4038108272730865,-0.5901212402722498,-0.2582570822283502,1.4588802750205867,1.4597352396970866,0.818467250628594,4.104723097642517,4.588555663788914,2.183606741471356,1.64968684677444,0.6008849035917525,2.1098549311993122,1.9555782875283683,1.3042608106625837,0.9359479943567046
264,1.8599847918684178,-0.34448955914879426,-0.2653138943390455,1.07749834901457,1.0604260742655118,0.744994219428187,3.5251132000683216,5.870017808542407,2.1684921248559297,4.131538582008762,0.6153451465759925,1.836059728124635,1.9611476028749297,3.0152377681782476,0.9149046911342652
265,1.9126737707876205,-0.27794584536930034,-0.39392554258625856,1.2019526553980509,1.1932573032673948,0.7958026497078923,3.7125473129326365,4.03704319481559,1.9474202224927972,1.845376537072938,0.6699045166045591,1.836199110660229,1.665924189591887,1.4071594995838523,0.9418795490259045
266,1.6862892316816804,-0.2349615138358946,-0.28909134023047467,1.2703102551956194,1.263401350102637,0.7951309459539216,3.9449974519650275,3.412995369858793,1.7353683881659165,2.1360891970106386,0.6125606311107803,1.8123023704593844,1.4929789543729444,1.4404288839347623,0.9413304304124348
267,1.6085842701605684,-0.3278755791185481,-0.2265327265529041,1.3123248391798161,1.3004478053861896,0.8276288053043493,4.446595676991814,4.088453015030422,1.723320800676283,1.6647372396931672,0.6727386042041725,1.968258012719221,1.5195871756686068,1.4064896500122674,0.947068430240173
268,1.7475108099790806,-0.35356060471892736,-0.2978945768017367,1.131958122964181,1.1272369583638309,0.7379352064230082,3.860337468856641,3.5017823033370057,1.4465856422590049,1.1685318549418542,0.6713451011121618,1.8583979715612664,1.3244674157839011,1.0006747536814038,0.9356302502468794
269,1.5560621208351884,-0.07387398648236754,-0.3342319912349114,1.2099562195085525,1.1830754189288462,0.7666309693006348,4.296821459134514,4.396560745117823,1.9837327594531131,2.9556528777095927,0.6740851607140061,1.8596814857135133,1.679629198078276,1.9961364760451967,0.9417428944949181
270,1.8206115706921,-0.16377457790827776,-0.6479756366027796,1.0654864178677197,1.054236055171452,0.7254044034867734,3.889904218589357,4.9335105165336035,1.9085220273066532,2.1084872093976665,0.6403206450210053,1.9091175951713582,1.8233654964247101,1.4992145876105727,0.9544150305064893
271,1.8564428703058204,-0.40742728066196426,-0.3534245855940828,1.2049250747247278,1.1808207235503634,0.7796259191598232,4.554963393713363,4.847461907187505,1.5855175332599272,0.9109200508764196,0.6038851895711802,2.0931348688118385,1.5208432771289802,0.8389479384905961,0.9492706008439319
272,1.9419767774181633,-0.3273001320586234,-0.4268100171733107,1.4740806849809602,1.471609598995413,0.8165585157205267,4.407718250614231,4.559085794568227,2.0742105684342316,2.143390325891203,0.6528756675646988,1.9780890474195485,1.8814469319578395,1.6052295948083133,0.9462411832343068
273,1.8386534180063507,-0.4481047356273504,-0.2621668905680425,1.1631581689604065,1.1584953830057354,0.7724718546163533,4.1000808812092355,3.8008626344069247,1.851867315051395,1.8221963479913206,0.6284777104787076,1.867920830193619,1.6550676085224585,1.533690793881585,0.9322337455519704
274,1.7861683251208063,-0.25892578583928016,-0.5041076440694334,1.0387619040950857,0.998183896919089,0.689795506074734,3.065923479497924,2.3613359981279376,1.134275793752722,0.6530207142302553,0.6447042257417027,1.6592118937262648,1.0104191974720007,0.5993691208525042,0.938436958263081
275,1.3295416154828792,-0.15460110056161125,-0.2021443342236427,1.1098403572554074,1.0456357987794362,0.7989270012570008,4.244906179698623,2.4761991989409706,1.6688323266266956,1.6949420720807298,0.6380535849069913,1.7078473343760994,1.32086737314181,0.958271336383692,0.8920208331175203
276,2.440946928024799,-0.7758534600850611,-0.3033014835441684,1.0772713128038078,1.061260198205975,0.7151472881008238,4.474951658192966,4.277952083746805,1.866816588622985,1.9572936507180447,0.6403206450210053,1.956948627281709,1.6607477629759877,1.6098519054021327,0.906782291690432
277,1.9202202887707016,-0.4997972917443508,-0.2993084724604531,1.1351579044516313,1.14380245245335,0.7238303043415611,4.609170793021401,4.20311257175989,2.2738742205888736,2.701350027331646,0.6740851607140061,1.8863632319370331,2.0102239653612735,2.192857758169879,0.9241880227550255
278,2.064520692403864,-0.5406427592159843,-0.31559030835103713,1.1722246745226022,1.1752392668510878,0.8053447241873095,4.521570797193135,4.292361649442131,2.1972818617415015,2.2368423785896985,0.6357360191111145,1.9494274385833532,1.9531954423328777,2.02430314505418,0.9079555223722686
279,2.3751745107386353,-0.6474726379016251,-0.2557052696761931,1.1817114993481768,1.1828527010147682,0.7602070399114625,4.294434670325326,4.063804511780783,2.032767817850242,1.9473611875154557,0.6528756675646988,2.1565625956173298,1.8173358135289037,1.6406529317820249,0.9519249325553072
280,1.5017428693994388,-0.19870868701079047,-0.14962591705522357,1.2652758088505938,1.2271018722247036,0.7804684735598357,4.480787801510485,4.481411650483649,1.8127536039003467,2.148145180596794,0.5713653840954815,1.9484912550230133,1.5850953146848878,1.5992163583625623,0.9256890415560511
281,2.11564592404964,-0.46178430356045846,-0.32539831130610786,1.259239801418998,1.2466899184603382,0.7723419804000734,4.200087018981652,4.326240407077233,2.527392655741032,3.1901159330329047,0.6528756675646988,2.1801708227703918,2.285237420842541,2.4762485870448856,0.9262764229682402
282,2.0062231116181533,-0.3647831787294894,-0.2936449444370174,1.1118654129483556,1.102023811121124,0.7375007313511964,3.804312057427571,3.466835275546202,2.0153127604438112,1.7941420100318104,0.6602640781246099,1.9716040961471173,1.7470475163004893,1.2770950691548986,0.8850608566378447
283,1.515548953771253,-0.09601410285524725,-0.37831021002971116,1.0564432840511373,1.033707484962619,0.7858271088813003,3.004019028370425,1.9649352198204313,1.2389212656169806,0.6870851010362794,0.62595550513784,1.7060099992193443,1.1002044506700972,0.6003305380993094,0.9523147427966872
284,1.8361645635244224,-0.3257713648910383,-0.31672164906257083,1.0388281991582815,1.029956587732125,0.7039828034871433,4.28602351377362,4.737240627089888,2.495881262331226,3.674147108646108,0.6284777104787076,2.005282777165274,2.242212964551001,2.1231166051824975,0.9308343914226922
285,1.7264502168531373,-0.25123807970915674,-0.3280362675432432,1.2556654216160488,1.2409909938484893,0.79139107716814,4.523750355484827,4.435279276686792,2.2485866342729444,3.0676752271025403,0.676637947632344,2.0705919264028534,2.0237526358192475,2.7282529084197296,0.8877757778465256
286,1.7379198976711427,-0.17244252541520477,-0.3738704449229533,1.1665554320263067,1.1293629646224794,0.7782202032993001,3.7788975373604226,3.3224037489538203,2.14884896407162,1.957795213588088,0.6619902821573977,1.9992757646565658,1.9138589696242707,1.6393582928291384,0.9035053153771853
287,1.464658708925757,-0.1915901924867912,-0.191856021163768,1.3162483503797244,1.2706492252907822,0.8312883012357156,4.0205270007637965,4.13820962790836,1.6265947510284195,2.129155457189363,0.6684167106117298,1.8213256048298219,1.4337532687023395,1.6028353335464305,0.9395851016791317
288,1.7050934769331558,-0.39248103977690946,-0.2456393596880101,1.0489836750723416,1.017020042434279,0.6981856016079935,3.450759085388256,3.5194384767947633,1.9150081740537583,1.7686769960094562,0.5883313578629602,1.8271794144593154,1.6901773217431257,1.4460769564095204,0.9478756246345157
289,2.077107536128173,-0.49371244485833254,-0.2837291877538821,1.0686521545784922,1.0456006405739535,0.7394822261616434,3.9621977792193497,4.034153377921228,2.2075633627613245,2.486215255628242,0.6309483474627791,1.9642099062267466,1.9345678724513788,2.015725727293728,0.9056075085824531
290,1.9358309808476144,-0.41235006625050097,-0.29696023006588945,1.1100362418709255,1.1289968984002912,0.7058271846389245,3.844682326138878,3.3981989447003316,1.9580613546771917,1.9752256926527663,0.6602640781246099,1.8963795183581575,1.7204893997795065,1.5103001922145431,0.9049928606345453
291,1.9531823619211395,-0.4073699666376562,-0.31899465188126996,1.0987521460871685,1.073460647760275,0.701941359903778,4.317012908388925,4.771142377639297,1.819310413394082,2.4144736175809802,0.6097226960127671,1.8977127531308613,1.5955999174390998,1.966217289561795,0.8599961877957757
292,1.9736579036677442,-0.39121805952273525,-0.38488768891227154,1.0989247080154652,1.0603376468526913,0.7649387846437835,4.0978003997966495,5.111564300413329,2.4280281932653343,3.8674726075264845,0.6068309995095971,2.0541637344955674,2.1695304997543823,3.2718477096343066,0.9432031021782498
293,1.883102701929737,-0.4513492507645853,-0.2925790218925501,1.3442090919742236,1.3025698743622804,0.8004004811388362,3.827909213546789,2.993628665729796,2.053068705257255,1.3138794920024006,0.6207552362147116,2.043302495063963,1.7764452342550126,1.156486138059948,0.9359285147091053
294,2.1387568700630006,-0.6045471181750204,-0.41346582437021984,1.3875372616552746,1.383362258488217,0.755555970108197,4.371428815249717,4.3525348083180795,2.597128178713675,4.005469780262521,0.6528756675646988,2.083538812932403,2.3665287655030482,3.373978432420841,0.9508036206511984
295,2.107581608931017,-0.6773271292144587,-0.2992122662188983,1.1061935782670813,1.0802472994877113,0.7360764371899233,3.8131943174901832,4.038423698036425,1.9256651070883362,2.229439819815329,0.6468212168108125,1.9609673868766266,1.739085367835435,1.8241898061120618,0.937081934696852
296,1.9675806068531319,-0.3005338124658635,-0.5263377694173479,1.1558999737386946,1.095457914419062,0.7346313454285496,3.7565606846912103,4.015949486368019,2.3729706386226113,3.013264413171195,0.6380535849069913,2.037660007664881,2.1807372032271988,2.32163328796474,0.9255755217277108
297,2.8299005983650973,-0.639684589920684,-0.6290914960754387,0.8057665182676299,0.7938126770180057,0.6010340483514597,3.5697210488745306,4.14350994604491,4.606947107375994,3.963591739781558,0.6380535849069913,2.1305009452933112,3.9204777293470787,3.2771447329921766,0.9536561027566552
298,2.254525445353989,-0.569751795136637,-0.5184677108363771,1.180070930749522,1.1415451186732977,0.7734205295161912,3.94305648184198,4.384822371496719,1.9609910767761465,1.5774925655076788,0.6602640781246099,1.989235273793687,1.8059928383509698,1.4037468110711169,0.9355181005695294
299,1.7850238343521723,-0.24880769854516283,-0.5308206888059851,1.2502919979117688,1.2485622851677822,0.788180717625354,3.9490832457651557,4.361398518606938,2.1617094532953334,2.8883460500663,0.6125606311107803,1.9252908618525775,1.9437790880463592,2.345538148523255,0.9214531186993954
300,1.9188217263072258,-0.3277412564562976,-0.4550819547927016,1.0619717516449545,1.052110755681818,0.7350530491359136,4.175887014039642,4.026355063433821,2.2099463337380385,2.7151734558902008,0.6425374456860184,1.9582076768657195,1.9825577974280806,2.1835957462806137,0.9375964724014252
301,2.1986460053299077,-0.6336051571240715,-0.23462168692551016,1.4228878093325485,1.4055494416469771,0.8201361527492074,4.578691179731767,4.623529293876862,2.487533713008977,2.504181962420697,0.6357360191111145,2.0717379572948036,2.2524391443923037,1.930096253127516,0.9297281793459165
302,1.488479925453697,-0.18714075516146977,-0.26348703938515206,1.0162625868959514,0.9376503189015184,0.776620275193137,3.378906446066016,2.6470250943362594,1.5363915987437655,1.2041711383830778,0.6038851895711802,1.6791453248589208,1.3015888731176353,0.8359786276472652,0.9158283734447386
303,0.7508184122625661,-0.2753171232547165,-0.040239405623723745,0.5768835385196787,0.5674423227115194,0.5008826368960122,1.1272896753866413,0.674990032378519,0.14249459133328068,0.12447058707361933,0.6403206450210053,0.6170713047296128,0.12788392256318296,0.10409231103666099,0.9480244110163031
304,1.761936976629415,-0.5223802072825916,-0.227205632066244,0.9161505893986351,0.9161686304967718,0.5955707544279826,2.534081439787299,1.0362355649128463,0.5311753627203469,0.325793558428172,0.6447042257417027,1.3123832337356545,0.46422493172505663,0.2256254519808906,0.9359130229717941
305,2.7524966466402767,-0.7760076677540338,-0.49616946458445227,1.4986817039764482,1.4944778034228507,0.8273506029196653,4.061514146382317,6.299569289003741,2.7658082871844147,1.1633710788796905,0.6652988471865258,2.223260591887061,2.6162264460133655,1.062746375479613,0.9358039131987583
306,2.4045756305777957,-0.4931555774012437,-0.5437929025980461,1.2535957030902232,1.23388040471857,0.8003329031160611,3.679209826337983,4.4063153686179195,1.9448260096116254,1.7933264331623848,0.6447042257417027,2.091514122914105,1.6372618281991433,1.6034429671104695,0.944289858868206
307,2.151375182079729,-0.4929719006219082,-0.44660997035107475,1.238315833885747,1.2381418888522908,0.733058417216156,3.737173412255246,3.032174360007258,1.7098613817451664,1.4965746547443326,0.6652988471865258,1.870586249774026,1.533615640908428,1.3402303626391447,0.949672051922341
308,1.4917628136649974,-0.2297355665989922,-0.26149688706818064,0.8279026214191081,0.8253170178451911,0.6217195617990259,3.1967357860920376,2.623824887156751,1.1755604229381886,0.6717916446826173,0.6425374456860184,1.543806239005271,1.0448326232164533,0.5654380587447732,0.9372679523069385
309,2.9943503634247226,-1.0118001634838163,-0.47785579134569467,1.4605379158976337,1.4764799303237743,0.7314075336430933,3.9118492844303177,2.2284913304658813,3.0844768779751512,2.8191330629880293,0.663668482632973,2.3125232016996824,2.8278411990713574,2.3353749158170367,0.9432053939485208
310,2.10672148931164,-0.4333414813384548,-0.10985185570515248,1.2239163913243023,1.2407156476773489,0.7839949941226464,3.6100755646504297,7.323359386643836,2.223452211247594,6.317658788610747,0.6509067234006624,2.1599287925925226,1.9920448824662147,5.058366696917446,0.9416822593492818
311,1.843067947027017,-0.24991461675767468,-0.3067607034443204,0.977107364679689,0.9723810167005221,0.6226217904048179,4.038584970776982,4.777396811682673,1.7730643546930085,1.7490269098198001,0.6584896970785714,1.8682086413914611,1.6876951300316754,1.6799605804783502,0.9395926749119602
312,2.244855961067584,-0.46088381054032623,-0.5447997383530099,0.9127590023945746,0.8895485953223632,0.6439214729481985,4.402404759727036,4.650405196648608,1.95584300220154,2.085225924571517,0.6403206450210053,2.059813221513259,1.8362270794082773,1.6478934727927688,0.9488806619474055
313,1.634427836568389,-0.3262161649779758,-0.1608396813877287,0.9434785378234202,0.889490893680969,0.6842844967980843,4.017522131836244,3.9678814907154747,1.6215264491613999,1.6398477483147675,0.6684167106117298,1.861824343676342,1.4692252780837316,1.2002507156615623,0.9216249663132395
314,1.7963113908328734,-0.32535069798370275,-0.3007053723512344,1.0099215080560815,0.9865997250142787,0.7468745939047327,3.7950762839431893,3.5406984501520125,1.6739460988948542,1.534451830797405,0.6233814453054027,1.7789090572492352,1.476746019122262,1.1353001890466858,0.9394810678609726
315,1.670949308065938,-0.26785903472586015,-0.3179389225180799,1.0621061273799426,1.0564591553967828,0.7666192872749669,3.5323179864987635,3.668152144603886,1.7333012802394452,1.794600652245599,0.6727386042041725,1.7526028606935335,1.4970185815138326,1.2491887277898155,0.9393309816840025
316,2.4016566994156583,-0.7593452955631037,-0.43195514961806,1.0801290691321395,1.0800217987053544,0.7387046639839006,3.095906125078948,2.417659802007075,1.714669531698501,1.297926268734378,0.6309483474627791,2.1162899598402203,1.5959718545086152,1.071237907163673,0.9475363074240111
317,1.9114951893678989,-0.20929933470848872,-0.5724068088208576,0.9593474911028472,0.9446045841391308,0.7387970295215566,3.451890695552347,3.4709160095165044,1.3741140041175597,2.1166000692785776,0.6380535849069913,1.4982444415838303,1.1331534079972971,1.266284038576361,0.9402207464021404
318,2.1973909954411925,-0.5819641334381951,-0.4615249184504415,1.3046828925789136,1.311681208854805,0.8015729198875803,4.346657203422079,4.232051419413851,2.4134577163423967,3.618592686931183,0.6566669596287297,2.029932059562025,2.209823705433933,2.9934219144208067,0.9455020335315687
319,1.8358899783300613,-0.6620622801829367,-0.20249714283416964,1.1088518121954054,1.093650809837471,0.7146761108506352,3.3724829829383767,1.8845775407863847,1.427887377122107,0.7514425378437125,0.648888643467878,1.8989735535352041,1.3392549998488117,0.5734464782098483,0.9340712794190364
320,2.756725395509871,-0.9964895133650673,-0.2959250884317797,1.2368848284584266,1.2174964985277743,0.7090155097864753,3.9045999808057634,4.753806303935016,2.386649279101946,1.4732796714266498,0.6602640781246099,2.4102940430789546,1.966413430117327,1.8490739258240354,0.9521330281628925
321,1.87344288014432,-0.4217502625013418,-0.32555288901660834,1.0297661853151525,1.0257196935483428,0.772667867920068,4.163534559071197,4.991455300062199,1.9649180029347844,2.2019727255116477,0.6403206450210053,1.9646060556594915,1.7176288557357762,1.806436183643988,0.9280541205836849
322,1.5062118042710895,-0.15710248370798485,-0.2889954950762136,0.8253414273958487,0.8168321693725883,0.6275169839930742,2.87143036281603,1.7699247161741236,1.2240097383037052,0.6430318285874544,0.6547956803312163,1.68643895437025,1.0548233809380736,0.5722294659347262,0.9523492834780761
323,1.893732999197368,-0.38764054595798325,-0.3655243750767541,1.0933603186880028,1.0741139485874593,0.7034506094220242,3.1679730692318206,1.9326006301362901,1.267009634410268,0.6018050612410147,0.6068309995095971,1.8018098050815563,1.1032695816868825,0.48155784356238657,0.9390922835638159
324,0.7417921711612419,-0.13136070174623765,-0.12757161291325847,0.59884192017289,0.5899146181867845,0.45041454828169425,1.645497885086119,0.7844820334479314,0.305980071441921,0.2498521041693381,0.6233814453054027,0.6255093007337809,0.26392314363750546,0.16877393632857282,0.9481570550052684
325,2.110365341461076,-0.7603862612656997,-0.37177987749636904,0.9375208311098995,0.9463356317510981,0.6743680141472226,3.0878764664802296,1.7872437982113718,0.9602659585637084,0.4221923461261306,0.6180765742263259,1.4574323889532301,0.8845867732862225,0.39545984955356944,0.9428096905888159
326,1.9961231036215166,-0.6303610834929011,-0.3040893519259721,1.0880635878856513,1.086814359342211,0.7192719558656132,3.310273759383865,2.7298270227513357,1.2093692377852345,0.7425220088822084,0.6425374456860184,1.6126653371931732,0.9706629947725907,0.4168582919376073,0.9517761099959845
327,2.264159656496776,-0.5587521517346251,-0.37728139194663174,1.297297599328188,1.3159802874543056,0.8002590371302455,3.8464798252523074,3.646894371172621,1.8663695035406274,1.33214751388464,0.6528756675646988,2.1157367604899515,1.7239655833585685,1.138143127424745,0.9491610823611435
328,1.7677020622102002,-0.28919318507452907,-0.3985473243497633,0.9420104469369514,0.9332089617239342,0.6781101693005114,3.834663344747637,3.9472632688178426,1.8459098094259367,2.151919397621455,0.6447042257417027,1.809109107563168,1.592421663000225,1.8034986615610864,0.9499505586276723
329,1.5779334272751366,-0.2280604661617326,-0.30696066400179245,1.265661804679625,1.250815055422588,0.7748516737436868,4.006359635827688,3.8408261812619475,1.9862637403344734,2.0107636676333747,0.6425374456860184,1.8364779340274333,1.7599236302596903,1.7086047904117097,0.9351956500753704
330,2.136729490798556,-0.5462858685803829,-0.395879637334114,1.2791024547718273,1.2620853113335444,0.749126295968355,3.715629128963125,3.4601175877684858,2.6634764337554513,2.389751055455573,0.6357360191111145,2.197824757408252,2.432093598269034,1.7277905863855796,0.9376376647790816
331,1.5820246503643096,-0.33277766657204577,-0.3295132990077521,1.0304772594179346,0.9996246619448188,0.6848075963347737,3.8427125413978116,3.2403105683164886,1.9891887205203191,1.7044552630428618,0.6468212168108125,1.7191287781931475,1.783363321620589,1.4498742861585434,0.9228844763586129
332,1.826058445545221,-0.3894670214060534,-0.41863866560405893,0.902438755116771,0.8706575654411695,0.7102273884360865,4.241682377811317,3.709527940048753,2.0569473387689445,1.1167118979579622,0.6333676938231112,1.9457657150419632,1.8719577220877814,0.8744581258479764,0.9504158736806334
333,1.554385156447956,-0.20717043045482064,-0.4485428517888104,0.6001742456668351,0.5835764782165754,0.5282181129962802,3.888268904113202,4.787081054569971,1.814243974387248,1.5891724607025908,0.6153451465759925,1.827455733886329,1.6055763712958449,1.3692349231820264,0.909392413539666
334,2.855136190936749,-1.1922170392319376,-0.3781078657832743,1.5527028912671792,1.5280529441609991,0.7334689867996391,4.419418522449422,6.029270937298679,3.3240629357311926,,0.6602640781246099,2.396651602033113,3.2332610240566324,inf,0.9060123337064364
335,2.765836873954588,-0.5602889040001584,-0.05741466451636622,1.3331127022136018,1.3136703610474818,0.5880386894410331,3.9908051967072162,7.001634679795842,3.3612292370582386,,0.6380535849069913,2.3977508387850204,3.364367212884144,inf,0.9465689182743104
336,2.794489265081818,-0.6535429265924008,-0.5250474344976526,0.9481140447039254,0.9402666046007859,0.5863610688215355,3.845497526419151,3.8639371618285296,3.237487768703248,,0.6566669596287297,2.1921375382876622,2.741536714672465,1.16562299895107,0.958411200384529
337,2.983097151621398,-0.8065933769366718,-0.3599100604124824,1.6256911628593242,1.6161904049428713,0.7424758884398724,3.5830502121159005,6.04184324059739,2.7919101036368072,6.2867191050759175,0.6233814453054027,2.315557764298084,2.6383821861216266,5.760477818332746,0.9140317315923715
338,3.4333060682408063,-0.8851784680959663,-0.6172534498388336,1.0746680457577942,1.0741698197196727,0.6739053629806343,3.8106706725021486,7.536360294059575,2.895590222166094,,0.6309483474627791,2.157907714959269,2.8312922984169218,0.8810306689176749,0.9372111197580169
339,3.0350693345803017,-0.5280175714253417,-0.35847699307074793,1.2032878571361767,1.20700418026465,0.7577624843012749,3.858748680614374,4.427150783555912,2.632967243821687,2.8473039399547257,0.6284777104787076,2.581711279059192,2.308182397340935,2.269176030862916,0.9143098179966198
340,3.0396337218867293,-0.6775997663820706,-0.39640414868457363,1.1105287582738685,1.11768354758979,0.5713542950625972,4.196645696121474,18.328551342943026,3.417979601894545,,0.6425374456860184,2.183814890426302,3.3802056418547406,inf,0.9417221861721128
341,3.3196566957172697,-1.02385169917153,-0.24331896227778962,1.214092761591354,1.1987846867617717,0.7169227216539443,4.862117428778192,5.217957770542093,3.0786528602546834,4.412140434026034,0.6380535849069913,2.293955766295991,2.6903622194828913,4.343805421853684,0.9354400072017186
342,2.9689137527501854,-0.7521814266371794,-0.29474518083485024,1.2545885208468457,1.2665405810366042,0.7348796856675094,3.8467143605033636,6.821204225598585,2.2073201304394607,5.895021997836556,0.6652988471865258,2.193232556066682,1.9165641107143403,1.4926333136148913,0.9385161855230119
343,1.853514584166406,-0.39630891937636753,-0.18469398495299327,1.2668967570863916,1.2212085832431498,0.8177071117492096,4.016843395484061,4.5908808542589075,1.7270703743405595,1.0071980607247162,0.6233814453054027,2.038512886181399,1.4374080416766934,0.8176879118882755,0.9392980178744312
344,1.8161308528770614,-0.5022708483511351,-0.2293913750677943,1.1814771189246742,1.181927634258123,0.7419741368816237,3.595874689052601,3.3093104398052136,1.4755495725737866,1.1644734003504085,0.6068309995095971,1.7853136217446661,1.2894618591497777,0.850107640263307,0.9328798279723146
345,1.771244978098794,-0.3088484973439788,-0.2901484529228443,1.293145716157337,1.2893487767285663,0.796120866410311,3.877614433348009,3.31110329484281,1.8743188767004546,1.7746502795427554,0.5947193981915972,1.92217192128458,1.6395855253900171,1.3734612081369044,0.9234478797394604
346,1.9593613828721237,-0.4062596733405798,-0.31725467227910736,1.2454272880996968,1.254484192208062,0.8210209868239019,4.2127234392116515,3.8067083945267974,2.0244077707329655,1.7665014447068537,0.6566669596287297,1.964923088237244,1.7848865899402928,1.4431471727126735,0.9199662098934187
347,1.7961271669694858,-0.49976185839177334,-0.28873853077938183,1.2168281962768372,1.1994022410754148,0.7781325193427635,4.325976872554066,4.239629742232164,2.424689613599768,2.1402896268920544,0.6309483474627791,1.9850206460603952,2.184766111328564,1.9699200328601147,0.9118461832292207
348,2.1024260921435136,-0.44758006449587096,-0.5249205923441334,0.9369825327973661,0.9328281929207152,0.6517101650758264,4.038287184884851,5.111675637210006,2.589246872672674,2.7562266375574804,0.6125606311107803,2.097469744199227,2.268683541318364,1.3080703868970653,0.9555169664604157
349,1.9874746653294995,-0.3404076214045647,-0.3615786141135391,0.9350143476103866,0.9203860347680592,0.6775757694850321,3.5782145569764965,5.329374941951481,2.2007003661972204,4.2527241388109855,0.6357360191111145,1.6826659299811213,1.9404257835948118,2.2315136508148514,0.9341461467340668
350,0.9680404111418582,-0.390365556062127,-0.030207429074584846,1.1183340329340845,1.0888241357419244,0.7001314325462951,2.1343043502522567,1.8597489441444397,0.2427347770764044,0.17833137142977787,0.6528756675646988,0.958270804115038,0.21895188513498323,0.13458281987913023,0.9445257034833148
351,1.098424527053014,-0.259047980892688,-0.081645339157908,0.9084497478273328,0.8926132648539379,0.6513339076503478,2.429599530706,1.5597370801054637,0.46137322008184506,0.2533997858837477,0.6309483474627791,0.9894290887866176,0.40835322917205436,0.20523182667762577,0.9266651616046682
352,1.48728137568751,-0.25866136668953893,-0.10724272651029551,1.3117167470523239,1.2736219024032533,0.8656112946949829,4.009611612927083,2.309998708487435,1.056447800013777,0.6636503598739962,0.6509067234006624,1.746403767507258,0.8829893007716758,0.4195055978454687,0.9388763002401708
353,2.3269241795084965,-0.44515526633169533,-0.49117219077476887,1.2625279740849396,1.2514083681678088,0.7563234288587563,4.191095674210769,4.684954139593075,2.506972501517845,4.756897248812046,0.6652988471865258,2.338557753452863,2.214652693604517,1.5411485232132345,0.9383611599017819
354,2.867748389985579,-0.8442949531961637,-0.09715708558900366,1.6345322960545567,1.6573046086254637,0.8164639949857011,5.388226487278121,6.045613947334927,3.32177341911447,5.649291637049289,0.6447042257417027,2.4231219168470504,3.3008632651266705,3.891820298110627,0.8957754425855308
355,2.3282193290597455,-0.40475027523272844,-0.08773810890571039,1.2326491901552736,1.231233201624419,0.763420692473522,3.9376611849549756,3.9686428150389466,3.309842324063128,4.659878640346171,0.6180765742263259,2.3258537199334,3.223778074895543,3.2929837970219227,0.9444986989050127
356,2.034083034416539,-0.37986704225327694,-0.24950334573708854,0.9817238192999812,0.9628973207553002,0.6848864625062198,3.740731227170965,3.41887462560501,1.5618917665148788,0.2274417175074673,0.6547956803312163,1.939100057126764,1.4488520977853705,0.3197703870032814,0.944271969376193
357,2.918455207540274,-0.6039495675026252,-0.34719484436719394,1.1356972224953998,1.1362352431118128,0.7508331637454538,3.4707759914959033,4.646313566508676,2.5435048704034218,3.5452808811709455,0.6509067234006624,2.4721878773802257,2.4401115159951683,3.3172117255890625,0.9319841645805829
358,1.926846345994387,-0.3327912672913508,-0.26447033261046743,0.8553469824652911,0.8421045839412538,0.6009162034140828,3.3564840225025825,3.7604668417945297,1.4805608420717764,1.034044732576997,0.6180765742263259,1.516301811398997,1.3161784680813902,0.9943849176074522,0.9403839629043272
359,2.047925378134043,-0.28969998616048975,-0.23091111296786654,0.6913807495738656,0.6889929996755225,0.5185384728618512,3.036172017672661,4.712531530683703,1.9559491537187892,3.8821144112265698,0.6153451465759925,2.0297628834492887,1.7546489973862112,3.5456156245711825,0.945807323811431
360,2.072799927570524,-0.6000168634733459,-0.2627321856759935,1.0957091866790651,1.0978014365691584,0.7798774138657982,3.9552760135259866,4.027130040967554,1.5581180290923784,2.089629585937794,0.6547956803312163,1.7278461434844021,1.3349760514104543,1.166197270653846,0.9335054719314463
361,2.006823244142653,-0.11439583854032964,-0.50134580708585,0.9547131026783556,0.9409347013766836,0.6155378614489279,3.239488786254739,2.93706136898628,1.9643614740208677,2.609283879680392,0.6333676938231112,2.0414181261980198,1.7864680000239266,1.6264354888026715,0.9447574567487652
362,2.7195339627199218,-0.6792080769488509,-0.16225709376297415,1.197371508923089,1.2017558785874336,0.7196930734039304,3.090196405556831,3.0256086029551534,2.391485866600869,4.614343361373818,0.6008849035917525,2.0857726520420763,2.11467344106257,1.6856579383455095,0.9542490711406936
363,2.940800873893209,-0.4817935967346226,-0.3508490998725338,1.114561468926468,1.103972136329021,0.7338349164092856,2.9352138748838468,2.7214237999835196,2.232289351481597,1.0411503113542897,0.6333676938231112,2.3216546557143967,2.2117117981447114,1.033556838079896,0.9143676124764158
364,3.4946218626960457,-0.7384126228201409,-0.18601751673025663,1.713493260205471,1.7083699332483469,0.860641859103868,3.0239573252319167,3.327405343453125,3.1780695846707268,5.710327527635657,0.6309483474627791,2.5057898607044247,3.174927341020781,5.726847747587197,0.8505341946415804
365,2.695305788609134,-0.4541682825906189,-0.07246134814208866,1.7405856750775506,1.7428707452595733,0.8611030670926881,3.3478481254990937,2.825465388507908,3.4146912782159573,,0.62595550513784,2.2790856038165397,3.4081675688884507,4.621699487939302,0.8485308883631983
366,0.2710939584443743,-0.014489297824468552,-0.01171645149182096,1.7406656294091272,1.672835451797537,0.9255369955202777,3.9865793129214815,16.069029473315535,3.281108416196133,,0.6547956803312163,2.4464554634137476,3.23100970292508,inf,0.8773887530548928
367,0.18709758377666844,-0.019333416990255738,0.0,1.716495160465933,1.6951607032699079,0.9342397840453537,3.281479497801475,2.543679378812143,1.9546409718771292,1.3829442742346088,0.6038851895711802,2.3595082403936667,1.9613187744081584,1.3896444480051726,0.884734638448185
368,2.4015552619522285,-0.3497378397897464,-0.14574540183131354,1.4039891063852254,1.4072827023326868,0.7828022307075596,3.1726671762600263,3.6101216925112785,2.3607247905394875,1.3316547250602075,0.6668815377411301,2.242221943266955,2.115220485776388,1.3631471639292392,0.964158012965982
369,2.9578568904889733,-0.5121768691172938,-0.18584624241553482,1.613503872817367,1.620631283994857,0.8834759932479955,2.4930758179149963,2.3281853794532408,1.8095737559855942,1.009485615868733,0.648888643467878,2.454830182205531,1.7411780337930698,1.082506523253256,0.9402365143031608
370,3.6354179934051465,-0.6827269122964096,-0.16553728616479127,1.7165686183612296,1.721492367315041,0.8624746975158792,3.0552245188039953,5.191534424261085,4.186937340711493,,0.6097226960127671,2.783133007226566,4.081137159815832,inf,0.9546765630335683
371,0.5473321996024243,-0.042965953948060645,-0.019065028673547448,1.649512155121638,1.6352431229641244,0.8860457211788956,2.5118256864393658,2.620290919969583,2.2660340575224174,,0.6233814453054027,2.335797227200159,2.2715976538100433,inf,0.9107714104606479
372,1.9913550618923177,0.39279382204669355,-0.44241353522095483,1.026868730072804,0.9871765609501184,0.5455109378203783,3.2322531482538293,3.746203981921198,1.312167230766504,2.809020012838135,0.6284777104787076,1.4265609543484457,1.1296268974445183,2.895539728054607,0.9558528182966912
373,1.7083150975177555,-0.2160943809378939,-0.31199820372744524,0.6293252536747513,0.6061831770601668,0.5600738657386707,2.0650164068013943,1.729335261876149,0.8072156303894292,0.8356356549843026,0.6207552362147116,1.1158262694027976,0.6119573369501624,0.519366779752985,0.94220665120859
374,1.967342108572695,-0.20024024205566615,-0.23823737964173114,1.5121716658879112,1.5054934092451668,0.925204945920743,1.816871151748313,2.3317348469545465,2.174775958885738,4.417397674824005,0.6153451465759925,2.0294246170612853,1.9438829501179815,3.027538134868882,0.8643390302308057
375,0.36501166027353715,-0.015096965124421144,-0.0028399667905085815,1.0142517323179463,1.0001915239068966,0.628754248762764,1.772929017456713,2.129372661747305,1.170092313191401,1.0852369836556888,0.6380535849069913,1.8574720125934363,0.9801175598637589,1.0304165475541764,0.9248825602207198
376,1.326280992239337,-0.11299612363563799,-0.0904858480388269,1.1790371180662582,1.1663269781630337,0.7441848017705411,1.8486328896238424,2.232391618527783,2.202657869271912,7.166491568716034,0.6097226960127671,2.0250375350228627,2.033296589676205,6.250618535945224,0.919681331384612
377,0.5179985071712462,-0.033572863694725015,-0.02014808106901074,1.0377030648298466,1.0243325764298536,0.6568862936497353,2.090485703711641,3.198025195146109,2.005228680512909,7.255928427203677,0.6008849035917525,2.1330298652942226,1.9246613792798426,4.5166603606821205,0.9277427361189179
378,2.0903376967719676,-0.3046230792933081,-0.28730206494889754,0.630611199347999,0.6352733796221739,0.5745067267565029,1.7661702193432696,1.7269283603179435,1.2830737353336792,1.0752402714308777,0.6068309995095971,1.5662187933141236,1.0210897900919575,0.6805240861886502,0.970181313750143
379,0.715382251458111,-0.02731487176702653,-0.0508744774902261,1.3072200416677595,1.3252627046511813,0.7643920067894446,1.8918116655250132,1.9209279420913934,1.0410276065153818,1.187615763131106,0.6357360191111145,1.8260059079566462,0.9767213400874721,0.8325061260986705,0.8509198903086251
380,0.29768597595179236,-0.03661269603147532,-0.0001019076692457387,1.6475945579522695,1.6078029317744214,0.9500992882858511,1.7589301405795401,2.4976904367150876,2.330205926410869,,0.6125606311107803,2.224801345106454,2.10357920959628,inf,0.8888268653778449
381,0.6142842043798068,-0.0541835132934146,-0.014832661122408521,1.656932651627278,1.6193522435726448,0.9542837700403707,1.7610835956187265,2.3741585503922007,1.637957918048645,1.4532746365171765,0.6180765742263259,2.373365275055093,1.4653040108503133,0.9854864412482311,0.8852026730370605
382,1.5558851921015964,-0.023398071155214417,0.034653210029095605,1.029300932399793,1.0175947633417792,0.6147771754836159,1.8368917305495747,1.751359392947112,0.6541183478112566,0.5818467800779639,0.6284777104787076,1.1309633188857693,0.507617371228984,0.41194950807066266,0.9619507112067783
383,1.890660619691914,0.3528404026601888,-0.33675615522503355,0.8155687936425945,0.8175413297589174,0.3790793822325174,2.2139493408406477,2.286512783767602,1.3128847105497605,1.4371988163361213,0.6380535849069913,1.468613732500705,1.1578564816090822,1.3240626460802345,0.9695327964488069
384,3.4695728196276665,-0.7676026156075528,-0.9090478305557643,1.7284311391160103,1.7598104554556833,0.684091629947927,2.3313628970336833,3.5627030546221907,1.9803027573916123,5.526689314956957,0.6097226960127671,2.5009005395423496,1.850489125669642,3.392613637970764,0.8852522922967279
385,0.835696027017498,-0.09192656297192478,0.0,1.705986322673217,1.7027608814326325,0.9504703511272983,2.5371651154789054,3.1365291947883027,,,0.6547956803312163,2.5483435557042706,inf,,0.8934548603165757
386,0.8052601041508486,-0.08136088268005624,-0.0018493280821981052,1.7430027310292031,1.7284343453305755,0.9191545864646972,2.484738663104287,2.934683511912978,3.0958403027235124,,0.6153451465759925,2.539855741273016,2.712851114022968,inf,0.883149618937107
387,3.110646433968483,-0.8240916358504997,-0.4234066967680701,0.7469296741063702,0.7496847831423703,0.33030607350414937,3.2294037037343006,6.981636541630952,3.2951890963117734,5.600938440332735,0.6668815377411301,1.8049122558063555,2.490325248795135,6.419180264150966,0.9315769299164042
388,2.171880241116369,-0.3275231504089182,-0.26840822787210983,0.9708570675827375,0.951943006418909,0.6373919531556781,3.7433626872358245,4.6840864887795455,1.5586988191682654,0.8092063024319928,0.6425374456860184,1.9155857284317235,1.4651556446630496,0.8690880919677226,0.9532200191890536
389,2.9305115460278888,-0.7403956492265961,-0.4795659591968192,1.7059140175267515,1.6961807809393172,0.8174706215690374,4.245096399438029,5.066777318907689,4.367080617484674,2.750140191501078,0.6468212168108125,2.1975246223452216,2.836720537390168,3.5401064455207965,0.909339601579083
390,1.2267913630105056,-0.11587081695364401,-0.0190762329775116,1.7284574002009312,1.7296256295132433,0.938811021989577,3.8657168443530665,4.357500312359347,3.2209887022809314,,0.6547956803312163,2.479454871109755,3.227666504811961,inf,0.9217604744750739
391,0.1021979072403615,-0.009197811651632536,0.0,1.7490789401409357,1.7237736463118123,0.9193375876093475,3.8953372884489545,33.657910416639965,2.564043391642853,,0.6447042257417027,2.443253001187888,2.570721194173882,inf,0.9031760226503156
392,0.5861177077602159,-0.04688941662081727,0.0,1.7574858433147054,1.7741773086129509,0.9466894011096901,4.739743881803319,29.88475542940229,,,0.5783247308855777,2.6575155277281626,inf,,0.8738469693539529
393,0.42821040780924563,-0.028547360520616377,0.0,1.7601685589300433,1.764928826042388,0.9362934748954578,4.06858406533583,63.668852277002266,,,0.6619902821573977,2.814337071620167,inf,,0.9003511839130762
394,0.0016143596036038734,-0.00011300517225227113,0.0,1.7618437451868805,1.7413623231197701,0.9139419854426098,4.3193515252571295,47.113844372461784,,,0.6509067234006624,2.660848599617916,inf,,0.8990519919512214
395,3.2977657122165853,-0.9058925320029292,-0.5185340006689417,1.0095966087385102,1.0139485746074726,0.6821059696122018,2.854374077659162,2.935663623480033,2.0688789272366583,5.908827807247477,0.6425374456860184,2.0301858774067822,1.7931142535165607,2.7090674951879072,0.9553502665836124
396,3.578766072967818,-1.2002528364607712,-0.3788019644328757,1.3812024955911846,1.388687158488416,0.7207564841658651,2.633820389336214,2.960446755423574,2.4397844649832816,1.228688826788751,0.6153451465759925,2.0838066103006625,1.8800946558961487,1.7982167854723534,0.9331236061175386
397,3.2137785648294575,-0.9313776277429004,-0.4297126503184408,0.8424562854985596,0.8374044486311939,0.5941947026918075,2.811358287129489,4.159819271132669,2.0290932098784658,5.653362593529311,0.5978297680564633,1.9199717003749777,1.7361179309159678,1.3901728404484615,0.9402713196339371
398,3.6460059106675047,-1.1052267797337376,-0.3219044681201708,1.6377257830177272,1.633025014002648,0.796657909992105,2.9924952560978864,2.892213405886327,3.4752992970333314,5.739503016769589,0.6309483474627791,2.1793846592078885,2.8279228447956926,6.400257445308821,0.9088871860895157
399,2.4617295929175724,-0.3996742732698742,-0.07626011469418979,1.1919239285475423,1.183185986171937,0.6244981082180225,3.5680819299237427,9.312955221843014,8.993188421231606,,0.6566669596287297,2.4076987255497664,7.613571862642745,inf,0.9360687984354712
400,2.0337279494732434,-0.34628693282478795,-0.05357665518551044,0.8463668963610448,0.8574157264085142,0.5697794400038231,3.9372334391293276,7.480372614205351,2.715751659550992,0.7322565428206755,0.6068309995095971,2.2832182905031955,2.519048737861005,0.9388712328357696,0.9417276681065142
401,2.5509911264827134,-0.05529366007205705,-0.9024841953398219,0.6435578157572066,0.6343645713967268,0.5461092213995606,3.070702149371585,2.254166720191304,1.8947095134607044,1.46546386455561,0.6447042257417027,1.6954195167913118,1.5987187925774358,1.122249752822445,0.9714211178294344
402,2.5230458832658336,-0.7280002263634118,-0.017978802310696172,0.7320906216476475,0.7069072158893418,0.5055254575941391,3.73366340277049,3.289344725934368,2.008957550522911,0.2950865048627589,0.6425374456860184,2.047856745685396,1.9744772805604327,0.3179110744130981,0.9751805121731039
403,2.530830433561395,-0.43115591350813887,-0.16331616812714006,1.528439222861696,1.527256860112989,0.8248251844269471,3.4082327731047033,5.1363089029521865,3.4407395197450126,,0.663668482632973,2.246414821526991,3.043052929744063,5.424950017481403,0.9338276923123581
404,0.759457490748756,-0.085219788720398,-0.005915110169452712,1.7751252187016817,1.7756043556875234,0.9031769161709463,4.171737612417118,13.451920856760637,5.1347368739305255,,0.675384900321601,2.4160026711407894,5.059736645447287,inf,0.8708859395163779
405,3.433400014425041,-0.91104781761478,-0.13346112232692905,0.7969161312624773,0.7964482706542549,0.4881145165400772,3.2345021583888225,2.135966903667162,2.044995863361009,1.4039549048155098,0.6125606311107803,2.2616564374956085,1.836027025992007,0.9096240405159658,0.9410874522310068
406,3.160174366074489,-0.7973542836218384,-0.1333938206047016,1.7290134762158758,1.7345413213983485,0.8351947006631898,3.4345827205547326,4.77869000223253,2.501334975247222,1.149405952884469,0.6233814453054027,2.1230451791619678,2.4932983074242485,0.4179016731491729,0.8775118415035552
407,2.3058893420127857,-0.46366243494625553,-0.1419355471002669,0.7710994166537573,0.7779786342383469,0.425156146522316,2.8681353249395407,3.3095861202790915,1.5546161128248137,2.3497081232719026,0.6357360191111145,1.779435719539223,1.4174611986102024,1.9940619300781117,0.946635992681354
408,2.8264229176072093,-0.6682892135637784,-0.12658874482698854,1.7052755965021897,1.697457212697479,0.8746889507752811,2.9560800057297882,4.14424045346978,1.734964295851999,6.494589496769826,0.6233814453054027,2.066020891720875,1.5641704549336657,2.3883018728413608,0.9088482609293761
409,3.5689740973282897,-0.8051880340009911,-0.4698756722022988,1.3227656231942337,1.3265388908904054,0.7181459835709828,3.192337770215109,3.2897882775070855,2.0535190858949917,7.072484220839104,0.6333676938231112,2.2681836662767134,2.053479818670078,5.9872891756975015,0.9287495656190347
410,3.5895877680878567,-0.9760333791661049,-0.15923962121196714,1.7468694283029267,1.7449694836484357,0.8091675412050683,3.072799785996012,5.112631846005835,2.0731792803972544,5.987261253536006,0.6425374456860184,2.2351341504094395,1.9984724791461688,2.779509165084355,0.917317508452171
411,1.3511956229107602,-0.12073351874875676,-0.035804148852107164,1.754034460356428,1.7501025413881763,0.9118937109844508,3.1522967270176827,5.594625504387613,8.32707320442255,,0.6727386042041725,2.380666761798877,3.3264546141228384,5.700443573390687,0.8904287091203856
412,0.7673753661954518,-0.08522016167203024,-0.022212389595333004,1.5124378078645258,1.511315468465758,0.8235092312396437,3.039486876478154,6.2407784356064475,3.121933098438449,,0.6447042257417027,2.212845958239176,2.60441794287654,inf,0.9041516748079813
413,0.17953817216202453,-0.014430739815859447,-0.008310761991330327,1.7040385557470674,1.698201312340264,0.9439991120554732,2.5559831758462046,3.959699291665565,1.8790806857517437,,0.6584896970785714,2.1181361710172557,1.7839365035577222,inf,0.8868379100233401
414,0.252434588412284,-0.011016880359165475,-0.015303329655197078,1.6863330304017101,1.660868000412483,0.955070275853611,2.505585768038924,3.339657988675111,1.7364259020977173,,0.6425374456860184,2.1361294779764086,1.6028743633200964,3.9073609923223347,0.903326375968609
415,2.0138723176705073,-0.20835956560599422,-0.13604064799633234,1.4833482895677876,1.486429725417142,0.8727628267653621,2.7662614832165655,2.5621837006950408,2.40608912699022,,0.6403206450210053,2.1946279514889535,2.2245238158238574,6.295266001439646,0.88608100982883
416,0.37694498003064286,-0.04090523849011598,-0.0005587093132547365,1.7266922746893147,1.7134670485622925,0.9727911997239442,2.35905618158813,2.5531131041325934,1.8172973378133674,,0.6619902821573977,2.335797227200159,1.7931387797915606,inf,0.9012857661642204
417,3.6528381112540718,-1.156397813991906,-0.46484728140983306,0.9270378756252252,0.9312289607677562,0.5766096219063974,2.7880277616814153,2.8520322591696283,2.4459944257256803,5.596340731084106,0.6713451011121618,1.9655574550811328,1.81203178720348,6.0205377945936895,0.9206935750022398
418,2.121372077885377,-0.17644249408558577,-0.35435406172609657,0.91025749939802,0.9032036125486043,0.6543653184538215,2.9774966280559134,3.2970358501703534,1.3422925097938627,1.2176727059126806,0.6425374456860184,1.6058333057306615,1.2300502668814335,0.8786556282824189,0.9493964282528612
419,2.9151469844700326,-0.6031439256273485,-0.49008329872112943,1.4426145256238034,1.475923234624421,0.8213519418851939,2.64021284635056,2.587406164845248,2.1030690886441357,5.000596219060177,0.6207552362147116,1.9879365723124505,1.6604409384921561,2.7552411325623365,0.8684423653428669
420,3.004427548907695,-0.9305007035039093,-0.3486940341987864,0.7995185368207613,0.8018960912558004,0.49428154897146304,2.186219461942819,2.5838210979225953,1.3854615936800159,1.8075752167043582,0.6233814453054027,1.6673613246930912,1.1897690994232717,1.3780099480711943,0.9386846858119748
421,2.9422118524405807,-1.0627393589957703,-0.07847581661161444,1.2344095670296669,1.2387301584659804,0.7788905531024031,1.7564920411131208,1.6739098882509895,1.8347421238084178,1.4078373996627218,0.6584896970785714,1.7954997888437783,1.5709741567599915,1.0666120926835871,0.8791970712679036
422,2.6086931771144277,-0.8014275910375738,-0.32892060301928194,0.7957076900857446,0.8028500439548439,0.47659148726673617,2.007781188875584,2.5488064791727747,0.953642562025681,1.007220117354265,0.62595550513784,1.3838972365201692,0.8708505270597164,0.735002438296558,0.9374373260075289
