,acc+bvp_XAp0,acc+bvp_XAp1,acc+bvp_XAp2,acc+bvp_XCond1,acc+bvp_XCond2,acc+bvp_XDist,acc+bvp_XFuzz1,acc+bvp_XFuzz2,acc+bvp_XK2_1,acc+bvp_XK2_2,acc+bvp_XPermEn,acc+bvp_XSamp0,acc+bvp_XSamp1,acc+bvp_XSamp2,acc+bvp_XSpec
0,3.29862456338627,-1.1222157848666146,-0.07000221209589644,1.5544150520727882,1.5617605134555792,0.7155322632973085,2.111449833566656,1.1011731305595318,1.113518710301083,1.231591552425498,0.6357360191111145,2.0887289811829204,1.006946409899123,1.1174527071300242,0.9056393371675244
1,2.2649499122890964,-0.7023109585237466,-0.342325956731817,0.6579481484603741,0.6508916462967589,0.6266493080846358,2.5910904704165367,1.658748176872722,1.2159949411778384,1.3923212033507988,0.6652988471865258,1.8255230993808642,1.0938656075857933,0.8968191956471938,0.9452268649445525
2,3.1850753520557693,-1.3815056025871213,-0.2736090872002756,1.2089470190889602,1.205796954395185,0.638411698334827,2.625326247137618,2.35307536786459,1.6806898262553367,2.298717782307786,0.648888643467878,2.466019474069518,1.548897954521261,1.5965897699562515,0.9188401045496093
3,3.7250692074591814,-0.9553695866453384,-0.13081236584477884,1.4061932342117056,1.4142075992754066,0.6219299102848171,2.5315377609607035,1.1940973958140066,1.2289398554721975,1.0022101533251255,0.6652988471865258,2.463536624051808,1.117186227102301,0.727640354605201,0.9253074850471851
4,4.012664496540448,-1.4844153761891528,-0.2528808060498435,0.7829764557239762,0.7919683155269194,0.3614150576414734,2.5358129222578847,3.419782439375467,1.8545668322046072,6.543665620334972,0.6668815377411301,2.3028073399112845,1.6599243355089242,6.058538912772303,0.9530921770536798
5,4.16793914419953,-1.2983378591940968,-0.2779009760984426,1.3290739096541944,1.3479490641670944,0.5172954750175555,2.5464757904579134,3.648405531528588,2.344608109088498,6.271821250395281,0.6528756675646988,2.7777576135270303,2.051945978064325,4.6319512086657335,0.9383433523382794
6,3.4357574178689663,-1.0236338430039391,-0.2784787670805518,0.5279962607213665,0.5320575984295122,0.43579691047059393,2.3181071673998463,2.83240552794099,2.926370768729275,2.9074604460896154,0.6509067234006624,2.159158376529763,2.6098387836161185,1.884977598060156,0.9381977408957947
7,1.7447620765436611,-0.6530588636903181,-0.28672512690756125,0.7267163858275772,0.7338904688822009,0.217104915255681,1.9071731747613616,1.4704928429155466,1.0237507150158514,0.8572534410710981,0.6403206450210053,1.1263261272356253,0.8577244298238745,0.6502846062204293,0.9585399418895256
8,2.6108199178666007,-0.9892857683527464,-0.3082825728348243,0.9123137594665733,0.8932846413463792,0.5980748881724506,2.1843864574312875,1.6554199450179867,1.5197142921050875,1.321756534945414,0.6584896970785714,1.839759945283238,1.265043423325115,1.1928821176317779,0.9515889348422214
9,3.884491538736041,-1.6376113836070907,-0.36558120045435016,1.3085959353806624,1.3079822132858507,0.6579569216895643,2.57182253200425,2.565667722719859,2.0960816484706024,1.0103503426754807,0.6333676938231112,2.3851216484633597,2.0184691641263623,0.9471901234940554,0.9347418825127922
10,2.4536709022290792,-0.8588667060640576,-0.4153515052436649,0.9563031663000249,0.9468438046358006,0.596071311717129,2.260777562738116,2.1091416339735805,1.5140514685384825,1.4658545316337337,0.6403206450210053,1.7588406224709454,1.284449241849932,1.2495056366250616,0.9348512981162325
11,2.0284058971577266,-0.6455593062896922,-0.3154498847738547,0.7921322911912247,0.7781335104290458,0.49343816264878065,2.0712626809428363,1.8802247442252011,1.4356877289032886,1.5536481284670127,0.6380535849069913,1.6774193907896522,1.2671973819589084,1.2101857585106544,0.9415719829858048
12,2.028989373140042,-0.567351388555525,-0.3254843582448335,0.9375381572555157,0.928168806710775,0.6669627103593821,2.089720679032435,1.7211267588499153,1.2662637232619334,1.1178028690018624,0.676637947632344,1.623649531917119,1.1164074653201776,0.9351387297907175,0.9495138470213432
13,1.7599072416783956,-0.491546372844448,-0.25943627620336474,0.9276569529181994,0.9302468235092283,0.76217245707148,2.6325190950996578,2.136027890514558,1.641864030188371,1.499910794160803,0.6284777104787076,1.7647281301770246,1.3069257249384323,0.8969395018010835,0.9371624987718731
14,1.1190503040788788,-0.14422938890029158,-0.26607364772520037,0.7692787546001436,0.7415703366578323,0.6405842131361215,2.1970369977562445,1.5227167034384435,0.847609921707425,0.6386925754934814,0.6602640781246099,1.277898456918543,0.7231016584547303,0.4472532167666915,0.9435666437729213
15,1.0133975711122096,-0.0856064356172096,-0.13775784686370823,0.28922259120732874,0.28546468280492,0.32852470277943147,2.8325641499479506,2.3076287479529065,0.9569410970316788,0.9685642065826582,0.6509067234006624,0.9558981864689344,0.6982465715719618,0.5487961262914322,0.9395421973009256
16,2.230686695102811,-0.705818992769822,-0.24076429240848565,1.2099686382024197,1.202195964369676,0.7447216489706526,2.9511774802302435,2.9526151241351597,2.1808419987899272,4.045498767000773,0.6309483474627791,2.123323769496685,1.7468111432292082,3.1554034019126274,0.9310889602950742
17,2.542156496021699,-0.8851011691996911,-0.34643546079234905,1.1912765321582508,1.167279831778193,0.7340015644947738,2.630238047043354,3.0450252446684245,3.4061356988143547,4.2803287322810375,0.6509067234006624,2.3214281807955257,2.779861481568861,2.7227563484919055,0.9370243171465472
18,2.012502901144682,-0.5761057834940775,-0.33532638247954527,1.2745884811656818,1.2562388187105404,0.7354947798065573,2.7873075909248057,2.650304887167747,1.7535468326183556,1.5550676366454064,0.6528756675646988,1.9456879515207917,1.5545933883652627,1.1160621467001623,0.9247462139894302
19,1.2304976548712356,-0.11985670234169266,-0.20702903911143278,0.6867477240652439,0.6680958020903919,0.5933195886788679,2.212398903537229,1.6702859278099482,0.9130338318022592,0.659382680882357,0.6699045166045591,1.2678596859747926,0.7674161243754093,0.4545763818308127,0.9220236700160728
20,1.7235835314479606,-0.27695198800728194,-0.12450756428335541,1.4021568864096714,1.3869677863821706,0.8475459980283137,2.807025563177638,1.851813726845895,1.3091877928442142,0.8205124448204553,0.6153451465759925,1.8632554709331248,1.1078925969903275,0.5593989857665517,0.9478840545303193
21,1.4028376703008478,-0.09436972742799543,-0.28308224194799125,0.9867440836408322,0.9858518377322499,0.6469957497623762,2.4800155476585437,2.1639696537321327,1.3335441984236485,1.1650958863445062,0.6068309995095971,1.5190387619164343,1.1304281150868785,0.7894323718428542,0.9416311873447031
22,2.6561303060009096,-1.0930354926861372,-0.33637409675895436,1.274523920155543,1.2684700797001605,0.5369862306469699,1.8321693758008475,1.5793645307509485,1.7041376520674767,1.4686867305427809,0.6233814453054027,1.9114443121740348,1.4239653289501175,1.3117406171048218,0.9392484441550469
23,2.1867557348751956,-0.2923543042421561,-0.19375722064959094,1.5402927463755365,1.543777766601553,0.8792435558017166,1.7573608574720225,1.5852553495869386,2.2632926482378393,2.0549204713391607,0.648888643467878,2.5541852763847688,1.9916683324469031,1.8312734190882947,0.9060420028353033
24,2.457937691136457,-0.7613458205372721,-0.3079581178794001,0.7320120004338513,0.7317447258973615,0.2833109122697342,1.9329391466329746,2.507382622368956,1.5740935000047962,2.6638650130669155,0.6357360191111145,1.6714315264484423,1.3866490758738317,1.6549222884690329,0.9453310204238428
25,1.883018474719736,-0.5293716868720848,-0.25370109185955153,0.6457925072928422,0.6184839134679206,0.5893257791136753,2.1410012322201335,1.8079102512625864,1.2263123156386522,1.1548191727369626,0.6233814453054027,1.516403046466911,1.0082151035573172,0.9015552177081042,0.9455455200440911
26,2.2692909276571815,-0.5505268383189725,-0.5150259121171158,1.2269423233668626,1.2203134456882292,0.6736846033411557,2.949867344985875,3.1430913941451606,2.0600169808247015,1.9950211100696364,0.6468212168108125,1.9275028302614312,1.8927516130283555,1.6738075003843451,0.9305700984148124
27,3.1210904193710256,-1.0029509897985833,-0.7153382469404194,1.2132058036139817,1.188110429153764,0.6116212355486942,3.309677776075719,5.109517241743992,3.6331743903426688,,0.6403206450210053,2.6086574572241754,3.475897512949819,5.3230099791384085,0.915887643731289
28,3.0768616316213366,-1.1186298266398587,-0.44175405797190404,1.0682739907148557,1.0620837651713233,0.7135899292277367,2.8476072826200745,3.0029223973978083,2.0380336843090614,3.308999835733177,0.663668482632973,2.1759524420606797,1.8551043809255026,2.5724870815929632,0.9424753333058092
29,2.8459116290745965,-0.906774853453216,-0.6272890520252806,0.608302472960215,0.6002932027664594,0.518889019585454,2.5766042490778256,4.112462750460352,2.7131339455238095,3.6141258170983566,0.6447042257417027,2.1224882312222024,2.4871363051152695,1.8634664798442386,0.944071407717856
30,2.7847747272546286,-0.8020952744969433,-0.6862519332613707,0.8460444848455664,0.8375172911922282,0.44102497873431884,2.3811846959514504,4.393698617419114,3.0110333777417373,6.349407486925327,0.6425374456860184,2.0337461083437445,2.8113747472749377,5.4638318050256105,0.9306461014037988
31,2.2089949013212067,-0.6328311281320382,-0.6212041312677319,0.42963313105546985,0.4205586301030923,0.4286120589432945,2.339126069744721,3.3148991248772166,2.0253987334550723,2.206957832835713,0.6447042257417027,1.732484777765583,1.7755556995146216,1.617257725136191,0.9337766118710596
32,3.6966642121794875,-1.5408678141674632,-0.4183642182876653,1.7307092074197605,1.7558196211863544,0.6784679747829699,2.898777039925874,3.8092854361537505,3.4854480944499135,,0.6284777104787076,2.6121341442723836,3.3793304028355986,inf,0.8935332647542253
33,2.683684583702743,-0.8102832045263074,-0.5518401315819391,0.6397048129658913,0.6395913175162523,0.5687173050424326,2.617315067346161,3.028532273539146,2.1680191859135185,1.1721053456390265,0.6038851895711802,1.8176928512545596,1.939227546620946,1.3370965051598012,0.9586396255522276
34,1.792074241204537,-0.32790837760976077,-0.41821884657829633,0.8913746229947078,0.8637055755059825,0.7188589394157966,2.7026653333650805,2.2942633265793115,1.7659117505893056,1.0066376476676993,0.6357360191111145,1.8315403392398995,1.5871423567632754,0.7802819153490284,0.9509472468773003
35,1.7092002822074888,-0.23319972363382813,-0.43005373783297846,1.180447877016019,1.1650168887203496,0.7857615751781216,2.7424505579522624,2.0698675169200165,1.5925151427340323,1.142257247503448,0.648888643467878,1.7318566764950118,1.3687424074488161,0.8810122082910332,0.939808939229523
36,1.5306133719073973,-0.13983087519367077,-0.2157460529972819,0.7000030063434904,0.6794219241573974,0.6691834102868078,2.270935475013231,2.0980436688322754,1.3338235706369235,1.0939208199586266,0.6425374456860184,1.6585698016515529,1.1334056343884182,0.8327822504327362,0.9469658579373834
37,1.7062019794772738,-0.21336612084885498,-0.37427686856463216,0.8784139036266814,0.8654848882971394,0.6333890152348987,2.357800571368454,2.1047442381019765,1.6450660910235282,1.6626208521420534,0.6233814453054027,1.6583947571606312,1.3518872974080909,1.0346376243258555,0.9427636863537158
38,1.7574549127893695,-0.49898001861836216,-0.31424046415744705,1.0659101641627093,1.0505731342971911,0.5782749163301326,2.1355409696125656,1.7143267473325352,1.8029205780933397,2.3977499711577277,0.6447042257417027,1.7339309096155826,1.4841119289487263,1.5896516115352566,0.9473653442567317
39,1.9363124823594744,-0.6135407146809988,-0.2263505883645653,1.1804187099001187,1.180429980475732,0.7076619231082442,2.4850434115668323,2.58929097721882,1.494060386118356,1.9785077626991194,0.6447042257417027,1.709012728441815,1.2597530968823616,1.4596538489194153,0.9287635608773327
40,2.0957045587511636,-0.48929570560041,-0.42548263482939186,0.7818471789463859,0.7717153937180127,0.5698969744451089,2.828943589849348,2.615393906870385,2.2848218355376697,1.7535060814559171,0.6447042257417027,1.9622315096648604,2.0477719041234894,1.8103128771238028,0.9319459793383148
41,3.030160673840287,-0.9658347684330757,-0.6091502727009585,1.1552394192204218,1.1439389264328108,0.7344378730303797,2.5850636059455905,3.2720334043130075,2.4340707954141005,1.1251101843071414,0.6284777104787076,2.3669458521544358,2.1449363994100987,1.4067449715911813,0.9393782266338514
42,2.6084729370570092,-0.7683463985318565,-0.49114903889662254,0.951604761726292,0.9322217456573537,0.6457867960179663,2.8836223276696957,3.339595688662224,2.9967627807587927,5.117263805632695,0.6447042257417027,2.181548097951212,2.641225458975474,4.387566815049497,0.9482457570879989
43,1.9292291851389798,-0.5907118656606838,-0.2713211134739301,1.0195672910290148,0.9874838731995685,0.6734286906060579,3.205669070335771,3.0165466417848683,1.7725009063310209,1.9155813568913043,0.6447042257417027,1.9631015219790016,1.6455301172921837,1.5963977928532944,0.9319723593436282
44,2.534626827179965,-0.9015158458419005,-0.4059643351385281,0.753060411467315,0.7419624518522969,0.580340052485336,3.3506743098837943,3.9121301399696597,2.6777727820365316,3.236492958748343,0.6619902821573977,2.221824694204452,2.3711973578479917,1.784104975867523,0.9322900424360732
45,2.2792755810274694,-0.5816873244187669,-0.46639534331294796,0.7079927891635123,0.6893895704127511,0.4993591821218491,2.7976078845761942,3.256590204485269,1.7837015044905093,2.485199511508407,0.62595550513784,1.8782618848514065,1.6541837834207027,1.69510262738772,0.9448863135969896
46,1.20298247977976,-0.11881899869180712,-0.22193085549963276,0.7231347820180155,0.7165446559998867,0.5834789771775983,2.7563414105463555,2.4896146824430905,0.9811840672746169,0.813031385197046,0.6668815377411301,1.2576080201585675,0.7950834064453534,0.5889470089790375,0.9316119745675897
47,1.0411100337048826,-0.12035799477818898,-0.10770204885495954,1.0880240720838197,1.0679345218582326,0.6396936128296425,2.7203285753926543,2.144699912033909,0.8383514939306448,0.6909892927263894,0.5748741956352443,1.2146967676889115,0.7271881601167811,0.6307606362903143,0.9328778826308944
48,1.4661712541439529,-0.4468691249072749,-0.12316088342117126,0.4318182262866686,0.42751006166180217,0.23290157411770238,3.044704624021244,3.1205223483367117,1.1200317281123957,1.6800964731833117,0.6841113288387766,1.1698934906730734,0.809803274134572,0.809382741606647,0.9450678027898219
49,1.2396208099779098,-0.15627187080549332,-0.1934430107656158,0.8797044045803954,0.8816496161543937,0.6708792363651859,3.3875576686243076,2.987240477804049,1.1144655957650083,0.9543620385003857,0.6547956803312163,1.4897800920754496,0.9559058445592694,0.7745797425225361,0.9501124149706326
50,1.498863463458878,-0.09930184303793377,-0.29936468532977484,0.7607495949530835,0.7286772096473606,0.6258209323413367,2.8034833410797786,2.4582882684257905,1.3228314731088708,1.217347342017932,0.6357360191111145,1.6861989735675624,1.1828027585924097,1.0134624710266293,0.9611196741020988
51,1.7810309679246747,-0.23157253385838916,-0.4800013670776973,1.129573281668059,1.1169741302762604,0.7182224049999014,2.938189846998673,3.00872178309666,2.118386002041682,2.5320277250813312,0.6447042257417027,2.0709444114258897,1.8790112481709065,1.8628979101137668,0.9387477906559955
52,1.6384620854663996,-0.28638828745394895,-0.35480996642326856,0.8839258312504193,0.8488173944473096,0.663665176620755,2.679761322213837,2.35437927881166,1.6752989072949183,1.6387116957179477,0.6713451011121618,1.655307346092555,1.4271939095886501,1.1775044224417432,0.9528397749621115
53,1.7135704788183685,-0.2609122281578571,-0.4635149094546799,0.9465423443604447,0.9480732250156138,0.7205982855312777,2.65867022577626,2.106652209679914,1.4489722899740065,1.0810831877525617,0.5947193981915972,1.768238274186709,1.299109354178658,1.0243338164372497,0.9395767109427822
54,1.8641589446225104,-0.5952820687523457,-0.3043981563334371,1.0498685311799019,1.0173256128130985,0.7436425356196357,3.049546336765365,2.4184881841648447,1.4270982502130856,1.0760207475609112,0.6566669596287297,1.8144141597928611,1.1617333751247074,0.6154035752358056,0.9449129261961283
55,2.703129841480995,-1.0474653277218147,-0.0977255170954145,1.127887815835992,1.124347877182243,0.7501364355146563,2.803605815169202,2.8975424043719524,1.3385933514074,2.069482266708365,0.6403206450210053,1.8527133118983952,1.0182480524779463,0.9377031280646514,0.934418485627692
56,3.167703550755581,-1.2430924106342711,-0.31849995143260457,1.3019220946795136,1.3103726109384548,0.7674530141554022,2.886401833784233,2.983195817255819,2.4746894525813943,5.828110563292041,0.6528756675646988,2.398239776577428,2.237389616895372,3.3061996530398754,0.9298199479531407
57,4.027185318603304,-1.6821047271882168,-0.26241256170895666,1.6470766472863128,1.6453268768550549,0.7485886046568653,3.515066983872025,2.732050918305722,2.973791523768814,2.5264085778353143,0.6403206450210053,2.598150005402352,2.4191742768447004,2.020792814598328,0.9234865384071403
58,2.935702649551322,-1.1256616188724093,-0.3410878863994546,1.0746894893024448,1.0732651485152662,0.6851516056048546,2.931912852129616,2.8134464348176427,1.4849968838761491,1.9106979872831047,0.62595550513784,2.08229003924412,1.3165767270797533,0.8378097044760238,0.9467431865519066
59,2.1082087241829788,-0.7167586872372478,-0.2342708025309806,0.7656475826054466,0.75652675406428,0.6105302681031873,3.1882952526871406,3.12414687871092,1.175627007511692,1.175030582233939,0.6380535849069913,1.5917071467372481,1.0199728305452682,0.9714390411522666,0.9536127131538268
60,2.2756569084157845,-0.793382483969385,-0.1979996107862549,0.8445859391134387,0.8482515460551044,0.5635128404806252,2.9061196812415515,2.901076249665864,1.4091984491200265,1.2768530326366836,0.6008849035917525,1.647659125254298,1.1648260939847954,0.9636480654964035,0.9441959484105872
61,3.2740016063604953,-1.0923547283977095,-0.2627646667051011,0.6105644152735883,0.6028812217389177,0.5092956075388478,2.806133255421109,4.163987472444868,2.5011972432579213,5.588011205831275,0.6468212168108125,2.611831343361667,2.3757386778035925,4.810557015713042,0.9418302544049454
62,2.6349886684480155,-0.7241413554023421,-0.17510030368591648,0.8637881552971478,0.8464879202233146,0.6284968134837597,3.267083975501113,3.5189499865707985,1.5577011879788534,1.8168688369366648,0.6509067234006624,1.960493752513494,1.2940092499978582,1.3429194966859135,0.9465276771563764
63,1.9678032424862977,-0.562387137282119,-0.40443974930975257,1.0105650962668966,1.001773304450666,0.6959622453115482,2.334303196181691,1.6594429214368351,1.0857166433373482,0.8471648743980906,0.6699045166045591,1.5020294951589737,0.8816451495549804,0.6748791064224459,0.9502747866053116
64,2.159567240589897,-0.7300652620925511,-0.39397407417063995,0.9549117759942692,0.9549081101265897,0.49998510281074066,2.277574690465017,2.1662615657483477,1.2784000293048343,1.5625289951000667,0.6284777104787076,1.769932748001948,1.1144569382166694,1.101399469449138,0.9504134930944487
65,3.280857776121861,-1.144277712399254,-0.48337334877014515,0.8965964067460386,0.8932059450088501,0.660203925841232,2.0713995326691315,1.9772325558650583,1.6595191228390582,1.846189435862499,0.648888643467878,2.0334064921068244,1.5120462455428292,1.6102083284968598,0.9441726392052854
66,2.975389607601931,-0.9923684019394085,-0.43650284270223527,0.9896128231268768,0.9896118396084053,0.6448008785809772,2.579055972689778,3.106212014063957,1.7478897991212516,1.999579917359581,0.6180765742263259,2.07076815338366,1.5840319870774136,2.139636702463258,0.9323144939966479
67,2.0949366382108425,-0.48627384432694853,-0.47003086551937945,0.5867138593802559,0.5803313715717177,0.5685460299778583,2.3391199172975816,2.625469821724068,1.8921408616823003,2.2062142382221466,0.5978297680564633,1.7085832147061124,1.6302655418915077,1.9353181497181333,0.948616339062163
68,2.6083037267224003,-0.7148769807057848,-0.6608389055798032,0.776321517626538,0.7437449710481436,0.5616235474876361,2.1890695749216986,2.0447304559531028,1.2762871692571796,1.3786055565223874,0.6668815377411301,1.8196103973838313,1.1866212466068684,1.215189000799377,0.9335085434650948
69,3.5150407631726366,-1.2686467869912337,-0.4554096429119545,0.8829761644392528,0.8780116412441904,0.5858271477318497,3.0668612490486167,3.8817577972829818,2.775592673493284,,0.6528756675646988,2.1700959099479666,2.5220856530297544,4.007333185232471,0.928315475618622
70,2.870833628879393,-0.9322515371427824,-0.5629062791131834,0.926331938214651,0.9264822507394068,0.575117692364595,2.3864467843966977,2.166071376937903,1.7240974896978387,1.2239186699736677,0.6566669596287297,1.8794983835360617,1.590334790516232,1.043061735826627,0.943682802351813
71,3.4331223067994143,-1.3144649686276424,-0.41612102158223363,1.460069369766103,1.477365786939249,0.7301492442519855,2.5527383758297213,2.947844416790574,3.553272082239774,,0.6425374456860184,2.44044329308148,2.8556543167282435,2.500549426858454,0.9338245799488113
72,3.1073508690365776,-1.028898176836514,-0.49081987779021397,0.9238266109644672,0.9234162314488685,0.5900228164514559,2.314570042299537,2.338465636257261,2.4933377276817734,0.5210777190672499,0.6357360191111145,1.9500520482226484,2.070422665432997,0.666870080521462,0.9403370824499182
73,3.5053850736366505,-1.4029372561149727,-0.46843103939000746,0.924907960724478,0.9130263326267453,0.6113291309268488,2.1974546126467516,2.4178918812763945,2.3248424013224684,1.8054492511605402,0.6233814453054027,2.082111770235715,2.0475146061310254,0.9305493632896514,0.9516904110431224
74,3.473406415557438,-1.2657523282272969,-0.2561687405168234,1.1558131538909286,1.138961268761577,0.5991227984196248,2.4249537702241337,2.4973330023536002,2.020226405620925,1.4002790935028389,0.6153451465759925,2.233888561707811,1.9852636511076376,0.961876067209488,0.9451945594348843
75,1.986817031605714,-0.5874748365030628,-0.32187692816162755,1.0416789352097935,1.0134251116807873,0.6584418029799344,2.6560642627566735,3.313700783407343,1.9589180215953144,2.3637423946191167,0.6008849035917525,1.8350845939664286,1.7305944263613504,1.5429366821286805,0.9412692796012565
76,1.3339465325321738,-0.13459366146323104,-0.19923814459384304,0.8162802771785382,0.7833398137504596,0.6664258768825635,1.8323939015528505,1.1959171798925896,0.8119833590109837,0.5766494945119256,0.6380535849069913,1.4597734712197497,0.7091552369616224,0.36741159672147783,0.9428160713667334
77,1.2882774853495291,-0.3802895838767453,-0.1470273429605125,0.4406373799508156,0.3887062360085757,0.4619499892326576,1.7957434283912759,1.2090679954574648,0.7449892624671856,0.5228387525651516,0.6447042257417027,1.2241755116434554,0.6167742017753713,0.374744380201054,0.9440963041440907
78,2.267104942958584,-0.6000377810746145,-0.5144902084733535,1.0150610121163754,1.0157017051953254,0.6344094437714146,2.57373650435217,2.8980262320412904,1.8925799734712263,1.4528046276552131,0.648888643467878,2.0133209393596134,1.635483465795126,1.1110721705943332,0.9452746181737371
79,2.607592450064489,-0.632346166414333,-0.6469784311538389,0.9895106041934729,0.9699005885413525,0.6755410566485912,2.601398072558622,2.876828568483953,2.259778566374511,1.3412880884885874,0.6425374456860184,2.0695352161953298,2.137604840172115,1.1506914377129993,0.9295787709002988
80,1.5179525172154515,-0.20343294829742398,-0.4516200937666586,1.0167924942395001,0.9912540928801202,0.5686509797109648,2.014964247236923,1.3636451325190855,0.7637685997567016,0.4909703498733794,0.6233814453054027,1.3360238117800243,0.6511829814609131,0.3650355063618912,0.9490538498336422
81,1.50521339163415,-0.3195874647387211,-0.39345084832111893,0.5905018133825495,0.591452971749863,0.4832373208548047,2.0309695349450965,2.0325664303796276,1.2568331864055093,1.6679704632305834,0.680118107274185,1.4846670032564508,1.093378851275173,1.1689336330775222,0.9528666163946756
82,2.099312301816402,-0.46266306971329485,-0.7576839766951878,0.925391432897274,0.9140760547574139,0.5309711498306523,1.74748486405004,2.4941496099741665,2.572924385070894,4.9660848961945945,0.6097226960127671,1.9092675426900074,2.3650014517263265,3.2414756567854415,0.9441274197984484
83,3.400446462992638,-1.2514419440967013,-0.5142841326491076,1.3776680274072455,1.359890747263906,0.6885782871349945,1.6416790578278249,2.2892888738230983,3.0856264806477087,1.9926986602357357,0.6684167106117298,2.652300185997718,2.839062700707249,2.004179057179289,0.9340781361665328
84,1.910123371666016,-0.5253857444780274,-0.48281891568095997,0.4652938329448471,0.44671104702267,0.5156636454237185,1.9469555984871785,1.946216618659674,1.6298748206545939,1.2143066275088619,0.6447042257417027,1.4319893203820202,1.2996707463593236,1.0507977343321586,0.9600610899302021
85,1.735258471978266,-0.33827323297256195,-0.3776962754171664,0.7050420342400686,0.6849831125949842,0.6388826364846466,2.171691138613056,1.9451055253091294,1.6734773716446496,1.6459826021165431,0.6619902821573977,1.6450075212104787,1.428325998367064,1.0590591102820879,0.9445465796663911
86,2.004042726302572,-0.7266560554345307,-0.2880980349693432,1.0060101249771665,0.9904363994015798,0.6181617834349616,2.1975704190773935,2.0676331332334117,1.9946095042624823,3.5505940446743356,0.62595550513784,2.0647937901557296,1.808008502119135,2.87132356292547,0.9527857842255018
87,3.2314614409330384,-1.3468611488226263,-0.22589409964540197,1.152198995787138,1.1514672408647335,0.6208983705161664,2.2251136901189446,1.4539785153276918,2.2075050142396964,2.9767116153953865,0.6333676938231112,2.3181500452651,1.8409108316766922,1.925494093232202,0.9256292333996516
88,2.2254065035433634,-0.7518894983053812,-0.2772351605135597,0.8459793471895015,0.8424241289360398,0.4881252604716398,2.2153765834479313,1.7925720073223825,1.3249195602960815,1.8242800086107724,0.6233814453054027,1.6939070690605504,1.1042502048478033,1.395639367285407,0.9617591224652374
89,2.5173895256848717,-0.6949733106467065,-0.3672713176425862,0.9468803996060159,0.9458957876327898,0.6011034701191459,2.484503452863093,2.1419977240964148,1.4108971963210084,1.6758348155273075,0.6207552362147116,2.07500694461197,1.1789205183151492,1.2898340949323284,0.9462151890708382
90,3.5691151418835414,-1.4333513686567603,-0.3155150508661751,1.1131615272583528,1.119429635308261,0.5937187587482007,2.543545114497099,2.7027531337656896,3.0297834379604716,,0.6652988471865258,2.530462051447503,2.923859563577115,inf,0.9602395480185635
91,3.278148599941817,-0.5577453005990141,-0.15252022938837959,1.6593031675725762,1.644638584183364,0.8288984545566866,2.57020637807232,9.691118132755491,6.648210823684692,,0.6097226960127671,2.8067661740413676,6.521357233591198,inf,0.9229677448074359
92,2.1451652884216816,-0.337510318774812,-0.0843721879481187,1.1995592844529612,1.2158069003160852,0.6701920906275327,2.5216103212740864,4.184846808759497,5.207887333046411,,0.5883313578629602,2.4088101798167,3.7570077544360596,inf,0.9314647275208849
93,1.8857891169237841,-0.27491313990385247,-0.026813118803952967,1.540054105957493,1.534182202083258,0.8712563190625882,2.499994372280549,3.290842830577952,2.6511581439430336,,0.663668482632973,2.495900191262866,2.555557097353645,inf,0.9239689221802849
94,1.3347163153895383,-0.18200750486219633,-0.00040372490770723837,1.3595533098829002,1.3620239270954695,0.7466088451560096,2.7185844145415987,5.28180111731049,2.7846006761114945,,0.6468212168108125,2.4280223475872886,2.6444883502270544,inf,0.925068662826174
95,3.4669928024730474,-1.3363987985990258,-0.1502761899452155,1.2048847040091326,1.2139334935193324,0.652356660406319,2.3135977344247816,2.309543261922986,2.2412098117554273,1.5216767009630996,0.6357360191111145,2.0629559565311855,2.141203471698122,1.4257531978604383,0.9492900725266361
96,2.8635817390225013,-0.6427171757346405,-0.14283312725653136,1.2291531899223382,1.2251280966539548,0.655921303894656,2.3232900586716867,2.4247737755461696,2.778018564080579,1.847050971485459,0.6447042257417027,2.3147701411912633,2.470058484171299,1.0854020569313034,0.9556672088848446
97,1.8894975090726445,-0.4167834505289991,-0.10141696694581645,1.072474001390794,1.0610911344541238,0.7053206870386153,2.5147041510462387,2.6931599539954267,2.194281874679791,2.978722730124566,0.6619902821573977,1.8644735415168603,1.8560112520124072,1.2493285060467332,0.9499870218746703
98,1.7165319352118575,-0.24757663048745898,-0.03482276799249029,1.4433105344841073,1.4362461526308619,0.6663429547741235,2.6592899559633216,2.8083717249606464,2.5490548998255833,1.2946236273945497,0.6699045166045591,2.3687248954985907,2.366807108352744,1.2784053991087057,0.9313227741248542
99,0.821337088807055,-0.09726388203514659,-0.012202381754899029,1.3436826469235341,1.3357199171790857,0.7780837778966786,2.830013107027629,3.1404196667779143,1.94838857394706,1.460697340509302,0.6309483474627791,2.315220135573927,1.9092331119951942,1.4995319344045994,0.930777092706601
100,2.5372155453853487,-0.3521692306362759,-0.06224264177666437,1.7254194863957935,1.7100653394057428,0.8917063450948199,3.0987467538871005,4.952729678678172,3.0459902137631083,,0.6068309995095971,2.7865524292571675,2.721115166472743,inf,0.9119305975911304
101,3.211982270057202,-0.646725302785423,-0.31174685730966256,1.2953027449418717,1.2988798274812483,0.7531620435150911,2.506026023503097,2.5033912431717287,2.1331655197386925,6.262396109935698,0.6207552362147116,2.3054781627764735,1.8736983349623249,3.2030367608384545,0.905802814788338
102,1.8097941597842784,-0.3871714317434136,-0.26411063152108516,1.1089647327792658,1.1047384292486893,0.7304614229692554,2.8799685531297534,2.5151323174648645,1.3633742524874388,1.1632887777397733,0.6713451011121618,1.7310407341933491,1.2222708234766895,0.7889686731710127,0.9422173933844631
103,1.2680452964648254,0.0422568393650834,-0.22304834899119808,0.86473081750594,0.8639416131858383,0.7537633808459346,2.978406991835152,2.7052212561468765,1.4058173741511315,1.2223867140855407,0.6207552362147116,1.6634835289994878,1.1680534431757843,0.9416907415088103,0.9316000903463042
104,1.4047256561344683,0.0029255713395455185,-0.3115855238660451,0.47405747098288004,0.4238055043385889,0.5424365374481146,2.6406396166347634,2.3519128148480206,1.487323157249817,1.1356453196252594,0.6509067234006624,1.8348757603016832,1.306524752398227,0.8402107795349512,0.9361924214465485
105,1.7023097875947428,-0.20495884136513087,-0.6655751725609163,0.4644173917677582,0.4391803450438948,0.572642343042113,2.71748348332988,3.005488198473127,2.099093631701908,2.167534885340957,0.6068309995095971,1.7339309096155826,1.7182089507841476,1.253464722910132,0.9203874035296137
106,3.0806485089097393,-0.7512415467948542,-0.9225774763794373,0.6898140608633523,0.6800118154448141,0.4602997641835706,2.619118279296981,4.461347043394708,4.849980407780414,,0.6584896970785714,2.3920236556412866,4.572890037180799,inf,0.9554666700419191
107,2.945988587610687,-0.9005626752984203,-0.8106463286761945,0.4285169543139962,0.3925060937541117,0.4215901609777432,2.7850881719125518,3.960447140162431,4.575090242198098,1.7937929754262456,0.6284777104787076,2.0808647762200243,4.363855542832471,1.4364841056437458,0.9466159881794736
108,1.9700288819376235,-0.43923956274216935,-0.4209254717692264,0.6808253811225384,0.669329351807816,0.4838174963582255,2.8184401723262122,2.9192373449023212,2.02250048278964,1.4629518151854854,0.6619902821573977,1.8756484532368822,1.7280731925367472,0.9296448080854783,0.9549760383227404
109,1.3549210740931061,-0.39056860500691054,-0.19525654694003197,0.9000829899813494,0.8732928534671663,0.5519691975724212,2.8737846582359325,1.7595678198424776,1.212547187262544,0.8318917886701402,0.648888643467878,1.497697789812235,1.057488272988182,0.6867309612144816,0.9441058996207149
110,3.1224077402368198,-1.1355096144545416,-0.5102856256362336,1.236456200588514,1.2294883032630126,0.6480285418117876,2.6612817988563657,3.2217357530293356,2.9078392011670036,4.92537279782259,0.688071247053758,2.462362685353106,2.439418203831068,4.559873911072915,0.9260586891321682
111,3.001122291462181,-1.1273292398547339,-0.4139217029550994,0.9023459578558185,0.8979397717652633,0.5607489911247926,2.1403320771072614,2.516522422392689,2.3175095014992633,4.025930158075727,0.6566669596287297,1.9597048600775024,1.9618074713717593,1.5276279248333586,0.9370592571142523
112,2.324746223770572,-0.49070628236653435,-0.7071309478473281,0.9856426064692886,0.987857728918438,0.5644439987802351,2.358324511436641,2.5407012852571973,2.217361376331466,2.113373770998492,0.6699045166045591,1.7115936922047847,1.9077596992605412,2.035638919021443,0.9386315657437162
113,3.2151243886877587,-1.265618189188722,-0.3810444466831856,1.3928694063388491,1.3681185859662688,0.5190737450926499,2.3380315131008635,3.124182391453285,4.88874806441254,3.474539915565128,0.6309483474627791,2.337751812473196,4.615465840585698,3.355735007585398,0.91690521664805
114,3.8514918770014783,-1.280246404939957,-0.27318865211730586,1.625424247017071,1.6262745500958005,0.6334965205805644,2.338172668896877,4.269081581785207,3.147089223679753,,0.6468212168108125,2.5839170001211,3.100062847238921,inf,0.937886310814796
115,3.3527424667803816,-0.8559346004610069,-0.038130057347094896,1.632757102316673,1.6333964086429418,0.6905110702962673,2.520709382839877,5.172955180641929,8.739561485852033,,0.6447042257417027,2.6613256609293408,8.053092107823115,inf,0.9137669255302667
116,2.6928026758895967,-0.4812400876413749,-0.057320447536544486,1.4951805389899582,1.4838549983886946,0.7822042680981144,2.503157567909935,3.290220929235397,3.078285604750904,,0.6528756675646988,2.670112361761818,3.0641293203790916,inf,0.9068833143599285
117,1.7666249270860688,-0.30433328046426367,-0.10694401992918506,1.475042713441298,1.4648513728055879,0.791101347751772,2.6930392162398475,3.695860074454691,3.9548519561334006,5.219046499942637,0.6584896970785714,2.220288516934771,3.574148325989561,1.949566460258424,0.9126228716199639
118,1.9622506426351438,-0.34363593451268115,-0.11358725470609124,1.2673488496271141,1.2550872211709425,0.7246621236428573,2.9085415513826707,4.590584566428438,4.462769004069118,3.9729814801313967,0.6528756675646988,2.265289308250349,4.042409213237855,3.4904285153900982,0.8842825909938121
119,3.219708745730945,-0.8731707544059356,-0.20189661152667482,1.3214341568802366,1.3072872071534674,0.7412111079523414,2.2959653851356028,3.7934120074409186,4.868651125592336,2.2619833675478005,0.6509067234006624,2.4717930106426174,4.091584852211194,1.7996646487351682,0.9232067073546234
120,3.444774700955295,-1.1279710119787543,-0.4221776034511285,1.0845738483486327,1.0945866234827035,0.5185889031075505,2.34458353672714,2.7115138876379548,5.108378790787144,,0.6284777104787076,2.400688057883602,4.730210772412745,inf,0.9311187630045957
121,3.8338807587852157,-1.0561555746035494,-0.5412947415569571,1.3930030583253574,1.3843732334940906,0.7356280121897188,2.3757630562346974,6.15948319410459,5.497245613009078,,0.6180765742263259,2.645544995750813,5.235659428945428,inf,0.9199717539549497
122,2.266727055856668,-0.48409823546295094,-0.05236050108979384,1.3979533432984839,1.3859929804750009,0.7643537300192497,2.6814592611596813,5.990742022766511,5.259773556769217,,0.6528756675646988,2.3569239560938944,4.719907652932177,inf,0.8983117749377136
123,1.6599987609252054,-0.33911413054807293,-0.30035139974920555,0.6758351894650018,0.633605999314417,0.5967003680881716,2.7302551196889486,2.22167320506233,1.2883678871237163,0.9708742212086952,0.6528756675646988,1.678490309502188,1.1987678092485936,0.8223452987261304,0.948305323041678
124,1.388139551996596,-0.11382928629412647,-0.28694991771013334,0.6131461670328074,0.573844547508602,0.5837822474095495,2.8897636147917267,2.722983175001378,1.4857585959152304,1.2689778696280365,0.6233814453054027,1.6059440231798447,1.3167443361928632,1.0232361977311195,0.9254944426633168
125,2.568080281012766,-0.10447384312295083,-1.133231061012362,1.047879630919937,1.0316192043865156,0.5652420389748191,2.486262660637964,2.37952783411841,2.770416354321636,4.325676552259497,0.6380535849069913,2.21865252474984,2.6861223786469384,3.5070577723616325,0.9101875829106514
126,4.011657036308042,-1.630887572534791,-0.5414953115377741,0.928943445907699,0.9147615883748375,0.5607908801016189,2.6291799446843034,3.317883248129892,2.342280667781054,4.862371556003905,0.6125606311107803,2.5800968367917494,2.272111220709988,4.9459189793765646,0.9209782469865221
127,3.7915642008332306,-1.4195521622420981,-0.4717568346365566,1.7471742794089906,1.768539591464901,0.68941916151292,2.615435466163298,3.054788911143707,2.320599903053388,5.373197179769895,0.6180765742263259,2.3140955290676346,2.3215338644051653,5.385641194719711,0.9346457660349825
128,3.9133717772017533,-1.5242131581392018,-0.24467371442234512,1.7600432725309516,1.7623863100054387,0.6391705927677278,2.4576258534620483,3.0261908214680036,4.432521275065088,4.588419676364026,0.5978297680564633,2.373246021581694,3.2535754119383786,4.68213122712422,0.9434328272538595
129,3.791134194157955,-1.7066613030143305,-0.413080167172,1.1537099641226514,1.1644365598564612,0.5324453460725377,2.889659480222114,4.132757189265379,2.3346156727324985,2.4332284807343587,0.6357360191111145,2.3496767005278962,2.3209212907826506,1.9086532206995543,0.9431147319112434
130,4.005015388024553,-1.5229220805605732,-0.6582207177673668,0.919876812730086,0.9219885369519577,0.4536465863953366,2.556110318174568,2.7519298307627054,4.0668097305547475,2.781392735005183,0.6068309995095971,2.4665429657710423,3.642704616993323,2.353878387381596,0.9547064211961557
131,1.4752437509643923,-0.2339595946036258,-0.021749322230202213,1.5900881747483882,1.581833259108858,0.9126187197219475,2.089499505241742,2.7049244787763342,9.073098199424036,,0.6125606311107803,2.3277889473573357,4.8456694973578065,inf,0.9366801840613818
132,1.2116138517575854,-0.13206906467324392,-0.06693790545077746,1.6990942363688142,1.681292879612372,0.9337508621411559,1.786787600498895,1.926499671976641,2.489553370988203,0.784427415149585,0.6125606311107803,2.108939012468859,2.2355777734553706,0.6236977922880739,0.9323617150793054
133,0.9752093534034092,-0.08240773600465108,-0.031366688559079994,1.7097929710453252,1.6942786766948652,0.9232223017091499,1.8204535524112808,2.1964825092980114,2.851041661153224,,0.5883313578629602,2.617600298180138,2.5874291339443416,inf,0.9226850194678443
134,1.0903409123349634,-0.11043599540528495,-0.05393605526243031,1.6789665353805703,1.6821567389217535,0.9495594911140537,1.6140039081305977,1.5532344699577396,2.3813109500645493,6.810035706824404,0.6333676938231112,2.202840316121855,2.1030486615711035,5.492238059185343,0.9283044491180334
135,0.9718010573119091,-0.07418848846458324,-0.05022320596734335,1.6657645699685713,1.651251884258902,0.9486102331324379,1.6179823855102173,1.7019680032215132,4.046472672143268,,0.5915533975974677,2.412772052028801,3.3671717835929638,1.4687380303309652,0.9298971711229443
136,0.9205543225689544,-0.10968501647072687,-0.012280083422302909,1.6299868366648007,1.616996310596188,0.9199062305315535,1.6681051185484463,1.5074999149993324,2.0742495499317832,3.371760046500793,0.6357360191111145,2.18697726088467,1.988577356762974,2.4613257071990935,0.9268566438296331
137,1.5515220108306964,-0.21946637910886307,-0.046837005761562224,1.4012319242184574,1.3694639373551576,0.8485448442294896,1.7525024557354305,1.5946125355974927,1.8250699804687034,5.538477270708999,0.6468212168108125,2.238880252605052,1.4793135891776596,2.918686483064026,0.9380247191128854
138,1.1746235917311751,-0.12225878086043604,-0.031113561638575135,1.6266117476390771,1.5967592778522604,0.9033570198519654,1.6588444729168283,1.5965807421347966,1.762092148472327,1.2618111516929433,0.6468212168108125,2.388869461591058,1.6328444095961352,0.8390656673646849,0.9319652652740326
139,3.207864711689773,-0.8546112321674558,-0.33454654466939104,0.6036353005934564,0.607147674521011,0.3969306521939643,2.2625782204752385,2.162896416509775,2.2325169899731425,1.693709516869263,0.6357360191111145,2.02554275564661,2.0212822906075143,1.0562911006362965,0.9673649444106959
140,3.8174543890376214,-1.169585690032711,-0.2873789103509676,1.719721446447297,1.7236694931581007,0.7840408364181439,2.345084442780801,2.6953869384549214,4.459575084270393,,0.6727386042041725,2.3361418765228885,3.199305283314098,5.872117789475416,0.9595593933217779
141,0.8935610839399303,-0.07446342366166085,0.0,1.7401219123811082,1.7067010024533353,0.9412804281267702,2.1720450922722203,2.1229190181590716,,,0.6233814453054027,2.793245047165442,inf,,0.8967426879494693
142,0.4083144973021265,-0.022445815931329483,-0.011798798851073855,1.743537996788149,1.716699623718604,0.9252419820294794,2.291488871837076,2.554383212535492,7.374668413606873,,0.6528756675646988,2.6399243720546095,2.527364732087023,0.8836895704987572,0.9036266830534525
143,3.198744657854647,-0.7764111903065044,-0.16630164468051745,0.7198220676581476,0.7239566841613567,0.4877449769672665,2.0889614891135726,2.2202511486786976,3.6220338297496015,5.617317332416775,0.6602640781246099,2.1548358108444328,3.106399880799072,5.453182077108952,0.9589440012114873
144,4.14504709283724,-1.1495914139478864,-0.1438890687397047,1.7470695630348536,1.7512256085476012,0.8286101468210503,2.0794337227470505,2.947677798504806,7.141274782331145,,0.5947193981915972,2.873318003330337,5.489724508258642,3.044522437723423,0.9002385412386001
145,0.6461670919095864,-0.05853048766669167,-0.019009563362458702,1.6829443127603896,1.6597675401885277,0.8862118705214777,1.9335289848918351,2.344294667982995,2.9110327339174153,,0.6097226960127671,2.3828315251217034,2.908841298707665,inf,0.9174496615928209
146,0.4099844568386626,-0.042365060539995135,0.0,1.7079337979519917,1.751382114410384,0.9095064863490973,1.6533367833659351,2.0437663999731663,2.2309673509752366,1.0952622017828277,0.6403206450210053,2.3708639337473403,2.237645153506266,1.1019623755533916,0.9404373241015676
147,0.0020983822790490844,-0.00027278969627638096,0.0,1.6656001912114677,1.6582784263918122,0.9551833697561786,1.436526670379293,1.9339667523064896,2.0594914667321764,1.5953278024348314,0.5677978065141052,2.0422742173383965,1.873087689355264,1.1019623755533916,0.931074316571121
148,0.09868566500984552,-0.012171232017880947,0.0,1.708312803148226,1.700670459531371,0.9296077884347006,1.5948516469616947,1.7364432043961058,2.4815677485224854,,0.552929491858785,2.120263536200091,2.488245551053515,inf,0.9189623728083333
149,0.38099321075572196,-0.02681545027038635,-0.007473938697628629,1.7091861444632728,1.72062731834076,0.9051351647710558,1.5734670710534124,2.0531577047334464,3.2501728019174947,,0.552929491858785,2.5230932311732412,3.082353342762098,inf,0.9170530916032759
150,1.1363822468706588,-0.1297123659993279,-0.028467915445034127,1.6946426616386947,1.6940554053238226,0.9234593462272529,1.8426981771616795,2.1113984011166633,2.6139407063389357,5.7755853623735804,0.6068309995095971,2.311513723738347,2.369817823215308,1.3012833848773442,0.9519791244304969
151,3.272085581708937,-0.7700948061001562,-0.14290048309056677,1.7535400082671364,1.7715293088825974,0.7872223882887287,1.8942946284915625,2.450062652578116,2.5204986121493915,6.446924825122128,0.5883313578629602,2.4267635357392896,2.4513825753108875,5.430806549594116,0.9453417630523813
152,3.712974996769408,-1.4115488225958077,-0.48206592122547764,1.0576262505022196,1.0710637400492027,0.6768501885169477,1.3869213942915666,1.5314974126161625,2.1950411643930297,1.8388450248188004,0.6403206450210053,2.1291921669443923,2.0594630747489497,1.5018820062128384,0.944003944897789
153,3.123947540422538,-0.7868629617827131,-0.12668824625393008,1.6514427640271552,1.6547180117233473,0.8588098975807374,1.054658272484991,1.186994156729298,1.701068203244016,0.7859891933439744,0.5978297680564633,2.178500963338117,1.5535179834364372,0.5430484508778044,0.9382815440446883
154,2.037086105582246,-0.3852197767179965,-0.12095097137469182,1.4274929616590486,1.3952632852398112,0.870354620234103,0.7627980178578055,0.7911428132069508,2.1530772660521635,2.138219297288779,0.6380535849069913,2.2125412814481127,1.840661337442813,1.681039063249984,0.9242421781601154
155,2.207426051204062,-0.3670948459609773,-0.1355776529829223,1.5080621846445612,1.5135307620757676,0.9228028117397457,1.2610579751889335,1.1231863768038133,1.6529598545912148,1.0807388142994205,0.6038851895711802,2.1682484690997024,1.4678277200950838,0.7575732853070885,0.9286660499637077
156,2.025366971910597,-0.24887194346482566,-0.2375432249448507,0.6987862714233494,0.681901650923448,0.2389158324072723,1.013021072478079,1.061843076713364,0.891235595212705,0.9582189661723245,0.6284777104787076,1.0265397198764583,0.740397063920251,0.6177022973994741,0.9566822044083433
157,2.9444184196504644,-1.2385714411494986,-0.3044080544735244,0.5455710495860266,0.5355033394933076,0.38986997217126107,1.3461005178310803,1.3836119640613018,1.0125359930808633,0.7903288320110645,0.6125606311107803,1.5371172508544744,0.7818230851658415,0.499855223386627,0.9515339193280339
158,3.4359224297866957,-1.595789514593702,-0.29934741011252325,1.5213935221071737,1.5105868657734163,0.5972644914574028,1.1715045663770245,1.324752201565998,1.448106199216071,1.2547711226165885,0.6125606311107803,1.9091175951713582,1.1634957227185905,1.1648320879728253,0.9092031853075397
159,1.8683836855088964,-0.25720031207509564,-0.09511928865981682,1.587730916572034,1.5653451546496548,0.9069910334141797,1.2710269092396826,1.364182670242981,1.7748034305180462,5.567353194210853,0.6380535849069913,2.260270879053855,1.5686372196637848,4.53413441287134,0.9322879848201506
160,1.8029946959753598,-0.25553524831747687,-0.04828982145139384,1.6392890101373212,1.6427070808331379,0.921634119787576,1.4204885611545564,1.5605868621171537,2.090849883056597,3.054489316438071,0.6284777104787076,2.3170221407918152,1.6011307250118678,1.2146500622667804,0.9259477587128893
161,1.4538071015981562,-0.17496499418690062,-0.04135793765036785,1.6421613439188407,1.654670606307124,0.9471207510729832,1.3309114797045531,1.5085741628008418,2.4941125297138727,2.7833631789924813,0.6333676938231112,2.453149618174809,1.9253277669879314,1.852937831575833,0.9274835092688883
162,0.8693715430758319,-0.09043116752777844,0.0007904671890250443,1.6228645012549756,1.6154112714278777,0.9248673078121091,1.6534894429264355,1.8959455602803417,3.5648446615198455,,0.6180765742263259,2.5477754545669917,3.243018397078839,1.7047480922384253,0.9117281851513083
163,1.3634431207715698,-0.16643967450376254,-0.08793992651900608,1.5131266675760802,1.4618771351213344,0.8848859654435167,1.4346449780952573,1.7288382179544812,2.3989516123001913,,0.62595550513784,2.172141796968756,1.7691955961281651,3.162162463011311,0.9079284211981105
164,1.1395463899481786,-0.11578080235076481,-0.014095971498871866,1.644932751308351,1.6363015600122768,0.9495483604180139,1.4278650291386747,1.6614192371904657,2.04665391262565,,0.6284777104787076,2.442485933904048,1.419160864199031,6.159623790089432,0.9003071893521191
165,3.348212631426856,-1.2937092068635694,-0.1792380988091617,0.8862430788927097,0.8708593785565987,0.5735184120875804,1.3228593353079625,1.3873715982521577,1.4945520092072202,1.2295649586095647,0.6333676938231112,1.8588256265927308,1.2619660915884199,0.934973362073475,0.943307180739421
166,3.5714558058007073,-1.4169849464902893,-0.38890337341473413,1.6116208536256487,1.6177107704143219,0.6981914539485049,1.4201554003396755,1.3560273998714776,1.2381013711930904,1.5471810843863445,0.6447042257417027,1.8450196088689388,1.1616612714276089,1.2572664663117328,0.9371634817946302
167,0.36623261297239795,-0.03653161610323048,-0.003669962173112648,1.5358986445121132,1.5269871372608126,0.8792696201728745,1.632759214937149,1.7663348165496113,2.832424146457688,1.1349957010338574,0.5947193981915972,2.3578629232990322,2.6511070914781625,1.090327237134003,0.922836152536929
168,0.7895238735859025,-0.08320453593208348,-0.019433567634083857,1.6439979422462807,1.6123398487194456,0.9391514766404548,1.6414562854602608,1.8667261167494202,2.3273379557543152,1.6145025802431228,0.62595550513784,2.3224477220902973,2.0246408612223035,1.3633828794943965,0.9281616767922096
169,3.5614842864867864,-1.3325193509963777,-0.14067075587906952,1.1024627942543994,1.103647615676963,0.6508664917277596,1.5571495634049137,1.244944336193243,1.5966270299258065,1.014360493499161,0.6566669596287297,2.0824683400380306,1.511505056321938,1.017885777778919,0.9325699987017336
170,4.073683514072624,-1.697152849003862,-0.22739405526123604,1.0946321223489224,1.1174294845024093,0.6747599919097386,1.4819380702721565,1.3781538992888716,2.4657981997871548,2.854201161816819,0.6425374456860184,2.289997977488574,2.1821965258087173,1.4886330743488005,0.9291992362894587
171,3.516780878416031,-1.0667000545653047,-0.3369218740185457,0.8178812976579698,0.82143888370182,0.6421658811314711,1.4849485638579896,1.6483349672412844,2.5898285995929107,5.466970080255334,0.6380535849069913,2.2387760044944547,2.1748559695947582,3.438584913733776,0.9386333860221473
172,3.544353480175308,-1.2911107407228115,-0.23638327752351646,1.5590839255161208,1.5651867297615962,0.7968085045220152,1.2040526015710948,1.1744944259428507,1.8982970439760338,2.1337059523330946,0.6233814453054027,2.2088923822039015,1.4943113991981882,1.183740040351616,0.9209780947544568
173,3.220096005814992,-0.9133387435427025,-0.2843894433265214,1.2343851265418635,1.2371952696449422,0.7351234051628605,1.1243584501962,1.2969996829735593,2.0840878625157875,1.7408610825837558,0.6684167106117298,2.092774475979755,1.852575533564458,1.1414466455176067,0.9469526445634345
174,3.0015237171827813,-0.5608682114008647,-0.8376400877801855,0.7986282461027493,0.7385340703801324,0.5730062596738686,1.2740477679119893,1.6386658973598274,1.7355288975102379,2.1298537909933546,0.6207552362147116,1.818377267132347,1.6436322539265658,2.06781964647385,0.9574301432056644
175,3.039185356644536,-1.0751486986144194,-0.44673318472936663,1.3910590408513834,1.395544158403288,0.7567783219819841,1.173799565656306,1.4208416364335896,1.8578180675634108,1.6601783810848505,0.6153451465759925,1.8054527963600575,1.4889850487305643,1.2619421767280377,0.9411239837137185
176,3.7123889665724175,-1.4309117301558092,-0.4198302892657978,1.4672633319772403,1.4811449353957737,0.7484698728057828,1.3833960359080224,1.5011688623466586,2.242165295111467,4.5764102941527955,0.5783247308855777,2.1777161109481766,1.8942148564370243,2.96618612946018,0.9598525561732271
177,3.744477916996786,-1.487954240066212,-0.4674463321441583,1.624645728753374,1.6241841307342741,0.7673481450779303,1.5017766442804745,1.4611878146069683,2.171532870153485,5.511756235071384,0.6008849035917525,2.3246035066660498,1.9978971486938049,2.642413037462231,0.965186366347761
178,0.7374223201400396,-0.10852216330326625,-0.0019838879627686653,1.7341943485255062,1.699483822669632,0.9262857463784216,2.0168153699468894,1.8498185095335042,1.7186986270524451,0.8762763514196066,0.581717464821069,2.1619539632543003,1.6021280789809011,0.6993956988476735,0.9074075355548578
179,0.7508772949958943,-0.07850085213746573,-0.0038331798129714392,1.7613576697733915,1.7437903570941975,0.9200679600958899,2.1852342585523687,2.0259428219160376,3.5910931586322823,,0.6403206450210053,2.4674597361842796,2.8601720180325323,1.9527988100504987,0.9098620557961309
180,0.7448895917969857,-0.09823089365807067,-0.012651073660226077,0.9831527154555856,0.969605856605377,0.6990955708813505,1.7787151754102883,1.7893987267318958,1.9437368586453887,2.0570635551900422,0.6447042257417027,1.9772861569709579,1.715155188709339,1.0844402179897337,0.9264895213199394
181,1.429267359920435,-0.2166187967308255,-0.006691656854864555,1.6990407244391248,1.692703198655253,0.9266372389206876,1.9018851022955918,2.0295151439851074,2.6124179183004643,4.88364895445119,0.648888643467878,2.2886821878250543,2.1031703410001183,2.066952530109061,0.9259386426898566
182,1.6057987642970049,-0.2081808842765411,-0.059083636300571014,1.7253227594467924,1.7149605199808011,0.9184331470227721,1.7037893727509819,2.139214694587194,1.9026428990919921,1.853197100624709,0.6125606311107803,2.30080889359279,1.8295083290881284,1.6899990682312342,0.9382943586595767
183,0.6184928400034723,-0.06166217282605087,-0.012556967974365797,1.6753444267546613,1.6774964793172558,0.9224833569956646,1.9011165516739743,1.7786415317611184,3.357418024724774,,0.6068309995095971,2.2972659315164456,2.705070559765115,inf,0.9265849149691466
184,0.5035352776378228,-0.07385184072021402,0.0,1.7029250709357262,1.699581725962322,0.9420123402905649,1.9215490374376658,2.303095812852952,2.2988294382321888,,0.5883313578629602,2.0153197740386073,2.305507240763218,inf,0.9171755484953601
185,0.5429117194523368,-0.02979391579049462,-0.03123166453700657,1.5781054547595013,1.589147747280813,0.9367464406592537,1.650346465717781,1.8453884631938102,1.696578865120726,,0.5748741956352443,2.067073892871174,1.561024088982903,7.08631978689838,0.9239261010903447
186,2.9002249233247666,-0.5043074659979884,-0.374081037735377,0.8528566036673728,0.8506313439188972,0.5706634922122723,1.6604631153650031,1.6120840794728852,1.9298166026327612,1.9282449531434211,0.6038851895711802,1.9677809134735298,1.6569767729991778,2.112926339859175,0.9587267570408381
187,2.869320826272479,-0.7846590315839466,-0.17688065868710048,1.3818260061111125,1.401993066789414,0.8035660132578977,1.9155506890540492,2.2308314336636186,1.8551363912171188,3.8270767546901476,0.6468212168108125,2.074387667377157,1.4940456336609123,1.5606102241084885,0.9454115300034894
188,2.5432316638769192,-0.4146506496036763,-0.23857291785581425,1.63497379471093,1.6502788708768794,0.925049480148364,1.5255357773551506,1.6608928038477726,2.9973669340134634,2.843180222770864,0.585052858160615,1.9982917547370678,2.4217829475743438,1.729994874973209,0.9322010957178845
189,1.1728095099446085,-0.07341883664666682,-0.08094862880788302,1.5651071984832332,1.5347449056598537,0.9523970963234479,1.652269542077883,1.6280687352286731,2.3391972568430637,4.725836608137969,0.5947193981915972,1.8442464582417768,1.755401862144217,2.027173113134079,0.9258821008531998
190,1.196355179873533,-0.09072704870232298,-0.15601193149317613,1.3287276535249215,1.3058909487998167,0.841029030518225,1.288730547102971,1.616395441861567,1.4029752848664894,2.2792829754087336,0.6309483474627791,1.6884811197745533,1.3148353971377456,2.236731941511762,0.9474816767530234
191,1.4432013536146409,-0.12745342405390728,-0.14398813680041878,1.6077383061305064,1.6052344254618605,0.9431697373515112,1.4032572580469007,1.6103113791962778,2.020596817152367,6.783397061743341,0.6309483474627791,1.8970459135551558,1.8280365892227408,2.6198874135075383,0.8919065315066805
192,2.553368669939045,-0.46497142700724653,-0.13105002345462596,1.5222033852682393,1.5107695255806841,0.8330241103486038,1.9767490323374481,1.8845552777509527,1.543044428224094,1.51191658933365,0.648888643467878,1.995345521326734,1.3270406799111316,1.7033627306684382,0.9671295649844807
193,2.915053178273801,-0.6182300182682916,-0.08439781074793429,1.6307287344992862,1.6263089768057784,0.8401366602810385,2.2740264043795526,2.0753828928690328,2.321290215239959,1.0930452594947144,0.6425374456860184,2.2962717309374536,2.2880070960192613,1.067543908768775,0.9546769611757461
194,3.2555008360057998,-0.9383930242196712,-0.19610931001786763,1.2456293401597367,1.2616307565529243,0.745909460655549,2.0945262303521726,1.3154292005721908,1.7995389841992158,0.6075497534506318,0.6207552362147116,1.959783721321185,1.5616998262154722,0.6206516785217917,0.9452296890005496
195,3.4906784720659854,-0.968926549531542,-0.34324531697795857,1.2536620661874733,1.2574205975993653,0.7566453365558736,2.2584584037721727,2.2346083809268875,2.3562054243076327,5.410510722717883,0.5915533975974677,2.241176464865402,2.242759856308573,3.489641423653281,0.9287196774315895
196,3.8607002148797416,-1.1919021315272225,-0.23692842337200967,1.3980138377869422,1.3961159065434063,0.6514049920724738,1.9912660685556205,2.456481619426291,2.982938244005526,5.78631343461358,0.6068309995095971,2.6249352943917033,2.8372090463141233,5.25227342804663,0.9521657356231172
197,3.807044491942866,-1.055010883086473,-0.2581718438803538,1.6594007988121735,1.669522049146386,0.6954667594577764,2.531589788443962,2.5174260641293174,3.0985926885970274,5.680275182569256,0.6380535849069913,2.6153191018445257,2.7496130137854955,4.944020545014272,0.9475493600331821
198,0.5600337135124808,-0.048952432753764305,-0.016384833822691774,1.7427550951308077,1.7468171491677948,0.8974929370944355,2.4207401157161175,4.0894631518253055,2.6524990362653393,,0.6357360191111145,2.3497931759808264,2.1661458762793226,inf,0.9405594402706429
199,3.383936799001641,-1.3157798287459657,-0.27137673131840356,1.0864085250926907,1.0913935937928578,0.5962412244402009,1.7919175148701778,1.8543431177544571,2.114119543575788,2.9018272804873617,0.5947193981915972,1.8349453666776552,1.6609290619264083,1.4533522373635486,0.9539401869430852
200,1.560485736587937,-0.3135639016451441,-0.07784555030092125,1.6448924508218115,1.643600744415276,0.7507934463318217,1.3259499382060758,1.4231278538286056,1.9554146371073902,1.7309920741872151,0.6333676938231112,1.71881884482634,1.6777227252996214,1.4166099194366624,0.9428864943373572
201,2.7327860513896316,-0.6157513822517953,-0.08213584383427147,1.6582955105270472,1.6637879303636385,0.8574147987898925,1.6264605884806207,1.7042894181014674,2.8801391860142114,5.5167587467543555,0.6447042257417027,2.304141859682297,2.4466965654517137,2.352661430974222,0.9247510543569231
202,2.996168396153099,-0.7682973700616764,-0.33240374555137125,1.6007506121609756,1.6003371818944578,0.8676312341185527,1.509567869012301,1.5980223248684864,1.6517468651832863,2.2601958112106897,0.6068309995095971,1.956791357485049,1.360984416038034,1.614356459085229,0.9197042839941169
203,0.5163263571684618,-0.02795912823794946,-0.02521057171089057,1.6144783412926604,1.5841439555865202,0.9439148696948647,1.6079618963563547,1.6035538956664446,2.7529597673616744,,0.62595550513784,2.348978132563756,2.558799776092792,3.9348376831943175,0.913812556629638
204,0.637471381916117,-0.0529690180143567,-0.02256056902327313,1.6397710465210031,1.5786387602776109,0.94949532621206,1.582849619217315,1.6426839220483536,2.641202332123368,,0.6403206450210053,2.2539007545297762,2.263055074635459,2.6859165007562007,0.9156837270660344
205,0.4449810796717247,-0.004916779201908146,-0.04450633392309996,1.7142354493008929,1.71099533841028,0.9439948533400273,1.5999532280449908,1.7719982193122463,2.4304501440224002,,0.6180765742263259,2.1939300103867896,2.016948368091263,4.894101477840304,0.9238818324642697
206,1.3997981728299604,-0.13707375486808268,-0.02654054016744153,1.7366692967981656,1.739580647756429,0.947333714977957,1.702549124492372,1.7467386555028148,2.082504503280403,4.071896031483398,0.6333676938231112,2.4671977160072274,2.0286199330535006,2.3684525179816704,0.9271921038327267
207,1.2492623416532678,-0.20855516063504753,-0.005048408772942992,1.7360335294532687,1.7232922806788706,0.9516190787359321,1.6972389186934542,1.3562650965046814,1.868414314829193,1.566085994268934,0.6125606311107803,2.133686556532232,1.488989097125072,0.9379461560697187,0.9271805952526398
208,1.0568043750733656,-0.14888417713864754,-0.04314148548922073,1.7064206783287614,1.7008791377043713,0.9201030403355457,1.6530940879606602,1.6394005475028512,2.22765881002415,1.8785362941801549,0.6125606311107803,2.0839851817297084,1.9984308096271184,1.550597412411167,0.9432290838575313
209,1.0038745404252138,-0.07153125182216835,-0.0748022786049253,1.5564965439827159,1.54004640046265,0.9512579462800981,1.2929960375529237,1.1986683814175476,1.762066750464376,2.1685613245152275,0.541134803179459,1.720555710221723,1.4146940911346577,1.2049952993025461,0.9379879755217082
210,2.3400053767790947,-0.3993659030878149,-0.301642078262268,1.0648316932317003,1.068691178355027,0.6589659778819392,1.1531393879154423,1.1353136845815586,1.4110726382668672,0.9647846563667619,0.5883313578629602,1.9092675426900074,1.2362545626554533,0.6641448934451576,0.9680545888260068
211,2.709309443665539,-0.851744109503616,-0.1742981581834219,1.3007604994448727,1.2958542446375787,0.752197021057846,1.0620230243563442,0.9653626508920126,1.4348574262995382,1.14854226220623,0.6333676938231112,1.8196103973838313,1.257331931595703,0.9711549820772467,0.9537356845078175
212,2.5989439621967163,-0.668117066955823,-0.18636247107075107,1.0585393542348056,1.048437536408024,0.6250596212923395,0.7755272400859236,0.8779770312273185,1.5894529543568552,2.5458222529558006,0.6509067234006624,1.8744167029090644,1.4119650043245096,1.9267778509741558,0.9125396496300504
213,3.0440474895027267,-0.8679015545444857,-0.16654596942637992,1.585397330695234,1.5815395685911677,0.7626092188158917,1.052633075178043,0.9396488901577977,2.2046957023055263,2.515886284134619,0.6425374456860184,2.0486321732863924,1.8365325446388847,1.508685075344323,0.9167669163585939
214,3.586291254969467,-1.1534979979459505,-0.273315070902812,1.2356982508541507,1.244988154015778,0.7111009660395406,1.2857571504896146,1.4189476327340373,1.9403325963073172,1.7541259857948848,0.6233814453054027,2.029847467928087,1.8445586739287518,1.8030590244819884,0.9391304411084266
215,3.221082043994139,-1.2432173488977412,-0.31090762285499995,1.1575460584555053,1.172271124170481,0.7166958587128572,1.3950381857847018,1.3358625917557232,1.2977008698281471,1.3204782894250653,0.6447042257417027,1.7478063816995921,1.2117011150314347,1.022699565554224,0.9328802230499861
216,3.0457379875142854,-0.8180110964690266,-0.4788308099283081,1.5175206942828212,1.5115817642069322,0.7032102210674421,1.326544504170939,1.0459800482551187,1.6505148986564544,0.9479148122098353,0.6333676938231112,1.7782511192032628,1.4489929553354546,0.6557596484883249,0.9442228021957138
217,3.5193459597805923,-1.1254035653526135,-0.39392610831922537,1.5000135494463651,1.5043257224718143,0.6585577672073956,1.3118026478148683,1.6562147102891245,2.3788023532618143,4.516174769490697,0.6547956803312163,2.1966247572642517,2.1889637689759907,2.457628231604324,0.9139998475186019
218,3.931657490093779,-1.5261910521151736,-0.37627216438855554,1.234883057018258,1.245307777327585,0.6745591584977789,1.9233093225715443,1.7702927040024392,3.007365926456425,5.255990015134322,0.585052858160615,2.0322187427519527,2.680784148039354,5.308267697401205,0.9536898075223322
219,1.970602586640393,-0.39266908834169156,-0.4058950158217378,1.2585444681372229,1.2559238108208344,0.7424163961717571,2.731502013660073,2.948548138245394,2.0609144334346507,2.0883841449797256,0.6652988471865258,1.842211012724153,1.798513399502736,1.8345953496375023,0.9433703149153657
220,1.6070819710137896,-0.14670120018970334,-0.3718080876798688,0.6467030639195068,0.6365789614371222,0.6165102200625542,1.834725741695278,1.6124393658120968,1.4133184032361474,1.5528659086233634,0.5915533975974677,1.681590532577924,1.2016070215702404,1.0924754783564377,0.9544970552903906
221,1.64013295510491,-0.2642051850766701,-0.3673455569685314,0.8757138186248891,0.8490281974058953,0.6028768447598459,2.098864037083419,1.4543713712422481,1.2017980889896998,0.7810487468094204,0.6207552362147116,1.6119967389957683,1.045043541198697,0.5228819612135079,0.9456497917579066
222,1.8074189881574025,-0.2264586952881309,-0.36971466746925163,1.093553564738266,1.0855207784231764,0.7292581195398501,1.9560585853734345,1.3650343798323399,1.1322372933797709,0.8452773455592772,0.6284777104787076,1.7808854726761767,0.9397435106328935,0.5693252195371034,0.9461592622778198
223,1.5604801854310784,-0.22514347553407532,-0.29467437819633335,0.9413035015322222,0.9452523013285142,0.6821684170826272,2.118142027649845,1.5178366653197495,0.7916950591958754,0.3836445552802191,0.6528756675646988,1.6976621458489394,0.7136223640684471,0.3190113001321431,0.9406445378998676
224,1.5435777607543273,-0.20152731998741413,-0.277190883055921,0.6032504444098312,0.5963407854709994,0.5931459073794144,1.7114921625530357,1.4608196091191785,0.9460781608880462,1.0058016528634601,0.6447042257417027,1.4612573995933458,0.7698342472544508,0.7258473553204812,0.9293031497609353
225,1.9794633778783375,-0.449771112738105,-0.40306695266402687,1.3345759815427083,1.3248656695105954,0.7590746549250017,2.3428721042604645,2.349752558554596,1.5877338206282918,1.394361710934992,0.663668482632973,1.761812392860103,1.4410807275014883,1.2348811590492215,0.9446133263899
226,1.2942201766839474,-0.024404780007470595,-0.2575004812221646,0.42565789603278564,0.3933865017089999,0.46210437652608344,2.2441960197467727,2.027878765932298,1.1298686236848385,0.8853747669213727,0.5947193981915972,1.5319626002658098,0.9617829981893949,0.639462344100906,0.9413470654595367
227,1.846224969375677,-0.22165770640401594,-0.2957898367475267,1.0174348591209146,1.0068718552169453,0.7186174484100405,2.133754750338007,1.8003076845799044,1.7992860796321264,1.1880124962443714,0.6447042257417027,2.052518356336961,1.569325696440817,0.9944994338084386,0.9415984700190183
228,2.8133440961479157,-0.615994897722306,-0.6268370074180093,0.4865837383371254,0.4510656567647754,0.6017552218204694,1.2687402356585675,1.1758317682095907,2.446308852513502,1.6479943302516573,0.62595550513784,2.6177525631214293,2.26771958802082,1.4040989857533974,0.9459637606713038
229,2.228078403207126,0.028685456902227013,-0.41005952178394756,0.3725546331919629,0.3566319076974477,0.44137635349521004,1.5501351604614002,1.2013469076493006,2.7832180372591537,1.45599872332342,0.6233814453054027,1.703931758862535,2.484723482830807,1.2324577023346224,0.9488672020302727
230,3.2740197308508847,-1.0319306752540989,-0.47682743576544573,0.9443584797704307,0.9329683995802797,0.5833288693423738,1.2391926852143083,1.098571773708022,4.583717097874908,3.799962315999756,0.6333676938231112,3.0105075591361454,4.1485621481268975,4.248495242049359,0.9388111267857294
231,3.522040656646594,-0.87663824052379,-1.0135235785432155,0.08929447972312814,0.08800725922692995,0.28954513197254056,0.9818012815460366,1.0628569195811708,4.055181304546583,,0.6038851895711802,3.0552464010863987,3.6888794541139363,inf,0.9474588963902375
232,4.314949156207333,-1.6229338686804227,-0.016746810678363686,0.8482494036804491,0.8481716056760736,0.4693433323160547,0.8854121774340096,0.8663250531120789,6.672921383313354,,0.6447042257417027,4.034818582908073,6.679599185844383,inf,0.9424779249683022
233,2.73479238717428,-0.7724069232864522,-0.5538447506004324,0.2928918707419941,0.28483606179464865,0.4451599261944534,1.3767497509222766,1.4013512863597366,2.7642396766314494,3.9522064175564324,0.6652988471865258,2.375155785828881,2.5236400265118393,3.4642466992482586,0.929963997327197
234,3.497154838803682,-0.5945163225966259,0.0,0.586614369727865,0.5833106129300619,0.6455851676982918,0.9115846528589632,1.0139698490594817,,,0.5915533975974677,4.429351206681703,inf,,0.9440371829509199
235,3.907812830173064,-0.8913554151175643,-0.03349362135672737,0.36467872920918165,0.3528170126890486,0.4373849375384606,1.0114679220251719,0.9890768602837592,5.624533979290336,,0.6309483474627791,4.166915255056936,5.631211781821365,inf,0.931867278171939
236,2.342050025214214,-0.3726148073289166,-0.6683466539527619,0.7668957951616975,0.7391176549251227,0.7042346720992819,2.4838282382600956,2.084155013969632,2.5873168470401238,3.3186125103667186,0.6602640781246099,2.2301610775824843,2.3336539227236934,2.461723314332343,0.9409873404249807
237,2.0080085938071783,-0.29019734819033893,-0.5257393560925167,1.112749153873849,1.0783316645363443,0.7990454751883589,2.742372813606498,2.6528971932317282,2.285984270161282,2.3859567423662176,0.6509067234006624,2.256337841828726,2.0611502717075845,2.027481802749125,0.9311071082381245
238,2.021961600083916,-0.1560380614914756,-0.3373039143503084,1.2511853529198544,1.2405800790267971,0.7792324598022605,2.412231509070023,2.1298636957341044,1.837419880562906,1.543272238620258,0.6566669596287297,2.3401715866561523,1.5971692267562836,0.9810192045746491,0.9498274576813167
239,2.026588859673392,-0.26804378360741166,-0.5341823121354213,0.9134344315567412,0.8820201425634243,0.7284336425640179,2.2591989097685445,1.82924358262761,1.8262278533186747,1.2556889334765784,0.6284777104787076,2.3616276336278292,1.612861966785993,0.7905885475313241,0.9464519609379287
240,2.256577675835009,-0.1636288413601903,-0.7959120502337816,0.47043471471186726,0.45130340950232184,0.5190869674705499,2.1097036552836075,2.0066390072113975,2.1311377973746497,1.3690344271343244,0.6509067234006624,2.4217440748303605,1.9593940657824063,1.1684936542161763,0.9502698496178453
241,2.3821716563870443,-0.26258332374998394,-0.9940921137924197,0.9996623445289491,0.9781825254550167,0.6644583117042733,2.352874354739377,2.4083367328791025,3.1111400120753987,3.034841635814721,0.6547956803312163,2.475616602880908,2.8822148911995367,3.0052110175085347,0.9411209957561966
242,2.0977652306638803,-0.322105124036272,-0.6147334143416716,1.3067596625292595,1.2975873764101655,0.6591378013966617,2.5743481273786313,2.699133841844653,2.777891548405377,3.5748326667139168,0.6584896970785714,2.4024054282762566,2.531268824683871,2.86297278370805,0.9341542056205563
243,2.0053544217268104,-0.3028094997090879,-0.4409393677776912,1.0672013894931387,1.058903504243175,0.6582168101448023,2.387771097657709,2.079297866513609,2.115955490767246,1.7513431177743692,0.6380535849069913,2.3011416907559923,1.8963436303856218,1.3239755967206324,0.9441589876120673
244,1.9960762867632633,-0.3543043741410822,-0.43784374440175367,1.4038598334665864,1.3930304796603803,0.7713263198589131,2.6032289398723654,2.5819261490680327,2.46558923292188,2.382062615464534,0.6309483474627791,2.2980398825750354,2.1712405827204067,2.0330097055785306,0.9449140356228249
245,2.2867328856940228,-0.46066284056768037,-0.5931602089503624,1.089558649913637,1.0753894840266878,0.7353497781751863,2.7484386058200436,2.6341450336220547,2.7808164408983633,3.588326371537026,0.6447042257417027,2.540137510787419,2.489001254873396,3.011130353665113,0.9409081082396196
246,2.201948702696744,-0.4087722659445332,-0.42022393413337955,0.7279551928635826,0.7138957204737836,0.686099584816271,2.4743377057614246,2.358098175531888,2.723397854807013,2.476067437768687,0.6380535849069913,2.5311600343054623,2.515102437433945,1.9186512210826787,0.9437455533193638
247,1.9225824867319767,-0.33596985542735747,-0.45379820612575267,1.0893547822321064,1.060612827274629,0.7104714561347519,2.406412081978896,2.427256959215488,2.3191959393258244,2.322792372143406,0.6008849035917525,2.274861847063372,2.060281201711659,1.7494119213989627,0.9418782342294287
248,1.8535462109594067,-0.3442549253268511,-0.5864776747814461,1.2458940867316883,1.2418954431634972,0.6586672739822161,2.347502964018163,2.4282546282496145,2.3343037556958173,3.401336511541833,0.6727386042041725,2.1321861811569973,2.12389330425067,2.6971381676512274,0.9404777700827986
249,1.880167070583244,-0.32145367768920696,-0.37784561601072436,1.0763194688037148,1.0788856464314311,0.6450528556875078,1.9697604193767289,1.5995391028135655,1.8052115601400955,1.408237053301559,0.6180765742263259,2.0582455500547683,1.5669290636701743,0.9418438062987726,0.9422765129463028
250,1.878124030206731,-0.3147436495706939,-0.5461649159657562,1.1545863577579547,1.156711362526061,0.6701130562309131,2.5732479379450375,2.5496751371110395,2.15221809865675,2.121797524898466,0.6425374456860184,1.932785543614838,1.9110597372831977,1.752578675437666,0.9465943880359863
251,1.8625889300815262,-0.38028920444002823,-0.3799874345416345,1.058323269746362,1.0476939361671853,0.6277762937723596,2.3830991741911554,2.3533955031647853,2.3613534656902244,2.5046039478684614,0.6380535849069913,2.1337804047796847,2.1075185703990793,1.8729611494091458,0.9424431323911123
252,1.8561675099378017,-0.3559931469241555,-0.38566315128569834,1.098272765683405,1.077595940872752,0.6594281742841186,2.3622034987257914,2.331128745675715,2.478636262214735,2.382674049295873,0.6619902821573977,2.2153885479638906,2.248089193118984,2.099900121770936,0.9404823036991168
253,1.931245501032569,-0.3818768474433847,-0.4567939576016603,1.0608697775932026,1.0668246559234627,0.6334147218392321,2.511858266353933,2.5788048877437144,2.6718539352187727,3.300345776768485,0.6528756675646988,2.2864930450944017,2.3817352768608266,2.6617991834514543,0.9330862530269783
254,1.9918984013644279,-0.303915056911104,-0.5509084616136533,1.1979196052037981,1.1839421520586366,0.6836815201579074,2.2586945691797213,2.1558243192232127,2.4820239182255226,2.2946182946082887,0.6153451465759925,2.248096907709976,2.243744592971112,2.0178836486804026,0.9361638258796079
255,2.0375928623974477,-0.31781388356709606,-0.47704037913341457,1.113604959066934,1.112729489673003,0.6631165137315258,2.219978960123063,2.2100018182733803,2.2520229263853837,2.2250682281538325,0.6097226960127671,2.332128339801021,2.0570348104421807,1.755711610164315,0.9384651420295388
256,2.3004963718589053,-0.5621022322657897,-0.48669402447554505,0.9185884027250611,0.9012408314911229,0.6223310623914446,2.3044604788575036,2.1611893453309836,2.9325098036964303,2.7184863095746334,0.6425374456860184,2.447353993735416,2.6968126929853624,2.256065077359153,0.9476392325488442
257,2.1346758879694923,-0.23309851896981204,-0.3937699927869298,1.395804915080188,1.3807163473954138,0.7241517727132388,2.2778182536128426,1.9990471531202805,2.0506226132715932,1.9428662864878599,0.6584896970785714,2.3508420660018188,1.8510877069002194,1.5220554090716822,0.948999623835969
258,2.1932594617751597,-0.6261058277168327,-0.4381154203423505,1.2884179482826434,1.272396051257222,0.7268183865961156,2.6568154784479203,2.672815570297173,2.8006499342345803,3.3021238877605765,0.62595550513784,2.458199806959436,2.5441366843221243,2.971241253545695,0.9437637639814499
259,2.135730381263017,-0.49710667072399195,-0.41229914784439264,0.8262791824480686,0.791538173903318,0.6756776839956918,2.0077483613748752,1.764719662848075,2.1277044894702546,2.2141885461481166,0.585052858160615,2.298703746286073,1.8790224248750784,1.7961167745970108,0.9325362537964587
260,2.032815276556029,-0.3994099034144779,-0.4961802697304368,1.0611538879261668,1.04868809751265,0.6723857018661372,1.832333769758742,1.6357307924099385,2.2951990751359643,2.7328132967874312,0.6684167106117298,2.0757151599390222,2.05529338665467,2.188960067486326,0.9379716094932523
261,1.99773988592604,-0.49410765307368665,-0.4774008697809562,1.000292740408243,0.9503118466677436,0.6655685903080107,1.9140180101184612,1.7982525277711308,2.0593574157697505,2.5306276063810436,0.6447042257417027,1.8343886512840142,1.8443204741758448,2.101234710161906,0.9369040444945457
262,1.9297213343544124,-0.4925888497143879,-0.3376972873347517,1.172372348866491,1.1655497067213503,0.7335797198773321,2.7188773647617444,2.588267757502318,2.242401828255279,1.9439923851649643,0.6509067234006624,2.2038464536451063,2.0282287820430738,1.7116579085986119,0.9452695772850919
263,2.2036240776371616,-0.4017851342348776,-0.6043997305322366,1.0525615348159763,1.045508839578426,0.6814477529908084,2.64465948743998,2.647232712298425,2.5750351808859366,2.874860954443446,0.6153451465759925,2.3067046779550404,2.3266363849997473,2.417515059668023,0.9388933724950279
264,1.9856747645552877,-0.11757847902821439,-0.4483516505105438,1.0679863061237422,1.0476864672780013,0.7172493235966559,2.075520816619675,1.6661937159123474,1.6347697631769331,0.8758263785003837,0.5915533975974677,2.2595256035335987,1.4738864244971284,0.6738184610064448,0.9523719815315581
265,1.8606576641495747,-0.38984681719533076,-0.4341425629217165,1.077346156893658,1.0685982858698964,0.6581932438799609,2.192044834047034,1.8178964719925284,1.6780054603004437,1.158143211380175,0.6125606311107803,2.0055304142956,1.5080893967808429,0.9663872319576425,0.9407520822170711
266,1.8714251027729856,-0.3685954275779437,-0.4347247605677002,0.9983174620544052,0.9713754618931288,0.6540856269887635,2.6487925205295073,2.5346942147610365,1.9679035987828817,1.9555591132862788,0.6584896970785714,2.015403145583947,1.7530006320692824,1.7202673173860261,0.9319581143991579
267,1.8432968741023614,-0.2232054287873313,-0.5366638658889429,0.918630290585202,0.899415803356069,0.6785057336088559,2.554366484351411,2.6883987741885798,2.5687576932442178,3.0014546197819842,0.6403206450210053,2.1350952058706705,2.319741098816863,2.4868205259702845,0.9291040604527491
268,1.8106499455503429,-0.25024029645271295,-0.3753881740130768,0.7723473990580163,0.7584529319558037,0.5873562336354645,2.583797190206,2.5084059602716353,2.5444012073710462,3.086670569347343,0.6584896970785714,2.0995535501627733,2.289609600080428,2.7279423579208095,0.9339451190265197
269,1.8878975798683901,-0.3894913042745781,-0.3567251490502823,1.302469256485748,1.3029656729833727,0.7466263048064272,2.455764059418123,2.3791953419865703,2.573978105004684,2.841111969706805,0.6068309995095971,2.290217444185384,2.328375762134848,2.6458370166006375,0.9324646194703613
270,1.757900058529666,-0.2578442041622957,-0.3814553620371488,0.5688141866280298,0.5547209230469275,0.5312234037378805,2.1271336004568586,2.055498928617377,1.599653311287616,1.5495075852548383,0.6584896970785714,1.9460768296124122,1.395908692417897,1.2133368582302144,0.9446374466662265
271,1.8193604717533831,-0.3548816635554911,-0.39695196317474146,1.1323077040261966,1.1243901065977984,0.6311008836887064,2.3322958632137323,2.2483813772848507,1.963453098942074,1.7592665408957622,0.6333676938231112,2.008506853037027,1.7671415832041233,1.4539723990206517,0.9429109233398922
272,1.7440794541829026,-0.23931837661305466,-0.5034689806603128,0.9180597991019448,0.9067526885677428,0.5853979803438834,2.3925725883169546,2.389649413650892,2.3601286487636464,2.8708391440557164,0.6309483474627791,2.0523453160181346,2.1481007770865115,2.386837290602719,0.9417296740162692
273,2.100861001705434,-0.4293208782377196,-0.6631322554750465,1.0907941634222975,1.084026735131316,0.5957463135389182,2.4678756422034573,3.0241668517439613,2.6902170753395516,5.737904295405892,0.6468212168108125,2.2729184217054197,2.4550473417625995,4.73368903678907,0.9179879400325406
274,1.9793274348521817,-0.47524244151854966,-0.35565459907001507,0.883910908787574,0.8797827240623429,0.6352618712123338,2.669384477438857,2.7079316407358154,2.327971950092518,2.923791577915026,0.6284777104787076,2.0993721771687146,2.0392726439499658,2.1509263157769665,0.9382703229828006
275,2.152151837615475,-0.2581951500963844,-0.6374940410560187,0.8827593232224271,0.8626119949197437,0.7052782205038924,2.4382765246591065,2.4839371084514483,2.6185214343779326,2.852321054241525,0.6425374456860184,2.3398255459352417,2.3451096085217125,2.4185647016512783,0.9386630883520289
276,2.4860211615379177,-0.6427335339597259,-0.48181236568240887,1.3689048340898746,1.3311502794169077,0.7979370337831285,2.6964832533650047,2.8822179193042046,3.02914892822484,4.278264748060186,0.6180765742263259,2.477335384291682,2.803360380906535,3.9296446067779653,0.9374388455533166
277,2.650002968593781,-0.8761878453636488,-0.49746046754438805,1.2582742303551617,1.256523163269467,0.6935069134516898,2.457020503503522,2.610241601529695,3.0507870073931387,4.690745288326698,0.6207552362147116,2.5540423886228627,2.815651640767402,4.939258631254028,0.9415603490748827
278,1.8453306243099206,-0.35512370091936396,-0.534684487007564,0.5525922993994868,0.5436605292678427,0.6501823083081778,1.4863581197472722,1.5573969835108092,1.5768897151924088,1.9876586318260479,0.6528756675646988,2.2728105642928145,1.3967020873302716,1.736637419728166,0.9445952412400217
279,1.570109330417002,-0.3603312680335744,-0.4029435462278128,0.6965378180063279,0.6869303967831409,0.6218724017588895,1.856654420021273,2.0796912554745326,1.7669720961890483,3.4573676719284654,0.6528756675646988,1.8523590913569847,1.4310552546487874,1.5338495551099443,0.9318210242407237
280,1.645637762162255,-0.2726341834343715,-0.45597650676168683,0.6363738238116734,0.6286552496852656,0.5451339735163497,2.0112126612719305,1.950945458984234,1.629681521018201,1.7632175535424424,0.6038851895711802,1.9328623102060554,1.4478790628887177,1.2333574436376198,0.9464493746607431
281,1.8723303098017288,-0.235426209590736,-0.37638211179440917,0.9762265437104487,0.9508385454476831,0.6717664213013567,2.303842076345738,2.2334868568051798,2.411971317431633,2.667448475655965,0.6566669596287297,2.254324169376792,2.184390401593662,1.906255345314981,0.9363178674852424
282,2.077353063505536,-0.42707941931203874,-0.5274174322091845,1.2254467383395273,1.2221789922991066,0.6920915356548554,2.542378132038498,2.399910509786223,2.5525130004946623,2.716914543872758,0.6284777104787076,2.192933795919063,2.3108838958087405,2.381958680535558,0.9412708534681029
283,1.807482278100765,-0.22658680425185018,-0.37550683536924456,1.0029125437318658,0.9973200017637304,0.681345722050486,2.478650042928962,2.4374411317292433,2.064383021505395,2.1890418236054328,0.6380535849069913,2.1301268338037254,1.8146489580962288,1.7490563519030788,0.9491523661843063
284,1.859357175062355,-0.2849649291403641,-0.48847914962264033,1.3555283343734095,1.3589682478044427,0.7552456952515066,2.6709487730156454,2.4820828444367846,1.777426568212363,1.3895665691622636,0.6619902821573977,2.120170947893928,1.5952806618230075,1.195338349409604,0.9566890969443792
285,1.7740290798208156,-0.17937247563455916,-0.44352238717459985,0.8082700363213551,0.7800432650526772,0.6641939364097422,2.755941559200339,2.5904022283939674,1.887957039527573,1.5261976615412018,0.6584896970785714,2.091154313609153,1.6849789711263439,1.364231116035543,0.9485114614680972
286,2.0223203300198414,-0.25448398691867524,-0.641434414656598,1.0920810472973328,1.0878702251131749,0.6775314395233014,3.284137683471622,3.298450281238556,2.6425464952771205,2.4724427713006865,0.6380535849069913,2.2187546958865827,2.4020933028207385,2.254117457451825,0.9431521262372413
287,1.9122733963848422,-0.31189313161456633,-0.31888583318414043,1.272558419860664,1.2492034342723142,0.7992910946598967,2.821049371342203,2.3859271729859897,1.9434947256982849,1.4779655261288953,0.6652988471865258,2.1408442439001116,1.7340970866235026,1.2447650586270034,0.9481692610434683
288,1.6827245210323047,-0.14546304390766918,-0.36378591836719065,0.8060206196828734,0.8015939277815035,0.5929026456349852,2.3527884683275233,2.030644006900762,1.5457837956721114,1.3243869936406398,0.6403206450210053,1.8802264505503854,1.3270502384744636,0.9983719427559261,0.9510469520891717
289,1.752653782715871,-0.14164284591778076,-0.42372083825028306,0.96394465759641,0.9720146455522809,0.5982276662317026,2.739418920032411,2.4265193734446298,1.9097042899668166,1.645639760207746,0.6447042257417027,1.938945569253755,1.6643679965305347,1.293993043004963,0.9440958180396354
290,1.657050823293219,-0.2562798177190576,-0.36756754091713006,0.858618533732713,0.8579912207546324,0.6551732132965067,3.154612460296258,3.147768948557089,2.172321230703352,2.3806501858511915,0.5748741956352443,1.9736811060006827,1.9311456325568683,1.8679486075856016,0.9442584647060244
291,2.037323964316816,-0.21014569082642942,-0.5051065146270113,1.0769898546676788,1.075933332623895,0.7518047238914858,2.699232244684625,2.4300825197414033,2.3091674015985726,1.7738105829216204,0.6284777104787076,2.3072626825451565,2.1165123015091107,1.5632549659858488,0.9493522916155609
292,2.7927549218861536,-0.20956217125340304,-0.8239201663328355,0.603096689877101,0.5959586289969547,0.5577895744887394,1.7703542369192198,2.030060446875395,2.220045644770189,2.2158422115499454,0.5915533975974677,2.6015902900010826,1.9654281300226324,1.8035939268750578,0.956542758914231
293,3.608065123288694,-0.8806614753546307,-0.3460806665635254,1.0792140202707827,1.0683395245134006,0.6622184327367001,1.4206403451922884,1.6818029281370521,3.732244164068805,,0.6380535849069913,4.031056822986182,3.4252644077447925,inf,0.9251923275486095
294,4.284378460655364,-1.4359981537930324,-0.3950926824978428,0.8698109617584512,0.8572728732351745,0.6568568870936687,1.2407807438422809,1.5179970474894298,2.6231202016714326,2.040992669594692,0.6684167106117298,4.650632560064849,2.522825884650294,1.6691571471357227,0.9150888729216365
295,2.315500684791225,-0.40740454735367626,-0.5659661661837798,1.261079268418198,1.2559211076755175,0.6950830811110476,1.445844115316692,1.8349298537164886,2.668307006186099,2.0808604923477763,0.6468212168108125,2.8163780779878382,2.447001237198918,1.9545308920992204,0.9318497093683742
296,1.992434985786407,-0.4811225625932065,-0.471361081870617,1.1097148620689476,1.0785837254707977,0.7393097345136118,1.8035264341307442,2.780349505791075,2.664716112458628,5.589868216578488,0.6207552362147116,2.4464554634137476,2.4703859513961475,4.544813385447194,0.9024523003332056
297,3.0011435529144936,-0.9245445324961172,-0.3686167761828001,1.2470142063794767,1.2294100075330154,0.777980425240873,1.9843726029615547,2.529976667980511,2.5525511830352676,5.051666523146882,0.6403206450210053,2.6913569781605498,2.3259673040865025,5.29162837839724,0.9160948418214582
298,3.157394627183576,-0.7023880816055009,-0.6314437983596901,0.5773181561185804,0.57360147256311,0.6347610400587124,1.5392171446858394,1.9658381043335387,3.867340416871401,,0.6566669596287297,2.9691985384421358,3.525711525134214,3.5263605246161616,0.9298291003530946
299,2.3675060436032003,-0.4799229169077412,-0.4828628741575602,1.0341297241901293,1.0186596047432996,0.7494123989036382,1.7732093010239485,2.364077188321655,2.712912695310047,,0.6528756675646988,2.583181219056341,2.4982342571009624,inf,0.9151769012882857
300,2.5260877561811776,-0.47727792686289217,-0.7434701004196924,0.6095630164437323,0.554841138558344,0.4527615916935476,1.776212258848141,2.1739941856258875,2.226434917648249,3.9474240076762173,0.6447042257417027,2.2245957741323514,1.9810528576484236,3.2506725989502,0.9442969947015318
301,1.7811950495521724,-0.09279170918042934,-0.5207573557242695,0.4654441026302215,0.45730771601817405,0.5756588954024515,2.2841587511760815,2.133815642587757,2.093170971004302,2.0395326969126186,0.6068309995095971,1.9681784803693956,1.8485343452544254,1.788733748311518,0.9499381202599074
302,1.956688875801654,-0.3582321875768397,-0.2987272255696637,1.0005585222745033,0.9969124962103191,0.7069401296923118,2.350330252401495,2.194368023941279,1.9360838394629507,2.135813971364347,0.6528756675646988,2.0647937901557296,1.6850158880218071,1.6080218159029074,0.9415496773085065
303,2.096666192314159,-0.2815421735251602,-0.6432388857729884,1.114922733037311,1.0838761923025952,0.6713439143412135,2.062900160999178,2.092042232907001,2.5420174028972737,2.883671584125601,0.5947193981915972,2.184308352069673,2.2927618312911027,2.267055671839559,0.936411869984566
304,2.52305430246604,-0.6373926064140867,-0.5163487645261143,0.9286571683734984,0.9063445352024788,0.7196247003749888,2.0768735671529917,2.3086012302868317,2.6858682120352158,5.173208961727171,0.6180765742263259,2.436497510580313,2.4519201507916937,4.909709375506295,0.9343834576761355
305,2.1631549576594176,-0.48163322237286665,-0.4410674357021387,1.1765248948611435,1.1647521827324183,0.7346280089845346,1.9952312849087626,2.1066358834429435,2.177544818673253,2.597209768079049,0.6207552362147116,2.108572879741657,1.952981859657453,2.3025850929940455,0.936812382226406
306,2.096656381162889,-0.30724431993567414,-0.6698801047458776,1.0723010521590557,1.0386052266533312,0.6619713850789511,2.58487668170746,2.242869573623006,2.5894603853981066,2.4143411289207695,0.6008849035917525,2.200730716665507,2.3040914954883025,1.9974679587201634,0.9483546783784592
307,1.8439905257033602,-0.03284434442483075,-0.7061021480896912,0.6333907899106729,0.6122774614259399,0.6852949935928986,2.70731104561012,2.985831137846154,2.198411504783198,2.5024710980170677,0.6602640781246099,2.1394274786100027,1.9636215242422443,2.216919611227771,0.9403289508143392
308,1.9326875509513624,-0.1905561001536893,-0.4304215240270062,1.0340583751693744,1.0231449450826295,0.7082065995285404,2.512241627115276,1.9106915552789392,1.7237940016094562,1.0015496748171546,0.6425374456860184,2.231091646847797,1.508847210879615,0.9330344316120425,0.9292064962514963
309,1.7394754204868923,-0.0723417485993112,-0.4160455079351185,0.9341015236049499,0.8963307786814908,0.767471708047238,2.500505014353157,2.248730019622403,1.755208994065112,1.4306307752793002,0.663668482632973,2.020083080583807,1.558647341140506,1.1915764963036324,0.9489975466821936
310,1.8718609443828453,-0.23967889340725568,-0.4228656607587523,0.7522407551707513,0.7486871690353574,0.6001585617344544,2.574546930194856,2.3734281187491324,1.9790679018506485,1.772155890621583,0.6425374456860184,2.0334913853536176,1.744097856930995,1.4417115839451997,0.9430536946736394
311,1.9688949587193343,-0.38026869133258534,-0.372139000095195,1.2416127834119077,1.233382885701268,0.7623523051892064,2.5440300445735176,1.9514237740098155,2.069091591526269,1.2593080214748247,0.6207552362147116,2.1388613340393046,1.8457323642236771,1.0986122886681098,0.9466186710179321
312,1.6800629301005565,-0.07936776452816319,-0.32641821671702986,0.94463315735778,0.931159422533673,0.668697258855457,1.966442017685491,1.3438829123689848,1.2108466494654522,0.8745073922055879,0.6584896970785714,1.840319659843432,1.0410923566812607,0.5244629546885736,0.9544291618652572
313,1.8296857256570103,-0.3055161540411141,-0.5094557645989157,1.0540206905022484,1.036578849453539,0.7335584499376128,2.8022670046028244,2.7175558847538244,2.0793041960706393,2.187289201779144,0.6447042257417027,1.9800990983475728,1.8565072677958192,1.9010776601884907,0.9484848389943962
314,1.7934998257006005,-0.21774997827078968,-0.47804993020002584,0.9436110839245829,0.9208191133245178,0.6862030604411075,2.7316701979024067,2.560527171044386,2.136949588796212,2.1813983311012772,0.6207552362147116,2.0069348508930878,1.9106591995845135,1.7928774123293962,0.9359589204190111
315,1.7860127747558383,-0.17354518011209863,-0.4216809237673883,1.015409012091469,0.9993914597731273,0.7381780214452343,2.393206473954968,2.1252453630345878,1.6750988692286235,1.494075287403962,0.6619902821573977,1.8741270996634838,1.4884908000311963,1.2108383108038834,0.9383114741451195
316,1.8593196296071992,-0.2601742582974186,-0.4124287070311819,1.1698499970947465,1.1330968218926323,0.7420828411184316,2.9120663128870317,2.491360399584155,2.0668913136955203,1.8102133345738767,0.6528756675646988,2.0833603211871723,1.7905109182765975,1.3557495957980321,0.9368273752408839
317,1.6780317841357246,-0.18997152961351904,-0.40610261909159645,0.9890719756043435,0.9729022594403939,0.7286452143812222,2.4900903331554667,2.4392294906605048,1.9748848560724934,2.1500745713124423,0.6153451465759925,1.9759227209013808,1.6831822045113243,1.5023532584181343,0.9353834553652035
318,1.8324860208451896,-0.23305769291998746,-0.4953872726492887,1.2401707434987859,1.229541634667693,0.6715748849393519,2.3837110027769697,1.798698453686844,1.5034419087012074,1.003814371695695,0.6309483474627791,2.0614706563585994,1.293161256156235,0.8443326988373687,0.9453349296427386
319,1.8427046416611097,-0.10859553972362845,-0.6688097072940191,1.359901976897544,1.3622345946367123,0.7138132823196176,2.7266121253823994,2.0528903950760204,1.8513896451871676,0.8240783746255191,0.6125606311107803,2.1464364105041143,1.6272749791265195,0.7331228956365956,0.9434633433156671
320,1.698103242026537,-0.2192632386624198,-0.2830448505710733,0.6536382524169115,0.6457140476844302,0.6020514870693457,2.680918707790444,2.3533658751080737,1.5129549059233436,1.3602761365045628,0.6207552362147116,1.8565469102324947,1.3314225849028274,1.0991510817845922,0.9421278332785422
321,1.4416564269944223,-0.0950908334119438,-0.26586278698672383,1.010596533143028,0.9867431957907455,0.6428404219561321,1.9550818569806743,1.632839184321758,1.1360973218792594,0.9958482808261764,0.6333676938231112,1.4294338537805082,0.9339633786102949,0.6664665043239606,0.9316314749818005
322,1.5588948479657687,-0.2313309900486643,-0.42656767507131643,0.601730490102754,0.590261914456837,0.5316815663613583,2.400781209734525,2.1340265370741442,1.2941364917152534,1.1009838432738255,0.6566669596287297,1.592963256784715,1.141430919657097,0.9242794356150585,0.9503968676098905
323,1.7933838469265335,-0.2697055437287479,-0.5229661300948291,1.1356874413059874,1.1235651622883314,0.6759964053642687,2.2821671563999097,2.378376639129444,1.994616672893165,2.4217522875587045,0.6233814453054027,1.8598242001421843,1.7649334863305233,1.9363684877819705,0.9437264477382921
324,2.0875320861118905,-0.5601201913990935,-0.4650537774033998,1.1059604662942821,1.1041584513485867,0.7032073761254365,2.3659859596957684,2.812515904524476,2.334970845042974,4.682606891423727,0.6309483474627791,2.1793846592078885,2.1037020276110896,3.866381724471942,0.9394825548973008
325,2.052037877882577,-0.48637212215526227,-0.47743342228736013,1.0082010873867613,0.9901038029344349,0.6339591132541298,2.038741685936817,2.5371777112028875,2.0538822203486307,2.981759340454347,0.663668482632973,2.1244389076105716,1.8583642798786215,2.6207407170899524,0.9388361495797933
326,1.9227533309286886,-0.4820400649075585,-0.3908819257640833,0.9434649510218057,0.9054085897656144,0.6587613352021542,2.1305005413478773,2.7951922267961753,2.352412582122579,4.144864528781428,0.6468212168108125,2.188859661004592,2.1445884721104482,3.640129611712216,0.9198481490088314
327,1.966518756529352,-0.4078767329659291,-0.5185523645200868,1.160370055422613,1.1528112152975363,0.7557380625329724,2.4060037691485934,2.4689004173339395,1.8238572099364407,2.5065702356156496,0.6125606311107803,1.9397955480554594,1.6341691775958391,2.202388441839738,0.9475647014647172
328,2.030421478725816,-0.3252952914968965,-0.45941495302856156,0.9790309228470361,0.9707999631913833,0.7977277548194579,2.7193365243556142,2.6525376487273515,2.153527115634162,2.247407206236095,0.6684167106117298,2.274753779845457,1.9271759930565808,1.4498929628234518,0.9462350493696227
329,1.9886446015646402,-0.20900585845665365,-0.5240837057100817,1.2584919996974449,1.22330482850806,0.8063156388818491,2.275435239522332,2.018655394355305,1.6001037590889138,1.3333887855285753,0.6284777104787076,2.3425972303519718,1.4171816735194975,1.0105280141564759,0.9479195209782963
330,1.7679602819479208,-0.22161309955877417,-0.42213212345103285,0.9421733557237209,0.924947633537789,0.6670487362658873,2.6502895596493934,2.31661108696248,1.7577048860767723,1.429727535065226,0.6699045166045591,2.000178625143883,1.5082328408254217,1.0384898118948112,0.9414114199622431
331,1.9316487928675437,-0.3203408330874077,-0.5855363089767945,1.251276679355107,1.2275389773264724,0.6050986595330405,2.242648170400352,2.4116783513148223,2.120330830151758,2.1564059556739625,0.6380535849069913,2.0485459849648566,1.8780268014780206,1.7906327085454643,0.9381862708382833
332,2.368694471288417,-0.6520426101527834,-0.47282495282302744,1.162011321264397,1.1557625417546908,0.681499585427943,2.7983648003562656,3.213144935894463,1.9829853432382232,2.8036756392943185,0.6097226960127671,2.0124061403436775,1.8418722033683055,2.1967003309284068,0.9333222378633123
333,2.0691487715773986,-0.5219849068686422,-0.40495618947726353,1.109415248441842,1.113376362638195,0.7353268981301365,3.0361731017637332,2.9381762938961224,2.3153335770409615,4.064461052995879,0.6180765742263259,2.2418036207341867,2.0526192198711275,2.602282602190238,0.9268175819365302
334,1.8983068746129,-0.5030479604396008,-0.43489995603596293,0.9101270605638819,0.9035361073855426,0.6368025701466941,3.1730637964429644,3.2225840982184,2.4368951405037937,3.5248987075071865,0.6153451465759925,2.100188614824625,2.200770196760475,2.8581108956779433,0.9435838897603311
335,2.293368806548759,-0.7975237050108421,-0.3539423851779141,1.2553186371678773,1.2524127172717237,0.6816287747564694,2.6939591186041976,2.2419815818526807,2.195084870113678,2.4049342749111107,0.6602640781246099,2.27237925093698,1.949041393853097,1.7437265940005318,0.9396155089479024
336,2.4328963598190216,-0.8473777856040354,-0.39033695883658653,0.8717636970490469,0.8737739204280286,0.5922983221015511,2.9764926190553975,2.7398108083344024,2.223812102161426,2.3520744642693514,0.6528756675646988,2.1269525243508878,1.9009802723519615,1.9031686006780424,0.936479153963566
337,2.7005710545007355,-1.0715535439401311,-0.24401033126401947,1.237312105272627,1.2036050238394111,0.754776288798089,2.874166353480716,2.6766995967489784,1.8228317540622991,2.7923218055373726,0.6566669596287297,2.4352279915574533,1.5964548095399367,2.033547896250201,0.93455266497255
338,1.7129445535718584,-0.29463046110691904,-0.456102327551504,0.5262635074863217,0.5210422219901968,0.591630170013688,2.4908345448658475,2.020421914831289,1.4539677989837372,0.8662011680780901,0.62595550513784,1.6807549111851436,1.2772534954268324,0.7795945472268492,0.9538518713618229
339,1.7239359397678142,-0.417721571448573,-0.2974222969402383,1.1062281606665423,1.1035719481396131,0.7691947443350302,2.659795123511151,2.000197229352311,1.6226959018575475,1.3936760937558226,0.6447042257417027,1.9529459534920512,1.4080696385372722,1.06461468012669,0.9469887910668564
340,2.318948649989176,-0.743628090428331,-0.29328325693673996,1.1403908777301472,1.1472804849617164,0.7116542140535735,3.004876311837628,3.3853735038394754,2.8791853814519883,4.116393801737523,0.648888643467878,2.3191662481414617,2.531620345012898,2.945860443513818,0.9301306584001855
341,1.9795965874897519,-0.6078410739551289,-0.24808885994316363,1.0401135351800694,1.0382691611854935,0.5377870788714028,2.7433334311047566,1.8635541066136252,1.5204146566056502,1.196550348111548,0.6284777104787076,1.9545921734381626,1.38456981730454,1.0010831099162238,0.9479876499445904
342,1.8995623906229255,-0.6012307061585613,-0.31767541237277713,0.966096900314765,0.9579001608480588,0.5607209330119243,2.662588036535027,2.456264379938098,1.791936425939487,2.154448347091846,0.6619902821573977,1.9104679329609393,1.589077571718992,1.5194580390868409,0.9403984148998018
343,2.5302656277185176,-1.1163160349698122,-0.1619766356161399,1.5246095428791406,1.5267521622649078,0.7370007100431671,2.838633986868516,2.0949990394152036,1.9753855962514415,2.394936918173802,0.6468212168108125,2.4491534800821824,1.6964843765274689,1.5783473253640694,0.9049902770703454
344,2.935763526950131,-1.0614235724800596,-0.3334711821610711,0.723726982170924,0.7160295485199759,0.5874820169582392,2.9666161992884708,3.3739212668320193,1.7666076361939167,2.5439017352828315,0.675384900321601,2.178402823095632,1.5425407912721505,1.570729209461586,0.9362981518082998
345,2.8557119287035637,-1.1049628599267676,-0.30942754934769584,1.2745275232083582,1.2687402172152245,0.6974012998996333,2.9163156212262242,2.620493320309693,2.0136556268943973,1.6038421010065897,0.6403206450210053,2.5781922138439963,1.9126577151147968,1.3483705165925122,0.9315540032023574
346,3.216349913439129,-1.459685393306017,-0.2776028600309541,1.443999667574531,1.4603782820539537,0.7021284606358925,2.7557275913832093,2.7857547697242415,2.4646666130546206,6.440605688770649,0.6309483474627791,2.488914671185539,2.225326609856914,4.05426633865469,0.9173040968363003
347,1.5262079124787973,-0.1594035500117108,-0.058223373146948344,1.465474826052567,1.4381625414575168,0.8055728058858312,2.83819837956873,3.2013015498308697,2.842718806152451,3.569214165300327,0.6547956803312163,2.5843587287596606,2.668348126536324,1.0734537290319548,0.8801547003214615
348,1.254788421035507,-0.17035548777493495,-0.04295854380110122,1.3784393669244586,1.3906395377245757,0.7676459516879539,3.096016039832103,5.396213675664239,3.4267530737061103,,0.6528756675646988,2.304253150094743,2.8847116795259304,inf,0.9006502432428756
349,2.667759574878147,-0.3825126755423346,-0.09768404793573186,1.549041219012507,1.490730505804851,0.8342441542500763,2.6806595983672956,5.173092439693836,2.976289521078433,,0.6547956803312163,2.8187955594069427,2.8717416884992377,inf,0.9157183513358637
350,3.5913297896968963,-1.1213077356211119,-0.37554558356938395,1.5951191680918595,1.6178937151713138,0.7562973885908771,3.0210756468625446,2.5882073707470092,2.8384958169881584,3.2919816443659964,0.6333676938231112,2.6987601541951176,2.695089639074483,2.3501535099131554,0.93279940408925
351,2.6204406069133097,-0.812170873106964,-0.5021389041311831,1.2981639312961,1.283961437653703,0.6626849314339456,3.1569779607747877,2.717370714681727,2.6040027305344586,3.7339412149019617,0.6447042257417027,2.2836543053346072,2.309367746717837,2.9643952955499,0.9451243026032268
352,1.654761659606802,-0.3126016385340896,-0.29919279336741555,1.180169194079477,1.163239397733249,0.6804054594590793,1.9866719570997535,1.5919749946433932,1.2086901962941703,1.0666577607030547,0.6153451465759925,1.6508966837277321,1.014094027914031,0.6814028779797183,0.940897500822565
353,1.9309591616559283,-0.3360591302796906,-0.3812806271748027,1.0920631049675495,1.069655555516405,0.737203401164647,2.689452258091785,2.2868723652803205,2.1291994661911215,1.3980790020234297,0.62595550513784,2.052777972971191,1.9076186167411706,1.2507242318055196,0.9504833912297685
354,1.7876025211248334,-0.34669026712887296,-0.365163469168615,1.1043624610161589,1.0718860826865597,0.7382260667161105,2.4265590952220415,1.9355244428474498,1.6393231500211225,1.1209116615467558,0.6652988471865258,1.9581289398080826,1.4887634011162023,0.9157674912587465,0.9450015085820631
355,2.6978151239446326,-1.0117034548228618,-0.36218520296662443,1.554053095108788,1.5446265389544915,0.7476853141057664,2.654751706181556,2.035425202450562,1.9985887001629614,1.7151949642203985,0.6652988471865258,2.3573933294890406,1.830529579692626,1.666682455209118,0.9237794078245066
356,2.570955807356944,-0.8764968834782974,-0.4770083820635951,1.2222624149024153,1.2208351987745725,0.6305204511890878,2.588175273840851,2.369668824408207,2.0243197142412828,3.2252244720726964,0.6038851895711802,1.939950167305864,1.8093872558451862,1.9120243356211986,0.9317342152827411
357,1.8954294733328862,-0.46314425230165057,-0.4041361648812403,0.8033133248376783,0.7839153968344255,0.5773604609584811,2.6109413349643416,2.2447401409163925,1.369975065424231,1.3680937992290105,0.6509067234006624,1.7871036576918609,1.1486839637347863,0.8259015027009413,0.942701615024068
358,2.2842068930487955,-0.6452528780695983,-0.39075182769921646,1.1000680082293641,1.109060208900873,0.6586164449046678,2.591856157881366,2.4755380915459813,2.08633916668679,1.811244074452558,0.6668815377411301,1.995345521326734,1.757776201515556,1.2311962629365925,0.934038306274348
359,3.474509228660802,-1.10894703192309,-0.7187783825389545,1.262843601614607,1.263676846899204,0.6588012857911488,3.0902236203203346,3.3531391450660615,3.074017182301862,5.822245443839643,0.6468212168108125,2.4979243468693038,2.752661616857543,1.4120468572223053,0.9270325164756134
360,3.1147996676975116,-0.8665491878586637,-0.291365451539107,1.3284266823405466,1.3038088599256497,0.7249233471516474,2.703670782890703,2.9178391287940535,2.4274439412891144,4.0267356353645445,0.6284777104787076,2.5421121235587796,1.8578522118017695,1.990320777136929,0.9154903733935645
361,3.22755086500027,-1.1203977659316389,-0.27217434565781207,1.5742721424712545,1.5820699724160894,0.7888290333736112,3.101339625850845,3.1823879381439513,2.8177034451298533,5.954305165852709,0.6008849035917525,2.6221783620282464,2.4754683090576393,5.616771097666572,0.9117181890520992
362,3.500648891301262,-1.5749874822015797,-0.2214414792246912,1.146591039941534,1.1345437880717228,0.6024415541799267,3.084251177746991,2.3066085057620485,1.996318869121274,3.5034874915999965,0.6566669596287297,2.3978730508230583,1.735212339715473,2.006621399710543,0.9028383673075764
363,2.5698101916061087,-0.9187634462991378,-0.317744135904071,1.2128758990703186,1.2155188580201093,0.6788389787369319,2.6562612614094103,2.301624740876457,2.169022765060096,4.10499302678615,0.6233814453054027,2.1244389076105716,1.9116367464875532,1.7693704743345764,0.9309607261948405
364,2.290248495711363,-0.9757172500138733,-0.09232559755809427,1.1409833616770577,1.1409033627149812,0.6412579504995549,2.0124496989398275,0.9769390949320518,0.8622522242934397,0.800310594489454,0.6566669596287297,1.84179040283362,0.7078325616740716,0.526114980368653,0.9139752745239997
365,2.7598927479720587,-0.9018789539324997,-0.25554825862938707,1.0068098714488785,0.9935140868125727,0.663321531011523,3.019987493868401,2.0361972073890993,1.4786430635127492,1.0733147910819563,0.6619902821573977,2.450312005023501,1.400824974848648,1.041715278567723,0.9209572473914099
366,3.6662013002813953,-1.4246634334668045,-0.08984118364701532,1.6243238021168256,1.6342149599937479,0.7613786437802516,3.69274774060213,2.5431261815197805,1.6041638651783274,2.3868148905352458,0.6425374456860184,2.758817318155863,1.4490692854653664,1.4097181747939191,0.8961438179698051
367,2.7103760331997027,-1.0292167029142671,-0.27127704232919525,0.8921547100706188,0.8948768109677948,0.6237027319496722,2.6610555070283066,2.5816207014230454,1.5033478664404918,2.3068450451740685,0.6153451465759925,2.0827358508515212,1.285349179360432,1.564047202396359,0.9377155976073367
368,2.3360132522262065,-0.8534138510058944,-0.24297371846224686,1.138520348126633,1.1381724434442895,0.6554768577907748,2.8156463425961964,3.349653903092608,2.0053269652838064,5.209787174529841,0.6468212168108125,2.2331626841418486,1.7904128071920449,4.165113633110308,0.9356846654640854
369,2.223083887839706,-0.7673292951304468,-0.29054506047742473,0.8430776314287212,0.835608392918656,0.576673051178344,2.694548530367983,2.418966475810245,1.7208894349603157,2.0997493789267216,0.6699045166045591,2.084610432967085,1.4921315212100013,1.6570368912333793,0.9345989518289125
370,0.9796862769056934,-0.045441633891090016,-0.1260687194042049,0.548609561620075,0.5442263223729527,0.4998382481476671,2.6034082589462533,1.8312972767279883,0.842361800038238,0.907593815282644,0.6380535849069913,0.9933817814610159,0.6646046576725348,0.5508047745741341,0.9309775998511078
371,2.581734627585264,-1.048066376939202,-0.33925823236980107,1.6301627721756176,1.633799823644947,0.6297482016254695,2.448114155921595,2.9247100579060374,2.415921224981067,4.593457470393983,0.5883313578629602,2.3053667359559227,2.082901559641435,2.4241768035804547,0.882461649486517
372,3.4332145575927027,-0.8499079344795996,-0.12660652384474935,1.4547716060441673,1.4618941580648286,0.6225274311424315,2.451804123524575,2.5252710724861718,3.312288863664982,,0.6403206450210053,2.5356386981947736,2.8804617040096465,5.991464547107982,0.9169978623025044
373,3.5364486738003507,-1.3795586843980923,-0.3846710604079684,1.2586423177655814,1.2690946271568793,0.7313065567582204,2.5404418048025486,2.683778610027003,4.237814280172237,,0.675384900321601,2.392388242143472,3.2499856043840856,3.367295829986474,0.9378872313133534
374,3.5109701992901567,-1.4748296734983029,-0.17333503542100517,1.5466319634957442,1.5515581876067568,0.6512637169993792,2.1089421945987525,1.9975039686707952,3.0502286943921155,3.8551984444750134,0.6547956803312163,2.2915352568074607,2.649884968267322,2.023493467747303,0.9373336086356314
375,1.5281287187691017,-0.18565707074240834,-0.05581901774753161,1.3085513900015466,1.2784448275222369,0.7834562383429224,2.107868895678167,2.1342567424065826,2.13263830126624,3.920501173256648,0.6509067234006624,2.507834154431705,1.7906686591935248,2.3132715900904315,0.9307961694928378
376,1.7399174760376148,-0.29667108694575356,-0.05753384283369032,1.2903356542888345,1.2556317579450216,0.8282202314345624,1.84533312608837,1.7308586881468797,1.524960393824116,1.8128147631790237,0.6713451011121618,2.118875610925243,1.3595628510803595,1.393885216293141,0.9332583447411303
377,1.624785565015943,-0.20128739675023724,-0.044077999414705596,1.369538957048212,1.3756973174334555,0.6781647096245752,2.4627198401436625,3.146871223350701,2.116456608760745,3.602136572669836,0.648888643467878,2.417497253558746,1.8752982473871926,1.6810474448122235,0.9540367062906833
378,3.130091544384666,-0.8358587577716452,-0.6474064073565879,0.769698568957583,0.7743744534201323,0.4651933705662629,2.723902811810088,4.2172660852939625,2.392278103211034,5.5423759111246556,0.5947193981915972,2.0732385975552283,2.0987072106904243,4.144576687708434,0.9572884336970819
379,3.6182561515252685,-1.0222826548004103,-0.47826716546266773,1.460783250659238,1.4739188096053073,0.6673946415224076,2.858139176144775,3.232124184607965,3.3333006449436056,5.5917217852278105,0.6097226960127671,2.4691645428393927,3.151503025106302,5.786897381366708,0.9035538039015055
380,3.9791314712516024,-0.9918225523109856,-0.3743459194853977,1.7354443622621718,1.7466475490023396,0.702561537705437,3.2769692754992135,6.015749918300733,5.931552509610569,,0.6309483474627791,2.5248956580043638,5.747175075378889,inf,0.8938322388231947
381,1.0201827829646422,-0.07481340408407376,0.0,1.7713353126792963,1.7401042195854304,0.9449353292446359,2.606451418968787,16.32773970319801,,,0.6097226960127671,2.974840914522615,inf,,0.9057497544193276
382,4.029737910054668,-1.3941764353624797,-0.258016107759934,1.2179423799974094,1.22701638043517,0.6444269404773494,2.8660918319955484,5.797660288644673,4.220689893092454,,0.6097226960127671,2.7734780064246656,3.915588071592642,inf,0.9310666151714039
383,3.2699716863306127,-1.2030573554551498,-0.5327096861647441,1.025995623934169,1.0252510250856444,0.6614252843465238,3.0674189814158233,4.682003021264476,2.964986663201432,,0.648888643467878,2.419743323881587,2.7225204126931053,6.26530121273771,0.9405324896891152
384,1.7597500341092136,-0.523221122791252,-0.2137426197874968,0.8356654391233972,0.8362542317668892,0.5528303486349647,2.3036328664457013,1.548637760674056,1.0116159267696954,0.983247300648995,0.6668815377411301,1.5873503159700957,0.7873276867632178,0.5008051426691006,0.9421805643611475
385,1.7841822858233283,-0.4935215238687505,-0.20393350517436942,0.8906316725213399,0.8902822550066556,0.6145945765166132,2.3763459773186826,1.7757094330263667,1.0861155653752697,0.6430386760030686,0.5883313578629602,1.8571161027060619,0.9544444747658131,0.43834735664405444,0.9366741433968728
386,2.0125629351899272,-0.6762691739578518,-0.30887673964943385,1.1398891636714554,1.1326171755715784,0.674262958896896,2.327350706699822,2.0966957434680675,1.7722593007801029,1.8885148837057837,0.6509067234006624,2.0669861004124903,1.6254552452678068,1.7311873229449148,0.9360620669125399
387,2.287940964688395,-0.5558885149210007,-0.6696630686689323,0.8155093197992834,0.8132613038678161,0.6455670033578336,2.064750324544362,1.4127669009797335,1.4700480882671314,0.5570649977116704,0.6068309995095971,1.8049122558063555,1.313113208881905,0.4382674875142579,0.9377783291125649
388,2.446925604088627,-0.6709895814639676,-0.613302800385367,1.104145269800591,1.1231620091158097,0.6830619234131508,2.3139717388734864,2.2178660322571977,2.0507553160558207,1.6948064245436902,0.6097226960127671,1.9152839555135526,1.8637633672237939,1.4526503564692945,0.933537380549734
389,2.5579636576735343,-0.7005476547293309,-0.6108306181573228,1.2090241623969413,1.1983857001085314,0.7283401240655472,2.08409016963222,2.508551696294851,1.6039958221393995,2.57382582261971,0.6468212168108125,1.9382506690211823,1.327833238833799,2.0277988616251896,0.9366353040176557
390,2.1107772446696673,-0.44625619533718475,-0.4034671936955394,1.1132062337330406,1.079323810930261,0.7194645425779645,2.4981848549717673,2.3291850777070358,2.067384857450206,2.0379319632434107,0.6619902821573977,2.0418460801567058,1.7381744786671927,1.5116522650054696,0.9268424143654986
391,2.3894060167711095,-0.39807259445182586,-0.7981326416709815,1.2937792847814684,1.2895915444301758,0.743874373899761,2.6133036319924026,2.9368513520447377,2.6012398269149064,1.4488092563707997,0.6727386042041725,2.3335025956288473,2.4566593757090778,1.487504263051404,0.9359515932735606
392,2.4910357195952364,-0.2560465512798371,-0.8032492183528936,1.0611168199022836,1.048827391913186,0.6646361395034968,2.2173048789304652,2.7796017138656093,2.5280519787653954,3.5597659763028267,0.6333676938231112,2.1708748020134374,2.2390941643170383,2.854461256590394,0.9344375249248487
393,2.1303507761267473,-0.10092274621781216,-0.7944850592002459,1.0746176380216612,1.0642638038553747,0.6728095424936755,2.346773110612251,2.5151777944680385,2.9360523460252947,2.6451323473334174,0.6425374456860184,1.9009792742239504,2.3551002111837165,2.167878842196399,0.9489511671030085
394,2.072458753200919,-0.2262146746611423,-0.7050162575354297,0.8301634507169294,0.820606397238395,0.5072617241387599,3.047634839078279,2.5287308432787796,2.172981920410396,0.8118036294769889,0.6425374456860184,1.7760829898430475,1.9827421705131123,0.7922778043616561,0.9500208836830538
395,3.2868472792746397,-1.0402050499045719,-0.7293254269414101,0.7201224607415304,0.7085893510629739,0.4695871359183917,3.1235777010669734,5.103301664758637,4.698105646019146,3.6568614723590827,0.6602640781246099,2.3460726740726354,4.436519461955496,3.9318256327243257,0.9416093785757526
396,1.3940855823210614,-0.34123179079192806,-0.42074497697153324,0.8866922100123886,0.8545630392721489,0.7358045443965964,1.8051883010712961,0.4319976349077477,0.6089099495583736,0.13452875066376752,0.6309483474627791,1.281013848662235,0.5836748005885779,0.13631146612246053,0.9526733174136149
397,0.6270348938676029,0.04244598076805883,0.055966327425811424,1.2507760690315775,1.2474909169767847,0.42309729710040395,0.4136897825063911,0.27303444311455105,0.4496402474190229,0.3671950724595422,0.6380535849069913,0.6032658517505791,0.2985468609429229,0.22372551391386397,0.9473484138501264
398,0.6981778163384994,-0.09752864261823796,-0.07163808601225141,0.13304232049753378,0.11113983222392634,0.2591753364009918,0.7100042845182941,0.3800303730312734,0.3168329665706522,0.24152033127657588,0.6447042257417027,0.6670246964143737,0.2617041805804102,0.1524364980696053,0.955786698815925
399,0.7098074114544041,-0.16509008858925633,-0.09641239414363756,0.7176810539744143,0.6867095723580463,0.6131347737453747,1.3915031981294423,1.120718365616927,0.20341832973762172,0.18059344526709156,0.6652988471865258,0.6524958672715696,0.16239217079910326,0.07955966588102993,0.9264562088560835
400,1.5296231186118368,0.21886434878011496,-0.2610006465628434,0.505543969249317,0.4902995576663563,0.4751318132762628,1.1206843575895797,1.1045630952609997,0.8146751255545149,0.8160969092256641,0.62595550513784,1.1389829961447937,0.6754993601905291,0.5474989466153792,0.9534132278613126
401,3.701803910804734,-1.616529844947069,-0.37072572501988965,1.2027071421192146,1.2169313214214683,0.5091778681815156,0.9966442172965879,1.2497594331243327,2.2110471724363827,1.8680188744261506,0.6584896970785714,2.252525893121309,1.9833822334225788,1.3725641683079886,0.9239930087447921
402,2.8414983948648,-0.8213707019527526,-0.13043255370244983,1.7053742701873658,1.7067611118160029,0.5624142895309033,0.8655245471818842,1.0505362923497363,2.199509770433479,1.7898371354112041,0.663668482632973,2.2457847679515965,2.0348893724619974,1.5623704015761146,0.9602700176832922
403,2.7416308803022935,-0.7528008087361838,-0.10428160223168746,1.1063959081780352,1.1066458657701914,0.5617716376690148,0.9005662413672791,1.0478444278485601,2.096066296725528,2.327442759631194,0.6125606311107803,2.0954805934529355,1.8585224842160937,1.7802386044718808,0.941310481827718
404,2.0240920865557634,-0.41221557818216437,-0.12903019996294274,1.3999931608475402,1.4065931552478508,0.6500517465572097,0.7939955961722739,0.9281334955788448,2.0595235590678582,1.8419060510504432,0.6038851895711802,2.1552192831911894,1.9031148415078782,1.758243844102478,0.9298913454765787
405,1.5925804234231702,-0.27600006125836307,-0.056492784216964166,1.6341132680964656,1.6414514663576554,0.9243122175476302,0.7437240926140355,0.9255548354019093,1.904631487265295,1.5097209994202745,0.6233814453054027,2.1777161109481766,1.6871052929956756,1.0938541512216928,0.9247645484453877
406,1.569502044251484,-0.25061253081772006,-0.15191052370972086,1.623634722353641,1.6071911492902564,0.9141546489396631,0.6878613541020163,0.865134186353707,2.6054370233729376,5.163783821267588,0.6357360191111145,2.238671767250393,2.354350284802051,4.329636247471958,0.9318272173217741
407,1.7981860303204347,-0.28563929196452337,-0.22107766927977435,1.592062440082246,1.601620662589046,0.9018042790139907,0.5119954328440861,0.7257323763111699,2.552610709878426,1.5953027601760184,0.6357360191111145,2.1586771677239804,2.3654251951753293,1.2415555154749789,0.9358129508104215
408,1.7371437921274528,-0.24711716287569735,-0.31017245629935297,1.5016357368782813,1.4862575606074213,0.8782914347027382,0.5358989087298376,0.6899795954332488,1.9572270104305278,4.006883031807078,0.6153451465759925,2.062781100786729,1.8004517404719853,3.0225435310046476,0.9318898277488951
409,1.995142848061309,-0.38412563317829984,-0.3113040006874651,0.49118451646299877,0.49565681670862755,0.3228072126080404,0.5680054751276243,0.5321169509415686,1.1425884009073082,1.189286278922722,0.6333676938231112,1.3660996538343713,0.9723429254173857,0.8538454111240132,0.9648361762539777
410,2.269275950577085,-0.312440946109925,-0.35227044700539345,0.7855720514087351,0.7891261419146722,0.3643520475410879,0.5754868668333316,0.6320022112357596,1.292996954376035,1.5334836682721353,0.5947193981915972,1.5701103673807122,1.0631416236463116,0.9898397225489095,0.9498848125242844
411,2.2094424473356176,-0.48006526819546835,-0.41086222058291755,0.734879882654893,0.7237229036831231,0.5229924836213766,0.6682420806315484,0.6572640262218837,1.5442539322535973,1.2026510530481305,0.6309483474627791,1.4787020904450459,1.3490705256945987,0.9348729882139007,0.9497892524735054
412,2.4381552178245776,-0.7973177882147191,-0.24898895735663737,1.324240700397126,1.318334341345037,0.5503685043005525,0.553331764341456,0.5844956638686105,1.5778783089907824,1.4654387214622782,0.6357360191111145,1.8571161027060619,1.3678895825376758,1.2559822308459396,0.9623960410510547
413,2.141066201294813,-0.4905712585128018,-0.24782956858910787,1.3932332971776993,1.3879377280760308,0.8543836388935317,0.5145786098189483,0.5878332404059321,1.7031518099448375,1.9475986997661308,0.6468212168108125,1.734623277857246,1.5819266297446248,1.5645201821397414,0.9482785018193752
414,1.1278821368766085,-0.00054204933857116,-0.19502766001329574,0.7584210511310219,0.7620785410735788,0.4089125894529402,1.2913931308281064,1.0394239899074953,0.5226514574898896,0.4548413366927114,0.6180765742263259,0.7804980090961268,0.4013509714757828,0.26570631588003885,0.9521038604405626
415,2.4979489036875084,-0.433659258430354,-0.17336132316472694,1.2015354418832769,1.198755185174165,0.7471728903440796,1.5036588543488179,1.9479187370051323,2.1276145279299294,1.8583165657309,0.6097226960127671,2.204249192273184,1.7827368516284174,1.863750843711263,0.9451028947122269
416,2.8698540999715036,-0.629896773551772,-0.25022101168403943,1.5925680177362436,1.5868753831013427,0.865563360408459,1.5429072614227393,1.9801696698323739,2.63653080120762,6.5500781823874785,0.6233814453054027,2.207577989415711,2.4189293339605116,6.0879104453762345,0.9558827374766387
417,3.1517596348814583,-0.8288738759737556,-0.19205306216855922,1.5601045835588132,1.5558208272865317,0.8622943128214047,1.299554390827469,1.7360497747857109,1.9387031059721056,2.152372637601279,0.5783247308855777,2.0720026125828377,1.6058270053445138,1.9066894359020319,0.9494120419154539
418,1.0385413803586783,-0.17895770312619536,-0.0252887683443447,1.4921786710054519,1.4673673772903166,0.9276284686912422,1.3884161977031906,1.407013743276622,2.194922123608779,,0.6309483474627791,1.9482573460125514,2.0821738904658966,inf,0.9038006291715398
419,0.9284941565173285,-0.11875239903923339,-0.02268587817791301,1.2840444146438443,1.267508188612502,0.7488639658611936,1.2474118309541042,1.6120897223445376,2.3834339985642825,,0.6468212168108125,2.044846896915337,1.9663827585962572,3.7327736476711615,0.9265693603251405
