,acc+bvp_XAp0,acc+bvp_XAp1,acc+bvp_XAp2,acc+bvp_XCond1,acc+bvp_XCond2,acc+bvp_XDist,acc+bvp_XFuzz1,acc+bvp_XFuzz2,acc+bvp_XK2_1,acc+bvp_XK2_2,acc+bvp_XPermEn,acc+bvp_XSamp0,acc+bvp_XSamp1,acc+bvp_XSamp2,acc+bvp_XSpec
0,1.943252864579073,-0.3793463607021663,-0.3822759700908861,1.380786351504725,1.3534554885363135,0.8431384567007655,3.942906641862233,3.0292817009277173,2.123175545217119,1.7011511017183771,0.6425374456860184,2.1145392107176115,1.9253171662204194,1.6605983076254955,0.9128034490802379
1,1.9175731055559442,-0.43726857278425957,-0.3988386411188209,1.2279759365726448,1.2239271319241136,0.7874353072988755,3.742404496420416,3.590911890915904,1.9299407581901844,1.9479183031765337,0.6357360191111145,2.015069701099364,1.7081711805318835,1.801001679192876,0.9479180878750286
2,1.8359443654194572,-0.2453026488749045,-0.42716892793360906,1.255281960822084,1.2642836220778695,0.7863268908733684,3.918457107246463,5.199718916687312,2.434683525513416,2.8384062737996043,0.62595550513784,2.043559729792069,2.159855927484393,2.2625068694266353,0.9389601388734199
3,1.7354968398184802,-0.3097405282986475,-0.2528459761867774,1.2881892493772633,1.2351564182661616,0.781659426572404,3.58247297887376,2.493612656051089,1.8561395879627467,1.543482042454443,0.6547956803312163,1.9123464322171728,1.5751353180419951,1.2010700446679747,0.9397370912214293
4,2.205773953269862,-0.5836532423293911,-0.4625751359558017,1.0475244221619793,1.031506231220495,0.7082024344260097,4.021792689214783,4.908173032120854,2.313063467462741,3.256875830015544,0.6008849035917525,2.086578057249156,2.0389132339697817,2.6473446698638288,0.9192915415679758
5,2.228220855315709,-0.5858121688421933,-0.2550299881405413,1.1095154757779495,1.0937886703796713,0.7185959264754808,3.5413023411653244,2.942586835562118,1.6558570732325437,2.147452052286161,0.6008849035917525,1.8510849353128698,1.4502671113795693,1.7243968852138647,0.9413746984929607
6,2.10368910409088,-0.40170131187367497,-0.39908548991327886,1.095555337343582,1.0487967247907002,0.7619418057869748,3.4733282036916013,3.090175224903025,1.7783313999851595,1.7204006469848003,0.62595550513784,1.9819519204025788,1.530922178484199,1.479593891254029,0.9391866889554578
7,1.709494062706617,-0.19685848032454079,-0.40107307754082205,1.285238619173736,1.2697083478266251,0.8007169461724628,3.8603961707969243,4.040349745633571,1.9175987091644662,2.6106479502779334,0.6425374456860184,1.8355023921759739,1.7368788018696804,2.128073490517872,0.9483422844317061
8,1.9392934643625581,-0.3051625853039397,-0.4889346179136576,1.070718441382539,1.0847261096772105,0.7838260090412337,3.3827191652168795,2.7177172377586984,1.8485856455272565,1.704733822336008,0.6403206450210053,1.867057893278283,1.6063518224977968,1.2864668599729927,0.9564170508597892
9,2.0921360076100988,-0.4899836182524394,-0.45017226406995275,1.2439892122905298,1.254647059519435,0.7493962449480778,3.663913347890416,3.4753481529310983,2.109417056796842,2.408680413368826,0.6509067234006624,1.9782497028942294,1.8786540033128374,1.9485424222256347,0.9380304999280809
10,1.7938568193623132,-0.2844445568269395,-0.4597656256812321,1.1051168907798514,1.1127353957305266,0.7674620296603066,3.358421705201986,3.415069916639603,1.9935387057035416,1.9200117484319985,0.5883313578629602,1.8004639098582014,1.7361714426990582,1.6037290482137803,0.8995178624913264
11,1.7139072692796358,-0.344097714583525,-0.37903075594103885,1.1773043482143286,1.1516802023235917,0.7859449833463431,3.967608186763461,3.9843427733841703,2.352216287046476,2.8988810027891296,0.6207552362147116,2.0826466726287842,2.0764142043130076,2.3285231465424854,0.9000058126102478
12,1.9678602235994969,-0.5365485591485928,-0.35616423771436584,1.3438843059388303,1.3441874694066904,0.877036777569628,3.907827943739632,3.399328845147084,2.3583529540872226,2.115913539774481,0.6284777104787076,2.2949476658648345,2.1269754658083593,1.5562961886847675,0.9199852618394995
13,1.7464176122676422,-0.34028398139513716,-0.3785260293135892,0.9475815537803398,0.9326644525879284,0.6410148748270127,3.5203362696720406,3.5857539991752962,1.8836699914527697,2.2241410143646405,0.6584896970785714,1.8310548518356973,1.6908047062336848,1.7351026227967405,0.9211983725023933
14,1.7562211948486608,-0.29510782135548463,-0.39302214059005086,1.0043791091175718,1.0046808204178777,0.7484283283451697,3.7152923013792196,3.9672911289999018,2.183461969387554,2.526274879058459,0.6207552362147116,1.98396975877238,1.9659859008244163,2.0459632378605663,0.9261794707057451
15,2.007918085247378,-0.3431034613980021,-0.4510699183535515,1.239025316154075,1.2131568124484458,0.775774281228599,3.3673921831824325,3.0424174145765455,2.5090682956400507,2.3871763394328886,0.6528756675646988,2.2784346327617624,2.2405578569852764,1.8779371654691075,0.9400497149688772
16,2.132432141122615,-0.4884922834376524,-0.40209271610259384,1.3472490662929044,1.3293007689051586,0.8046477801114107,3.6078100025788293,2.74462590115514,2.2232648421298853,1.5021550629594234,0.6233814453054027,2.2220296962551904,2.0092807210400676,1.3327101149857843,0.9404274188978288
17,2.019790293036366,-0.3910819523096297,-0.418282135448359,1.2531933338248347,1.2181237344183622,0.7161437015054232,3.809318899594423,3.3828554290785706,2.3521259951165,2.387360003243864,0.6509067234006624,2.100824083049904,2.093709206427629,1.8998256807930818,0.9341603914163628
18,1.8291000128052708,-0.3120822357397851,-0.3764796325405385,1.1478775170876032,1.1355095738136887,0.8225723064678484,3.774541187070612,3.333039679624691,2.115319980289029,1.6283212920652819,0.6068309995095971,1.9434354359076225,1.887519746431742,1.4345723613856816,0.944207384521208
19,1.7706617116632584,-0.2986899051223002,-0.3076426629982339,1.2155711901417536,1.184445470077716,0.7811873983687675,4.209031081710452,4.152488513882029,1.9124700239485148,2.539360899170767,0.6284777104787076,1.945143776127412,1.6783641705450614,2.0157360068461565,0.9325792445670799
20,1.5751231697455583,-0.20199264669563766,-0.2447742005294153,1.14236484727937,1.1440640664767496,0.7835990603443295,4.117813865853767,4.076025053796113,1.7848059187289198,2.0506545805064285,0.6357360191111145,1.825385196877715,1.5550296456019117,1.6538303172557627,0.8849392412851762
21,1.3177687227636055,-0.14867084766236016,-0.3155805330580619,1.0006337750577894,0.9521574871372882,0.6681314398641095,3.495368246914105,3.359410626532726,1.7369656302172711,1.5883769252023354,0.6180765742263259,1.8169405344253138,1.5595642346464702,1.3476992344743437,0.8837755209917304
22,1.7260560511303193,-0.389084683573785,-0.17710521267142781,0.9168964737259404,0.8961596942400007,0.6756816260103656,3.0546426973174956,2.2646477405830887,1.3988994600835971,1.041452708779957,0.648888643467878,1.7031992922485748,1.2124902736318797,0.9071023058197488,0.9386133433439237
23,1.8170444247616717,-0.3816743121698085,-0.3306814942331835,1.0916244305256961,1.074702882382924,0.7857850046394605,3.6509574982404067,3.826425163333278,1.5307725296381571,1.3245344101662992,0.581717464821069,1.7409396202314218,1.2916871852456142,0.7901650662231675,0.9505393309259681
24,1.7956570205701603,-0.3843241075743191,-0.33204491945057657,1.150001135006402,1.0989290627040484,0.7863802589065512,3.599687914946924,3.6261407958376064,1.9680626366371958,1.829846926371093,0.6509067234006624,1.8858503926276504,1.717871253145979,1.201255411349436,0.9400891142081853
25,1.7123410851704401,-0.46407809498172914,-0.3114664007227901,1.0036039259711707,0.9818988759714024,0.5580029007348775,3.3973506310265154,3.7452941778718682,1.520839421603695,1.8317464094301443,0.6447042257417027,1.7426518951210273,1.316848825783109,1.046241886270334,0.9476625064343269
26,1.4838467052540714,-0.2665410559206939,-0.34188828058116305,1.0748532446898182,1.0743244871874513,0.6435923494683955,2.635111558977195,1.921590218958793,1.0573543830995193,0.8248279310975707,0.648888643467878,1.3523439217503432,0.8616199795901742,0.5664777971834511,0.9507950708546808
27,1.110101039456078,-0.15327643750465042,-0.18404651961518523,1.2615224032548655,1.255374148628341,0.8158835841383346,3.5807882878238106,3.6085773654849804,1.2275255580234647,0.9525451360614918,0.6038851895711802,1.4114982154831808,0.9202868552487333,0.6004508912629494,0.9406110360456237
28,1.1672031007314754,-0.22922559780413448,-0.11196973153680376,0.8076950901818144,0.7788265492983732,0.6342710448864634,3.7127869199173125,3.7117504977624565,1.2619307277230352,1.2304488246452816,0.648888643467878,1.5328370184476987,1.0962479783562167,0.7923150921757595,0.9498407251736577
29,2.0093852688471223,-0.6876643131526616,-0.12132726961956772,0.9228689135804117,0.9159134423913073,0.5281367894328077,3.7098048940045354,3.5804952058666606,1.353482785062983,1.8522208742270898,0.6699045166045591,1.8202961273702438,1.1938264379620958,1.189293091944123,0.9568193805636349
30,1.686931322222968,-0.41739196836727155,-0.21286384468930977,0.906076801171693,0.8987527540462191,0.6312232373108377,3.5948479356769223,5.170459518317074,1.5232797152867876,1.5502004051356548,0.6652988471865258,1.6847602969017201,1.3248455489181428,1.2417824660119239,0.9473198026323786
31,1.2446011943840487,-0.18110185611672647,-0.13666375887190868,0.7438060773635223,0.7321533510640167,0.656585864881376,2.625878238780846,1.6840901108234227,1.044536953357387,0.6393432810545986,0.648888643467878,1.3381393192328437,0.8202492343181778,0.5360875275240709,0.9132703329044949
32,1.6053350679633793,-0.1594742752607755,-0.3030174787908686,0.6081991701319318,0.5976914083250002,0.5655319760759769,2.790360249704748,2.803356116421883,1.4302233428724622,1.3964537811990025,0.6447042257417027,1.4849612795840441,1.1654491420717514,1.032266088333533,0.9425100590268654
33,1.548550383303202,-0.31268737676012337,-0.3330963539435965,0.9351108486095147,0.910424028417491,0.6375810713074713,3.353995699721144,2.9275271408330066,1.1689824066288668,1.0545814627178998,0.5947193981915972,1.5377375982689092,0.9807947791687512,0.6694371176976616,0.9081920826794655
34,1.7876121531767006,-0.3279001817740117,-0.3651014501783948,0.9842232608846749,0.964234515391762,0.6205723567404459,3.162168355681925,2.7966596748526373,2.1075579545375716,1.4956557558909673,0.6284777104787076,2.0133209393596134,1.9109995938789388,1.352017926590709,0.911664724926411
35,1.8366195041780127,-0.40772225040835913,-0.32524034298276394,1.2365895496872519,1.2296509828318762,0.7243196581877052,3.6595228427498956,3.3672837632458017,2.092258159397315,2.098341715762648,0.6566669596287297,1.967145135020897,1.846038571739688,1.5098818294766454,0.9458180148808308
36,2.0182616909357733,-0.46661782646769356,-0.35882600678585186,1.1782043686438082,1.1644489953117432,0.8015422364972434,3.409826034024747,2.9365611938735356,1.7492645599541947,1.2367700071493446,0.6357360191111145,2.087384111656687,1.5261817481517195,0.851842383804526,0.9085919215485057
37,1.8197354060719149,-0.38714689507613276,-0.3264988378757033,0.9943438690386791,0.9851204678483438,0.6464315693108172,3.4445190855895698,3.2859987456353514,2.043830224746072,1.9818704724274643,0.6333676938231112,2.1923365432634436,1.804276530465322,1.5703102182102382,0.9403740052979223
38,1.4303117292386736,-0.0994511957791887,-0.2557196029234994,0.8602536371037206,0.825896899793742,0.5796984320712268,2.8983585764906876,2.4139413978798845,1.4297088533723432,1.0977563698751391,0.6284777104787076,1.6904672177461826,1.25056645495221,0.9101033071737565,0.9587941688144053
39,1.7756903593194815,-0.344342122667197,-0.4067345199639606,0.7596632029262712,0.7505276858379548,0.6255836400024612,2.7490178527594624,1.9858959736449946,1.1929228402403813,0.982098849852197,0.6153451465759925,1.6913712951967865,1.0408008480258333,0.8723661624575655,0.9251319252098877
40,0.8784630741730085,-0.07309729357803202,-0.14404798921861237,0.9853208229695387,0.9631093601455094,0.6586206465086467,3.499300490726922,3.6987798460556887,0.770243241724628,0.49510105263100285,0.6584896970785714,1.1233149013084816,0.6201624693015251,0.3336557264683923,0.9361435088399672
41,1.3069487220161455,-0.23583969257754395,-0.14030836969563729,1.09203895671496,1.038801811965388,0.7635578830878783,3.55553060012057,2.8256741803988783,1.4205340139463805,1.5302505815372816,0.6284777104787076,1.6398971199188088,1.2250018420043247,1.1686641280391081,0.9460017890903579
42,1.823039676964992,-0.3206867173228127,-0.26557202606809416,1.266117915284386,1.2282029830458883,0.7875741667688742,3.6091869948396638,3.2493235534609095,2.351362505809296,4.880825423163583,0.6468212168108125,2.0825575023580933,2.027239164422929,4.302036008977389,0.9498638899593208
43,2.145872822462914,-0.4911198033799327,-0.29308800959310294,0.9634604481950737,0.9482815759117014,0.6707978010602291,3.4632025681429908,3.075095855101023,2.1524469285729193,1.0305688441101888,0.648888643467878,2.01066202628501,1.9030290362438327,1.1154477031319723,0.9457682211424564
44,1.965217626158014,-0.49091547251015105,-0.22725311917590452,1.0925358322836156,1.088774173796292,0.7771914877578551,3.3296509485138377,1.7950788706138754,1.0707794499666092,0.9275286590102994,0.6309483474627791,1.6901660401394727,1.0170511746588455,0.8332422341973448,0.9543106760277791
45,2.1242733942055856,-0.37900223740531946,-0.42227836296804133,1.199713449627426,1.1889159218288021,0.7869226603569557,4.003059432988326,3.1063607042410295,1.8090362915258023,1.7050885483495957,0.6333676938231112,1.92422476367058,1.709325108391095,1.2115709835570074,0.946813681646003
46,2.40195917904467,-0.5708550716587076,-0.20787623438897104,1.3099756435753975,1.2951474544381987,0.8161867564338632,4.3793276701928106,4.728994849177753,2.3258047122687198,5.140794303042889,0.6425374456860184,2.3181500452651,1.7930016352733822,3.4897507790036,0.9444766977921271
47,2.791738603301495,-0.6043397026886492,-0.25502839968032265,1.295736303503516,1.285665105527315,0.7846763858139211,4.253073164885388,8.782923532750885,2.3852383792112835,4.191185067392377,0.6403206450210053,2.419868253608778,2.105259224705777,3.9920657131016823,0.9445760020156915
48,1.9346741555507387,-0.34342725893437565,-0.29301775876406744,1.0300326711255108,1.0203655259432627,0.7031143161784845,4.083260075829213,5.900986404452284,2.1775307757418694,4.112662151426824,0.6468212168108125,1.8851182209739141,1.7688231817787416,1.898551624357319,0.936741031454364
49,1.723242728930325,-0.26933773132924965,-0.23845291724909742,1.3276354940666757,1.3122883678956367,0.7840119296738626,4.434773734703315,4.445567313450376,2.2068840757068298,2.765032017367601,0.676637947632344,2.131811438787987,1.9506045525688396,1.9135029061005353,0.941352182076189
50,1.83159570155981,-0.5277138216628341,-0.29845128002483123,0.9245792741505668,0.9012007493016722,0.6969797830054638,4.265598224887146,4.3666183561747856,2.109470133335375,1.9572284807874276,0.6403206450210053,1.933860812535645,2.00862140037721,1.8740957558886908,0.9432283518734206
51,1.793110959404442,-0.3310031624678392,-0.3009155067833482,1.2990719279847722,1.2685553835217886,0.8476330274646052,4.152668169454874,4.681673588215767,2.04374431776615,2.751976432731493,0.6309483474627791,2.044589330912625,1.8384143921144172,1.8933494444639942,0.9270355116414073
52,1.7300389167087433,-0.5526105517251694,-0.29250116435448514,0.7548751599196819,0.7407434205242279,0.7101975957138177,3.259543971564287,2.999745580618774,2.0927813107100612,1.9129580243086628,0.6547956803312163,2.0703276441478686,1.8539928890906838,1.556318390103439,0.9505644942987459
53,2.0424400815752586,-0.5491676926852329,-0.31379713983461366,0.7486336950879154,0.7403925931497761,0.48401543832098404,3.715216568443534,3.129766386061249,2.0573220600945943,4.360937723451218,0.6309483474627791,1.9314047517415733,1.8767588641550137,2.3899151805743943,0.9500659833239277
54,2.0863733856070557,-0.5039836260013325,-0.361314908115444,0.9157204108004917,0.8982394298507027,0.6500118482923662,3.5937530867079124,3.8538440545540813,1.7589460849477505,2.3439994076915323,0.648888643467878,1.6493344094334126,1.4928376090267663,1.3984596463903411,0.9382219899018897
55,2.0428910031551077,-0.4054687102925496,-0.4334818012475493,1.09528522132044,1.0601063332324778,0.7247610226104207,3.458175336499815,3.6256210134660747,1.9617839650490405,3.586574939630911,0.5783247308855777,1.9140024356065317,1.8106193438275784,2.236205798211982,0.9417767091654411
56,2.4078054127096182,-0.7991800503346954,-0.3692879567557653,1.0031285441536189,0.9973165327664125,0.6706391745613882,2.9133359339638685,2.4741060643243324,1.6535428027516514,1.2975398113248866,0.6153451465759925,2.0101642661950914,1.4273513781411757,0.8303889690112155,0.9519509403850372
57,3.001172470822498,-1.0689893121380685,-0.373370076867975,1.160830057626481,1.1500912590236219,0.7325144171781718,3.004789841008521,3.4470568003281103,1.9202611118237247,1.3711041424164951,0.6528756675646988,2.0769557449452747,1.808749952165498,1.37125648375535,0.936568205748179
58,2.3588379803614075,-0.6174422689407377,-0.4017760526780212,0.8593575423243549,0.8619113290820876,0.6381929733057838,3.82747834127945,5.139266487904736,2.5302654415342625,4.074010197175733,0.6566669596287297,2.017322612061032,2.240325501119261,3.5663978976759987,0.9462023027963531
59,2.265160543608869,-0.5909521615206685,-0.3023770936512,1.209759415378899,1.1916560058676007,0.7468198258574444,4.262717398752602,4.228969820128715,1.9287339736990572,1.6016472260145709,0.6403206450210053,1.9584439252426107,1.6650640214298627,1.1132906817940547,0.9414603285651507
60,1.9567804053154605,-0.3883616809463092,-0.4139256994461583,1.0333571577876637,1.0423187193411763,0.7040804171798165,3.4947368667504652,3.453414201796859,1.7770429789158448,2.0679051307406273,0.6619902821573977,1.8967496830856863,1.592186612884476,1.6667247701763512,0.9374659384693771
61,2.810124233131219,-0.7012881184663383,-0.5889175614700363,1.1638433152892325,1.134539429858798,0.6628200704394662,3.5831023248093343,5.298006268171328,2.5778929957165095,1.6335998500461946,0.6403206450210053,2.2848543272971935,2.3634553513515155,1.321175961740498,0.9318707335433234
62,2.4023128190367395,-0.5358341193891694,-0.49854626088315296,0.7366444340359295,0.7392568601075882,0.4748441669391307,3.592698186677476,2.8132205526743053,1.593948976116117,1.294198089346467,0.6284777104787076,1.6432819944968238,1.4086679590553959,1.0311250164116503,0.9348112809644283
63,1.6276984375925954,-0.19726105153468376,-0.32063957148287503,1.2057597373175908,1.1634736025544186,0.7263394961398096,3.9651447145761956,4.139159659999766,2.0653881211789296,3.2746960080789704,0.6233814453054027,1.9269684587078169,1.8190694092460682,1.7534441431895862,0.9555981906258484
64,1.8665468704591963,-0.575234312458899,-0.23412279416966628,1.0387262082706472,0.9920266583138494,0.6958340276057456,3.6060957244312877,2.0988810110253704,1.610468863416004,1.167176624507423,0.6619902821573977,1.9035852844103118,1.3624986234446694,0.9299243081436196,0.9491291864500608
65,1.7360314120651335,-0.3291222199142745,-0.4630265706461747,0.5418108185981025,0.5170619085837265,0.5091398268676245,3.4792788279971587,3.3397036667155833,1.631052015614242,1.7916166960036501,0.6357360191111145,1.6948747720512725,1.437823356575876,1.3013238011651136,0.9476565723839716
66,1.6202790334170032,-0.29986989035860034,-0.2938424696888277,0.8765680546154017,0.8598810817165463,0.649899080773449,3.495327314750476,3.4721458099045495,1.7831048233534466,1.8610897498338523,0.6584896970785714,1.8500950462410184,1.5846591189499797,1.4404764918990547,0.9391528069908538
67,1.5372436975174137,-0.1795377438642073,-0.29764817955463646,1.192570487803697,1.1673589982541248,0.7829227332465466,4.142364411776311,3.9651502723439904,2.104244946735977,2.3674551117247336,0.6357360191111145,1.8790617976308517,1.8903049073957712,1.9211705428795576,0.9294339643586231
68,1.8980444086492854,-0.32676997382316597,-0.427758547000214,1.2136799328352528,1.1848536045760927,0.799296491064879,3.8133612080932746,3.2998873534241047,2.118099157925494,2.0938771840491115,0.6468212168108125,2.1196155980092364,1.9303931503928125,1.698073985150732,0.9294456608386573
69,1.8350713561574445,-0.3860601208408809,-0.35219778248450395,1.3309135658237299,1.300366924387278,0.7975808623681585,3.2073624231075333,3.054094590191747,1.8162623168907719,1.3764837649349342,0.6652988471865258,2.02142423753253,1.5876176581546657,1.2041095938754276,0.9481082650450129
70,2.321386446427282,-0.4063559924119121,-0.6001061339755523,1.1084265623948666,1.0734952406908702,0.6694108138538843,3.898699540093761,4.430865222764101,3.069065844976713,3.054249738094807,0.6652988471865258,2.1353771740101393,2.664187150006176,2.71618032718546,0.9491232946432977
71,3.042270252984409,-0.637201575040689,-0.9066337897968414,1.200739758122081,1.1917490058075892,0.6240547421816934,3.180864663148779,5.15383909956797,3.0856058077447157,4.286495247196702,0.6566669596287297,2.412648005635291,2.883449604174433,3.338878617262897,0.9142558059675643
72,3.1571839951851315,-0.8627345225606067,-0.64147748739003,0.9792384319403694,0.97484598140765,0.6521333966348283,3.157466111364977,2.63297810684668,2.440608978112937,3.880574661968388,0.6380535849069913,2.1826315750333194,2.3131860740274086,2.4119376299214093,0.945183688402555
73,1.7230177330472136,-0.13982207580337114,-0.3930602992354117,1.1186113061337402,1.0981543864825913,0.7313990050356276,3.5083966351040545,4.580313056944153,1.6053022148627782,1.0792657244130204,0.6509067234006624,1.7426518951210273,1.5104128790394329,1.0140471320507836,0.9466705230347422
74,1.3918771596359318,0.08006921503055286,-0.3315062000536211,0.944922725412312,0.9441398952923103,0.6090515978884654,3.7418470910146175,4.060361798813505,1.3487224275713503,0.7640417328242778,0.6068309995095971,1.3217975075170658,1.1732941673292998,0.6853650401178903,0.9533406980397797
75,1.0394282275646431,-0.08787322339897936,-0.07550256991822502,1.0718191799994659,1.0391032072903499,0.7197088481255215,2.831063250075598,4.779148766754576,2.3622789926822487,,0.6602640781246099,2.0446751788759348,2.2653409198216745,6.404401670054847,0.9399011677671681
76,2.2635261043571666,-0.4266616070265516,-0.17662664720372967,0.9218440594086721,0.9309803975593868,0.5870650885054516,3.542629589238159,5.488338337488423,2.4574390789412264,4.115679090569517,0.6309483474627791,1.9878554594438493,2.065347159447076,1.7522435095417757,0.9448674801825344
77,2.805931421913984,-0.7662404597913403,-0.5410770928422892,0.811706708881157,0.8068619591539431,0.5252007950361497,3.707950880031889,6.094398566668904,1.8915311775619952,2.121531532078704,0.6333676938231112,1.69414890703029,1.6908470952938572,1.4946110293657042,0.8890569788769964
78,3.685680518341419,-1.3021823887810715,-0.39730536816240014,1.7195540247307735,1.7097492396466385,0.734635078744949,3.92801034592608,5.253875482943515,2.3723298576213496,6.057085034917044,0.6309483474627791,2.2716248999124695,2.358293455764816,5.679034304967007,0.9199114116794779
79,0.40529833570961715,-0.04593381138042328,0.0,1.782888960151263,1.7841303383465188,0.9090865996382079,3.8403744920581224,80.71877006770956,3.414015101329141,,0.6180765742263259,2.289778558946827,3.4173428169748883,inf,0.874294336453326
80,3.7170261057442584,-0.8590739790738113,-0.276412347579575,1.3546799060257984,1.374532172087136,0.6897273586737632,4.331272612515303,8.102998199734898,3.105384018051362,5.023737747621872,0.6333676938231112,2.57191802677763,3.1055471395611978,5.0369526024136295,0.9147058368716281
81,3.1357061689749575,-0.7891901214557844,-0.48529992345481393,1.3539832899204067,1.3568782986209167,0.7162667036704499,3.787973830883593,6.565039461694833,2.656618072671278,3.6670656425333243,0.6447042257417027,2.3624530567039965,2.6448544472995845,3.6276687230690396,0.9567967381992426
82,2.8222539657238337,-0.5783639675888887,-0.5722702175100007,1.0896154016613442,1.073593029254452,0.6559839931540921,3.817529693169368,2.059460664451174,2.096829588948369,1.286336693862744,0.6403206450210053,1.9288017798232497,1.9972074675796363,1.0232174185647263,0.9438528409644886
83,2.6451296722950763,-0.20811545215381,-0.853215908004188,0.9073853095310416,0.8442170740039459,0.49202401670773543,3.026512812359549,4.293834796313525,2.5809772586868722,3.75740270158096,0.62595550513784,1.877753182395031,2.321951895484896,3.8405640414460014,0.9501500170929944
84,3.6323065702280766,-1.4658564556856715,-0.47647132885995513,1.7597378025043853,1.7649511256080344,0.6593531977878314,3.0240629074645913,4.312584724793769,5.488871338809797,3.630885985955822,0.6528756675646988,2.274429648245191,5.107783610332062,4.02535169073515,0.8880017791193083
85,3.6094682356955348,-1.308116029418057,-0.4003656021444964,1.775587897508887,1.7878111546773638,0.6762672159802129,3.4509077159556187,6.113212282333494,6.386012108427082,,0.5978297680564633,2.449925680892755,5.913116830696224,inf,0.8976601155642226
86,3.9917463630486725,-1.5067356207019071,-0.2097153154090219,1.7727149131709565,1.7955217376024455,0.6614307302423639,3.395753272080461,7.638531396472356,6.5271110354023145,,0.6284777104787076,2.571191018385013,6.438478658129019,inf,0.9078270823238804
87,0.1740099440969222,-0.016820961262702477,0.0,1.7756933698075417,1.7504109187501937,0.9264580728644092,3.5308728829915372,53.26673895160096,,,0.6380535849069913,2.3940914055722096,inf,,0.8634009158216487
88,0.7644486217691021,-0.05605956559640082,0.0,1.774230426999253,1.7554208404322371,0.9080019704305146,3.7414356099833626,59.937221953401696,,,0.585052858160615,2.864119386752099,inf,,0.8698132400532158
89,0.4964768022760636,-0.04468291220484572,0.0,1.763773025580249,1.7679709465947462,0.9255202888604904,3.791331075176181,91.89131928465576,,,0.6380535849069913,2.5533282559066595,inf,,0.8481295660988705
90,0.6327748628320223,-0.05062198902656179,0.0,1.764552810817348,1.766322615985987,0.8885125410901221,3.8703630650878,151.18192424837125,,,0.6447042257417027,2.7306366997750056,inf,,0.851705221417071
91,0.13647100509542018,-0.010462777057315548,0.0,1.7623254893277451,1.7661170218653273,0.9364949941158592,4.117906787550722,159.78886354490342,,,0.5641709578113449,2.61077226163774,inf,,0.8354970623216249
92,0.3505803174713068,-0.019866217990040718,0.0,1.7510544402991493,1.7127638158568592,0.9481225659757658,4.019119762944849,148.34916064242606,,,0.6713451011121618,2.9452504194061544,inf,,0.8371634473230131
93,0.28518912373281,-0.019012608248854004,0.0,1.7512488398641943,1.7181713993771037,0.9317433097019485,3.9130251206953632,174.49651720680177,,,0.6207552362147116,2.7591680722808203,inf,,0.83723969868625
94,1.6191486739396526,-0.16731202964043076,0.0,1.696393681943307,1.6784510324920026,0.8810149277110959,3.1810687061758953,29.785344582504973,,,0.6403206450210053,2.829653022861459,inf,,0.9083657245798983
95,0.9099728035408273,-0.08011202079953335,-0.07431842423556886,1.2055447874358225,1.1967671268226374,0.7017247303208857,4.218000214034193,9.392394101941631,2.7965621617337804,,0.6602640781246099,1.977607235798568,2.598004147947979,5.733341276897745,0.9255670602458087
96,1.4117088972160474,-0.2023449419343001,0.0,1.7758397490245028,1.773292982939014,0.881650701577944,4.114001931483671,23.64639246975164,3.3740657331266553,,0.6740851607140061,2.329727927149313,3.3773934487724024,inf,0.9047272813942209
97,3.1883760157882906,-0.7570948934695938,-0.201429775676675,1.261657742978094,1.2738147026761768,0.6653561297315499,4.20255762116864,7.3695367400790825,2.672833581451931,1.0016870233048203,0.6403206450210053,2.178402823095632,2.43122171324184,1.1349799328389845,0.9551813478312354
98,2.53892146044703,-0.41812881818965364,-0.0981185454345758,1.2114234940823623,1.2128182255258082,0.7303136078095903,4.227546262229785,19.55582782283131,3.599402171310727,,0.6547956803312163,2.5233703162401286,3.1972192767324534,inf,0.9290473428947406
99,2.49486306176954,-0.4685819496746926,-0.09692034432640331,1.6515047749718041,1.6526346592835242,0.8449919080151027,3.874235226790399,8.064344953668677,3.3107045381257647,,0.6038851895711802,2.3830723439067323,3.304180828798258,inf,0.9307209037009931
100,2.4066503620591577,-0.3930862258029958,0.0,1.562903535426857,1.5599031893795599,0.8118008037984326,4.546501239156557,57.63009073969258,,,0.6357360191111145,2.562940265927101,inf,,0.9506148205562932
101,3.058047409384051,-0.7034972282588192,-0.23407084851778828,1.2892395393351612,1.3027695693606787,0.657048339756929,3.4952983636847565,3.0922568430276116,2.6323795270842294,0.7395568321033299,0.6008849035917525,2.4054795161566784,2.628765643578711,0.7456986758863755,0.9288677384572706
102,2.366677633634264,-0.43118541786325093,-0.6773859162538716,0.9534957220740214,0.9117789158892452,0.5017703590055996,3.8082781975348956,5.965655008544942,4.2930105546720805,3.483728341619534,0.6509067234006624,2.008010164285094,4.0765448058889,3.0204248861443626,0.9509202154776477
103,3.192974946959333,-0.9191135257867755,-0.30770115461495645,1.280804976336673,1.2898597485187837,0.7224120012216009,4.230797894205434,7.242605745761781,2.24844504520774,5.302804382168037,0.6068309995095971,2.4566431845151406,2.2294960640066175,4.775515551735331,0.9338217096860553
104,3.7127337652081165,-1.0205156382540475,-0.11927385789032069,1.784061417702643,1.7956178506213645,0.7849893275916212,4.192199350822108,6.751836583892658,3.1402467840377852,5.680275182569256,0.6699045166045591,2.5736650064037674,3.126789678159759,4.608497976080766,0.9077202730627563
105,3.1481534093676764,-0.9457747095014202,-0.6122936691811924,0.7253032838138614,0.7182379833803085,0.5011522965322421,3.5003385452760845,5.31084604626776,2.552696898632011,0.7258694209552133,0.6380535849069913,1.7664816620437864,2.239241708524786,0.5183789923307373,0.9400823864304014
106,4.122304966590105,-1.5278387551964343,-0.2859754301032117,1.78788262144508,1.7900360857158713,0.6967998907305997,4.2881570030978855,6.842593505775366,6.44205335124838,,0.62595550513784,2.6562487025389467,6.0432660456712455,inf,0.9200968743389893
107,0.4007281182894635,-0.029386728674560655,0.0,1.7858127620081727,1.732778027080455,0.9355271830702736,3.375151899633054,86.12313713862932,,,0.6668815377411301,2.73217214322262,inf,,0.8523686487331601
108,3.664493950045061,-0.8196753911977529,-0.3529626728166665,0.8974025951013428,0.8913001380960862,0.5628264760270398,3.616356136684107,7.896412820132548,5.93704749858775,,0.6207552362147116,2.6306263041374063,5.641444429245846,inf,0.9587963898432111
109,2.7423530973785097,-0.5560887238407237,-0.17437002606520063,1.1588351756128743,1.1674186358100935,0.5720078335744588,3.79066445392282,8.243953025292669,6.291236902017573,,0.6727386042041725,2.3370615225240186,6.074771153234392,2.995732273553991,0.928515029534726
110,2.7758234027579687,-0.5275665679397603,-0.14788379339801205,1.0526125029794713,1.0534447237405082,0.61360016707544,3.757954381523588,12.483574200111946,7.208562176199068,,0.6602640781246099,2.4005655013542495,6.609104175159782,inf,0.9448117170778175
111,2.713915744851553,-0.44327290499242034,0.0,1.7862624266664722,1.791153515478525,0.8380731242583384,4.4204766784393215,217.62350455310215,,,0.5915533975974677,2.6554577509830395,inf,,0.8632916999508473
112,0.00039380109173576617,-4.4630790396720165e-05,0.0,1.5522668227282548,1.5189415002446987,0.8043904622116884,4.27676179233798,201.6101069939217,3.5226293895742904,,0.6180765742263259,2.177814183816396,3.5293071921053194,inf,0.9115629383286494
113,0.007182042368313508,-0.0005027429657819456,0.0,1.772167256621123,1.7438875218789798,0.9200211224577894,4.728769778026388,152.45403236423596,,,0.6566669596287297,2.6659490250835747,inf,,0.8696000707218717
114,0.519888308471198,-0.020718926040829325,-0.04230514388859021,1.5954358451238577,1.5302854786027622,0.9102384311297819,4.978367068482515,5.58288288755765,2.3747553568134854,2.332006227637476,0.6602640781246099,2.221517269905264,2.0959708436310467,0.8498009906053222,0.8970830411569237
115,3.0803414818029053,-0.5985570616881934,-0.36667217817571385,1.024120841885096,1.0205611525216567,0.6064778325358561,3.8708051972720767,6.830243645395923,3.0477121219779937,5.028085580557975,0.6038851895711802,2.219776981806731,2.5375089189182494,4.858519579359367,0.9524461800419229
116,1.3926550477273614,-0.13524120045596535,-0.1313185177802666,1.3240781960951118,1.3473332297802505,0.7753408368888681,4.602087102451324,6.581425782905081,1.2515942892586427,0.7230659514415625,0.6008849035917525,2.160410604213503,0.9812470109431518,0.384725131928646,0.9550692312178283
117,3.247158449547881,-0.8094783844273707,-0.5593880836216412,1.5397086747176028,1.5495316444167926,0.7163464330746766,3.8327585460003286,5.22068643996458,3.478124230368032,5.565453858407201,0.6233814453054027,2.3506088842355766,3.098531372047044,5.2652775124698366,0.9041202379265566
118,2.5525369901384334,-0.6226827139680926,-0.7907774905155849,0.8650031635810163,0.8637369910514929,0.45910906890572134,3.4256420293531806,5.2501833993240945,2.5155867138227808,1.6616194962159747,0.6778444222523095,1.592963256784715,2.1870573020391837,0.9182400502302047,0.926741036841794
119,3.6162887323221873,-1.2978620400694625,-0.3373315583353381,1.1046036002825685,1.1193659238985538,0.5992934352916246,3.103819283264324,3.0708077299061616,2.7053461161644243,5.781729774945922,0.6008849035917525,2.2139639013405175,2.300959406799796,1.8687611203258123,0.960715591621633
120,3.3792427613810276,-0.5843381068218526,-0.20415187083372047,1.6397907769035314,1.6629158184862916,0.8437473688822518,3.934480503905796,7.429100087567559,3.293480655774028,,0.6447042257417027,2.593977744842362,3.1895696982827015,inf,0.8924051155892303
121,2.6222272255129386,-0.519282443110118,-0.1529865519181809,0.7965823900619641,0.7906239203047851,0.5489920305934799,4.1991596091653935,2.9464928317335435,2.0590469647429326,2.0546040199321536,0.6309483474627791,2.2500980669432873,1.4935896236656439,0.9436571035681758,0.9378744615613557
122,0.8082078574125746,-0.13950254113096405,-0.04259283343269857,0.7103929611832503,0.7044234871712848,0.553826533189523,3.1978923728877704,4.054915650218067,0.7602055551232295,0.8787834404624004,0.6403206450210053,0.9456337240710291,0.495562774666044,0.3817784776439035,0.9407138060673716
123,3.0494056447112246,-0.7812059883433968,-0.39789752761161007,1.0237941166414242,1.0196645874849395,0.6224026697446647,3.676813510156069,12.808462860757595,5.5181620157967535,,0.6447042257417027,1.9314814124031925,3.6500834295287596,inf,0.9525452027916503
124,1.8758398357541963,-0.36975006110207476,-0.030429103858820496,0.5620863146557517,0.5646519036419071,0.3265104928352195,4.676907627625543,41.6838071186944,7.087557043393726,,0.62595550513784,2.1161055260514274,6.893564150462604,inf,0.9478131114055227
125,1.8003600768225825,-0.24604921049908626,0.0,1.781292782915408,1.7769726886046369,0.8097566271410609,3.772672046603766,168.88095697074576,,,0.6602640781246099,2.4964395656017246,inf,,0.9083684678548816
126,0.06627079368921458,-0.0048598582038757365,0.0,1.7816017173148395,1.7692042934420533,0.8505662752611787,4.175317211967484,391.1814822133508,,,0.6468212168108125,2.6600540028339545,inf,,0.8740709349247628
127,3.7012542259887913,-0.7515540320179503,-0.11207195404610092,1.1817627523856975,1.187601835449182,0.5821721655032241,4.148648930139607,24.892927191184825,6.6658974913117675,,0.6619902821573977,2.7890795064142924,6.6725752938427965,inf,0.9639400659544892
128,2.686427838109856,-0.5849489765878273,-0.6752556184102001,0.9179200471464253,0.9238798098181006,0.49181989839599627,3.8939985753891144,6.33467146106248,5.1339884466185985,3.777489460147697,0.6547956803312163,1.7895618856845676,4.9084728623155005,4.0163830207523885,0.9465349644946559
129,3.9548443390992882,-1.643746620878439,-0.16934971606862578,1.4283113988843616,1.4415927240109558,0.6245556225686425,3.943817712237879,2.0167424207552034,2.632255295765354,0.7200487533361493,0.6684167106117298,2.4142618102186684,2.630275035553269,0.7211210326023515,0.9334033169665056
130,2.178700046168209,-0.42756503254582345,-0.022758541759595154,1.1066327853467797,1.1209636099959293,0.5427149107707921,3.758746773681467,10.91075193782634,7.013810746438347,2.1905244035656555,0.5883313578629602,2.1898518230068063,4.58298413807596,3.248434627109745,0.9019024691055506
131,2.210653804199516,-0.21332505349739084,-0.5156110433642052,0.6696196226846962,0.6690762262687281,0.5277462181278051,2.586049909586286,2.7333714612821107,1.673663913900405,2.666282838503353,0.62595550513784,1.3638807662829906,1.5119965454627216,2.079638683129464,0.94407685466729
132,1.529854680005509,-0.030807321854633973,-0.3659802797009237,0.8844045136153122,0.8719878383285461,0.45385710618852937,3.076704169180277,2.8979480725509723,1.27088770921998,1.6597067836692418,0.6566669596287297,1.1726177019786055,0.9924301436623927,0.6971252578964878,0.9618235394398134
133,1.8673562011945948,-0.1862187255173735,-0.42545184947740644,0.8039958968689079,0.8065293965882744,0.5552824177770336,3.413761993219897,4.914952621779779,1.5846483599600252,1.2739539905262036,0.6509067234006624,1.4521967748992852,1.2463982674321696,0.9726628104326619,0.9552083812874765
134,2.948320466706241,-1.0543095860314255,-0.39747491318105305,0.9012432017801484,0.8788079689814098,0.5494397725568033,3.7977244119392246,2.7899424553520786,2.1334976924036058,1.4448764794397426,0.62595550513784,2.2863837136560377,1.9572345513138174,1.3648540298820213,0.9395901721542346
135,1.4249535187964941,-0.21074756265455702,-0.16797332440331936,0.9905901385455826,0.9681877425196418,0.7455581424792982,3.444625584852392,3.2655470831804667,1.48067593745243,1.3430810039553744,0.6357360191111145,1.6448348344925363,1.1624833682683429,0.9163827662950934,0.9443809491330831
136,1.516327877102291,-0.257208753946799,-0.2611564288424986,0.8127240774426452,0.7883318791130659,0.6708693536330488,3.306988350690503,3.4395609207888933,1.8640412356383975,2.1083497953766397,0.6619902821573977,1.7180134673395706,1.4810597302324504,1.3229820817055638,0.9425511505736061
137,1.6293367002249217,-0.4403232315477099,-0.23304508704232021,1.2222446023341589,1.2256464795544155,0.7991951302471042,2.4747043895990886,0.7329448129527081,0.7824075076989137,0.39459443867733235,0.6207552362147116,1.5165042917844016,0.7201890294621844,0.3874753958749221,0.9343199083065269
138,0.3872853590040348,0.03574497800040771,0.003312972982248863,0.34474166198771145,0.3265295692433856,0.3461748390299501,0.5590180452151932,0.30477661628544217,0.12317771387856531,0.10578633263891023,0.6309483474627791,0.39819162414166603,0.10108978017078307,0.07276971620361149,0.9521849461958113
139,1.563139920022615,-0.07286138541409626,-0.32694038667713754,1.3267229635329882,1.3269242454561365,0.17451375870703525,0.2870121278916611,0.2860415340329121,1.717042240135479,1.9416047080196812,0.6619902821573977,1.163257482161641,1.5271165339276265,1.5486110359590994,0.9571703700979867
140,0.6413529534313875,-0.15143705747734215,-0.1537149184621849,0.7159488435921157,0.6037788750699831,0.543885383150798,0.8477980071226109,0.32233045800225635,0.07851548860683161,0.02221128280925598,0.6547956803312163,0.5610278956014279,0.07859958197007709,0.028697017557094705,0.896939315312684
141,1.996436046982685,-0.5241247450410845,-0.22570425313625123,1.2582909555139294,1.20542598663425,0.7900012001845034,4.769845237039155,4.608623369114282,1.8142630136945828,1.4303665127227498,0.6425374456860184,2.081131858349366,1.710642018927203,1.4193469442413125,0.9344281331431492
142,1.7803175979174521,-0.29913669301193235,-0.31760487456823905,1.289069691566308,1.2801341668363793,0.8603783398044959,3.8520122719734227,3.3709486310220425,1.7068856625644186,1.130181607741893,0.6097226960127671,1.7967050116210694,1.5226052105689019,0.9104723109272337,0.8476489375836398
143,2.156056606168772,-0.4938556648894594,-0.3703287554906644,1.437914530948274,1.4381578574467642,0.8314616546552839,4.288817762182596,4.938209123767997,2.126140764822739,2.588307802368371,0.6468212168108125,1.8839478602229578,1.8406739192111523,2.126115108178754,0.8914160677704107
144,2.1427115934763354,-0.4056675641946951,-0.36865372903765764,1.2876533783795152,1.2721920123100292,0.8147854886450795,4.236551041470755,4.227545581450211,2.207905582152709,2.516167238256659,0.5783247308855777,1.9516152813063463,1.9626324191439108,1.9839289122341677,0.9219787167304709
145,2.182215332769636,-0.46097433536993226,-0.40683148912860234,1.302537877953308,1.2967776699448965,0.8143814457207652,4.539532197784424,4.390878526869428,2.453619393951861,4.312837120810682,0.6509067234006624,2.062781100786729,2.1948670123935647,3.1986731175506815,0.8614033350749155
146,1.4917085491346267,-0.21212138335659347,-0.2435061340226872,1.2616782676675597,1.2056196611533878,0.821528836180099,4.114428740490161,3.657314213628273,2.03125587881914,1.9944256978871961,0.6425374456860184,1.9347833927502334,1.8136101888961107,1.7242771720464705,0.9337003691859631
147,1.6533565569601123,-0.19583830448792006,-0.3320014194906397,1.0607351273306351,1.0442136319270217,0.7868069934960387,3.8265386170580835,3.760743014524085,1.9862417528775123,1.9778974972763719,0.581717464821069,1.839060742346068,1.7364900264608651,1.5130460667590344,0.9372179550169011
148,2.150931807472766,-0.598180714222976,-0.2851229305182844,1.261936133509709,1.2540132447045471,0.8139414822747781,4.582763183642961,4.628146815480479,2.0562572863989166,2.5271256807703106,0.552929491858785,1.998619650469164,1.7990830979296841,2.0377081687357896,0.8766428510725903
149,1.5559638913276137,0.08427219666221397,0.020545728789985063,0.8442180082376477,0.8272541740256397,0.6640087767146214,2.750565224578708,2.755048648237036,1.4729545147636904,2.0040591246366124,0.6668815377411301,1.4234194937588196,1.2401354674568392,1.376932928215731,0.8953272793880535
150,1.328652657175499,-0.08180074850795671,-0.24458200101596617,0.6967748378919638,0.6659785892712383,0.6170457332752671,3.1749549905260537,3.408691510614752,1.5130966573250395,2.0424298939463887,0.6668815377411301,1.3961202552711818,1.257599601285981,1.4676533780528573,0.8598569766621159
151,1.8096228847990208,-0.35323358862423726,-0.37824692671080495,0.916976606185945,0.8984794084232078,0.6709907946763689,2.9530374835697972,3.170270049519528,1.9138039047929007,3.4003870019476548,0.648888643467878,1.7105482138032317,1.705086215656693,2.766183846139276,0.9486842957702658
152,2.201928767731501,-0.6139936735511232,-0.4401831236525253,0.30776431946239113,0.28948490303783536,0.3759736997635251,2.915195572265258,2.9207344814100056,1.9546274470015015,2.4640564472926783,0.6652988471865258,1.828008601903176,1.7357077092567543,2.011966160868955,0.9228110110818523
153,1.88017443993828,-0.37873442593241335,-0.3874337053546138,1.0261632375791967,1.0041402268675612,0.7737200611335328,3.3303089970691535,3.709350302908039,1.6453312662681856,1.6408510319915706,0.6652988471865258,1.5640928291862606,1.430528950083703,1.1701452472486826,0.9267601925500658
154,1.282327044389596,-0.25328638011310906,-0.28577417590972626,0.9904172456201416,0.9755073412414039,0.5846662838086781,3.076781487313156,4.495392308249496,1.4155564490137338,3.73920963239826,0.6509067234006624,1.2906610012206465,1.2551286370909254,3.1060330974139183,0.905327852020221
155,1.11376008994263,-0.14579247840872445,-0.3075678628463827,0.6989508327486179,0.6902194554685585,0.5217939401005648,2.975566315597468,2.73753292443881,1.6232935464624594,2.3408582848662127,0.6584896970785714,1.4385705945741545,1.4162409879234594,2.1230338887756512,0.8666394208163686
156,1.762237144452884,-0.39360186540846676,-0.2314766635106722,1.094742266369007,1.0803596567911582,0.7760697399947072,4.679611459399682,4.506527183696215,1.8938036848409718,3.4407536841917135,0.6125606311107803,1.8255230993808642,1.6681551350754564,2.0761562676901417,0.8916344013400703
157,1.7824530376118302,-0.29103212511207277,-0.3200878286781894,1.3425788321507044,1.3230782113761341,0.8180816056268668,4.4721209202441985,5.335492290056196,2.0886865908770567,2.1630934452416697,0.6233814453054027,1.879716747987197,1.82168523112563,1.9825778682471944,0.9152733120455306
158,1.869538838684557,-0.47718605575026396,-0.25879992474662217,0.9996942316249324,0.9930798839725218,0.7441453475295121,4.3459744679064585,3.9992930970891534,1.6776764789976162,1.8215081051655233,0.6566669596287297,1.8082276619353623,1.4106481629328385,1.273958231725639,0.9329490326591252
159,1.7984254484709417,-0.2431012416845445,-0.35570867156455943,1.1392010202268894,1.1298561044820297,0.7945845766740781,3.9885847297406,3.3700189122109285,1.5676991095068407,1.572083997572534,0.6403206450210053,1.8862166795809419,1.3948301009507518,1.2902588915036415,0.9417510375055469
160,1.6753126724634821,-0.2365772900590032,-0.23810488441898636,1.2940919574928822,1.2866852704309566,0.8114330118337794,4.262765539231694,4.124581588020149,2.0672033149406284,2.5614227820385143,0.6403206450210053,1.9697703304349252,1.8309100876578472,2.1601471595533197,0.9451223294141412
161,1.598643879330616,-0.26313275551754706,-0.2250186399022726,1.2007975412022336,1.1786278193775852,0.7987556069579591,4.172228667502087,3.947579149235052,1.8975169465611648,1.5409626912102732,0.6357360191111145,1.9059738800074133,1.6550010940138022,1.257663497757667,0.937431477579826
162,1.4286799858591053,-0.15909380338957763,-0.2525614842688023,1.2313687620747416,1.2186229111063966,0.8259632845490643,4.222952696980849,5.171645616218972,1.9699516176278333,2.3455005064690813,0.6468212168108125,1.9254432544161155,1.7585592226183169,1.9646606984006894,0.9255596551027202
163,2.1959283769274855,-0.4392459849434164,-0.3394121818570762,1.3595987354323806,1.3484138888786033,0.8067199162967603,4.671382928199183,5.031553816206596,2.548507441555602,3.987560929894554,0.6584896970785714,2.2190612719453937,2.291809345744296,3.068052935133617,0.8824114810020872
164,1.6096851112516537,-0.07337978149824942,-0.3399798504563867,0.89422321916303,0.8875785463401121,0.7694635512922618,3.432187041826464,3.053370639457237,1.7627374128494986,1.5227572181110673,0.6684167106117298,1.8245581809794411,1.4843639245735434,1.0624943500088815,0.8957233101463388
165,1.5891262186241528,-0.3064121256018746,-0.1950364926955095,0.9906589266952105,0.9705921751897228,0.7021750609215106,3.6638875244050735,3.2892557498999775,1.2394502859099807,0.8522912396558288,0.6403206450210053,1.699544985240244,1.0666641300354982,0.6993490255468031,0.9393068030852291
166,1.6353063527460556,-0.2433625041089199,-0.29278281098942394,1.270401740212201,1.260544231442483,0.8191797899636085,4.020058601341259,3.342855723759464,1.4301702262076532,1.1142415912956345,0.6153451465759925,1.7269084969084387,1.2496749578067916,0.8166693481451719,0.8988292813082099
167,1.4046631741780602,-0.09066282270712966,-0.2566664029611231,0.8824186262761436,0.8613847588817727,0.6871707105269825,3.7332206922400824,4.456513370527062,1.2283198570701785,1.4945955800438333,0.585052858160615,1.516656178983134,1.0341054136008903,1.0106045412309521,0.9225927213028048
168,1.4249084088090276,-0.1492724971183259,-0.3004537053333685,1.1511279594985233,1.1483427897551968,0.7585053906092187,3.378997282171891,3.6541574955647302,1.0976981908538304,0.8161870819243583,0.5915533975974677,1.4610179073158271,0.9878783049491401,0.6901933480648376,0.9447095528538824
169,1.9575148767388781,-0.45124595099412224,-0.30041104729952767,1.1785942098181117,1.1621721545464816,0.7719571574068632,4.547801061382458,4.090410346961699,1.8976597964487079,1.6855737442426855,0.6357360191111145,1.9473222567213184,1.71653943441733,1.141115365984417,0.9192958768286178
170,1.8281710568935094,-0.40773582351012394,-0.18791742147076507,1.2269519835579654,1.2177905140895178,0.8172370297308744,3.88473827415499,3.903895470552929,1.2266558633261169,0.919468084908822,0.6509067234006624,1.5628194168000369,1.054780881380101,0.6968079534096264,0.8975905820798485
171,1.3612809664591028,-0.13182652783248683,-0.20651083463487768,1.2133792496976064,1.2122484337985404,0.7881139634157984,3.632711862007091,3.405079496663866,1.3291665587896841,1.1479124510168668,0.6309483474627791,1.5195464276802058,1.1541023467046718,0.9114714454382062,0.9373402581584495
172,1.5227516166696962,-0.25758204355781994,-0.18071907269539364,1.3392646875099394,1.3155850807695526,0.8367126820539004,4.063396030655814,2.6160445516180353,1.4517546193232822,0.8863102999437146,0.6207552362147116,1.8061965170258245,1.2559130041246498,0.6708379307975648,0.8701845713630008
173,1.8134976108303318,-0.4171325165477222,-0.25491117494263255,1.1998121553397882,1.1916444112779796,0.834184195357193,4.402568727896419,4.469655683674257,1.9241532396971637,2.0896637932306814,0.6180765742263259,1.7782511192032628,1.7260870213784059,1.5969515217827177,0.9304509830286828
174,1.9686626326975334,-0.5680708797900202,-0.18349996264013346,1.1677766168342198,1.1283364010057026,0.7431511223789085,4.393296409535929,4.222580870721213,1.7237335224508725,1.8167814879076472,0.6309483474627791,1.8798623507830279,1.5684266384129781,1.5757693252323905,0.929790947524649
175,1.4863410084420476,-0.20897576219956832,-0.2661661534480402,1.2323146858727134,1.2145610273248053,0.8205536637818964,4.464368949765421,4.206504952049327,1.9433349163810618,1.677399267432556,0.6447042257417027,1.8150280961674092,1.712488652173416,1.317604107277857,0.9374038938437688
176,1.539196694138331,-0.19374382467654427,-0.2514476308079891,0.9864685738666491,0.9718654457701218,0.7533590253977123,3.413458177308703,3.2166926474275916,1.4718214034968227,1.4333432550644452,0.6528756675646988,1.6755777149386453,1.222624622072708,1.0362935242688514,0.879431871201366
177,1.526341842213266,-0.186562969380763,-0.014660905290428516,1.0421049786217562,1.0233351998192157,0.7368764217975488,3.2210277446347018,3.338479229843835,0.8905805832376528,1.3725110596501764,0.6425374456860184,1.3297040098314936,0.7500931506287614,0.9528296450167808,0.9160961403860776
178,1.243855991802105,-0.17690789771491,-0.10085238721172826,1.2660449632686355,1.2399255359441628,0.8428241660908098,4.077825226232342,4.253086903307563,1.361831126155645,1.9062133913734585,0.62595550513784,1.5880026317140352,1.2072407810905519,1.2364393882928022,0.925919936960739
179,1.8614227699161727,-0.32424867192402057,-0.21475098212011318,1.2037437103087352,1.1858398873849094,0.8357992200024742,3.5756150858876654,3.3999609698429123,1.4847688927116378,1.9251543490948906,0.663668482632973,1.7265961433216417,1.3127397677144812,1.6324490240339524,0.9392527775848459
180,1.7817410175278228,-0.41493480686942846,-0.11875177310712373,1.0969708189235738,1.088886727044977,0.7253162922888772,3.3462077458412445,2.355457296041142,1.1911377929185831,1.300982920185375,0.6566669596287297,1.5901800958296857,0.9993466030884172,1.0804219675363949,0.8933508901877648
181,1.1593251182026136,-0.1340731176155317,-0.11445398505103477,1.1435526515368637,1.1153640863348744,0.7575785558570638,2.943957538459319,2.159674360673095,0.9898887100861243,0.8801972594069588,0.6309483474627791,1.2515303950928223,0.7727497872620392,0.5696975624875005,0.9112090838860591
182,1.8935558890150845,-0.26094804325404763,-0.285664012212385,1.0985118084537044,1.072139120409834,0.7491749344935633,4.347358249449014,2.482484163465333,1.7192165083896171,1.8073223334468238,0.6447042257417027,1.7385979211138227,1.5016150411425093,1.3660689525844498,0.9465076355586322
183,2.003344674097306,-0.436000861878016,-0.2801135859905533,1.0571531983195912,1.0525016540813106,0.7922047221352686,3.5194924433363903,3.1704501217947896,1.6838948784037158,1.4305884833791407,0.6309483474627791,1.773919551099724,1.466009682966309,1.3143366220602908,0.9060456016106104
184,1.2799295135159157,-0.028326283050255974,-0.1812935172782873,0.789772716663192,0.7791405031933021,0.585283770616106,3.18216381987894,2.6741868299163736,1.245735116027171,1.5216645999460088,0.6125606311107803,1.310239079854653,0.9849291418116928,0.9855830069199422,0.892438004618858
185,1.4756806581091362,-0.20028182262474292,-0.25839717112405863,1.139481009759426,1.117563063198424,0.8092202518986946,4.308355102765892,2.7527845743225168,1.530271495288826,1.1836257167141901,0.6619902821573977,1.7765425034231948,1.3035380297009425,0.9788968852606724,0.9370003169804172
186,1.178606210575175,-0.04714862571029621,-0.07384298497985686,0.8844371492769784,0.8770718174963287,0.6187581700145526,2.893167184644371,2.5163553577696733,0.8186564149750784,0.7425799870166674,0.648888643467878,1.3129612923008243,0.6819757156005627,0.5309305349417122,0.9492864467162508
187,1.2205275975089016,-0.05075542153047036,-0.21148168455703636,1.2347178795938987,1.22105511152251,0.7914798062011643,3.8675795312928365,3.999930694186381,1.3452971214077256,1.0186251547244696,0.6207552362147116,1.5819308359811382,1.1354965269336688,0.8502182263850128,0.946205768699888
188,1.4503206766145103,-0.1759909658798262,-0.21491184403607821,1.1289490079916702,1.1239342842310005,0.7925885288389626,3.9990374099583272,3.5785714514246436,1.3570824312534697,1.0240642648947473,0.6008849035917525,1.622241755126916,1.1861814201220815,0.8545719647089095,0.9334861008029194
189,1.7903684400379702,-0.39680027825232334,-0.23457480128779185,1.0634744256666737,1.071888312000978,0.7561410174682232,3.706067537839509,3.124519936127611,1.2585710851017655,1.03543220385418,0.6233814453054027,1.7477425838112808,1.0817222391813628,0.7264389484304934,0.9183312559732254
190,1.9821342730469054,-0.5233024733999966,-0.23488443780712592,1.3650742777506748,1.3582387235385904,0.8170641468552147,4.191016841563117,3.537644337984073,1.5077274124110294,0.9652264878258426,0.6528756675646988,1.8089056280630256,1.3454316756676041,0.8060592859817323,0.925504083422167
191,1.516358851075782,-0.24661978252086286,-0.23854302333652588,1.1462383055978598,1.1409971128105127,0.764929994451686,3.8053335138701243,3.8144662814986265,1.3864082755820577,1.4678565697742036,0.6380535849069913,1.7025893129689564,1.2116653853905404,1.1563733372452878,0.9402350390145834
192,1.649561676356224,-0.24357036631678475,-0.2901612604328586,1.3428246032252067,1.330691233622932,0.8244223540908684,4.216591015058195,4.026288503523163,1.9035399804489321,1.7598457138529924,0.6357360191111145,1.9377876703247408,1.6130704858918208,1.3781971508872712,0.8779994922042246
193,1.892187346124976,-0.3848476241165759,-0.25782868790599023,0.901072611808627,0.9068179793591615,0.7338238547523284,4.275968803980444,3.728979677889975,2.3669820462889675,2.277064859896712,0.6509067234006624,1.9794554423594646,2.0950864925664563,1.7090055081991427,0.9250251612633079
194,1.3102805292022701,-0.10104669245236586,-0.14595394762238623,0.9996379243594561,0.9674572730323852,0.7387073801717643,3.721968895240115,3.4663638204221128,1.5256772234504536,1.5375379751726859,0.6425374456860184,1.613167079363978,1.345055345440361,1.1387923659736405,0.9348625152040405
195,1.7184973694079735,-0.26477585862835734,-0.21400411816994647,1.2543282756182528,1.221009753737053,0.8139601125872908,4.125207559688164,4.806770511113609,1.7972164756588465,1.8665681255006754,0.6619902821573977,1.8250405237967169,1.5848612984955848,1.5299644009157467,0.9376737684726434
196,1.8399825427340024,-0.43651088496765056,-0.28298467089837276,0.9434908779899047,0.9495298924489646,0.6883041596346712,3.4526549039095236,3.0287564540214835,1.4459659827271265,1.5679436589400921,0.6468212168108125,1.5901800958296857,1.2314121466716532,1.187186431391115,0.9255288867021756
197,1.476684160308253,-0.16588538517309603,-0.1316699616963516,1.2195206451410838,1.1972254463852698,0.8103808067037869,3.5372976034465644,2.8790646525081867,1.3405632654928938,1.6931415982755886,0.6713451011121618,1.588546553402724,1.0812449355823956,0.9057592798218134,0.9329559368547747
198,2.0338914768185408,-0.44010797164400306,-0.3609507008371695,1.4541424072600846,1.408224645756083,0.8397189200708255,4.437536355800686,4.968013892428401,2.1343413536413154,3.00251226134012,0.648888643467878,2.008838115980015,1.9347902288634626,2.829207616239289,0.9077179223777617
199,1.6480874191307584,-0.2281079082671259,-0.3280182517586302,1.053858451776381,1.0413699296171246,0.7761614479091422,3.88695169721489,3.29932971426753,1.3712250398464305,1.2471512032822587,0.6153451465759925,1.5013311711082489,1.14955135693762,0.8702251502888441,0.7982045664717778
200,1.299613551392808,-0.23215617276628278,-0.13334986237063853,0.9907584423831626,0.974115641685975,0.6984871194113903,4.122852131270216,4.1741602828682405,1.5138757329110077,2.1323424481829196,0.648888643467878,1.6167423024337408,1.3278744703148198,1.6979091997832998,0.9394640192013519
201,1.9987008647566593,-0.449901486958116,-0.30875186915497776,1.1738572296968504,1.1645886826253025,0.7908353198347253,3.7419989135451965,3.3272988066739204,1.7659938062386058,2.9649181787791785,0.6380535849069913,1.6593286820475655,1.5397445155244556,2.406373376363318,0.8732226878819805
202,2.253811221910885,-0.37628960217309115,-0.36514388855686336,1.3221438547303326,1.3071445253242542,0.8319628210548172,4.07468990546743,3.683824453598694,1.627028306695409,1.3287185166888733,0.6668815377411301,1.8103987734469935,1.3633974666483109,1.1613468086797267,0.9343660410645803
203,2.161674447787518,-0.47452056997721825,-0.33345404979023857,1.1727142424122623,1.1658521224075966,0.7609041000732054,4.194482498680679,3.5495190419110525,1.7433606025030284,1.3423714768587185,0.6468212168108125,1.6491609739654247,1.487111322367566,1.0897007083675465,0.9379890157051359
204,2.4342810294789796,-0.6535830718356631,-0.27467465907877775,1.1022073524538243,1.0998970643987254,0.7317952164338899,4.308458173259479,3.9310890454062735,1.7880861023282126,2.1878858796074745,0.6528756675646988,1.8848255023476017,1.5914546854389098,1.9348326729068697,0.9134668077357395
205,2.053377818619718,-0.4138580296042341,-0.3059320979364657,1.2917697428913784,1.2673989212830918,0.8407371900661049,4.038255625431367,4.122069538078558,1.7615649180150745,2.681623830235623,0.6309483474627791,1.894752419411803,1.5672571016471097,2.167903105030833,0.9495577100979758
206,1.7116665665443114,-0.3117428341215067,-0.24235068417967864,1.3742089703488725,1.3708209369635183,0.8782668511132776,4.53479258414047,5.443788954609303,2.2677457201072713,2.501271748948432,0.6180765742263259,2.019999317967014,1.927075325520051,1.90753072090372,0.8818459549499003
207,1.64136479645198,-0.22952129270565302,-0.3060736730909557,1.055222105025786,1.022552393752686,0.7873566252485374,3.6102191294724952,3.548850668832882,1.7364905606689431,1.6953273977986136,0.6699045166045591,1.8870229834545682,1.5319989831201393,1.4576653550118095,0.8780335564605118
208,1.39118616207988,-0.1898728969813781,-0.12180011768764346,1.448860551565238,1.433389877013675,0.8671396413591889,4.058316217415002,4.391947430116123,1.6278270440400182,1.6354651648309677,0.6153451465759925,1.882851889631394,1.4221266342902186,1.3046460124158592,0.9043318800671359
209,1.7090420614977395,-0.30205507558677747,-0.2973280606404681,1.0856824850045697,1.0902353625021612,0.7173537748489681,4.243937007687248,4.063056333348469,2.1081772758148056,3.1307987204109637,0.6357360191111145,1.9808237068894021,1.8813514928111763,2.3920981551140446,0.9010908394179906
210,1.548037857342699,-0.20136654317279123,-0.3991573569701703,1.1381144050740717,1.1186690620582271,0.7764711701298831,4.03666937624531,3.7117063402246506,1.9643645593441208,1.8830241091541884,0.6447042257417027,1.894309124243849,1.6647123426118733,1.4220550249989887,0.936370533583441
211,1.4753816011790168,-0.2541389060090501,-0.18250235288373728,1.1251162780847093,1.1096099981266225,0.7716880690630709,3.7179618775643,4.109535823481597,1.3136226039682393,0.9602297212589703,0.6357360191111145,1.7295361260479232,1.1941856115297957,0.8572730054440231,0.9267376496707964
212,2.153750496629025,-0.5888471020909029,-0.3082770967298061,1.2776846545801825,1.272186780551597,0.7886242028633801,3.9897417597384774,3.9546598726170243,1.3930339798011837,0.9560039298224184,0.6713451011121618,1.8269722249837996,1.3008955904509754,0.9183217049002786,0.9343181794023683
213,1.4530654950981057,-0.13315070633933557,-0.24945314157519866,1.1300201411069957,1.0563020167628565,0.7527926124470083,3.7950581112196726,3.109030033307375,1.5203736909615657,1.108848624428444,0.6309483474627791,1.6041187509565005,1.2323331649502338,0.9324332095295556,0.9329253245268262
214,1.538289955440927,-0.277512336855397,-0.23297059871617418,1.121058767567839,1.122228803343732,0.7789455983231162,4.297494429481517,3.2548962445740326,1.0081484454722984,0.9084898425274055,0.648888643467878,1.5665913021655165,0.8377804534003135,0.533930536087885,0.94031746267522
215,2.057239534408739,-0.37729041367365446,-0.4776778264602761,1.0493353250518243,1.0325711121904024,0.6903390267263503,3.672317187925276,6.563647382759957,2.7197980893331146,4.324033166515767,0.6233814453054027,2.0477706241678817,2.453039546495967,3.687878953780353,0.9315026969864818
216,1.6342916955529898,-0.3149715696099846,-0.254277180478404,1.2944070334426856,1.2858512075801403,0.8180107218218271,4.1378356168317545,4.08750118278431,1.6430149780604772,1.3390615028267498,0.5915533975974677,1.609715728799271,1.4035018590957395,1.0241167196103107,0.9394776234993738
217,1.8852290557696922,-0.45547027572419363,-0.3395466770182498,1.2214820642038244,1.2032771155014401,0.7600705828178567,3.7179833793469084,3.415165965876885,1.3413696540182831,0.7566063064876871,0.648888643467878,1.7545279126227276,1.2797142156931391,0.7506588696729405,0.9282512377766686
218,1.391934221443772,-0.06744174638089595,-0.2644906155429188,0.8640893722161157,0.8382903098338963,0.6599944100690992,4.069152782138062,3.5345199704853316,1.2902912584688344,1.1429080999325272,0.648888643467878,1.533248774076554,1.0549464652173772,0.7256019520873906,0.9370845429455213
219,2.114137759171481,-0.5469091974328109,-0.27921643548912833,1.2772053173864615,1.2886687466764797,0.7551147111705575,4.190204472733006,2.8296314768017092,1.5971103773609523,0.9691926727863402,0.6097226960127671,1.9301789797348807,1.5004472126180866,0.8621693085929714,0.9435148750573245
220,1.556725979693028,-0.1538731125541246,-0.2788223272129256,1.1098064824033047,1.0704055097768572,0.6917487655032715,4.186924092069239,2.5664750176418236,1.5938818103221069,1.130894343687958,0.6509067234006624,1.8515802475465943,1.3417902869132445,1.0587981129558288,0.9335639932954963
221,1.6828743531745445,-0.3037088502271703,-0.3142245903193945,1.0274836527591247,1.0153756411855326,0.7185232941087946,3.843679161305487,3.3676633315456037,1.4052456564074058,1.2993799187569466,0.6284777104787076,1.6928799096699179,1.1776892209300671,1.0673416457802887,0.9160863068057085
222,2.2859026931391497,-0.6888669041727775,-0.3875380244818104,1.3009233228969543,1.2789423659623471,0.807128802322,4.314705237865272,3.1485630047845765,2.271356085299371,2.0134179824508087,0.6333676938231112,1.7912929114164124,1.8363869228254672,1.7184281961425054,0.949040476988487
223,1.6792634971972829,-0.2844992607130159,-0.35229654346789585,1.126673765555916,1.1167535370141062,0.7612523126692122,4.094480931643143,5.194715815311591,1.902583293827836,1.30007448419478,0.6403206450210053,1.6738579220759178,1.616692939499174,1.1004044038430913,0.9272645796666785
224,1.6771201910605262,-0.32754102551833403,-0.2685426391597693,1.2886131367120413,1.2498015746851314,0.7942410481439605,4.0314399134195344,3.5655250452505323,1.4583985249122995,1.1386784662893192,0.6097226960127671,1.7877010491005536,1.2302768334007572,0.7182261436204477,0.934674626414479
225,1.9755475327498617,-0.4085909462335011,-0.39855791260298445,1.107863070818461,1.0608617709717134,0.7303395820046503,3.811673276374272,4.930564973444923,2.5239303461802565,3.5094271745655683,0.6207552362147116,2.102732914243502,2.258184757220145,2.8125407732514964,0.949167742428823
226,2.258993350671004,-0.5255732288789379,-0.3280124662940879,0.9402485830949918,0.9121225413779962,0.5894521774344409,4.546372849494048,6.752173040636646,2.229830383018085,1.5970304259842456,0.6468212168108125,2.0619946280761154,2.1391930297640345,1.431825745927844,0.9338215523462656
227,1.3257234991241018,-0.07338714870453744,-0.26744968082231085,1.0932016518181784,1.0626765969743153,0.8003819847200513,3.8667903605701017,4.116566572931897,1.3184169387168048,1.1398665080195816,0.6509067234006624,1.742969305058623,1.144406943857743,0.71186565000498,0.9207427438479597
228,1.7086526909702646,-0.1948493624033113,-0.5400831360857105,0.4116299703287301,0.3950337811712715,0.468660174140704,3.752287031684817,4.936532229102193,2.201076037870911,3.4487459008981425,0.6584896970785714,1.683922023695336,1.9251198719918596,2.4278850254975435,0.9255261226123604
229,2.0033963895231146,-0.25862203762334857,-0.44879664210726056,1.2626659891018854,1.2707477720927152,0.7848896943245454,3.2450103744004695,2.7354205770468334,1.361371321422135,1.1607268761337812,0.663668482632973,1.8483298207164494,1.2409807997971078,0.9348861818064619,0.9395730504370748
230,1.4478211966892098,-0.3136044139515807,-0.2733452778806547,0.8827779780213908,0.8803523513011196,0.6836422391186822,2.699872337381254,1.5874286355782594,0.7866346591564276,0.5845904079295949,0.6357360191111145,1.1343430986239087,0.6746303513388343,0.4267840770902602,0.9403312012091173
231,1.3739760186327818,0.21954640944293424,-0.23476866839989796,0.41231833750780195,0.41278801717451236,0.44800349824111835,2.260416075820766,2.2654938531222024,1.009946351096331,0.9946082548214097,0.6008849035917525,1.1124745946612589,0.8218474015874025,0.6627833109018217,0.9377197414658337
232,1.1541650959448313,-0.06613651348498883,-0.06599448285167941,0.61199855832373,0.6124573888680085,0.4706814943727953,1.46184667401116,1.1445236655892463,0.5334411801985977,0.3566056581202991,0.6403206450210053,0.9187938620922735,0.4713300446081553,0.3034809471201291,0.9438866745804516
233,1.7724971138328105,-0.24599705522692172,-0.2752002947712543,0.6616548761309371,0.6649951736523172,0.3657211169210891,1.0299289981538695,1.067579527282207,0.9774919220967374,0.8834094294205441,0.648888643467878,1.1788466813787157,0.7733163093423632,0.6112098323463545,0.9498894948444998
234,1.4167412830778372,0.17245163701712818,-0.26855105729644757,0.32511558403202034,0.3157524869528006,0.3331935537085549,1.1561516117541595,1.0186404586662903,0.7674278254711075,0.7454091046074912,0.6403206450210053,0.9719796377347436,0.634296611361778,0.4899272141809697,0.9442384098557024
235,0.49798620784676995,0.24855204088490207,0.1048247072205033,0.43536355997535636,0.38708558996430364,0.29130485787357957,1.3919672156846064,1.35886823322276,0.42128245921613944,0.3387167695806126,0.6207552362147116,0.47338712459362275,0.3104630872189638,0.2471345815149372,0.937619000774697
236,0.4770020172644252,0.12358510475712342,0.016611755126852146,0.33204187911027483,0.32144291892274734,0.262547654695451,1.1491190952114632,1.2829736832608662,0.4059534688314849,0.47489368968365137,0.6509067234006624,0.48040419477265806,0.28641344682534975,0.27588701513180597,0.9329042819766586
237,3.1648625913468695,-1.0337957693251303,-0.30395773943437715,1.2606296955083198,1.2580187823292186,0.7028337405103297,0.7940344869286978,1.0534807450082249,2.1607649429995655,7.251711976824742,0.6153451465759925,1.9817100531865006,1.9763568907430522,5.5035878563275356,0.9335528556621089
238,1.2849299226924917,-0.15328137677753764,-0.09418961178026526,1.3881862357362482,1.3755455131856402,0.8667138224991018,0.7529043220152339,0.9790579884848684,1.864039271179298,3.205151036160672,0.6125606311107803,1.9429700309969569,1.629806810927251,1.8089221335628798,0.9108626656434676
239,0.9555943458566607,-0.07752385570329176,-0.025310268482919156,1.6177869076988645,1.5872668577441567,0.9255224947953673,0.8842643126973068,1.2490920087530126,1.7656635808399241,3.746092606087025,0.6309483474627791,2.663554961215659,1.7220335650245835,2.0046965862572357,0.8914470353050369
240,0.70372479758275,-0.07281869283663306,-0.021011280174400265,1.638410081781967,1.618975780967765,0.900790222862835,1.4976643821651772,2.147556777669497,2.7835799852824215,,0.6008849035917525,2.2629371207016007,2.516586452431268,inf,0.9030797066384703
241,0.7543348193810775,-0.07880226644323947,-0.016746810678363686,1.7254878401723115,1.7205724043196222,0.9245703538515387,1.6330267045397708,2.7498102193295635,8.304106036562164,,0.663668482632973,2.403633929659264,8.310783839093192,inf,0.8740005106513276
242,1.40616242399381,-0.1687394908792572,0.0,1.7779802655743229,1.7754530421548795,0.9130108925667496,2.1768999702756826,3.078144763792245,,,0.5915533975974677,2.5927888607671212,inf,,0.8922843619703074
243,0.6072688268134084,-0.06882380037218629,0.0,1.775104928514156,1.7608293026152464,0.9181362255915714,2.094629550524257,3.6953062386938953,,,0.6097226960127671,2.3676570897377607,inf,,0.8831753279090081
244,0.4941620192366257,-0.05600502884681758,0.0,1.769364094875142,1.7832418958462262,0.8840038487418683,2.4586118716644156,5.035515007119535,,,0.6207552362147116,2.3682501743883226,inf,,0.8776497435106476
245,0.3979879551058808,-0.043389389312613214,-0.0017159122660532823,1.5194202156356111,1.491523445882427,0.7858339977374186,1.9953527944978307,3.141259132637307,6.375476567102963,,0.6468212168108125,2.3173603785762,3.902818764895447,inf,0.8973911843777995
246,1.100962309680069,0.17861446976092898,-0.22712360648222774,0.840565092917521,0.8373149737969637,0.3921601285010464,2.7465533621232265,3.454439943324402,1.037460572742384,1.3723472834110475,0.6309483474627791,0.7764321758087613,0.8065261038209605,0.8182201546275661,0.9452106978047273
247,2.8742656952319114,-0.7059802174154143,-0.3717267654364176,0.7749357410433971,0.7917623517730505,0.5225928134647112,2.7226344950193067,5.706762059343762,1.91959462008184,4.7997287700312325,0.62595550513784,1.84165023884152,1.8871257122717287,4.213053095399427,0.9550749061186896
248,2.9634620478096343,-0.4583435945706009,-0.7214071637336821,0.5748597356324998,0.572466370681104,0.43612065088707175,2.717846832240853,3.6455309666708398,1.3643292223287171,1.9020356843007558,0.6584896970785714,1.5925807953676774,1.2213856313260818,1.3101502938620115,0.9448011517144649
249,3.349631047839789,-0.9207797935698182,-0.44405115016943186,1.6317390155660123,1.6427644167497444,0.8714171782148881,3.1130014030708697,2.4560553192601993,2.082166559601194,4.860134731360933,0.6038851895711802,2.0539904092503116,2.0257940016404596,4.149726708073685,0.9099013367988168
250,2.3163608507308737,-0.2880043412145633,-0.3470330697389727,0.6411515071313701,0.630047667388507,0.4712026452109804,2.342987950410838,2.1116609085911837,1.4499355904894677,1.4064232895152715,0.6357360191111145,1.459486513448399,1.1328568799418406,1.1857316395281678,0.9614069211265462
251,1.1221054741789256,0.1393561224851867,-0.10037155662343022,0.8607491363138897,0.8440974737476665,0.5102883253266512,2.466046467019313,2.872801053695371,0.759703606134041,1.042997192447121,0.6699045166045591,0.8899734235567817,0.6145540744998776,0.5090430772518267,0.9628866753457324
252,3.959407010129862,-1.1908912247192567,-0.22634035950305265,1.5201551235777715,1.5244702235442582,0.8714169912458588,2.536344843744444,2.930429937693115,2.6942499445021766,4.957891181824285,0.6068309995095971,2.355751485564457,2.0042962423906494,5.438079308923196,0.9420643662668097
253,1.979811151675536,-0.3521469160256713,-0.12374774836093214,0.8534596863530034,0.8575168364400637,0.5370744686989688,2.9117071774613374,3.5682071777632722,3.074287306560663,2.458788390160335,0.5978297680564633,1.909867557708384,2.6875549414888815,1.1063599754589355,0.9259721980778431
254,0.9937916168836571,-0.09275388424247467,0.0,1.7354617512195092,1.7293665381213557,0.960397417603097,2.8956995197376023,3.042325260050545,,,0.6008849035917525,2.6151672069554963,inf,,0.9186427779501827
255,1.420333589742856,-0.03921834717274286,-0.25133955741807024,0.9729275637560233,0.9806019917980847,0.6616413332748464,3.6093365857724233,4.041964388882942,1.6771363679218383,1.7174704415022968,0.6207552362147116,1.3300820737287946,1.1691939900265074,1.071919125011976,0.9532147811279728
256,1.357080501284565,-0.16677695520888786,-0.17664849042731137,1.2062114610726782,1.1945837046549705,0.7950575324201083,3.9060329785086934,3.8279948213070174,1.323922247454347,1.0439987592016482,0.6547956803312163,1.7643388736520629,1.2150827010776128,0.9298275038157452,0.8926459101513172
257,1.5238402492209973,-0.08447153598021961,-0.38097786064978634,1.090495095024981,1.0859853683102128,0.6493484689788221,3.6614989762059746,4.317681459784402,1.9098221743213928,2.2603883552470596,0.648888643467878,1.7517057697708818,1.7419724646854386,1.8316678044796355,0.9274403341858123
258,1.4457269207220238,0.06808645163479687,-0.28456935778270814,1.1900774351422736,1.1862372060686732,0.7627622684741426,3.5907218430574295,4.604240986840271,2.1373097149341644,2.493591394856916,0.6447042257417027,1.6157913864062756,1.8522583022437202,2.0125892346919954,0.9471308324759616
259,1.6159434965448265,-0.1712454823025743,-0.29529314048251887,1.0865645524056844,1.082830793578196,0.7861633419568643,4.01698510258003,3.0698315996938597,1.3933579095621216,1.641646070351886,0.6403206450210053,1.599927722433108,1.1837444168040006,0.8893339657205372,0.922799408124882
260,1.697764719911867,-0.2444550166565878,-0.23876755246664716,1.1583306039285157,1.1551168683391762,0.7395094739577205,4.3874902187710845,5.649474750819547,1.7410683106857878,1.6989895381231224,0.6180765742263259,1.9982917547370678,1.522064608761402,1.6488839607744246,0.9232858721142889
261,1.4840053363879078,-0.2047644152266016,-0.22943293269946413,1.0294718839351191,1.0124246630079057,0.6539434814265765,3.8439526830830424,3.3103448109856277,1.4658609675216236,1.1714591323122612,0.6619902821573977,1.514784513919962,1.2060132600047506,0.8433107710115739,0.9392671062178439
262,1.619430048785448,-0.2859082219226769,-0.19662429995277628,1.2481146207347296,1.2057335784040766,0.7822985972722513,4.241854384317509,3.6366330166221985,1.3663293031122,1.4211607020169648,0.6652988471865258,1.7899610872866756,1.2133554296256233,1.0910280453098016,0.944516355305818
263,1.5195706648664895,-0.09074605125824964,-0.3730437759832887,1.1624935536018124,1.1373111432176257,0.7767815843807258,3.819633290745009,4.270469050774407,1.7036219416993645,2.279795260028911,0.6403206450210053,1.683922023695336,1.490139785383072,1.6228070955162348,0.9346873009492129
264,2.1392353473136536,-0.4102458815403458,-0.24966548071086458,1.0938992887959362,1.0766482054321604,0.7769094571871745,4.112861636773322,5.077241581527495,1.4899958585746709,1.5261976615412018,0.6602640781246099,1.7959683140021097,1.3318995014326653,1.1730909961503249,0.95677514930976
265,1.7297104878588498,-0.33483431038817435,-0.29720719572819776,1.1527618209851647,1.158092992688114,0.7648389021980393,3.926259853812562,3.518812492782613,1.6039770251734173,1.5966679172964606,0.6125606311107803,1.6997881906892447,1.4626547921445534,1.113423456011693,0.9225115433083018
266,2.1412571390130544,-0.7863983013282092,-0.1249057947145395,1.1587975543831364,1.1482455617153509,0.797509697555051,4.016749179634482,6.089898527992962,1.3186376202126766,1.4514527061186016,0.581717464821069,1.6609066608092928,1.1547287509728545,1.1725489546115626,0.9359530430085167
267,2.016670284962205,-0.4325779103463314,-0.3117417125576445,1.0659681187881433,1.0563102287534294,0.6985805688806335,4.029388693126105,4.745496145274032,1.5564372083251492,1.9111050809646408,0.6528756675646988,1.855906955718529,1.4063984270770076,1.7533424531242634,0.93056593081068
268,1.7991697348671674,-0.3251648031248493,-0.3155190059605805,1.260529788180816,1.2455508037258394,0.7947836261099543,3.9786419208010226,4.299001817701614,1.5095688062939479,1.4572763155850081,0.6668815377411301,1.7642091551410495,1.3028997812551693,1.1164312046303528,0.9059497627380014
269,1.767369696242336,-0.3205244783765129,-0.3319056746526652,0.9502335913178944,0.9380441551495986,0.7331414149257506,3.8560871498903473,3.4333768921504113,1.9029063005563729,1.6749180132427681,0.5883313578629602,1.6077726331150393,1.6155575421025419,1.258639576984353,0.9500347522025089
270,1.6908437119501984,-0.44673314496541844,-0.211122619140222,1.1367968050284953,1.119181342867856,0.7593100349913635,3.7863638217840894,3.7898294144458817,1.6216721837163377,2.0361072347294917,0.6357360191111145,1.703321332766178,1.399254036405862,1.5422600732084828,0.9139457728619204
271,1.5486456551468526,-0.2144659285425714,-0.17626878112368308,1.3413914190039893,1.2967540644655928,0.8717148356381076,4.557705556072068,4.104245468110716,1.998139522103983,1.8869253404655437,0.6566669596287297,1.9561625255196646,1.7256309822047857,1.452894435041784,0.8864637480345656
272,1.2691205102922505,-0.10178937779637331,-0.161437724416798,1.18185779009355,1.1446970982332176,0.7849486359085855,4.658419178636912,3.898773107765379,1.7860441306789263,2.2248078786454295,0.5915533975974677,1.9761631922263343,1.5852029415886426,1.8800520763737332,0.9404676879659561
273,1.4511603421002612,-0.22131759155668784,-0.13907297953365858,1.3502874164694678,1.3286216899148873,0.8515557485149144,4.151759496018183,3.8840412255938155,1.7947814641386102,1.254601844839817,0.6425374456860184,1.8183088044615916,1.571618984942333,1.1331505078656947,0.9271839151904684
274,1.9291223277960212,-0.37260803134894455,-0.26200988168826833,1.3685917073723075,1.362639448911564,0.8247699433317203,4.707562251905925,4.371045602228807,2.5728976660036817,2.823177980979514,0.6528756675646988,2.0278194124754916,2.280543793283818,2.2629198366016143,0.9285172679817864
275,2.049795245165075,-0.45132455000446137,-0.3433719845389114,1.2688822546078358,1.2309708727331214,0.7782438168654989,4.13417673341106,3.380097709356943,2.117180796247625,1.8201506152687612,0.663668482632973,1.9274264739829992,1.8984188352040945,1.5952676348408708,0.951255113049578
276,1.6186086953818284,-0.20199017318991797,-0.37044682588278705,1.2493454404530244,1.2350569777153517,0.7959013260459662,4.25408770236857,4.083603046573847,1.9873845521393838,2.098059175893562,0.6284777104787076,1.8534221296201618,1.81000619206425,1.9450439731674642,0.9322712622786364
277,1.5739221430482466,-0.26587465221352924,-0.24481290956031762,1.2463301352499252,1.2200043170182686,0.8003473079447374,4.081413073916936,4.758259055086731,1.8181842296015662,1.915463806400193,0.6528756675646988,1.8112141570621905,1.6269930502338656,1.6396368364936498,0.9282582391126698
278,1.8000942446393606,-0.3031789393361899,-0.2990093558300629,1.0548974330164864,1.0336578323301173,0.7269206725685559,4.666680570339705,4.913787641440907,1.8499854401671412,2.514411769347789,0.6380535849069913,1.923844289595298,1.6383046231246194,1.9346193925519575,0.8749691557046524
279,1.426086188764618,-0.1975110001915229,-0.19843975600743802,1.2564994111782992,1.2442713823387277,0.8027493614542401,3.831652756777109,3.4784209851698256,1.397017003170327,1.0549197860519754,0.6602640781246099,1.6014146296652314,1.1974724381087551,0.7926640423793878,0.9055602066786466
280,1.471322334025456,-0.35141771523288734,-0.2051124221906827,0.9755425972305658,0.9665635195145102,0.7017047792868542,3.727468430589178,3.255952603822913,1.6655395524875631,1.9409331233274314,0.6097226960127671,1.5791242710991853,1.4070978124538136,1.2737835945699492,0.902888587790088
281,1.412834405097789,-0.151062233216133,-0.4191900746281998,0.9527841572828065,0.9368784960283837,0.6089711585483649,3.2720720280478672,3.194142636230902,1.4919432751553112,1.6385789284921652,0.62595550513784,1.5125633004265722,1.3334088701729079,1.2822739432983017,0.9426901011100068
282,2.7516387727770777,-0.9699918386556227,-0.509061228792998,1.3589447543342974,1.3415651803311628,0.732441780367019,3.0968681691910693,3.626272913741481,2.169873739456984,1.9643430371404846,0.6284777104787076,2.1009148971988107,1.9782126992184292,1.921265581435043,0.9282360241726604
283,1.330894694921222,-0.18640974087801615,-0.29245894690059104,0.8808291265614964,0.8281498003576969,0.5192695259143819,3.0527106187426774,3.2139008351366805,1.3904788792335272,1.6970592876409218,0.6447042257417027,1.2999535792993193,1.130717442347007,1.3186664015047243,0.879934297645116
284,1.1337964841340082,-0.08521117341349782,-0.04698171808246987,1.1156987941461864,1.0711986187565354,0.812979629863101,3.247343109716234,2.8182498395210223,0.9342021199291096,1.052466738828282,0.6652988471865258,1.1968500830904407,0.7493823401118296,0.6483402941401659,0.8930090267881041
285,2.2853627403924084,-0.6117763930911156,-0.20073308665488013,1.4611505802540676,1.4457932047337,0.8679762435458616,4.149829203483063,4.186435303701883,1.4792566135728085,1.044961343279253,0.6333676938231112,1.9307150701172393,1.2840027446022977,0.8769636300830799,0.9235208516322311
286,1.786034610951777,-0.36450077670665165,-0.176989437621285,1.2563655793080593,1.2359917380094418,0.8011427856635788,4.319504595725182,4.371073641928424,1.6442674199174887,1.7976880037963798,0.5978297680564633,1.8231813392363951,1.4584568073681212,1.559254372904645,0.8407156397196146
287,1.5322988922457752,-0.24052921400375227,-0.16794391854080765,1.0946914370686085,1.0811161455801233,0.8009959724029481,4.012146744429763,3.7411310675768776,1.701192146682749,1.6626795335500604,0.6038851895711802,1.6569955032009869,1.462789419022983,1.2874455668132019,0.8095166415339579
288,1.2965758678997643,-0.07669394938237561,-0.2192222611116233,0.8885737811690142,0.8814712908062989,0.7116757590578988,3.835256110075501,3.844017211715296,1.7563970141105247,1.5841843307677888,0.6008849035917525,1.7546563812765528,1.5711243611008485,1.3897004644283726,0.8741946551461177
289,1.643009891122788,-0.21944227606561784,-0.3302536893903748,1.0329611993617889,0.9942655838165286,0.7914007152712874,3.649609359605074,3.290534168583711,1.762019697829296,1.8992379595661988,0.6584896970785714,1.874996161131855,1.5080339165748515,1.4328611395970376,0.9479404623712483
290,1.5214684653816672,-0.16473949724846404,-0.1950665390227746,1.0866222820464457,1.0518517369764193,0.7475417322451284,3.72334257461333,3.5236735400711514,1.674255882862404,1.2695932921349982,0.62595550513784,1.8545572840520952,1.4552770915960873,0.8876509454934314,0.9379347962838502
291,1.2381631972285485,-0.07959527261320537,-0.15405914306624624,0.9739156314605837,0.9448992413213296,0.7581556358156628,3.874585604538497,3.4850462100856925,1.5577492031026052,1.378124247352178,0.6038851895711802,1.7119013939826517,1.3428734202051225,1.0659137233739282,0.8754264002647897
292,1.816924460927146,-0.41502933134076875,-0.21997211896976135,1.110736687811289,1.0987581589618007,0.7934996058919592,3.5664342473599246,3.34292563003482,1.4515845579599567,2.1966531255070287,0.676637947632344,1.5556338836906762,1.280818032216058,1.7620737273626885,0.9217483783473553
293,1.121899400487792,-0.07657998885364065,-0.10462353438498873,0.8597753529764195,0.8317153954470322,0.6981763856381777,3.166709782681033,2.809649208533268,1.2075159168783973,1.5810281559431574,0.6602640781246099,1.2804939422336792,1.0469532221525144,1.214162370992707,0.8940472094730871
294,1.7666344586159526,-0.3624610524339036,-0.31269314063469106,1.112574104079763,1.0954950337493081,0.7328999572400137,2.962416573466627,3.304585347759574,1.7597890336787512,2.440629800763864,0.6528756675646988,1.734182624424035,1.5263836274983746,1.9343926016384736,0.9012622716595388
295,1.1528274972919632,-0.1563313173815687,-0.256566253601835,0.6337724925522882,0.6316820859982777,0.5418768344515948,3.402737375663758,3.2858372356894443,1.5050415891063236,1.9488621716770684,0.6584896970785714,1.3792525463308443,1.2561669637364583,1.5997208621202543,0.9220191790072269
296,1.2461990453855942,-0.2134684691084357,-0.1495874178845534,0.759170159697775,0.7401588719875175,0.647032255394339,3.742191852614079,3.7259855344525157,1.4127321673733588,1.7700214180929508,0.6727386042041725,1.2986905670513234,1.1166900200880667,1.3097019156385068,0.807444205085113
297,1.2817177317305481,-0.19056586374228474,-0.13790326220420387,0.9943270416907039,0.9845700662950011,0.7193826254082902,4.043078813354119,4.652060860061701,1.401908086983959,1.53990045460447,0.6528756675646988,1.526783234311912,1.1596685672378022,1.137356847055576,0.8368015068274273
298,1.7199734846880423,-0.37842313551663875,-0.22616196179735332,1.207338199378957,1.201346202492746,0.8524269718790135,3.5029543597033737,3.1709529849591043,1.5471039565644293,2.2250350369893175,0.6509067234006624,1.486483088375323,1.2988081930703343,1.4575532890948872,0.8761800493576718
299,1.8585436539395852,-0.5622991124853407,-0.19383688462233203,1.1785164530425425,1.1863565657162687,0.7785316841752287,3.9209463038514265,3.3920260285497785,1.8829226925216356,1.4124835671438767,0.5748741956352443,1.912572089444803,1.6801894303782396,1.2971321565770846,0.9171661095715282
300,1.4939840484004783,-0.2564797817368459,-0.2972135208732929,1.0137701802381391,1.0011036082190798,0.699252434417556,3.4596489774122032,4.01059442102031,1.4943731021853548,1.8922346069713452,0.6309483474627791,1.747997799789186,1.3067770143985882,1.5889052265621926,0.937035092162384
301,1.6340200005554173,-0.290218467155699,-0.34083376851291475,1.0702034651455639,1.057976613506965,0.721446134218184,3.8679650817521076,4.044643445243553,1.6510049915545417,1.9565308362273799,0.6740851607140061,1.7535649234300856,1.4236892267472954,1.4212714930920414,0.8896833801210048
302,1.6252961376707413,-0.31516037318591716,-0.3015079192803395,1.291290694893685,1.2903412116090518,0.8263373980424501,3.983091349382653,4.614973728392158,1.902864702353409,2.0865346900416077,0.6403206450210053,2.029509172931627,1.7034382790164122,1.6154943017825663,0.9489627668148305
303,1.9514398836420248,-0.5507478815817405,-0.4873364785070105,0.8867491063278925,0.8537345674503566,0.6337348869469254,3.192367058921434,3.38986809562146,2.282359467363658,4.631553047181602,0.6468212168108125,2.0823791856671785,2.0674780864851807,3.5688282230461064,0.9410898952020932
304,1.703783250669015,-0.2020338305899917,-0.4109236314332195,1.0264227294024089,1.0116857574039408,0.715991808858606,2.552314400714676,3.011275783074003,1.765882007790159,2.274223422442302,0.585052858160615,1.7705852339966486,1.5166884013471926,1.856893051376937,0.940269858970181
305,1.7719281084210643,-0.12356201677205847,-0.5959998790508002,1.280751526502082,1.2644566516612454,0.7562639285257299,2.3922328819942376,2.5663851255577463,1.9570786357014958,1.814152256399156,0.6233814453054027,2.0208372600304565,1.7280281310136467,1.4561640410803767,0.9436710448027096
306,1.5132189928595055,-0.07226088745309311,-0.44203493542129274,0.8777697693324411,0.8677230931487732,0.7108740434603916,2.5080021449964605,3.15556535642211,1.8396310771153337,2.6011574818322623,0.6584896970785714,1.6907082251583272,1.6079325681787362,2.1635035473687636,0.9417333204623829
307,2.1113210805762295,-0.25538191320627135,-0.7037315822660586,1.4001758416312995,1.3940671846771844,0.7545440648070509,2.5191599564823997,2.7213756262812208,2.400105568153889,3.9562271615193496,0.6380535849069913,2.1474824854414054,2.158406492251553,3.6051684101529635,0.9313103763675589
308,2.1375341150122877,-0.6138347404217969,-0.36309528196756935,1.1234570579318337,1.0943957736937728,0.7138271058361814,2.602522369367763,2.9393516363052985,2.5652234298022027,4.003054320150917,0.648888643467878,2.117859021955479,2.3180373226311333,3.416320543236376,0.9437865874968782
309,2.1052083612425667,-0.7000323535581818,-0.20110421181506172,1.1306043637516736,1.1200481515809726,0.6937573433271724,2.7587900392518683,3.1109318623430497,2.738004984600387,3.7839619746533146,0.676637947632344,2.2331626841418486,2.5099932448201456,3.831195676294192,0.9415546116294516
310,2.242430702470314,-0.8126075956901466,-0.2488096034791354,1.3909058877681344,1.3913093239273007,0.7596307528799185,3.2840281899726,3.740133086778092,2.6555174442557963,,0.5915533975974677,2.178697272722336,2.5062378817346183,inf,0.9202914325040701
311,1.8884563827808345,-0.5450959330355822,-0.3561391253803377,0.3818940750647751,0.35662658583435997,0.5187681825425998,3.0503377401708205,3.1337894299635933,2.2068520176818014,2.921823350089977,0.676637947632344,1.7657019349087653,2.0148055973847034,2.7367082887971796,0.9448662880469779
312,2.168786121054611,-0.6636051574588409,-0.3317055355211829,1.409266816358027,1.4033565968864292,0.7621491896113178,2.9869103480047854,3.797130049294887,2.073937183341768,3.21869977717458,0.6097226960127671,2.0942168272619903,1.8655968420025044,2.7028191516846576,0.9374078412501508
313,1.7813035659766847,-0.3557407209011425,-0.4399798234753478,1.0210159087138067,0.994922678093708,0.616850385036704,3.2787134761610788,3.551880518374796,1.7348797677847758,1.7775635193045844,0.6125606311107803,1.6852995581269279,1.4983700110066536,1.5194810252147137,0.9269498228965589
314,1.8488310375413972,-0.365388360026403,-0.37374257104232955,0.9828307906709186,0.9700204668791743,0.6282779541573947,3.8786383660273804,4.592788721928402,2.3967364511253266,3.5833334457067396,0.68318204999448,1.8877565515625814,2.1155292797125527,2.3044126902130695,0.9125309400635782
315,1.7862483678084435,-0.3316789575872331,-0.37099459660821876,0.9839446229134952,0.9801682901291365,0.7290662287109919,3.412143927116395,3.524020376668411,1.9339127689325823,2.2278027116734296,0.6509067234006624,1.9543568331742798,1.662098605528095,1.670812091659077,0.9439874103435032
316,1.651586063181487,-0.13503176538696327,-0.4980249561632333,0.9830784543991494,0.9687121834633506,0.5977889336221086,3.316929384225275,3.0615731498243113,2.215328828412801,2.3536907035693524,0.6727386042041725,1.7314172402218933,2.0193376176101303,1.9973278757207573,0.9469320252330529
317,1.7920999974957406,-0.06209566939239031,-0.4736115556766843,1.0379981992355538,1.018490446495259,0.7099762866396082,2.6496980691885077,2.66481466671112,1.979827216895662,2.265210912038667,0.6425374456860184,1.8916534720486984,1.7206765482615312,1.8290881898784803,0.9252209043688953
318,1.7362676704045397,-0.25539692306728107,-0.2768733779945422,1.0863572169857112,1.0689031327426382,0.7141465421387586,3.7097050485803753,4.023286360069992,1.6349998518771418,1.5680049317446447,0.6068309995095971,1.9805821123643697,1.5174933442742728,1.3684594934838563,0.9375206254644405
319,2.168221047690048,-0.3851943271381073,-0.4424411726449753,0.9649049169375007,0.9424979152176773,0.6227899172845849,3.2667616069269707,3.5127478194613153,2.7554992572460546,2.020315570569422,0.6468212168108125,2.0857726520420763,2.361444568169018,1.5222684201781123,0.9511626768866286
320,2.8505536861822605,-0.8889528305074628,-0.28971399052698477,1.5043739321574634,1.5079904612351878,0.8091307729662791,4.17794300213529,5.634611567140243,2.8893982270853007,2.850562425518322,0.6584896970785714,2.2869304904207124,2.5767226133268974,1.8995209464234195,0.9513902158934228
321,1.9883822757196663,-0.5932311568137743,-0.291551352451628,1.094324815964147,1.0752451959641987,0.6963678696064158,3.913568141617511,3.6442247902648406,1.9540905010016028,2.12655552072318,0.6403206450210053,1.9760028715847082,1.7723907100616358,1.8510288776856143,0.9352072300512624
322,1.6449740308430065,-0.3114624333301532,-0.2814272675026867,0.8843893083947387,0.8536712189916384,0.6170373454761812,3.2011616881322538,3.0932522167216705,1.5403695669773954,1.8307048029474513,0.5883313578629602,1.7204936273410572,1.3248958528217165,1.4326586983859784,0.9140187386464301
323,1.7179352989526235,-0.3811384939708995,-0.31834980493248893,1.244152907522801,1.2189091502313751,0.7469950306597508,3.2311498527101117,3.181398712577172,1.554983388165188,1.814834583676717,0.6284777104787076,1.6822475824477525,1.3221891317363845,1.3687403052127618,0.9535491163439457
324,2.14773229300212,-0.7264407617017723,-0.35689663630985424,1.1428854166530842,1.1371794927939605,0.6738983905596294,3.448071202407521,4.217591660693651,2.4185418311261357,5.468716805590276,0.6153451465759925,2.1206339751745067,2.1441035729762747,4.252455643265456,0.9370531207036801
325,2.637381341358584,-0.8483748328863748,-0.4080786283172002,0.9191917345062923,0.9188661153173188,0.6544902292963923,3.988987392483144,5.614430730863686,2.7837676362983443,3.848345396915042,0.6468212168108125,2.1971245823358863,2.40250542327659,2.979293547210831,0.9303324262138419
326,2.145360588474196,-0.4317662201659117,-0.33085677434092564,1.0262340785082371,1.0348029115130886,0.7070186302324701,4.086242041001612,3.166436614529702,2.2477455002538798,2.113563362429527,0.6509067234006624,2.0424455235486656,1.9761733281452993,1.6719183962122153,0.9306146028054543
327,3.0119394182486134,-1.1610170271479612,-0.1505810107462955,1.0631457479254622,1.0626394352579165,0.6884482044486302,3.5733952208800646,4.2710402673948895,1.9113802415524894,3.470257253773127,0.663668482632973,2.4290305392290823,1.678737043325159,2.7780087897091206,0.9275204986625166
328,2.930733786956893,-1.0852761373448212,-0.3307524393425777,1.1284034441999513,1.1418800841452408,0.7285858280535266,4.081600043447088,5.243004963899632,2.4574280972989677,5.630467551803653,0.6740851607140061,2.207679035240078,2.2013762718217227,4.359452312635343,0.9308304995154878
329,2.2948430659448804,-0.4399364151719788,-0.4943508927523691,1.3133386409409675,1.3154514507819997,0.8318202014957892,3.9636156471690724,2.426672007339586,2.728114745799724,2.6877158360558426,0.6447042257417027,1.8194733077955707,2.2642610753145145,1.7593101588796234,0.9445498710769682
330,2.355446340518746,-0.38771913513556067,-0.6884586394499852,0.7604297189858547,0.7505002590900252,0.6552651396433572,3.431597159737536,4.930571061437687,1.952560265472157,2.76144957693859,0.6284777104787076,1.8359900441414703,1.7479289743359794,2.2902564421074323,0.9271105659249376
331,2.395217974720244,-0.4463712207414011,-0.5865402109289868,0.8565738778586196,0.8536307866683245,0.541614691601523,3.6901257430266305,4.483752368421328,2.3121161062981472,2.227152701980154,0.6380535849069913,1.934937238904383,2.1356907967004015,1.6670559907270976,0.9243053933880463
332,2.357770077727978,-0.5201922751905971,-0.4589583423291488,1.2611180953914078,1.274825081861674,0.7977101574682995,3.4608020539664066,3.6222551273883608,2.179738880538282,2.6637023734603527,0.6403206450210053,2.131905111215577,2.0200685638431604,2.395778869891993,0.93251120061892
333,1.9839025846515235,-0.30422057741247965,-0.48713961175311604,0.7587063290335707,0.74697851113655,0.5905300776505932,2.7620404964902376,2.730483986581478,1.8279289620879888,2.8488854680401854,0.62595550513784,1.7545279126227276,1.6032907457374828,2.3902640751925706,0.9319825261015955
334,1.8097241942404763,-0.2340755469770972,-0.2534915071006653,0.9385680890769751,0.908037643471785,0.6987330705606656,3.047254028904674,2.886865653132828,1.8847672583288273,2.4936854001400817,0.6207552362147116,1.7025283355001122,1.6604103340449528,2.0733644399768747,0.9414481497796522
335,1.8068181700564299,-0.5254084722864596,-0.14513894396377552,1.2196879529128206,1.2107377996220645,0.7750191180045904,3.2701099705141554,2.7720583241020624,1.5817600622948167,1.6794121852573292,0.6619902821573977,1.8849718509502338,1.3981462426463207,1.3011607333601607,0.9208136927955763
336,1.5913682167627403,-0.2705961241399373,-0.40529374408763774,1.339682421238853,1.3031185495605635,0.8052912028575057,3.5203936956035444,4.259407327407127,2.1772326609267023,3.529003302644586,0.648888643467878,1.8378034077294618,1.7794791608794573,1.5736762796186183,0.9444478131597213
337,1.9254219267622366,-0.37633803261393006,-0.4641551409248117,0.9758367526070618,0.9641263983556472,0.6598536577450215,3.4434130018305185,4.194923887341416,2.1687320301976807,3.4070843233970627,0.6425374456860184,1.9063476139879194,1.9718108774874705,3.1349573031645734,0.9494559153420477
338,2.019271781533461,-0.48731228066935484,-0.29748722485778867,1.133579397163841,1.1276701165541612,0.7537137803521013,4.077295430698174,4.8002755959657275,1.7542405611744507,2.341347293300239,0.6097226960127671,1.7456395336145019,1.5117461460155746,1.6918409863375359,0.9405815316666334
339,1.7377764387002559,-0.2067148066320409,-0.5722272545647025,1.133340743911267,1.1326722147482613,0.7316403212707899,3.990383096506446,4.302266622895687,2.4206512999692773,2.99170709023273,0.6528756675646988,1.9564768920736524,2.172459114918067,2.624668592163159,0.9460013293124516
340,1.7931666848182601,-0.34693470430090534,-0.29562144735129964,0.8187014873964683,0.7822074598711481,0.6263176905595189,3.383779105725889,3.0003139751981767,1.7160583866713544,1.2082594001278248,0.6425374456860184,1.9230837754511056,1.5113257404171632,0.8872539690785222,0.9548714508727671
341,1.9711088593241892,-0.43942708858380564,-0.5028674981349037,1.1611100437244581,1.1595376327502578,0.725415057536356,3.505094912578765,3.3274114260520578,2.0065317375049023,1.66173207300721,0.6652988471865258,2.1652415314831686,1.863315290200929,1.44941898423841,0.9377554792001404
342,2.3452205061825038,-0.5675125145015821,-0.5954574808741274,0.6861887179678554,0.6716008416270313,0.5404675863300282,3.5323909854671007,4.671607311161356,2.2470262130701935,1.4692063460390137,0.6619902821573977,2.1020053107552856,1.9640757861939557,1.4225899980900143,0.9527966367698135
343,2.680604446953418,-0.8693055803292904,-0.5320983606032327,1.193465756482628,1.173256012295432,0.7082033219649071,3.0084363103133858,2.6616207666341993,1.8629288928648375,2.558249183690973,0.6619902821573977,2.0101642661950914,1.6348046345772413,1.32965595580089,0.9441899826935097
344,1.8342304082252514,-0.3096554566433162,-0.4177460298067168,0.9254873367184904,0.9119551529705611,0.6780442966165179,3.813619876638087,4.307317611827851,2.3580606824446155,3.6777049999484515,0.6284777104787076,2.0262167804425384,1.9655711934544704,2.3343726104309304,0.9392553593451366
345,1.6788649657728767,-0.21385860610284102,-0.3550376260203766,0.8798787402294946,0.856942382634922,0.6153432683214144,3.3619595889949103,3.1185316978131983,1.7149564140070022,1.3656525156061365,0.6233814453054027,1.8646886492508128,1.5683434559313612,1.131849561891806,0.9404050176538609
346,2.0841747556334607,-0.4035968822640521,-0.5157571181569355,1.1632674608127602,1.1463486314928983,0.7616606101395621,4.092365078678138,4.85347177809723,2.527378788368582,3.7259443083101313,0.6528756675646988,2.196424897165655,2.3442067676848652,3.016785682751823,0.9248997189708623
347,2.4073028569037835,-0.41887328913073985,-0.8543281740607985,0.9866664436474137,0.9763396235835249,0.5666505939014423,4.597787802562416,5.586470293049775,4.006725715817834,3.572178385129044,0.5748741956352443,2.023523402835876,3.3390362324405145,4.099095164980699,0.9218542709742193
348,4.051068706530066,-1.2534306783782134,-0.24773990334814186,0.8647484257672975,0.8633126785063231,0.5073525574923631,3.344735650409482,2.6056467058804844,6.522741035731197,,0.6713451011121618,2.480250838251806,6.219263909958386,2.0149030205422647,0.9526621244034076
349,3.3507708573192607,-1.2283832702145512,-0.43905363125860863,0.742277122515021,0.6863646465601316,0.4992561166347578,3.7714465335325222,6.065171637922489,3.733722960513706,,0.62595550513784,1.9768047319436062,3.0851238565402,6.345636360828596,0.971815899703684
350,2.836013639427601,-0.6797656076594489,-0.6827919076092464,0.5504784600425079,0.5455902491595906,0.5225864066084048,3.390462026461103,5.7305433433605835,3.5043017915439854,4.732417984727267,0.5748741956352443,2.0588549080714476,3.4488126876584633,4.108137884354437,0.949899200186
351,3.894028228412038,-1.7153400950315887,-0.1797536427956033,1.7671266613947116,1.7892584041059998,0.6365844853327195,3.288596281499829,5.574819364530839,6.374412788655371,,0.6207552362147116,2.3874170285107432,5.884653704872509,inf,0.897663419788291
352,3.2172481673719955,-0.8436042514326967,-0.9328739138367362,0.8888229946499202,0.8817836089870958,0.4507584528318392,3.167449856474895,4.956545434031813,5.25201221081982,4.104173690402747,0.6425374456860184,2.0380010717882415,4.975114722851721,3.295836866004329,0.9337787341046829
353,2.6981562557461074,-0.7464537650071004,-0.407946923365155,1.306715690202673,1.2992269590302912,0.7890908555357182,3.9647116083393477,5.5305122783317735,2.0794378462365,1.8658787021991996,0.6699045166045591,2.160603393880574,1.8761013888951121,1.82959662137829,0.9463754161698423
354,2.411431673252831,-0.34926530285934454,-0.6589842690042051,1.2295528647615264,1.2294895161814918,0.7901789112743276,3.044480703579598,2.4765831305597046,1.6837411644316207,1.0163819202818722,0.6038851895711802,1.9301789797348807,1.4479531289962784,0.8075970152927939,0.9467593903708567
355,2.7478994864571424,-0.7040317308138173,-0.3553029956180629,1.0092354741924918,0.9860090014028948,0.6690194184729444,4.3666309451156,5.667974527992539,2.574261946275705,4.184119390752155,0.6425374456860184,2.0708562785214126,2.2416442935038585,1.5229103451093662,0.9271548296436604
356,3.357888017342192,-0.8780010098936362,-0.6069981988327234,1.1761916063949895,1.1739054697248636,0.7055469044094183,3.249412632898104,3.0914105055972736,2.4051309229025675,1.1663821435360338,0.6566669596287297,2.250519874394443,2.372588012280316,1.128465251817791,0.9431800113554037
357,3.3378741358222914,-0.9440533858789608,-0.0573088548677268,1.7810112914711895,1.7941516982559131,0.7963822246347707,4.647783805325457,10.682953627143304,3.184981679872695,,0.6380535849069913,2.539151664640396,3.191659482403724,inf,0.8569324638963226
358,1.3760225964372492,-0.2061548018244685,-0.00015727031385416986,1.5509619445858607,1.5552697274011784,0.7924022636690159,4.334601856858662,7.815904353553993,2.3173796459814913,1.1067950455892561,0.6097226960127671,2.3035855933276292,2.0358073555967313,1.3982910774075221,0.9090948719820382
359,1.875317502932078,-0.2062849253225286,0.0,1.7889511408782985,1.7973589416401279,0.8510342635406166,5.223237860798363,253.38699957479122,,,0.6284777104787076,2.658942626995182,inf,,0.8725977405549159
360,0.5657950284026335,-0.0528075359842458,0.0,1.7618271967295618,1.7538434710710835,0.8977624817597772,5.046124934612342,670.0941933602868,,,0.6233814453054027,2.517154397338121,inf,,0.8675388056121495
361,1.4159639983853805,-0.17935543979548152,0.0,1.768702457113403,1.7687065629146426,0.7926983625190027,4.736680884484502,286.31565363957895,,,0.6547956803312163,2.3876589542407243,inf,,0.8696370054881474
362,1.2220130396334639,-0.1400545823151541,-1.7271348396730862e-05,1.2600380457650033,1.266157472852299,0.677778444468004,4.76388364508686,5.131560742434963,1.6991783230617576,0.5207488545373512,0.6602640781246099,2.4046178185591973,1.5236474929703712,0.4111276373947918,0.8920299942882324
363,2.3665366412844127,-0.23149023722221887,-0.08105289516277456,1.3988450086446442,1.4156069773805822,0.763164781346547,3.1577936600132834,10.501671626291742,1.4678782781806772,7.294447632085468,0.5677978065141052,2.6318610627446635,1.460485496814764,5.928924028633084,0.9099832081774663
364,3.7267204525792192,-0.9910210975621241,-0.2246328731292234,1.268981263964149,1.265108357935495,0.7391413710555548,3.4801905645513487,4.879924432849501,1.4766941342503397,0.4331917420876884,0.6357360191111145,2.4437647064568253,1.3664039226427824,0.5429466620798541,0.939838677258022
365,2.6492875431831364,-0.2641392729219646,-0.14282993241797165,1.7708966314214991,1.7890952127551312,0.8655332288536114,4.56733830270678,3.990005632054764,2.0716457960474655,0.4236530967728535,0.6403206450210053,2.532417632459052,2.0694247634363645,0.430697733588889,0.9302058039833283
366,3.0509524943949184,-0.5248112204307247,-0.2859586479335803,1.2318720468439546,1.2287577091348627,0.6716119582953443,4.737399098998907,6.729351546997727,5.3973026654700815,3.630885985955822,0.6038851895711802,2.3659983215849056,5.090322909146069,2.341805806147327,0.9320559004825746
367,3.348914982393946,-0.8219261867149436,-0.17158525806192704,1.7819176544569026,1.789753436338256,0.7217659606609913,5.002514499464925,27.22284876629685,7.198586109720624,,0.6566669596287297,2.4105415678326936,6.79979880414349,inf,0.8727709597846713
368,3.7309592224278503,-0.965947072217159,-0.19065028673547446,1.7674570270532075,1.7607408523463997,0.7058766183361584,4.278044904193845,51.11490281279441,6.726856355691021,,0.6207552362147116,2.4768062137541325,6.628173642564224,inf,0.8886191611663845
369,0.1651268816450488,-0.01761353404213854,0.0,1.7797756754216472,1.754117210422683,0.9062943417725253,4.44662449804204,216.06062979979225,,,0.6403206450210053,2.3133090563570216,inf,,0.8520072225959189
370,0.06597681016936044,-0.0050582221129843,0.0,1.7713568131389947,1.73938377129903,0.9030828527168061,4.064048100871973,141.09866997465417,,,0.6233814453054027,2.60444121848319,inf,,0.8349180077473561
371,3.102032412935595,-0.9090948396719244,-0.3594116969648592,1.442912260236964,1.4462851987887053,0.7628245797030118,4.721077105743909,6.666362212454561,3.1203698684761707,5.117263805632695,0.6619902821573977,2.463406118341998,3.0580547995202485,4.499809670330265,0.9529359088136412
372,3.359101210673152,-1.2108945664106037,-0.45745903489039513,1.7892393087547303,1.7982152036082584,0.6723154878124369,5.610109004518884,19.507659213594724,5.454362420088766,,0.6180765742263259,2.308938566966221,5.206806084235555,inf,0.8725208472301335
373,3.8775490443575866,-1.489650706979289,-0.46878154226554525,1.7719045459712732,1.7855747681353558,0.6781535036540263,4.505698653357301,8.577951687286216,5.5104206725229155,3.5196603508455975,0.6284777104787076,2.3641059496422963,5.329886932965798,3.713572066704308,0.889452792054123
374,2.351386267673314,-0.42662745995717394,-0.03581183935191113,1.3785221279074844,1.3923043350153361,0.6617111419532424,3.6437649106578083,13.872669859078933,7.97471377904904,,0.6180765742263259,2.327561079064223,7.98139158158007,inf,0.9191181004901501
375,2.8895366792727777,-0.5882661115624425,-0.047577772361852205,1.7381973988444543,1.74729696244197,0.8325179173751917,3.607051942246391,8.09347958704294,3.079471674704471,5.69039331273484,0.6602640781246099,2.6243219855714974,3.082799390350218,5.700443573390687,0.9056139585296443
376,1.7986840642352266,-0.2867112622464411,-0.019065028673547448,1.7849179395375525,1.7964140845886525,0.8846836635447644,4.425589002567595,9.088538164963895,9.10306845420945,,0.648888643467878,2.297818692571922,9.10974625674048,inf,0.9019735033939398
377,0.17971773218833084,-0.016174595896949775,0.0,1.7493924952198534,1.7286432692546623,0.9226111098779467,3.7776632024027967,9.838494790784612,,,0.663668482632973,2.479985445468932,inf,,0.923507603834101
378,3.3710151316587864,-0.7013129648927403,-0.07398656193184912,1.2157110552177763,1.2177476916942318,0.674079390728451,2.90035752203229,2.112696754793413,2.9531745127920135,6.009456985927789,0.6333676938231112,2.4315554742910055,2.179185756746541,1.1098483619350357,0.9310980156929065
379,3.757301880767444,-0.5621789386865537,-0.25057811958493503,1.6894811186888847,1.6907481925665693,0.8555153730462187,2.7928959486081832,5.387386090783453,4.517485669612183,3.4590357290291625,0.62595550513784,2.724518393809517,4.301019920829003,2.995732273553991,0.9260481227088974
380,0.15774720776747436,-0.01261977662139795,0.0,1.7409599266610276,1.7001275436279295,0.9242375871843896,2.656941488909521,3.399477503877609,3.080556863117781,,0.6403206450210053,2.6198867102729055,3.0872346656488103,inf,0.8822767698155538
381,0.3178431143896867,-0.02224901800727807,0.0,1.7038868310850828,1.6676671921082988,0.9254377143304523,2.622251498664309,2.3460893961739417,,,0.6038851895711802,2.7492194781402812,inf,,0.8853080012952089
382,2.1847855405373124,-0.1349042548587388,-0.38820028461247075,0.8313965574150286,0.8213109753361438,0.6462658150814675,2.6292313922266537,2.530511923457634,1.519713906628333,1.8746542319201716,0.6509067234006624,1.6844608329399697,1.4701369213716347,1.8395082378334409,0.9517662959613759
383,2.8972673258020496,-0.3627564459580537,-0.71192915485821,1.325243470768734,1.3125837707635013,0.7982987418125185,2.2472921756267703,1.6872109124179846,1.7533586307934304,0.593816337586327,0.6447042257417027,1.8178981268377499,1.5926764166370027,0.6817720160846754,0.9413366660604381
384,1.016576392129909,-0.10240105855288878,-0.03814644444273684,1.5759584464332752,1.555743059733018,0.8980908760336196,2.6809627946405685,2.495882944566254,3.2144490080934904,5.865417615704852,0.6207552362147116,2.3143203492124664,3.1988417658350845,1.735519750905179,0.9247057467465075
385,2.0691732453415477,-0.2612880227148537,-0.1850442905492298,0.579972604152922,0.5821941950767394,0.36265809845048286,3.159415395930184,4.872446363952729,2.476037181775068,4.581662893901147,0.6008849035917525,1.8515802475465943,2.048294623945904,4.372195861890754,0.9450181523270897
386,2.170348056095884,-0.1450013119345045,-0.2538732862163629,0.8857469332505404,0.8941342667819482,0.6479421252102152,2.0253421310553135,1.799492895596806,1.31693850310421,1.4895360294217157,0.6125606311107803,1.805520384478092,1.1238001235566475,1.235446518483907,0.9417248164521144
387,3.0035452524398822,-0.5944413636258614,-0.41999997596583094,1.437256424980016,1.43093062208833,0.8408249491112246,2.2168975944861473,2.5234085347671638,3.0108305667811375,4.485674518072183,0.6180765742263259,2.1059224189294334,2.8559227109973904,4.047824546587208,0.9069256460194322
388,2.5559534875545853,-0.6431432703439042,-0.22556160884029233,1.1641105178742406,1.1590015662662625,0.7829019712312304,1.857866879030762,1.814187862374793,1.3091100518918977,1.4157594638173963,0.6333676938231112,1.7042371117001085,1.1455686844493944,1.087535017262933,0.9408117458434435
389,2.5040893703124874,-0.43113485750131764,-0.46829621600659843,0.5402695212277719,0.5345759578071148,0.4577273568081839,1.4437329785136106,1.8180004170681237,1.0607337281749352,1.1759350223775076,0.6180765742263259,1.3697213442771954,0.9476390342990046,0.878993208943179,0.926511158559802
390,2.217041946924745,0.010873185031923471,-0.4906813467200478,0.8787474917782687,0.8716542094425804,0.5316060432456586,1.7775362616675727,1.8623884537658988,0.9824970187524007,1.3209470174381601,0.6097226960127671,1.4151969342823998,0.8524501073503655,0.8416272733203547,0.9202823661619559
391,3.191257078069671,-0.7294816946912392,-0.6588078013123476,0.9317607328632095,0.9401843324453159,0.5996624455241732,2.280072713573748,2.5072421519628385,1.7837767918730458,1.5711986375737246,0.6333676938231112,1.7220468568167546,1.6622934077789777,1.6081277255450743,0.8851164991615118
392,3.657827621487755,-1.1014961136502226,-0.27283319761025443,1.6471981799217172,1.6389386887955184,0.6436301386151798,1.4670524968018812,1.7537004419983193,1.9436735085242518,1.5975582968219875,0.6403206450210053,2.2508363467848684,1.833557884584064,1.6532897949629497,0.8497631018482769
393,3.6759320348337994,-0.9733351758382578,-0.019166473566868087,1.7320272663538467,1.733438694593647,0.6548066549492711,1.648177609567627,1.640159861968849,2.6306802913312697,,0.6180765742263259,2.3917806717985166,2.6356617406141205,inf,0.8350755759477011
394,2.0700584643054825,0.1863729049422962,-0.6441426739037314,0.5345946023014435,0.512574397895289,0.5664808695942234,1.891418344755517,1.5555553385440126,1.0976915009696981,0.8707540506098446,0.6547956803312163,1.4270700604154898,0.8953776616748075,0.6613559805984197,0.9532917035301305
395,1.2987295464569435,0.5155894480119163,-0.3238645354138314,0.9468116621806308,0.9366506619111744,0.4756999262165969,1.6396869709158028,1.7603087738511043,0.7102366956155087,0.7260367349842128,0.6528756675646988,1.0348553228653585,0.6014400437386244,0.5458435733141955,0.9436971991272731
396,3.763684658824489,-1.681606250571785,-0.5252607702270345,1.528763179285004,1.5655947481672738,0.7497550002761121,1.517968630376998,2.2290829577048754,2.3787385788941533,3.8907730506428506,0.6509067234006624,2.2343035855776403,2.155755220793506,2.7979984377651497,0.8776319401357154
397,3.2103119473022637,-0.8832581405266506,-0.38888516560354175,0.751176168244778,0.7547012588232275,0.5223483862758043,2.044230053016765,2.198447135823188,1.6702539900456326,1.186842138833388,0.6207552362147116,1.7605838517596053,1.5627269912454789,1.2774247459151415,0.9627602382421198
398,2.141074605115614,-0.05561003590068181,-0.30733719115562397,0.5958159979032343,0.5956273370097428,0.478562227475203,2.132566497204689,2.8847317734895257,1.5495199696748034,1.8320593495046744,0.6125606311107803,1.6704862351101797,1.263001813859613,1.66503759429963,0.9534019759809957
399,2.8162506960135643,-0.2960049889264278,-1.0273714041414321,0.4999769164997472,0.49425213426812603,0.5389857818180351,1.7346682391801684,2.08241540037732,1.9063608307849202,4.776616197601002,0.6207552362147116,1.7154776710708963,1.7380661909634683,2.696525715250256,0.947168128186879
400,1.9528290967712234,0.11987369231894185,-0.2927967376674776,0.6899131251594858,0.6914643951985462,0.3811386331065734,1.8373967393736732,2.2816803532347762,1.0936751306148644,1.1588926396906685,0.6468212168108125,1.181993897607161,0.9083513181019625,1.0564683789027658,0.9174736373650166
401,3.1452085576019413,-0.8346755335959944,-0.3166242955146836,1.1636252291207605,1.1649623854177134,0.780617463519296,2.0103449652820893,2.2330691595974335,1.4431662896608364,1.765222997560793,0.6284777104787076,1.7989183664265345,1.2323259503510458,1.1758957395898648,0.9152906019551311
402,1.8897961306399178,-0.36089219974945896,-0.19598799553623214,0.38352603174820593,0.3500148012940377,0.3437736397198195,1.521146823567785,1.6394247764387464,0.780104430080819,0.9151490689743688,0.6125606311107803,0.994762914209235,0.6312561533722815,0.5672134884851654,0.9431457998015506
403,1.9598068483081308,-0.2793334349469861,-0.2767259245139613,1.1570127700597854,1.150242441171966,0.8000868726755384,1.3813276267239045,1.4943581110540247,1.4706639363506484,1.2681189868974414,0.6468212168108125,1.8709469871250757,1.3344095257508788,1.0641354023921004,0.904370333653795
404,0.7733111525417317,-0.06521431614853962,-0.05410368619583361,0.5139426457520241,0.503064483820137,0.41530026553204547,1.5440826630276783,1.8826643563645664,0.8731076683847439,1.0470422260688348,0.6233814453054027,1.0085583228276715,0.7109425022476742,0.6280816338494357,0.9447866752523706
405,0.5396337736017021,0.008405153350076522,-0.1452388849495948,0.8383206377063688,0.8278987994799566,0.32869604265153146,2.613209589712267,3.1820741052314125,0.9598365691814641,0.880204028412308,0.6068309995095971,0.9496751758937387,0.7312587382454315,0.522509963010966,0.9591004484287784
406,2.5851497435784463,-0.7300622373071394,-0.2542849385113387,0.9972464576168458,0.9838446839274071,0.7084581525515514,1.8139994905206547,1.7396498958722968,1.7739214921284736,1.145914436923875,0.6447042257417027,1.7760829898430475,1.6217866017264333,1.1532333731483349,0.935126488856071
407,0.7282182605780643,-0.14415776247310072,-0.03060834053507219,0.2933224123996716,0.2839263248657865,0.4111611775481671,1.5787256945500565,1.9532745344960976,1.6832877130911272,,0.6333676938231112,1.6554818509355071,1.5742864150991172,3.929301441228419,0.955475689137301
408,2.156392233084743,-0.5185306510001372,-0.27588442299603166,0.5165637402004642,0.5164781779101888,0.41847942605131383,1.3585801076862467,1.7590639408946662,1.756097300556641,1.7993917883582666,0.6125606311107803,1.6082164365174194,1.2726011085739337,1.27753234710666,0.9688532648981518
409,1.8593456300383016,-0.26614566961149067,-0.1933355073578456,0.7017375132803364,0.7097533791786422,0.43631373370010196,1.5084866229640101,2.4620915456096246,1.7431099779430794,2.8702359812994835,0.6509067234006624,1.5934552079274908,1.3511615648210697,1.7947199281464383,0.9574062711083615
410,2.610441058645285,-0.2951740895587823,-0.21649782898822395,1.2715502320219376,1.2700850969559723,0.7237999169751462,1.7023292245143016,2.3623326665217466,2.7714737427045724,,0.6509067234006624,2.32131496256727,2.580465926616904,6.505784060128229,0.926492143722834
411,1.4072437420880988,-0.13993578160329673,-0.18460426893812795,0.7483103501907462,0.749127851757825,0.2865271958416418,1.7963513890642218,2.132687855729843,1.7074896855925858,2.139200491153271,0.5978297680564633,1.6020761876583764,1.543962313257558,1.8679356944458358,0.9416200803801303
412,2.1238977779955177,-0.24518877432413722,-0.18150828816122444,0.9780418887433644,0.9791826588930508,0.6855745058648495,2.5740662149203897,1.9447749409858188,1.1594163500912484,0.8677374078611222,0.6528756675646988,1.4190012244211547,0.8333133192330245,0.7474257512973504,0.9607036468606298
413,1.645179620511757,0.23343668067241619,-0.029725474085634307,0.9048697114992917,0.8923792436799771,0.4684799792522343,2.1825686488778424,2.6331815267779968,1.0460975521638174,1.1153736015765439,0.6038851895711802,1.2154083115818668,0.9223216939687129,0.7716207189433879,0.9497546703555069
414,0.7560775767322366,0.2454442096456929,-0.0740598240532595,0.6555150217670012,0.6462493540854753,0.3731278418547761,1.5688668041432923,1.3892576699467043,0.47148926944720504,0.5251636489005921,0.6180765742263259,0.5949724207168443,0.3464367088257292,0.2773765494045576,0.945746149364888
415,2.8812538761924613,-0.72896824972497,-0.5265413666187517,0.665616161533873,0.6549649351458599,0.44548312409774865,1.2658353849174617,1.517794931275624,1.8063082529968089,1.9311971118993922,0.648888643467878,1.7761486217139075,1.5724563098290774,1.4138690482637735,0.919788980442197
416,1.4219754285207793,0.0502966564476649,-0.34293628203495596,0.6934772907311113,0.6967846218769682,0.2598064392797092,1.442524350647611,1.4150183573060398,0.9259784898430974,0.7670773818600931,0.6309483474627791,1.089355267405433,0.8160209286095895,0.6857802536156882,0.9599649052357893
417,1.1651345275175764,0.17067892876547652,-0.0771964671237807,0.6958069048582053,0.6880839446343794,0.3380655182146715,1.7358442516252972,1.8604695328708891,0.7736506929915947,0.9278956360056897,0.6380535849069913,0.93564346038997,0.5975538349601562,0.5135404487121571,0.9520103043575896
418,1.547747954111171,-0.1316053140625384,-0.17223146448886717,0.6336228850276753,0.6279902162304273,0.4899487992864128,2.036889757863158,1.9427901564121899,0.7853876933003614,0.6809994732063581,0.62595550513784,0.9512848341889769,0.6077768709200566,0.43465076286220333,0.9566415128450427
419,1.5296113803446083,-0.21785452395908145,-0.30829923225391265,0.3986402894099303,0.3988251818440106,0.3473419068687062,1.4928338893620392,1.2778628121793627,0.6762506420778379,0.5852467576004537,0.6584896970785714,0.8811112933400898,0.5153680928381663,0.3291802813452754,0.9122904402345625
420,3.535037285692875,-1.130717689543856,-0.48385884628230236,1.254516944591827,1.252766595667948,0.7233883399842631,2.504150516322322,2.2395078564884567,1.908141759454253,6.295918801974341,0.648888643467878,1.8038320504623242,1.7396972397776274,5.784594117392615,0.886093240447353
421,3.4981328526863518,-1.2018275614421698,-0.3718168406041391,1.5300719755780514,1.5291544644342356,0.7236311572115872,2.0841056169349117,2.5965156834904826,1.595361458159046,2.5281099161159326,0.6207552362147116,1.8413699697813894,1.2946466047754985,2.7108667437399863,0.861463923155261
422,2.9934622042747905,-0.5987358277313016,-0.21033761874052226,1.578561013041886,1.5770392389730798,0.8650481021672698,2.5290061437052054,2.0630971015312145,2.1736789049927845,7.164956648997951,0.6380535849069913,2.0555514190200737,2.0720052774081403,7.280008252884188,0.9259829961645848
423,0.9262176732564877,-0.046615722077179775,-0.07800655398522613,1.2781300579269237,1.2839898072723244,0.8280741614982791,2.6481494384608166,4.090346176205857,2.5544179856145175,,0.676637947632344,2.0220954911237694,2.4707385654700706,5.122971423490507,0.8929448030722299
424,0.05484550973536971,-0.0063986428024597995,0.0,1.5858292053223306,1.5427503899619046,0.9424316240007722,2.838987873991984,2.7429204635314792,1.9178881589635999,1.6060878255488185,0.6509067234006624,2.1731175019929863,1.924565961494629,1.6127879993193823,0.9046934667890497
