,acc+bvp_XAp0,acc+bvp_XAp1,acc+bvp_XAp2,acc+bvp_XCond1,acc+bvp_XCond2,acc+bvp_XDist,acc+bvp_XFuzz1,acc+bvp_XFuzz2,acc+bvp_XK2_1,acc+bvp_XK2_2,acc+bvp_XPermEn,acc+bvp_XSamp0,acc+bvp_XSamp1,acc+bvp_XSamp2,acc+bvp_XSpec
0,1.5606270906709043,0.020860678982678182,-0.6021160324819612,0.8964034014498237,0.84669354946767,0.7032483796911583,2.958447256849009,3.1492357353133564,1.7416423298227846,1.5587746152424202,0.648888643467878,1.7694110655642932,1.4623248750335123,1.1655171414073675,0.9486088696157261
1,1.8408203858690169,-0.2432523503358235,-0.5966688786405163,0.8019902936823141,0.7968074865457663,0.6821883371824835,2.7864935611785455,2.5317240704541333,1.7757539659540214,1.424292155714275,0.6207552362147116,1.7676523938848219,1.5860254718093572,1.0756733409875248,0.9506068557338333
2,1.8124287738801523,-0.2765733024203937,-0.43969397748788747,1.3690668677650888,1.381302805199252,0.8156539922744956,3.1299356597622476,2.701142518105846,1.7525464172576173,1.25485519685419,0.6547956803312163,2.076867080672485,1.579652750668115,1.057721449701853,0.956365816190273
3,1.8618956619957086,-0.2805460592328797,-0.6513310306548126,1.015168268833335,1.0252220710880593,0.745928729713263,2.9470664756206904,3.0982377020170864,1.934684472392869,2.2488356630364104,0.6584896970785714,1.9223998068869943,1.6269109602393785,1.4189038110859307,0.9542612968754255
4,2.0496680170310517,-0.5934579191220872,-0.4564617510777025,0.6819162226689168,0.6507975835208076,0.5979721362697404,2.943352157502633,2.9224267522404697,1.501028404350119,1.1141686726900362,0.663668482632973,1.779567428462693,1.2875415079335257,0.8549644048854288,0.943213275591375
5,2.0774417920179498,-0.42453537516401374,-0.4167211350368886,1.3512265800860268,1.3407564833932457,0.782008047547669,3.1951667884818002,2.673119662201382,2.104079332367632,2.2658942055397993,0.6125606311107803,2.1414115125170063,1.8606577735959233,2.0631614112346615,0.9449144686994072
6,1.9606888356521965,-0.33431262999626987,-0.4794537271834995,1.2771436434951489,1.256009659751075,0.8205084534095691,2.9833108488514983,2.959055907686428,2.2140118835341416,2.523254821040873,0.6180765742263259,2.2142690119454778,1.9497829627014431,1.7924745210997806,0.9474176038544462
7,1.87752302133581,-0.12486015841563525,-0.5902231408044042,1.1607981985273415,1.1373143092380993,0.7586018614534271,3.3827819861250616,3.5948711831248255,2.1215907025233802,1.7788959477498223,0.6528756675646988,2.113802969197147,1.89804037151321,1.5875791186216013,0.9507286162580469
8,2.006887658635903,-0.33961275928556356,-0.4960328629354467,0.9705805641968233,0.9463443607716074,0.6753012126324823,3.3282652847002616,3.2791343780386097,2.6764553533342474,2.9317056045917087,0.6207552362147116,2.230677953595439,2.430474867143589,2.5875290452137025,0.9450462309000802
9,2.0596278296616255,-0.3819653322196478,-0.5145261867826805,1.1066747264505064,1.0983788150149127,0.711190779043828,3.317040980839551,3.3782787394920857,2.564854857179705,3.0963025550507237,0.6180765742263259,2.2066690361642194,2.3235998416507546,2.643189566900169,0.9463808194151241
10,1.7865314344591507,-0.28293833906821064,-0.5231796273187543,1.011107091144995,0.9974867500271146,0.7091144067603826,3.757066969408207,3.87029820583586,2.595494953462712,4.111174885861731,0.6153451465759925,2.0484598040711073,2.376242393772352,3.0125708379168206,0.9253181275122604
11,1.760978357727323,-0.1398013027072511,-0.46377506796542195,0.8234373362098493,0.8217376239517471,0.7069670815365527,3.2406599229830766,3.2313294582286627,2.1449206139784147,2.183506830907009,0.6425374456860184,2.102914897865478,1.9522089512033414,1.7212293184222172,0.9439390863248514
12,1.8106895904813092,-0.2345881482619938,-0.4601637184295425,0.9385224802439096,0.9131917622353307,0.6352986080241836,3.3633010212055416,3.225847913792347,2.4278678798861626,2.9491154923779845,0.6153451465759925,2.1885622042575665,2.1688802247857764,2.349642154476643,0.944823858665754
13,1.7405766804836313,-0.16234838277480002,-0.430896899883129,0.7707384451506416,0.7687032167752289,0.5795366489054982,3.4646953000382954,3.4458801164180257,2.4011477303013953,2.7239008528535424,0.6309483474627791,1.9384050495695397,2.132222986035245,2.224949125351074,0.9404539101385022
14,1.8841948657649774,-0.2188368295097155,-0.354210256496195,0.8184683783967416,0.8003868417579321,0.6475930188681245,3.3871557832853907,3.505838988390902,2.456783165817176,2.734139850154637,0.6403206450210053,2.1779122663038466,2.2130429991143363,2.2892218651818785,0.9122097906547216
15,1.7090771926348363,-0.19474256978489302,-0.4192568895170899,0.8876117536082291,0.8738364889618635,0.7304086925259404,3.7348724696900377,3.4945694092822697,2.273478650117343,1.9314579984804314,0.6284777104787076,1.9688944993347097,2.0398841745577445,1.6273451522899323,0.8846813879659203
16,2.0424277813969485,-0.27245511819886237,-0.5197018726052398,1.00091123617602,0.9878619154442174,0.6488130977802473,3.2983413680426046,3.361116292397605,2.590314486105931,3.0159395527033515,0.6207552362147116,2.291425372735046,2.3709032270929935,2.4411712562801924,0.9188207830300238
17,1.798948559880698,-0.06931453530525045,-0.4735701428370448,0.8163299738764381,0.8010415375853395,0.6049954682854413,3.237637759821329,3.1493641459091917,2.256728681686491,2.4369635174833872,0.6447042257417027,2.10537492370634,1.9970018102130247,1.9115606690406757,0.9429650794011252
18,1.6417713187749279,-0.06196094835705679,-0.3912230191085031,1.00953143094265,1.0094306529095272,0.6838009805716467,3.2011522346104777,2.6492709304703728,1.6055447651678385,0.8575229702201359,0.6357360191111145,1.9390228102069467,1.4695349258615011,0.7073510040694934,0.9418603652095237
19,1.2749241109022433,-0.06918768330187008,-0.1938264911167371,0.9411147949572646,0.9101639986706968,0.6146053834789016,2.696867643111975,2.4790441577901925,0.9730015196880352,0.8351591043191152,0.6207552362147116,1.5191910345863222,0.8813744667679272,0.6537379482242789,0.8614492488656758
20,1.8375545455309035,-0.16082175892740003,-0.3982691833655244,0.9862934793864707,0.9570649881038994,0.7621429533202614,3.0601901542156154,2.756175370125442,1.9082317239183504,1.6001113418813173,0.6652988471865258,2.1655321306037294,1.6924236535541406,1.2729656758128873,0.8951091832394739
21,1.8137989699410442,-0.2984972833330143,-0.36756828001792724,1.1603396698048458,1.1336625242602199,0.7521457290800194,3.415136848482181,3.376185683616809,2.0046627241079884,1.8215019668257602,0.62595550513784,2.0957516084055854,1.7255170337540964,1.3837607899647977,0.9224802343366117
22,1.8370582754678835,-0.48208211922866195,-0.331250505604565,0.7984265397592283,0.7970970983474317,0.6374255875348033,3.455501457197158,3.4165503027273982,2.3640633099858794,2.7176417149298318,0.6038851895711802,2.0783754434978383,2.0849619902112138,2.150477314796588,0.9500170796592082
23,1.696861634795379,-0.2911387564182033,-0.45827532303622054,0.9888205417908711,0.9822942559256651,0.6641013956364523,3.4228789807696147,3.3270518531290616,2.0441460800215943,1.7227973831575119,0.62595550513784,1.8842403220222201,1.7701303574058411,1.4727984309241462,0.9337664809276596
24,1.7389403146002989,-0.24705067113029766,-0.41796341964343076,0.8891188730890323,0.8923925146420031,0.6123542375915679,3.5838579348228397,3.192005720748092,2.1031581105068025,2.088072678656061,0.6566669596287297,2.02117263355586,1.9173084308353074,1.7070325021410577,0.9421987738504111
25,2.1647139186893827,-0.4230604331777086,-0.4566554044483642,0.8579542021594291,0.8400240392234545,0.6085215299692807,3.6234180678688923,3.4780740686241343,2.519149359091724,2.22689204773653,0.6380535849069913,2.182237447527971,2.2640314558742642,1.837332066506908,0.945077129753729
26,1.795578772513935,-0.1719903883615036,-0.4166724906374076,1.0948932820067365,1.0789656317295262,0.7796833274310174,3.4548310177438686,3.7170642448699356,1.6533031228999175,2.0264606153452656,0.6233814453054027,1.727971229481188,1.4447634393891577,1.6780519242840142,0.9448813994297369
27,1.734821354033593,-0.24073283752437769,-0.37222873747185026,1.1254638640048455,1.1156221730536027,0.740820365471096,3.8263966431201406,3.6039173348951454,2.297009045512688,2.1564653839737367,0.648888643467878,1.957105921816048,2.0733253146623998,1.8923367793432992,0.9117071214578825
28,1.7610441335127818,-0.2924417366735649,-0.33114779971667935,1.1023764098886597,1.089547771570604,0.7287008149358383,3.776548057811151,3.905824969469419,2.193684221568523,2.38613179707126,0.6180765742263259,1.9780890474195485,1.9707132095118942,2.0788653388405,0.9312773346172332
29,1.7402701777879797,-0.2026074562555844,-0.36849121041592886,0.9049956116324679,0.9031178592419219,0.7443379410423075,3.290515725436763,3.190919838470676,1.825032138175698,1.8024510381693601,0.6547956803312163,1.8778258383328696,1.6320709602526267,1.5260563034950494,0.8934719784375457
30,1.6602577107206753,-0.2461259036963025,-0.21884821648466113,1.1646806596223607,1.1714908497412806,0.8184186343927632,3.390041721023227,2.728156829260321,1.7878674822777603,1.2073374171715128,0.6547956803312163,1.8593961179438663,1.5364821022406892,0.9375699129304844,0.9288339848980279
31,1.7504411380353588,-0.28518709621180227,-0.3226494326231344,1.0551623277956443,1.028850150662417,0.7547860965951383,3.5291048344468563,3.2016072684121544,2.209341083387253,2.6811473200141265,0.6584896970785714,1.898528383621338,1.9893441615745249,2.272668331956053,0.9341075403855981
32,1.6082158617715245,-0.07447538798279396,-0.4193677909840203,1.162397102590853,1.1427785189297361,0.76643123060037,3.50778268971499,3.443883068402479,1.9872237842764766,2.3691353809630744,0.6468212168108125,1.873041833847744,1.754638000394136,1.9049543842184917,0.9346316424181053
33,1.5804029013183165,-0.2919527845522589,-0.3470523969998521,0.7390225320547146,0.7244001381748938,0.6887772831535691,3.0355350172086473,2.902204625208631,1.6487880926753822,1.630165618345142,0.62595550513784,1.7855123564675883,1.4564046675473101,1.1060302970061204,0.945887813522876
34,2.018851572399319,-0.4014392964919776,-0.3946222243523586,1.31415231644348,1.3197311516224697,0.762576761713172,3.520260177980401,3.80811243688836,1.6433277368145134,2.5768458910021854,0.6357360191111145,1.8316790932292992,1.44288563749949,1.8639039348773514,0.9476591525192968
35,1.4496645933374823,-0.28701340178322454,-0.25625907826789546,1.103049191969599,1.0567299464191047,0.7172104294076541,3.2948852252899457,2.6177503028262032,0.8955506031965247,0.8335991843146786,0.6468212168108125,1.4089490516846968,0.7661227210103893,0.6216275093384434,0.9417497346676456
36,1.5116366467850515,-0.20470643016814294,-0.24879100023935158,0.8590139298618973,0.8498103741306655,0.5569457451771557,2.3262008214884013,2.2629517022801657,1.1229312804880751,1.1774135806148334,0.6447042257417027,1.321089395439159,0.959625492396086,0.7880660900349589,0.95515902242425
37,1.605262685532878,-0.3174989923307203,-0.2836312679303282,0.9349727333060697,0.9246043361821179,0.5765332968847943,2.1047752529339703,1.853254321647543,1.2503561803572323,1.270612665924548,0.6309483474627791,1.2355016940642298,0.9449640994570349,0.822179206857686,0.9516920125783171
38,1.7250420339547219,-0.35681454589430084,-0.24802612148353934,1.0999421922436567,1.103538096497175,0.8010588305093262,3.271989023409968,2.619254467049508,0.9843251919775189,0.7067831781130341,0.6447042257417027,1.454811155473356,0.8907974276291211,0.5872532264146397,0.952411204276457
39,1.4660742893832308,-0.22072991243871215,-0.1380421039011964,1.1356748828565106,1.1137557540219611,0.7834809388115913,3.5593212783257173,2.471566396824948,1.3652458020590035,0.9598396022983506,0.6207552362147116,1.7341196897816404,1.2363781125938091,0.8686878791004302,0.950190148748088
40,1.6911685843810316,-0.41101693517662063,-0.2162591764858579,1.1077015940153745,1.073581724137901,0.7898762841240651,3.6882349447060134,2.544051343152918,0.9477668131641042,0.7676785396475131,0.6153451465759925,1.5205117032396989,0.813678729169678,0.43113583651256343,0.9403453962619236
41,1.8290506953346395,-0.37723185649105206,-0.27742919585347975,0.8872374486027894,0.8866124413132337,0.6477859687399286,2.860013599836254,2.76363014401859,1.2836292440060029,1.017609134942894,0.6125606311107803,1.7290350926560927,1.1934467191583056,0.8932214226080705,0.9456118555773806
42,1.9867959635722854,-0.6226515489308877,-0.23852776116462077,0.8270250269249757,0.8188158857650273,0.589542800907271,3.2907353707597977,3.2770231131940766,1.1263478089324381,1.0526655716289315,0.6447042257417027,1.3592413927308251,0.9100163875052258,0.6652748734458835,0.948783231792525
43,1.9971696556179763,-0.4819905828691671,-0.34736413278919054,0.9792020790504798,0.9715926298078128,0.6581981314450703,3.2680303814493064,2.546078975507433,1.2260909959914363,1.5646207500505473,0.6357360191111145,1.4757815276214268,1.018233141197301,1.2753520362078952,0.9429722409440596
44,1.8632651048140811,-0.37439951575789854,-0.36205663259876325,0.833637180795799,0.8157753823495383,0.621771393885555,2.7364308861453774,2.72846665985865,1.4245162020405018,1.5296907577651124,0.6357360191111145,1.56165354491387,1.1931389187404717,1.0777007861504997,0.9371961562742097
45,1.2181708377400091,-0.17736356130624664,-0.20175585566509235,1.021373737911663,1.0170312565780821,0.6279210891390387,3.091819634136129,3.3153139919357058,1.1058095771798555,0.9809870426618721,0.6309483474627791,1.3453230444154145,0.9026686499744582,0.6212058282748856,0.9449451400829032
46,1.5897535077622793,-0.2330059901690228,-0.38407642176720386,1.035401783164645,1.0383787177687507,0.7150096192173575,3.620670465273569,3.0076482774341833,1.6604054869022356,1.5345923248544229,0.6125606311107803,1.6859590503418433,1.4104533509688688,1.145659072940844,0.9176350989844502
47,1.5639048843780836,-0.29052708325522525,-0.25976040619661556,1.062982272417647,1.0585473326368677,0.7298351710253381,3.5099987376097435,3.1176402475815213,1.5961748901328714,0.9974342042224652,0.6125606311107803,1.7435408969575807,1.4043070913332991,0.846349625326282,0.936360128106018
48,1.4429781693928478,-0.20111825340756773,-0.31969541381057365,0.44968676231873606,0.4233837012105744,0.6345406147688819,2.8159820636082786,2.7176172151927447,1.1892577978499208,0.9129837214627832,0.6790044388599258,1.5795016194231153,0.9645890237183329,0.6222981556759946,0.9390807052519438
49,1.42236210030923,-0.05001673868746903,-0.46474221648951775,0.8163280449214197,0.8063924372241642,0.5947283408026511,3.052647120513724,3.077957051250774,1.7172463615861324,1.25025075628601,0.6309483474627791,1.6802777265652926,1.445816364851942,1.11675047912331,0.8817159299711675
50,1.692003574941487,-0.31574365114374786,-0.32770745262966355,1.1348137075458693,1.1256238369881892,0.799455411880464,3.6975874152564656,3.605280919979607,2.1574404130838585,1.4619937191163936,0.6668815377411301,1.9878554594438493,2.016648398778462,1.4216468798356103,0.9078233963768304
51,1.574884768140303,-0.22780907010395057,-0.3266247662526948,0.8910043346787321,0.8829792423906816,0.6188031664299519,3.5715923131334337,3.592426070179962,2.069921942053513,2.1789635811645796,0.6309483474627791,1.8320954707509292,1.8014544013107459,1.7457365570200287,0.9444495127055994
52,1.5018340159579597,-0.25259243779480367,-0.18267436507631551,1.016395100097447,1.0111956367798618,0.6800672387673485,3.3454414488974944,2.719018816134016,1.080919175901872,0.7038193458314617,0.6447042257417027,1.5670704461041958,0.913976993358084,0.5389775266607557,0.9332907308494534
53,1.530056828722572,-0.16449793193162265,-0.35256421667518023,1.178959460387255,1.180161800557358,0.7747570821132913,3.7851597135566193,4.632788056425945,1.5998042347126855,1.933254448836432,0.6403206450210053,1.8474131334188897,1.4280330429377055,1.7486121380718014,0.9322211998602671
54,1.4326490167021082,-0.14210743567821305,-0.28832730761850733,0.8629100633507973,0.8396096817507583,0.7480810316924604,2.410940920978748,1.669213893478282,0.8082491275984144,0.6576546765833933,0.6284777104787076,1.5459937398775656,0.6958098808566212,0.463749700169436,0.9413639467591782
55,1.4913286327777506,-0.21335664664496778,-0.28744967362500995,0.7788113999803579,0.7685390822234194,0.5362999387530119,2.9547838936148203,2.7920765619747,1.5722096657046458,1.6309829844251205,0.6333676938231112,1.5749291377482253,1.3039093843342664,1.2009458888082793,0.92428628594045
56,1.211603284329729,-0.01735001897176791,-0.20791285416183491,0.7674350760352533,0.765528527244885,0.4447590198685943,2.757259912631792,2.5502822379315084,1.1165479432037686,0.965972050557524,0.6403206450210053,1.2215711960685574,0.8970270608124725,0.7195606295682005,0.9225478043815624
57,1.631944560293364,-0.20104135353724062,-0.4178024527848271,0.7757034898226995,0.752550144684236,0.6399051153217353,3.4448918082081277,3.1925836762492823,1.9268506832184793,1.7313463198248424,0.6447042257417027,1.7647281301770246,1.7488916808994182,1.5070658188733144,0.9143672748213169
58,1.7305791530152366,-0.015136069397656104,-0.4322964352085614,0.834308322656495,0.8079479547388463,0.6532601164445516,2.933347338115915,2.5026742058285554,1.5487361721179882,1.1068260490987212,0.62595550513784,2.001657793792244,1.377125993033011,0.9891208126250711,0.9397503844626336
59,1.911564883039095,-0.2457681155755992,-0.5413927120441362,1.3219857964163166,1.293438942233284,0.7929725077848636,3.511676378409726,3.287379862870044,2.4700171697012805,2.792321805537373,0.6425374456860184,2.2400276996615287,2.1366797735347527,2.1710450717544485,0.9531759874095247
60,1.7620068612199355,-0.16768699678181065,-0.373509251704222,0.6605198271598685,0.6376115003494535,0.6889013621583402,3.2604978882601436,3.0888189034787428,1.8041013059447943,1.2469144626258215,0.6602640781246099,2.1225810343404534,1.6020407450936567,1.0147149214608886,0.9432860067435411
61,1.4008085382208686,-0.138839427126201,-0.26166250581456996,0.7474360927783021,0.7375229952549817,0.7217112274476757,2.85768709970989,3.0433399034910793,1.3452827417231346,1.3919837263614196,0.6602640781246099,1.6331615501878116,1.1406723914604016,1.0208999772568328,0.9054567217865929
62,1.6847463179576871,-0.28186519001140165,-0.4401103946471188,0.8841971482848804,0.878932038532293,0.6522220774346994,3.023647640580657,2.4133907531964462,1.552152162301447,1.371610113001106,0.6333676938231112,1.5566873470485714,1.3610556076437252,1.1114382816233908,0.9570702114066888
63,1.4691557903943804,-0.27788193958882046,-0.18288809741612816,1.2389905729519537,1.204607499871615,0.7713593882842051,2.7445137869263134,1.766319426379841,1.0942803604785107,0.7095684192351062,0.6566669596287297,1.6377230816461923,0.9355048936485725,0.5939518585013026,0.9503873888893353
64,1.5917536411286266,-0.06661986315484225,-0.599334621608461,1.0117645219642089,0.9845865344940007,0.757849353556464,3.177896985647896,3.1057705274759866,1.9801810424357973,1.7135816822394978,0.6566669596287297,1.8983058729584508,1.7821645915741096,1.4135464385027463,0.9416004886246138
65,1.2765640584776503,0.05912565573891171,-0.33337416325954666,0.7986260577598634,0.7684912161996988,0.5765659920249083,3.058159572035041,2.5843409281172214,1.355952026905765,0.9982492775426767,0.6068309995095971,1.6767060815993287,1.244331090607721,0.8866258178968535,0.9243542078635694
66,1.3760204624636307,-0.16117028605532413,-0.17887581656493756,0.9450949016322558,0.9110420548121723,0.731452998655041,3.5552003578264264,3.828376045208997,1.1939509072214884,1.1365262283089017,0.6619902821573977,1.436652420461485,1.042404704537624,0.9036456740268823,0.9431778187559506
67,1.340461563636254,-0.18417413994696552,-0.18612845688326768,0.9681686569084009,0.9397916204327751,0.7056461020172057,3.5340287173539093,3.5895733556957223,1.3819363266214393,1.1010370226745463,0.6233814453054027,1.5334547154869507,1.1881874391347265,0.931012522669295,0.9409826731203839
68,1.6089082704418307,-0.13769952266759844,-0.31244558893741076,0.793155909267413,0.7876238399513537,0.538740070031189,3.3113083788031186,3.2118995492199343,1.9218370721965063,2.1115300466433533,0.6357360191111145,1.815642409691387,1.6751150486834119,1.6178582440816607,0.9343564030138616
69,1.5625359469172395,-0.13705122608713605,-0.29885994695109636,1.0754186452823735,1.045101937704839,0.7958383782606367,3.389013519193707,3.2987412547435597,1.8771014400596038,1.8410385631993922,0.6403206450210053,1.8769543152912869,1.6400280993645788,1.4624772619719402,0.9277683897715238
70,1.759290035435669,-0.21762320901769228,-0.4408748918691266,0.9965854374034971,0.9733788733326365,0.6903985236889495,3.5135571050658583,3.2040603522582893,1.9759257822428924,1.8385664495050618,0.62595550513784,1.9377876703247408,1.7568863174975318,1.5144122449978215,0.942328738948902
71,1.8046445314658366,-0.30190629860909635,-0.3689289565387048,1.0592347677188307,1.0331037477970497,0.7162486142949226,3.4410586255876137,3.482351930497275,2.275448533982659,2.2233142263886463,0.62595550513784,2.1079324698574577,2.0525518948691883,1.7832487795601464,0.9230453479137656
72,1.8268821672934394,-0.3948212375294369,-0.32513811252279323,1.0267617917350362,1.014878964941331,0.7240381904779305,3.6530650444713593,3.648958548561682,2.1926290715152157,2.4413728486135255,0.6207552362147116,2.0967459587700006,1.9004718927213775,1.7755574946517745,0.921103422002452
73,1.9008905038256212,-0.4651501539802497,-0.2546587092986842,1.2476074514258901,1.2472877967639362,0.7542201665462268,3.4730221629724674,3.1402023859025925,2.152985738620224,1.7066316621592528,0.6357360191111145,2.0878322005650225,1.9191121713762447,1.3795972280216084,0.9182040402395151
74,1.6338032005423684,-0.1571531780454094,-0.38805083128917484,0.9183527743191713,0.9033316571698616,0.6402762131487161,3.4421541159569555,3.16935398198157,1.714638434429222,1.748456018966197,0.62595550513784,1.6696008352943477,1.5015435867526632,1.3937372450269692,0.9421507223611663
75,1.6516934878729304,-0.14583012349086988,-0.32838795187503944,0.8835747531903579,0.8708501853837013,0.5919413429893402,3.154977848828205,2.715867191866262,1.7810412571600207,1.3620078028472509,0.5915533975974677,1.8038320504623242,1.5498458152318548,1.1253492654535575,0.9147609492923918
76,1.9923627694322503,-0.2845134929563027,-0.5709759704214026,1.218049706793071,1.2089219060247447,0.757254767362979,3.1937319606233587,2.912735559233968,2.345497006925783,1.640391930292482,0.6333676938231112,2.2608035589790907,2.1123734604178086,1.307540182328306,0.946158270978151
77,1.8761230253544154,-0.19842651283177837,-0.47155605150465013,1.079633840015541,1.0824241059243844,0.7096153021438415,3.1929411213540666,2.9675564469042173,2.1683773528153067,2.1307729154814568,0.6468212168108125,2.0261325024938137,1.9174958423496635,1.6468254445057207,0.9080397929242044
78,1.775698498082125,-0.1879322143693145,-0.3564256933234552,1.0279721969705748,1.0141975993187824,0.7597796398737251,3.2906618717114067,3.1749621838681845,1.9890195538417337,2.3838110992331667,0.6309483474627791,1.8680647254381295,1.7537793273396485,1.8776379583656932,0.9457285858169278
79,1.7700982816180513,-0.36907845470868983,-0.2813556189943135,0.9199078148808736,0.8988294028942574,0.7411749053961135,3.524289836576598,3.0946478756094002,1.9381875235267172,1.9815153631863505,0.6233814453054027,1.8361294169639955,1.7303357669262869,1.634523838697192,0.9096094958747574
80,1.4184059115678755,-0.20600727477347824,-0.23192030599148544,0.7688098585597299,0.7414543244276744,0.6157256406888283,3.5034621372556787,3.4067331033988095,1.8263783259942006,2.0207065087862177,0.6038851895711802,1.6749843487549745,1.6315090974378832,1.6908966211533771,0.9306550160488282
81,1.5168485596656105,-0.2263376156026402,-0.29649867107400313,0.8392860896344033,0.8356003561463807,0.6966226237633418,3.597727176090736,3.1244905685126194,2.0722328126696508,1.9776242196662066,0.6333676938231112,1.7875018789754138,1.8004267679693964,1.5832667121638875,0.9246010235558144
82,1.5354627608641296,-0.1288450530188019,-0.33468637791859374,0.7351387702259092,0.7005131446732455,0.6659440202768191,3.4194272925024047,3.649281997197287,1.829801566316022,1.859409574372757,0.6008849035917525,1.7311662204527685,1.5771481670626732,1.451562188233631,0.9208981175311715
83,1.6344282828031136,-0.25184828735438136,-0.28484555840043485,0.6950826096623696,0.6651723249422107,0.5966533843130684,3.4884323524546987,3.312470943645072,1.7384920046915513,1.7271698874329449,0.6468212168108125,1.74850842723374,1.5025462959986957,1.3267164885675409,0.9418242536743245
84,1.6422321428406894,-0.20677576951996912,-0.30227918134058224,0.8393982414110046,0.8134590344052078,0.6428082337437588,3.744776011205006,3.9183972387609267,1.8140992466821457,2.111331365179141,0.6284777104787076,1.7484445845421104,1.5690245815893324,1.5122344254599125,0.9310364241138861
85,1.8049235087584055,-0.3986552700866277,-0.2466796947634683,1.3062540924100283,1.2924544518418026,0.7873162241359469,4.052773975381025,3.3216555304300215,2.0532984043607034,2.4878917817519,0.6447042257417027,1.9330158610700805,1.8050538372346274,1.9690516776170077,0.9264628607363552
86,1.7675518138500836,-0.2921139094811538,-0.33340526560650907,1.1317025944878913,1.1185265552589831,0.8007412261908816,3.641234630631998,3.56279104033506,1.7363878370009596,1.6829410244185097,0.6068309995095971,1.8031575141804244,1.5121680284077672,1.3588375148868512,0.9443688486536904
87,1.370818109394824,-0.15972467896872555,-0.19815219794976002,1.1090534083586647,1.0856898400540977,0.6970461733843952,3.945799570847398,3.28628676451344,1.9000932960226344,1.8941015497802376,0.6509067234006624,1.6973587938065706,1.6528286669478398,1.6069070664138154,0.9264980736764388
88,1.4072287798958085,-0.10224868532264886,-0.14206232066048952,1.010932046986598,0.9896036438760226,0.7479616178552225,3.1224011220409515,2.56910660832587,1.2207986980126897,1.0270135223964874,0.6566669596287297,1.5271413363748259,1.0737000582119405,0.8477970616755257,0.9190230393972021
89,1.940558340040228,-0.1554246189609274,-0.43265631045603936,0.6323896946963672,0.6246845771517529,0.6200676006749999,2.268715413933586,2.4035944623030456,1.7719636207167277,1.9575143301467626,0.6333676938231112,1.8125065423728441,1.5800615125912567,1.6834950444546102,0.9364537381616951
90,2.1407625322695853,-0.6554655944172353,-0.44870321056937,1.1500146433492109,1.1460694025059808,0.7089504700974203,2.9554602359400595,2.3272619644424575,1.4662781541882914,1.1486474273984135,0.6602640781246099,1.7042981934580606,1.2042375350657755,0.8822534120901937,0.9216911461456551
91,1.4672703479176241,-0.16356317787220764,-0.28238285265065693,1.0200006279108162,0.9906720024053934,0.8221997315640823,3.091122122036256,2.6688610084712012,1.0803718325678746,0.622400732769798,0.6684167106117298,1.5643052223267608,0.9176723879553597,0.49504195433971643,0.9536195826010693
92,1.6731558789529857,-0.22533153186775035,-0.39731042507619424,1.0259655056181354,1.006961883629734,0.6922222362282908,3.793679815582127,3.7075607912628263,2.023447009007753,1.9302059752307954,0.6528756675646988,1.8992704436138341,1.821673170753948,1.6802681753428872,0.9170662093339412
93,1.7240216186822792,-0.22427092223579104,-0.3522503505442585,1.0608761787013623,1.0435838159231334,0.7228080342067493,3.3565548547583424,2.9843715803267927,1.6506542764527237,1.3111616969361601,0.6284777104787076,1.926586939493697,1.47161493318866,1.0643120129042114,0.8907696315626799
94,1.6252225973977252,-0.26150591109456467,-0.26266614522747117,1.2703614158573742,1.2463043723329044,0.802137332822709,3.597610911908995,3.0978675202065578,1.7195976467384266,1.6649837633483602,0.6468212168108125,1.8697210106977669,1.4993319176378213,1.3439499624557185,0.9413647020097472
95,1.2757634330211867,-0.15634607142511503,-0.16508365259393717,1.262286527984335,1.2356972041108503,0.8694657819105309,3.923233941010893,3.3685726318551343,1.693093607585113,1.5691775421712346,0.6468212168108125,1.7250358371851469,1.4775839471080485,1.2813165368807797,0.9331079485945456
96,1.4723541861939229,-0.09562497854338359,-0.2544439771043683,0.9236149840992194,0.88147223953618,0.6839410783171975,3.7468856128199586,3.7112615449051862,1.7955063818010764,2.149718428396777,0.6403206450210053,1.7825354747005233,1.5810450433903254,1.7322496220686392,0.9481664223140858
97,1.6217792443398111,-0.17375529932507883,-0.4385466836146492,0.8551014189404775,0.8483352569273347,0.7137347871963201,3.444016998833808,3.1854309759686084,1.987805750971019,1.9073488732157653,0.6584896970785714,1.8395501330644035,1.7703127807313086,1.4608763043702493,0.9145360901738303
98,1.8964108454949864,-0.3490327133086961,-0.5355407024967438,1.0947987934341004,1.0728468295989235,0.7168985611672475,3.484110806844305,3.01530570582276,2.095506288030935,1.6241077643997288,0.6309483474627791,2.1531120027178985,1.956684664063124,1.495649907154317,0.9314525347150362
99,1.7787950297298112,-0.33958381037125873,-0.32307303545110866,1.1333069819887722,1.1214881082890673,0.7211342155531357,3.461773846850224,3.383218309541954,2.29445696388537,2.3556041539251042,0.6380535849069913,2.0997349560589624,2.0758196615886817,1.9138903378205419,0.952494870197899
100,1.7356108250177174,-0.25180581686009784,-0.4411791861557828,0.8311794493974696,0.8199382935807491,0.7345404115030212,2.64702662845922,2.724166199885279,1.3989097615235402,1.2334575858058217,0.5947193981915972,1.8969718477105864,1.149118485184999,0.8793556928647014,0.9206115060589046
101,1.1928642597298358,-0.0017386896105221483,-0.20958677690906524,0.4933032317730968,0.48410481477231526,0.5725527848219659,2.9446339937830093,2.665424297790607,0.8129822904874834,0.6601783857415138,0.6125606311107803,1.3127135119980906,0.7014397896536283,0.4650363878070525,0.9537949104555405
102,1.764427836806498,-0.18420578436656798,-0.5372719680170542,1.2462212240826325,1.2444763011835434,0.7468875013708777,3.7453634988278246,3.4768238294407348,1.8753925763977621,1.3659265486206629,0.585052858160615,2.0615579659146857,1.6868356157316582,1.180661725457489,0.9426650066392337
103,1.7853873844119243,-0.355286928019364,-0.3820657509336147,0.9476391190817368,0.9308987704010642,0.6433426314329861,3.3437745124505303,3.373727226462367,1.3777610924306356,1.1648210343556904,0.6619902821573977,1.7515776795952231,1.1750432109760625,0.80447041235196,0.9497961885576185
104,1.6564687275420218,-0.3294424244130888,-0.2877974094423379,0.7348081586398009,0.727021438741892,0.5427551568714173,3.1087173868193405,3.550627632494468,1.377660718755958,1.6734656750625254,0.6619902821573977,1.534021273149346,1.1540629153119861,0.935007525114601,0.9512260763742256
105,1.390881254814286,-0.07620195243050987,-0.4565378061572932,0.9382704482920787,0.9281750788498501,0.5326983392868284,2.536636024579676,2.1193619120490124,1.3591163997509224,1.053372745721566,0.6333676938231112,1.4437351677701122,1.0966841919481467,0.7624421212230345,0.9542171192544249
106,1.8710851518977814,-0.5594289545008291,-0.333849088971116,0.6027218238029824,0.5843302332220623,0.5344443132068792,3.4758337732674334,4.142209307111184,1.562877108519831,2.4021299992910423,0.6357360191111145,1.6031797578194855,1.3990178152589359,1.9010792026973349,0.9528421133641106
107,2.057770587632896,-0.5321966598127879,-0.41911784663911494,1.078235494548482,1.0640524031838414,0.6484173546699826,3.322284502790436,4.006264192569134,2.4849450433393243,2.858923414436407,0.6284777104787076,2.138295509806932,2.208793073505669,2.703767539310209,0.9519870502231812
108,0.7112689560770127,-0.018693304493366647,-0.026235902723245497,1.0568894055857438,1.0422570293231466,0.6866219178037454,3.4376645855923704,4.995327042361351,0.979196759184713,1.3781877173565749,0.6468212168108125,1.0831327178197234,0.7702185074149726,1.004746972111173,0.9251874001529558
109,0.8947973115303516,-0.10063347007792314,-0.009415860178040386,1.2109614262459898,1.192877535710591,0.8307348458627347,3.6669972532692037,3.6691168475064453,0.886073630868883,1.0375105684595007,0.648888643467878,1.4486899946967162,0.6477846795393601,0.6625180056037085,0.9208935017829839
110,0.9833872972890888,-0.0558682971597238,-0.08727925855957078,1.0187610308907524,0.9988060365262093,0.7449518470192185,3.2313609189886643,2.3224258497423507,0.913710096327196,0.7497681325514937,0.6602640781246099,1.397198035149178,0.7510459199654196,0.526049149189479,0.9495022403479039
111,1.4455442507255214,-0.37448763942174196,-0.08215215431945466,0.8709144379978262,0.8379477643737651,0.6800273184116195,2.624783116916419,2.2168918674878073,1.06623695658532,1.0685148211692985,0.6233814453054027,1.365490057020231,0.8549007983478277,0.8256994775275264,0.8952235618960918
112,1.2583010266387784,-0.01368609890645589,-0.3478266145224199,1.0221113218036049,0.9708173000642103,0.7319728778011737,3.1692794624813025,3.6067476744783056,1.576193507977755,1.692669707889817,0.6425374456860184,1.6315699172915508,1.3275090386144048,1.3159884417464027,0.9215205067700428
113,1.4643909251507832,-0.10357724498443965,-0.2696425149602401,1.0612997800454245,1.037967246377912,0.7124368154030728,3.0235222702305102,3.0835036337777253,1.121966487341352,1.1071015408584102,0.6333676938231112,1.4397889068939123,0.9238445087762127,0.8149538902839644,0.934535216314834
114,1.650219223272313,-0.13107789135321335,-0.3578810961605075,0.8993398846549441,0.8954517249644851,0.6284194155735962,2.964829535835024,2.5433169785389986,1.687923655691992,2.2483941785340757,0.6207552362147116,1.5362907191409256,1.446854438907594,1.5721772222120043,0.9032308530063249
115,1.1579950035094744,-0.18347907793132423,-0.2408619809310057,0.875650314369021,0.8459341650348766,0.6778969935519983,2.971743484399194,3.465014253816279,1.1742367701203582,1.5962696778561587,0.663668482632973,1.3388596124656889,0.9980869080456679,1.2287324998164224,0.9471806222668334
116,1.8165545602542557,-0.3851200068256866,-0.26214643950715083,1.1421733879391769,1.1222353742398563,0.7534085241271233,3.69409320875899,3.3830640410276245,1.1796659427901603,0.9388273782886166,0.6233814453054027,1.5385135740974016,0.9812606110196743,0.5771298582881015,0.9382017110233465
117,1.983161209444309,-0.46521799229570626,-0.2397805020261634,1.2470613938529496,1.2370940624585691,0.8553946126377756,4.05763534596128,3.9559073787303376,1.7310787437710897,1.9621314963653018,0.6468212168108125,1.7555561242678421,1.4402544276693627,1.0800558869082864,0.9259500020323282
118,1.7728961967001957,-0.2985795346234551,-0.2808609588921391,0.9800791720437446,0.9559402702414934,0.7423712706523388,2.741821797757499,2.5710521508453144,1.8077387694404394,1.6542452958094682,0.6233814453054027,1.8919481964834872,1.5725440355509819,1.2889201970947142,0.9493723940948443
119,1.1302572463294605,-0.15627138475470248,-0.1843285759350632,0.8346969784531837,0.7889588014053259,0.7445409358789727,2.004889839052967,1.0350947622801874,0.4958866116985925,0.3377200500153683,0.6309483474627791,1.2188608612642855,0.4635062311925727,0.26823180941794805,0.9487082787672046
120,2.1671517076269,-1.063730587180432,-0.2872975917785587,0.9332373599576581,0.9162309784720388,0.5965723444607208,1.8481198797851601,0.5901136722908595,0.5037093364889823,0.23754720648586083,0.6447042257417027,1.1632930421424423,0.447590358951641,0.2615801055489344,0.9369412810077419
121,1.879816340829983,-0.7434228089711168,-0.35284486888798816,0.7525392138091507,0.6982620991498129,0.5314654115658285,2.0950062350335967,0.5954772553532393,0.5872255456219403,0.14993394639049032,0.6068309995095971,1.207906456928587,0.5441196100808682,0.16771830035958019,0.9433154191582952
122,1.5689242196388171,-0.3561860189633288,-0.2289713774558011,0.7912440640898817,0.7659942847111234,0.6221707780293059,2.752177638078094,1.006340533024419,0.8508922265635016,0.3713459254895236,0.6619902821573977,1.5511165947820604,0.7167450621535996,0.38933701400911647,0.9303913653709873
123,1.5600330436604468,0.05979203683699674,-0.40734763523560813,0.8521961495212387,0.79763198836982,0.6606624961245863,2.9580743000899345,3.7666829245700013,2.09152207759645,2.2738829840299966,0.6284777104787076,1.7660917224794772,1.7098292053786146,1.6419284505453131,0.9295072467497705
124,2.763518790643388,-0.4690544063465305,-0.43283302895231435,0.9601300167160922,0.9630698904589904,0.6616764291688207,3.1247576027656714,3.658128540354104,1.4713925876548777,1.4293190318183187,0.6309483474627791,1.9982097976006044,1.4026543062714307,1.0919699527218047,0.9457573314229674
125,2.840866986198568,-0.43590320699642104,-0.4139051474441524,0.9838554273092571,0.9927311837986195,0.6913233057922619,2.728308674982743,3.1006434770920133,2.079420235797031,0.9023962824695639,0.6180765742263259,2.088011492362903,1.9696797522111622,0.8307264167979413,0.9319160748745697
126,0.6231691390684835,-0.048835261406495384,-0.03737859247154798,0.8057917376150744,0.7955622065673728,0.6289419130960315,1.816337655489088,1.7824669075107327,0.7254521717861835,0.6477121059436461,0.6584896970785714,1.025485750344005,0.5129760732940999,0.31851195057355225,0.938611479914192
127,2.307610699518402,-0.311916052664057,-0.3506164758415413,0.813447916645134,0.8163437346565867,0.6234472804594573,1.9767464334803322,1.9860445919379208,1.1966105056062486,1.311883771396744,0.6547956803312163,1.4820224059954428,1.005153483236601,0.8379868061541142,0.9625453644294892
128,0.6157521681919058,-0.060843184250256976,-0.05604604339425012,0.6757902165897266,0.6466165614543259,0.606474036072271,1.6509341516064213,1.7834796676559028,1.5800719052372036,1.8859473499093837,0.6233814453054027,1.7276585438215315,1.436886936501622,1.2979684052634148,0.8766281656226739
129,0.6838498231722974,-0.06333694200630413,-0.033653476812510276,0.7389673673409327,0.7389246160062124,0.43520781748835563,1.7160066447284996,1.703018444190679,1.3545765833924008,1.3543224952542745,0.6403206450210053,1.6713724195536057,1.12879307045641,1.0567382161970509,0.9445098438569849
130,0.47499823066377284,-0.046385708784574646,-0.035890536395730976,1.2858154402747728,1.2805693526662476,0.8432558857560569,1.740356965881822,1.9904874935321468,2.2799080970897427,6.547945227437337,0.6652988471865258,1.8731864679237842,2.2305352561109135,1.6236706162606371,0.8697814789032249
131,0.5299945427077798,-0.036781107606620775,-0.04976210832176153,0.8304723258326812,0.7858801803850691,0.62555420669584,1.6480636470361123,1.9818973907213044,1.6664508141183025,0.9866363485935564,0.6602640781246099,1.9680194346434143,1.4023254835359764,1.2437538985530021,0.8915132795397204
132,2.2843609312481816,-0.4313981538655162,-0.18805859045923165,1.0423717216146886,1.0400114860692562,0.7531136021173902,2.3039281592819045,2.4107003638695885,1.3717847714556572,1.168550827329992,0.6403206450210053,1.544639008532397,1.1647454155829498,1.2015280870287721,0.9744696832291492
133,2.2164437965762662,-0.32391370198375175,-0.3012914182171794,0.9354619186813884,0.9399303934925505,0.6270114706024944,2.1286239778110487,2.1986324608435033,2.198989155507065,4.688955738815471,0.6566669596287297,1.6730287346320571,1.8758955590595539,3.4766140209469096,0.972436592201066
134,2.563162443416961,-0.7176084316596164,-0.18053763889339053,1.3049621673814922,1.3050169334624973,0.7800055957175182,2.0833848954928387,2.3978027314993615,1.7443953266522325,2.152906948348215,0.6584896970785714,1.7506815074702085,1.3675951188418765,1.1425161435476803,0.947632217133182
135,2.1463978767758247,-0.4338645416316526,-0.08358321072783717,1.0583186192667777,1.0614450059864189,0.6682391457835023,1.9031265400922488,2.239827388146675,1.760445088399656,1.3064472916751555,0.6403206450210053,1.9993578092068025,1.7438605080069824,1.2774673127359721,0.9136356406212314
136,0.513430114591053,-0.0696332230009841,-0.025084699584372587,1.1915374149605973,1.1798861087184893,0.8163009368501438,2.1670394329870346,2.963486909725164,1.733926999522219,,0.6038851895711802,1.7353161258048435,1.6786288286798146,5.6910349018336985,0.929240803517083
137,0.849274687138866,-0.1327338021069602,-0.04561388219220166,1.105515451911975,1.0935529908573198,0.7042706799424353,2.00225100924345,2.0992924871135377,1.7201625253209107,2.1246426988816167,0.6528756675646988,1.852288262302877,1.6439526680461725,2.214230532457948,0.9150387050220904
138,2.059548866533026,-0.36225927058665575,-0.13605572569269103,1.3716486607566716,1.3619366004610844,0.8526853456950026,2.217526591215973,2.0303570206709867,1.449986579778882,1.5683738447539037,0.6309483474627791,1.7611009482742623,1.317288558960738,1.039564920626234,0.9259573007015908
139,1.9586348409759107,-0.38729165536514476,-0.14323058047577045,1.1556478078621366,1.1596269008982827,0.7346833012627602,2.0929718743864982,2.30724875992945,1.6094259466604743,1.6238595636928188,0.6468212168108125,1.7490831949476187,1.2736777509942916,1.5658799380949704,0.9689120366890199
140,2.1433268654334094,-0.33518405620894426,-0.19454238143732389,1.0072253738064434,1.0088389761637258,0.6754490469756681,2.128722876067194,1.5435232401038896,2.403730743377512,5.737103975235123,0.6333676938231112,1.867057893278283,2.1044792396822705,2.2049191994972617,0.963085488331667
141,0.23028886382973476,-0.019267900330184412,-0.016672763250280907,1.1397810577936298,1.1017381430966462,0.7676140051768684,2.4754629800028307,3.4021184892342586,2.3444670133363488,,0.6584896970785714,1.9335534748459418,1.6713934110237887,2.146626252622819,0.9188249716033665
142,2.4722599610712352,-0.6911742644236119,-0.20921982373348635,1.2047652966040363,1.2145462603485881,0.8190711304026902,2.248373149338444,2.411670710942324,1.3401432410361136,1.3135367081584164,0.6447042257417027,1.6999706336003233,1.0257345027406075,0.7062951544762697,0.9473429436232409
143,3.097609003684306,-0.6715636914153302,-0.2959051606267703,1.4714761107013477,1.4656965868878327,0.8265291414221825,2.0842625230480385,2.7837575627199165,2.127685130373175,5.2589464104879236,0.6125606311107803,2.0616452830943963,1.739035134998376,1.9267119222025626,0.9174254955944396
144,2.9258733642527597,-0.8493673754420565,-0.24751112997352862,0.6403421731123369,0.6307946054406842,0.5849701352283345,2.251321969651114,2.4480585715613272,1.876310679630859,1.397505113915857,0.62595550513784,1.7556204226121817,1.5298701513380029,1.3501388195226152,0.9162716315770556
145,1.61144488656233,-0.10513461318591655,-0.270114909758458,0.9918508021065865,0.9708560033330702,0.6849672486647942,2.4256879706219467,1.771669620612506,0.734050019812177,0.5219761374125155,0.5978297680564633,1.194132490525522,0.6082835588910619,0.4272284191757468,0.9478849344774478
146,2.0539593261885067,-0.38702106006272563,-0.44134077278963973,0.9033279948019285,0.8732808824907722,0.6404732067146431,3.5246649877722533,4.188073591824672,2.067941301424217,1.9576436769735872,0.6425374456860184,1.9979639664853417,1.7147529104424502,1.1950610317287562,0.9483845055346461
147,2.1499112712550175,-0.16140361711220974,-0.255648090427961,1.079625860626688,1.0707981015179822,0.7022134269256654,2.7111562359723442,2.199781963465473,1.4546269537043803,0.8955798210339927,0.6038851895711802,1.8141414201211854,1.1793710966944926,0.5776826719516001,0.9268569186364478
148,2.947038229613972,-0.8524920595353919,-0.3714163965170909,1.2456204214576012,1.2437962873107087,0.6136918058697223,1.2653226296360287,1.3413021299070191,1.6972126742340892,1.7152584882023658,0.6180765742263259,1.9952638052899163,1.5235916198404715,1.2436185546763703,0.9069047317576285
149,2.7059459257446625,-0.42170852969863826,-0.7030709806009453,0.968530276030252,0.9772554993770801,0.5732406660313313,1.7598770418541307,1.6818309126428657,1.4538642482340431,0.9993086822404903,0.6008849035917525,1.69535897494174,1.3221645686149086,0.9186783175686566,0.9496040423643135
150,2.203179659866156,-0.2636873525759318,-0.4702365863104896,0.8089442964252379,0.8040339356197509,0.5383906110585427,2.2395798150442117,2.1587828619565004,1.0842741342756863,0.9127556741624864,0.6207552362147116,1.4459500080996652,1.0396235306760389,0.8642972157211107,0.9440722004255263
151,2.866799591122096,-0.4731647076953587,-0.7551989978564327,0.6805466788173548,0.677100132985913,0.5351620784176983,2.3191771278446045,2.2806545869431987,1.7559514018155384,1.157502543726076,0.5978297680564633,1.8317484774444184,1.6284914448515206,1.1371825769013268,0.9336254079692676
152,2.2153399930792066,0.05878415727318531,-0.8971735696932956,0.8671719025456744,0.8545865780676767,0.631265127370642,1.8576167434368365,1.7269381843815588,1.2645194859617257,0.8673667030472416,0.6180765742263259,1.56563370247538,0.9980275960015255,0.6940131064330747,0.9490963213417599
153,1.6288146073733047,-0.1789619750072351,-0.33037289086919513,0.9431600476817658,0.9243947777092857,0.6856575580146343,2.389925209749795,1.5589100953024362,0.9468763833832916,0.4990461268639458,0.6333676938231112,1.4685654757749145,0.8438455113704223,0.5104890556358151,0.9477616792657286
154,2.022822080172926,-0.1339874804201544,-0.5091039591706626,1.1284355142116904,1.1076699828009795,0.6949264044980997,2.479482668113258,2.314749977273389,1.1875757532845657,0.8610329250362416,0.6284777104787076,1.8467085607130709,0.9018164729548575,0.414705867788379,0.9144033229210888
155,3.3497398424315508,-1.1013046426437239,-0.4349887591268692,1.539778085725161,1.5238069784082038,0.7559758194286847,2.4080603983522013,2.5154516539928014,1.21674521925335,0.854246525702496,0.6233814453054027,2.1220243447732843,1.0438374448092995,0.8349924295521782,0.874597278316527
156,2.9924783357802145,-0.5684141701042398,-0.5966297908270223,1.0422176677912782,1.0458045656472665,0.6827997439932137,2.1241725822041455,1.8928112058239233,1.227248728226533,1.1179439536154927,0.62595550513784,1.830084583549723,1.1147433601425005,0.8845915332007125,0.933900909012801
157,2.4892222864674975,-0.36189114196602645,-0.5023250436525462,0.8365844829383429,0.8279116873415516,0.5163814979493235,2.0540978766487177,2.1812114279930115,1.2046314973668928,1.0748252684750579,0.6153451465759925,1.7915594892253888,0.9616624305235423,0.8732045197184555,0.9433486681233428
158,3.2731593377111126,-0.8775931020845017,-0.6478637889932477,0.9380937966353764,0.9415740868647232,0.6133216929986207,2.212831742267681,2.843019160104532,1.7530782378693364,1.3382368057932408,0.6207552362147116,2.076335260060766,1.4313343661119062,1.382224050227455,0.9206180356238728
159,3.3952076501024164,-1.1646762667852064,-0.48446116858060995,0.69472238924685,0.6872522001674164,0.5330645780455378,2.294735503166127,2.709788991974697,1.689050138348012,4.539046591746726,0.6097226960127671,1.907993704894588,1.5371555642967503,1.8939900918769537,0.9488524686570279
160,4.008817688258756,-1.4746890134565995,-0.44720680041370003,1.5097604930427238,1.494563419840378,0.7001650602059846,2.431201477962524,2.3871941937937393,2.683209633780484,2.2661364438227074,0.6380535849069913,2.3843978848611984,2.384599275284683,0.8274267961898201,0.9207662507541255
161,2.84119313177713,-0.32199261449714345,-0.24532426027026694,1.0863707622793213,1.092672370398765,0.7156149715178731,2.218426048104013,1.9352373225766426,2.458623748134741,0.918485587672459,0.6403206450210053,2.3437543700321166,2.2189951000720227,1.0396805102917743,0.9344482759200833
162,3.2447846037580916,-0.7699942770536183,-0.2488897131592791,1.3410624342152346,1.33817523412394,0.8232966767575463,2.0997814760665814,2.3149332829716562,1.5669671306516457,1.5331320845114145,0.6233814453054027,1.9259005714972564,1.34280762711882,0.8203172021284243,0.8954126174823553
163,2.58011524472418,-0.6229379478774557,-0.16167050005560335,1.0780757325500734,1.0820295589124338,0.7011377712615203,1.7821218536917027,2.129377678293487,1.3431363905065368,1.3790879863767358,0.6509067234006624,1.7762798983796686,1.2136912247392506,1.2551963288377648,0.9355163885223317
164,2.7609327311668066,-0.22569774672456067,-0.2796877913528477,0.6954743214874844,0.6981054072562098,0.48013267115060865,2.050087120588832,2.308697280049237,1.3483556128178251,1.3191475109752888,0.6468212168108125,1.9490372555825781,1.158495981950249,1.075278306011604,0.9211472888692855
165,2.8586811199284243,-0.5536989344160856,-0.512332437882117,1.4554169664274808,1.4641283391214575,0.8354324208155666,1.507382673539596,1.9233534038244045,1.9581994623168495,1.8069326668482173,0.676637947632344,1.8957135669479968,1.6621376247595354,1.1701145717604868,0.8900891098720591
166,0.8365926821446373,-0.08818493262554519,-0.06416121649738098,1.4647769661352397,1.4449290966494754,0.9044380578071411,1.7383141796181103,2.4522223747313063,1.4579118227381263,3.3636041826369105,0.62595550513784,1.9379419794061366,1.2169162933386204,1.072636802264849,0.9269225011321123
167,2.0415306388966217,-0.2715182284940216,-0.1428255787868293,1.5573501627566495,1.5460418243094436,0.933555418342772,1.4665706255174062,1.7790031437610194,1.4514333572085496,1.1445363344744288,0.6509067234006624,2.022851190391439,1.2125493068090594,0.7782861620041478,0.9042556568699042
168,1.602143006782155,-0.05378318493938783,-0.024594757008967072,0.44064095540144155,0.44243736370929393,0.46299563490283135,1.7332747470809846,2.0546693244058005,0.7854892927339681,0.6833583946258077,0.6333676938231112,1.2259912179979402,0.7189194307242897,0.6635959220437189,0.9435342792313208
169,2.5480076245418197,-0.2171606027360533,-0.4433414826388,1.3661021438179288,1.3454203555423512,0.8630170419695122,1.629485307648339,1.611674845446005,1.386562524985294,0.9005029356950522,0.6333676938231112,1.7071119951677705,1.1027863785785177,0.8431850280957311,0.8990494044972678
170,3.3251780127766435,-1.021715762448684,-0.3152403040716731,0.6826118505763108,0.6841481413986898,0.5825220981324972,1.988222841526628,2.1906057337999876,1.5493796411225342,6.285239267587952,0.6425374456860184,1.950130151866223,1.4464114182597383,5.708438286192395,0.9543235904327053
171,2.1879104803425538,-0.6182905574144029,-0.12751029405317071,0.9856358098859282,0.9912968983079415,0.6174023614563637,1.8404304087171546,2.130344691363888,1.722881112594022,3.06885809925371,0.6125606311107803,1.6466207035618163,1.4043894002971609,1.8011979536427598,0.9374150768661555
172,0.6491578857285097,-0.05445667211050932,-0.0129761447699763,1.0742845915487471,1.0194363324860927,0.7586897033066868,1.6962210094951546,1.8435514111461695,1.1549163664735191,1.2286808039718597,0.585052858160615,1.85207580523611,0.9438952772385705,0.6860748870507958,0.9124513130102595
173,0.0626172078442496,-0.0024165287939436376,6.714399983230937e-05,1.429276005066665,1.4288749825664482,0.883114571362528,2.1755575749756493,1.9141445361558653,1.4217586461522955,2.1953598230671294,0.6333676938231112,2.07997501728598,1.3122626230047039,0.9021852003146309,0.9038950306528226
174,1.8303787073029274,-0.2350130948930319,-0.1577134860825592,1.2601771894298512,1.2589311711218785,0.8489108868010727,2.0429037602017037,1.5980425723304812,0.9156525204245005,0.763236272444681,0.6447042257417027,1.3972879025947564,0.7417621106903909,0.4214426234594481,0.938890445722458
175,2.702186693824094,-0.4011128952501709,-0.5123321236096767,1.2946371100449048,1.2904196635212335,0.7259513409617337,1.2816876987727606,1.4433604174214372,1.4561993595708758,1.9811741743837814,0.6380535849069913,1.6652442994978316,1.3309325172953095,1.9176342926675747,0.8837556503707661
176,1.290406502120703,-0.161525590289401,-0.12013649250281346,1.1562437507663876,1.1396358185448217,0.7825784224718094,1.0502079798366193,1.1464574198008255,1.4151707306582422,1.0770312184234092,0.6333676938231112,1.580796467189679,1.1274204144696298,0.8196781530488039,0.8703673466748054
177,0.5937979967496113,-0.045987472794314796,-0.05990045075267389,0.8842471967005269,0.8583064583708647,0.6770597081844879,1.1363904595770786,1.2917476836548756,1.5692571233980703,2.4724427713006865,0.6509067234006624,1.9057497066457423,1.5108997795753347,2.1797744701146247,0.889645966693373
178,2.3789247721627875,-0.7879108568160725,-0.22213558768370006,0.6294558385841366,0.6314250769089513,0.421432555448788,1.044764689416122,1.0495314993905802,0.7717116850806679,0.7147289500651929,0.6528756675646988,1.2504434384640657,0.6192055027586961,0.434604208871981,0.9195132885064248
179,2.7163944219429306,-0.864561203724616,-0.3387154147079808,0.6966997170744612,0.6992517206197876,0.49992205339309603,1.432072597230543,1.5968904371101615,1.4377413040971572,1.1677193228042273,0.648888643467878,1.6388095099773157,1.2832593346621035,1.0354165348654842,0.94813090204265
180,1.7319982603668116,-0.2518358486711293,-0.3501189448380972,0.5152838390982888,0.5187199949881109,0.4353476170435046,1.20903972767639,1.1403476085898696,0.6845018878172441,0.4795332889806314,0.6284777104787076,1.034417576626113,0.5354257609257809,0.35613347379596955,0.9668726997040297
181,1.9221003962301633,-0.2836163504212399,-0.32430096672523,0.6443186397881725,0.6466656039388916,0.4926481313520845,1.3394548466559755,1.4016785405084446,1.0910923808241582,0.925989892268063,0.6425374456860184,1.495167210646518,0.8917661419176738,0.6852001188674134,0.9620867506912514
182,2.6758759968917416,-0.7714634573710037,-0.3453688322849451,0.8950588575999211,0.8953409998530547,0.5840410251118004,1.7113039001896562,1.7045444986810934,1.1544654949253033,1.140370908848103,0.6309483474627791,1.4458556595761496,0.9574095611746172,0.7322401063512228,0.94180345800195
183,0.7285553754167136,-0.0772786740066812,-0.04414722189610439,1.1157265237296876,1.108823465574494,0.7389405348428759,2.1796867869824887,2.569590701852233,2.3159463323639655,,0.6284777104787076,2.0279038327195162,1.9931902677629916,inf,0.916463357345086
184,0.2606309713230848,-0.03560836177685744,-1.120430396415376e-05,1.594331286233212,1.5596008160295372,0.9532594818603514,2.182107671153798,3.2982564247514303,2.506200775036442,,0.6547956803312163,2.0967459587700006,2.5128785775674713,inf,0.9196811007008858
185,3.0513548954048684,-0.7052976021905005,-0.5858653008440396,0.4871189053717417,0.4822884196028516,0.4579196209779631,2.310163939111296,2.535146665356973,2.1488004860876266,2.1459518082151585,0.6447042257417027,1.7571004267432129,2.0098606961755547,1.9435103398882299,0.9305336604860778
186,3.2423436591115466,-0.8485912253929093,-0.3152469454125704,1.2771982284422803,1.2819000011527544,0.7666496605336389,2.2672004963044703,3.146806509184055,2.0314341547776813,2.0879987119706227,0.62595550513784,2.043645489407919,1.890850371872286,1.7928964790151303,0.8815763841093663
187,2.716082162464856,-0.5644094025458356,-0.37990978501842243,0.9706294520876125,0.9785389963433941,0.6666447871346673,2.161761566237313,2.183128784918252,1.3000212699728393,0.7972416298320268,0.6403206450210053,1.8176244354231093,1.040280132335554,0.679112537046027,0.944272901077124
188,3.3500703674035384,-0.7740500491079431,-0.4344085137241259,0.9870649834487539,0.9816051624688081,0.6380751884102777,2.74937129346242,2.4839841167645096,2.3293933158457736,3.7843826435230112,0.6068309995095971,2.1449167977128747,2.215130930242232,2.7300291078209855,0.94339929438497
189,2.7012016125611353,-0.5476877629687588,-0.20314384955155848,1.6216957560952272,1.6235486592822328,0.8079450093034921,2.1811605193918737,2.968486531325458,1.810199953531412,1.4611342748883667,0.6333676938231112,1.9872878535092913,1.5768206914269953,1.2895230003503042,0.922032116821005
190,0.5728310110722501,-0.021597257877221873,-0.024622387213391883,1.658131553419215,1.6426429737254413,0.9272161842358647,1.7379705156400227,2.126477158761907,2.772389885806461,,0.6233814453054027,2.41388916255272,2.547955967374104,5.752572638825633,0.8492548311402491
191,0.4763330261183704,-0.06509884690284395,0.0,1.535175339232444,1.5136807346239134,0.888628947617889,1.8940290333391752,2.203495057845804,2.851213758825697,,0.6619902821573977,2.156082634005044,2.8578915613567264,inf,0.8967286228985618
192,0.18453372733279927,-0.022759159704378574,0.0,1.5833646965816464,1.5688098400737305,0.9415723890096201,1.6229908736507908,1.8307719597854144,1.9197795882169042,1.742336827850484,0.6528756675646988,2.144821898543171,1.7705400081504896,1.795109556113337,0.8901821374706189
193,0.9761345916799656,-0.08306258005799962,-0.04789855574479128,1.342488441897317,1.3386518475439046,0.8351057313676341,1.580901708320703,1.7100787172020713,1.7199091922258163,1.9771803205199043,0.648888643467878,1.9966538868744017,1.5816785248944085,2.125450062887391,0.9184556659757664
194,0.9210365042666444,-0.11061984197348185,-0.039681030853101956,1.2467933408939882,1.2378597823413933,0.836428503326682,1.2880782404354751,1.3816233935668403,1.536292177967699,2.329339635687989,0.6068309995095971,1.5675498197318476,1.1914428601079372,1.3427122367886084,0.8704459783822008
195,1.8571724795316382,-0.13318514446703622,-0.3331320455133158,0.7176622598775604,0.7177123982170497,0.5445151886698797,1.7398146158318424,1.6606224726758052,0.878600120965253,0.8841962068148895,0.6333676938231112,1.3323534636175998,0.6873108740263755,0.5145726221659664,0.945623504644471
196,3.2791679398922566,-0.7491575059503192,-0.42045525769859876,1.39752530470081,1.3900886607739675,0.7868962257371471,2.180683578959493,1.9636083324226323,2.815782749748925,6.53432982541934,0.6068309995095971,2.0440743978425444,2.5961474262044657,5.381048764145501,0.9079167979848258
197,1.019413312959636,-0.057853630780027115,-0.05666561653566052,1.6282153847602931,1.6250908845181549,0.9749075602622429,2.503257142449314,4.124537400412867,1.20969497921617,2.0778262969986026,0.676637947632344,1.688300760859825,1.0770255080621152,1.2446771448664096,0.9327196863590669
198,2.085422028300688,-0.2064656896071011,-0.35209066775942044,1.069328876383242,1.072804796949951,0.7336173497024469,1.9490967847217893,1.7824463283424168,1.5744903405312307,1.9908936913326472,0.6233814453054027,1.7443035280717598,1.49789778876666,1.6057483949807403,0.9198413549153357
199,3.021953708983214,-0.6657671604106193,-0.41875180463514666,1.1193510795026782,1.095597419221786,0.7384362752576563,1.856679025002802,1.7751620056090904,1.7784778691128451,4.477713811081728,0.6207552362147116,1.9599414624682905,1.512751920898935,2.2015302890474313,0.9302083926526069
200,2.4709120320418263,-0.4215522757118303,-0.425573502322945,0.7003837580363305,0.7003292118323461,0.5370857854434513,2.260200878336315,2.2256746362210458,1.241809926914581,1.2275903970893616,0.6357360191111145,1.427579425803549,0.9761774370416831,0.7769671960585922,0.9312880548585176
201,2.7241486958965626,-0.5595387473383804,-0.3901666023240258,1.0438497058503566,1.024445705576793,0.6215797269898072,1.5708480262309041,1.5774014915691836,1.3155391553409534,1.1124819864404487,0.6425374456860184,1.5564238771484833,0.9619706168005066,0.7410140154417879,0.9079441395543558
202,2.8656038176985943,-0.8401009130290127,-0.13912401709892377,0.8439965523513471,0.845637045507809,0.5550540162110553,2.0992562742239143,1.8398899470855858,1.3994273308988674,1.166638048437693,0.6619902821573977,1.8097197946050478,1.2958273449561497,0.7796175783640797,0.9340287036206161
203,3.1793775084551688,-0.7061208877709898,-0.3471680321122412,0.966392440640551,0.9637607257076847,0.63518597623079,1.9882521647520557,2.4277912045098136,1.4379283335226039,1.3255782152782936,0.6233814453054027,1.929949314662101,1.2518448353015679,0.9375263983286088,0.9154745808877077
204,2.3800607226829844,-0.38302159688688975,-0.3726433538259587,0.933699574062586,0.9123591127755718,0.6345626350467798,1.3426132357109353,1.5577228691818203,2.31629024469298,4.834858790281758,0.6333676938231112,1.7581312882480709,1.8521423875168588,1.8033298462409033,0.8872738085479281
205,2.126394150249534,-0.11776364493968183,-0.42642481335864213,0.47646406909272737,0.4807941885076154,0.48237510863439576,1.3947166148800227,1.4940601747689108,1.0332995835037844,0.7439262110596947,0.5915533975974677,1.3492555136849043,0.7368750161457283,0.7087492466063116,0.9315931476724575
206,3.0587658215690805,-0.4760154699837744,-0.5719383950714756,1.2963182031138385,1.2909695027225505,0.8235497024813462,1.6038740767547732,1.8766956256724558,1.6165323245242982,1.47660072040183,0.648888643467878,1.922627744433094,1.472918965720247,1.4286090170002965,0.8815802898919289
207,2.0760137484274015,0.09467844922250679,-0.4673448521730751,0.6998669479247839,0.6954276400488354,0.4010497879531432,2.1496630507798398,1.6737552265599271,0.9167676397718648,0.6647150867182723,0.6125606311107803,1.343022037775486,0.6896207392447886,0.4999146862437314,0.9398851177608616
208,2.021205800058771,-0.34571041977773065,-0.3309638725397811,1.4056002842847102,1.4178812509913583,0.793634270198797,3.153327473363074,3.636838410654221,1.9666119184947244,1.3417918227027916,0.6403206450210053,1.9437458262259366,1.5754846223478114,1.6364306175727652,0.9527520057079697
209,1.6622671893908045,-0.1920078791322859,-0.3961383917100617,1.1272309569319132,1.105650280837617,0.7373796411570605,2.5435232875072944,1.7071120522321843,1.1396574732562534,0.8741454559560642,0.6207552362147116,1.554739311578502,0.9240527372096443,0.5797617023482537,0.9433467369135856
210,2.297248019361544,-0.47599340771072807,-0.3576315697832337,0.9108134133286092,0.9103648210552492,0.6338844405811666,1.9094149509464853,1.3499300088297288,1.0670690644984384,0.8069543382071934,0.6333676938231112,1.5091401911187365,0.8473146117880399,0.7006801728674904,0.9565659393221287
211,1.4630146233350567,-0.21162156597854143,-0.19753248953978136,0.6985385021377136,0.6877050380085931,0.5494873356416773,2.065942339973888,1.657088958357206,0.8173661225795891,0.7320696329024311,0.6584896970785714,1.0950187531579794,0.6151607290776526,0.3941924780859709,0.9421207985104414
212,1.49642502031459,-0.09245047647602356,-0.3757172712923119,0.6766360553068431,0.6632593713449909,0.5112412084573497,1.34167971511541,0.9380015516922544,0.902682748404589,0.6635730238817664,0.6068309995095971,1.1559589555206624,0.7042221198260519,0.4099368275098298,0.9542061541492377
213,1.3453942129988554,0.07401257397030625,-0.17452724201829128,0.6298559260961815,0.6163979219870891,0.505213162486092,2.0074014406622314,1.711660046975521,0.9117985275725878,0.9058393234126108,0.6403206450210053,0.9833212443333752,0.692553285780641,0.534333974780498,0.9578993762648947
214,1.6913209065450134,-0.48391894481187203,-0.22249477408488688,1.1834108716542455,1.162270250941278,0.7133275024264518,2.622899138491852,2.108242709617113,0.9116954787809098,0.8643869592819698,0.6333676938231112,1.3822138090194336,0.6831933436965993,0.4825102968813716,0.9462956884878315
215,1.5236777129162324,-0.1413879720327853,-0.06485293534661551,0.8432830420545275,0.8383827616795281,0.4423959862770745,2.79619150484801,2.6896150546616977,1.1229994921081903,1.1221895362798358,0.6447042257417027,1.327354818382801,0.9138216464826011,0.6837867378003817,0.9230177632298195
216,1.7680354373778515,-0.08376674294768094,-0.2672996950090196,1.187080788843999,1.1562558300257286,0.746540972662228,2.7431439736859047,1.902882364802084,1.2434933718569097,1.1885389505866175,0.6309483474627791,1.7157865704648207,1.106552777039517,0.745700020103386,0.9525824041614886
217,2.0290667540201652,-0.31609320075820224,-0.39621328118862637,1.0077131712244172,0.9992157211774366,0.6482439276238727,1.9825727691282309,1.9287925514688138,1.4169749885338419,1.5709973010227793,0.6153451465759925,1.7456395336145019,1.2173029171164984,1.1577460868307026,0.9433948404486208
218,1.8483672009630345,-0.17559718008107916,-0.6719378816032994,0.5706020679542696,0.5625385692536694,0.5764655514477046,1.9026818571594877,1.6105273562238072,0.972146035189128,0.8812471805174126,0.6097226960127671,1.2201021862558195,0.7356675199949371,0.423336524651032,0.9442649191850855
219,2.142916973118843,-0.23205904122232845,-0.5910163718135285,0.80609733889518,0.7882555004138154,0.5966533866482812,2.145234460941597,1.7585134441809065,1.535569844143173,1.6381899698749764,0.6602640781246099,1.6328771441678633,1.4186027741230585,1.4285271247431635,0.9280115809944132
220,2.20569708896066,-0.6226392316599784,-0.22824999760901338,0.7754697627556405,0.7593167137026929,0.42764406154523177,1.3672858911992634,1.4938089086396418,1.7541473285175904,2.292420712525813,0.6468212168108125,1.4982941520205468,1.389480980028352,1.782822859261648,0.9300811687865469
221,1.7607129609816146,-0.2620289152096359,-0.44514601581341073,0.591136540695617,0.5764602656420389,0.5400035099500297,1.4499622864112092,1.2367696965390054,0.8369074862659437,0.814236843885305,0.6309483474627791,1.1281784242698765,0.7167708734722977,0.6309315408385138,0.9463628703539654
222,1.7312968026112892,-0.03723491758995001,-0.2166177314056743,0.8796534410439608,0.8739063043230646,0.5387275233327482,2.045162458223541,2.303915153508259,1.0959860714059366,1.2422639531848745,0.6008849035917525,1.25250189146783,0.8306799698277291,0.7489209884766297,0.9528987344880092
223,1.688395218126257,-0.07764709698752292,-0.30110292136770767,0.6961011063080146,0.6949399048020167,0.5991728816955793,2.0679400795541083,1.6601955251369112,0.7812958818866895,0.6117964115825709,0.6333676938231112,1.1346540600153752,0.6229616646458425,0.3940620377190315,0.9477001066038835
224,1.699976256368083,-0.22256937071612926,-0.16774685428353187,0.6743530927698704,0.6719769688736723,0.4921941203473249,1.728978929711887,1.6653441118600676,0.8568961471707215,0.8635720595219991,0.6619902821573977,1.1279381180499384,0.6224874876851395,0.552604030498118,0.9442570401804645
225,2.0186365207524744,-0.4191141941572739,-0.27123629333114146,0.9518302462973774,0.9525031284690554,0.5890512281823606,3.2108933007681166,2.4896621428601446,1.607218672987127,2.1320128095462865,0.6447042257417027,1.8027530107029208,1.4642048957510316,1.2398763788132772,0.940720144779307
226,1.8249776317396864,-0.26177882831555366,-0.4385950875870523,1.0520697958335719,0.9993231909662491,0.7742815219525362,3.1114248210938364,3.351177990746781,2.061987772804315,1.7318385992525815,0.6425374456860184,1.8073469925697687,1.7829951712344667,1.44219796568007,0.93957746041755
227,1.5615576997665488,-0.2967165206667991,-0.23995522972053018,1.0921027429589467,1.0840629246927076,0.6965846723305636,3.6470910898216196,3.4578929334409234,1.5401107123382947,1.1327341094178007,0.6068309995095971,1.7590986869885066,1.3536669033313218,1.0349797486293875,0.9377380106445146
228,1.195821252991374,-0.05915506754883049,-0.1328886302938309,0.752468922689247,0.7450034866520738,0.5892711842472159,2.4694200670374045,1.802123505633674,0.8401158773488765,0.5243888322516482,0.6425374456860184,1.3303341957571913,0.7365641199034538,0.44298432019753226,0.9508326093239147
229,1.265215290548937,-0.13166324602861823,-0.19109844150251715,0.963714889925839,0.9406175196708819,0.6258100142005355,2.8482401780041733,2.0556737275221715,1.0319440114974132,0.707773230066112,0.6425374456860184,1.4478861171265316,0.8897506139264328,0.5177540579479548,0.9376813241694822
230,1.227707373612537,-0.026306888457934496,-0.24313942745813916,1.0075976746909479,1.0264804756299606,0.6022020478969594,2.998839653110019,3.124832702011,1.29226116633951,1.3886829056183196,0.6602640781246099,1.3960304926931402,1.1074475426802954,1.123366027821048,0.9219933914388154
231,1.3257581798424034,-0.016836569461276873,-0.1953224694623339,0.5279965236925531,0.50376352563496,0.5186212117814005,2.199227715129903,2.0259861076589822,0.9470004614147461,0.8664432269473374,0.6284777104787076,1.1177951080848836,0.7447445432042185,0.5911267627628416,0.8884323354825255
232,2.2286191635200976,-0.26997363435511557,-0.43612472398539304,1.008414236024383,1.0059829424581965,0.7307861717422285,2.4652436770451285,2.3794424031753723,2.062350594031317,2.529209030469809,0.6125606311107803,1.9428149441480107,1.7859610069652376,1.978345424808467,0.9457868296261014
233,2.4193910724041436,-0.4255003146907088,-0.45093955040134415,0.6945452566449963,0.6926522111471054,0.5833745164762129,2.602825369898712,3.128069341888691,1.8228518507735039,1.9347860790692066,0.6727386042041725,1.761618312316068,1.6479473190166039,1.6736403555984192,0.9406022190132658
234,1.3954400296081368,-0.004082254168027322,-0.0995007725197381,0.9632012293936604,0.9526325165374141,0.5884687442021251,2.499259021096339,2.618475078973386,1.6501854683454376,1.6750584002431625,0.6309483474627791,1.435624671141832,1.322666746397125,1.082962517000982,0.9458238828121427
235,1.0563190104547961,-0.060549720901545534,-0.05855068803961727,0.9553243593804321,0.89055399400094,0.6150517987608514,2.7458021710802307,2.5579150967505293,1.1192094600770355,1.0703241306934714,0.6528756675646988,1.2863886961450282,0.9444960826838265,0.880882059847403,0.913707218054942
236,1.4147414959690756,-0.055358954902063995,-0.1366064306483219,0.8601162007455443,0.8521622771737505,0.5999143119837427,2.370364131021948,2.053907111589543,1.2306637706174512,1.2834750550942533,0.6233814453054027,1.354408172257569,0.9609244935589795,0.854224034277451,0.9437631474838392
237,1.3407794896895906,-0.2059567543831622,-0.12851712303297697,1.0212556490888445,1.0199017472449285,0.6670617543478476,2.7509886799174965,2.920281757652943,0.9469378023968562,1.0794097195045613,0.6233814453054027,1.1367296107812377,0.7520548410186914,0.6977858517645714,0.9561206781284124
238,2.4288259283789055,-0.5972770141060617,-0.45139083441697914,1.1278203806252871,1.1345277321872242,0.7266312145252909,3.989732216076447,5.599290838250997,2.467922686519768,3.1222096562304067,0.6425374456860184,1.8337627167085129,2.2740048658457286,2.5724095480458202,0.9436405323677316
239,1.5541613354530708,-0.3238614570081123,-0.348995477942139,0.9325625397848456,0.9044237044041146,0.6827591838772632,3.364772280056075,2.5667777103761926,1.3328027426448845,1.0811217848791956,0.6284777104787076,1.6125538731123579,1.1797841445124415,0.7678550955278141,0.9434332988014144
240,1.739699938054449,-0.1620475031425539,-0.3970439266922785,0.7151816802806998,0.7160943257858337,0.6572091879627762,3.1678332262177724,2.6163372901273725,1.4898211398305148,1.080705669339937,0.6125606311107803,1.899047767791797,1.286500744318409,0.7001571850005667,0.9253611364928335
241,1.5476622894727508,-0.2975918436898628,-0.21951309152356968,0.8726178910385638,0.8531920031977985,0.6446465467661163,3.5504581679302913,3.7246811092143597,1.5033794979034623,1.2849782109744776,0.62595550513784,1.6901058155015551,1.307851153074547,1.1152306814474784,0.9317228705586162
242,1.7349137957339469,-0.3101381866042542,-0.4310394794424165,0.789946867660946,0.7512375785541847,0.647282010560318,3.707816930253206,3.1324858708230767,1.7401137182825903,1.5284568907206384,0.663668482632973,1.6910698452201272,1.5423557606628049,1.2623920431777955,0.901512105819749
243,1.6764862792155437,-0.338049672151835,-0.3916301185790845,1.0310203837524121,1.0104011563486455,0.7278282959068983,3.40711969129831,3.3794393391888553,2.241831567923926,2.2709497399027465,0.6468212168108125,1.9835658652332246,2.0338176558527477,1.9830096567663111,0.9441761157600271
244,1.8546831174817662,-0.37634103611383907,-0.39506338375200845,1.2179748724597668,1.1945554280408286,0.7667314745973604,3.468842854438222,3.6008075627609037,2.6086066930038005,2.6634617594121432,0.62595550513784,2.1708748020134374,2.3791760847535746,2.3249145693921345,0.9353949269177049
245,1.9028986244862223,-0.18231563915667048,-0.43846280427334633,1.1381854808273117,1.1273961683750384,0.7467660701494911,3.203738173964746,3.2237584481945887,2.264318830963961,2.2053532202391164,0.6584896970785714,2.145391428696202,2.033785069042596,1.886054199608793,0.9393000642383625
246,1.7475550681855567,-0.34094989116545216,-0.3046899553308623,0.9307888077054389,0.9034485998021671,0.7782006530209992,3.0071476909583126,2.6733084474785915,1.9722986288246842,1.4011583652651673,0.6468212168108125,2.115368130866387,1.7038731411107928,1.1082791154085694,0.9134556176951512
247,1.7560878926882553,-0.30679306105248727,-0.47300709770950655,0.7158482809935567,0.7019951288453767,0.5872214165787429,2.8806043545526263,2.8366302142911266,1.922247697237159,1.6204896841219867,0.6468212168108125,2.0373190598265967,1.6873027196075132,1.3045169862267052,0.9533860974025288
248,1.5879974075406451,-0.10275085463703226,-0.36714849684859346,0.9949716950976304,0.9752649778323802,0.6861205468552731,3.2058467710632166,3.2841001475214475,1.9227851828998461,1.9880001394541815,0.6380535849069913,1.8486120474875318,1.7037958959435255,1.5917587432897211,0.9471972562046291
249,1.8007529081759521,-0.13306951628593677,-0.4523820811549678,0.42705632722306774,0.40267214699299925,0.49995973863802323,3.082132757457116,2.726366900844515,1.9764293903103578,1.7713133745528558,0.6180765742263259,1.9662715991305277,1.7505501866400024,1.5748510380588379,0.925265474545673
250,1.6845939936585488,-0.1758493578510747,-0.463160106746227,0.7898067469052978,0.762384648185377,0.6877085628821518,3.156669152609146,3.2672154898779655,2.032318592472132,2.0833234772398086,0.6284777104787076,2.042102940468919,1.7960502163927714,1.7733540416853397,0.9491417580085288
251,1.8604554771068553,-0.5531655889271513,-0.3568837892308391,1.216243502807031,1.2058116051299004,0.7544214301195755,3.063022871474876,2.9771800963591453,1.9715225770230642,1.9371670736549491,0.6357360191111145,2.1383897916153267,1.7803222019636158,1.4181152277309697,0.940201345612786
252,1.9135491892223804,-0.4168646422625698,-0.3560227770324958,1.012203559243228,1.016282309709955,0.6161333454095527,3.4613646809321885,2.666049404533005,1.7565271239851175,2.0241368300745624,0.6153451465759925,1.8997902134417601,1.4957564967115808,1.183306167517377,0.9396322982925124
253,1.645270154354622,-0.2125678670210771,-0.3994669058572529,0.5976899760343799,0.5696907227229088,0.5682302601267671,3.2531668707085006,3.2525020884759437,2.001194913513761,2.1787298270728184,0.6038851895711802,1.9209574076997369,1.7804445714130899,1.6517236239302049,0.950014883644868
254,1.7130848477184075,-0.1619133115862782,-0.42499790831435474,0.8865343083623084,0.8619120492482429,0.6486153123407488,3.0760957519245467,2.8705767319243236,1.8210937455837364,1.5500416512129442,0.6284777104787076,1.9996039832530954,1.6607959995389723,1.3222959426149465,0.948911072305334
255,1.2570921314203354,-0.08783648448948478,-0.21960075477930602,0.8523897368931332,0.829272714751414,0.7634666839472406,2.943836264131316,2.0964771054765268,1.0953622214772245,0.6711943989108098,0.648888643467878,1.5868613582551954,0.9463955524738515,0.505150925994522,0.9427754457894565
256,1.6247682366752678,-0.28596074984469244,-0.34755438299523705,0.7434763102408929,0.7188925219632528,0.6458201816500159,3.77548146065082,3.187843338200214,1.6507712575047275,1.9370524771447282,0.6547956803312163,1.666478686135098,1.505725619423956,1.598102612468891,0.9403596764126337
257,1.5390515067874357,-0.26972884825810073,-0.27340900250268535,0.6544204193538424,0.6297108557803247,0.5671952679588982,3.171110211265361,2.787660377275568,1.6132996118096339,1.3206516517158766,0.6309483474627791,1.6678912820144889,1.4097743743021882,1.0616762718361592,0.9422862113900606
258,1.7214326494346788,-0.24674178373461497,-0.4752931349592687,0.7700856632834988,0.7449989797320684,0.6149832901863937,3.219409341107218,3.2047153774062216,1.8142228016045252,1.7813794384990906,0.648888643467878,1.9041818986423424,1.6109310071497072,1.0540468426730087,0.9491548618117962
259,1.8011740384547101,-0.2898643605105915,-0.5722466219000835,0.8259252178765853,0.8249046817325428,0.7023878845057311,3.2385386903403965,2.5567491526298203,1.7220742272640672,0.9602183950719573,0.6684167106117298,1.874561535989193,1.540734770052464,0.9360933591703348,0.9494226716817985
260,1.4528775149199047,-0.30276090353816887,-0.32329985948537276,0.642137471481433,0.6125472692272447,0.5629524493092833,3.4218372742616188,3.85578781187145,1.2994099491155504,1.5559027664176972,0.6380535849069913,1.5186835491656363,1.1374069130058628,0.9354606479818753,0.9040947530364314
261,1.8832784763358443,-0.4673525314134792,-0.32511163124548026,0.9642816964867663,0.9508509109847565,0.6469705208812286,3.069632816444719,3.313433312814712,1.5172809647990737,1.2618816114428402,0.6309483474627791,1.8271794144593154,1.3088371600975726,1.066655864550841,0.943942290429204
262,1.4645289862715174,-0.20502710659993129,-0.2351989557222141,0.788624422806222,0.7567906385788773,0.6917944508025677,3.048769130089909,2.543365225117576,1.3582563624242798,0.9441476325821629,0.663668482632973,1.6136132838445811,1.1898471020622872,0.7685253167355687,0.9311644757439677
263,1.3508592017771577,-0.20161305621329756,-0.1798273477255194,0.9374009614491096,0.9212750057902477,0.7102234511998021,3.635277920527965,3.279139841757793,1.5730990760327908,1.3950787754570855,0.6207552362147116,1.7603254037385248,1.356946954349562,1.1698482188318275,0.9366857727176016
264,1.8354953958001612,-0.22669492048451267,-0.3898294857507503,1.1065887058037098,1.0922024039858258,0.7133494934669826,3.48003846677222,3.229657798742981,1.8881628791851914,1.604490587490951,0.6284777104787076,2.066722769272061,1.6588206692134664,1.5040773967762742,0.9532109456307947
265,1.3045809610272319,-0.09806823177662272,-0.10110605473148615,0.9459569022819329,0.9151377413450188,0.7454398418699212,3.27757597302294,2.6039071972988324,1.2705111457877993,1.1877905370725257,0.5713653840954815,1.4939785620988597,1.0760503411059759,0.9015909427538659,0.9421599356867059
266,1.314529880971585,-0.07765659158862959,-0.22313612351170692,0.876171742698677,0.8559058674518946,0.6666371433329896,3.328614805602814,3.1586036337079704,1.4633000934934686,1.199021101089489,0.6233814453054027,1.64178894265176,1.262073405426904,0.9296575958615385,0.930104140272695
267,1.4985272342733607,-0.1280275943259822,-0.26742367970964065,0.7694793881808814,0.7313126366415721,0.6725549004892054,3.148158821114717,2.4317293421664257,1.588993914138923,1.2400587198930388,0.6068309995095971,1.7818091383748869,1.4513346582910187,0.9680438611742441,0.9526031031322356
268,1.199275760360655,0.107167521012979,-0.2665685755642423,0.5534922464490818,0.5185493352310812,0.6212776540978302,3.124937166228657,2.437147252505043,1.2936159543944241,1.0229192434105943,0.6333676938231112,1.565580529370324,1.1114556182027167,0.8607448992092157,0.9258882583363168
269,1.403161277838896,-0.2732134769396911,-0.2760308978222147,1.1262587045384587,1.1054074874707636,0.7929298274044436,3.6221466975733407,3.3159774363685446,1.275971882877384,1.2417931938502282,0.6309483474627791,1.4721427782459282,1.0599952512475108,0.7365701691226374,0.9348638280006489
270,1.5221597233585233,-0.20834220924583235,-0.42141255304259484,0.8098435482093167,0.777390093699963,0.6051380466150432,3.1593123268436085,2.6730854530028516,1.3355256873456236,0.8526289440458933,0.6284777104787076,1.6814711153339321,1.190078888321645,0.6294677132887894,0.9229366045317006
271,1.151918045635377,0.028191752569176054,-0.1605324762848266,1.0694290495864072,1.0501837246095,0.675428937610987,2.492015095638619,2.1150118308346264,0.9850632043138223,0.823195578815221,0.6333676938231112,1.389767050598863,0.8153888970636365,0.5323230641305224,0.9214373768612985
272,1.6849595574696592,-0.28721795818194285,-0.3973165062524986,1.148175275647471,1.1496874310744387,0.7372141034496986,2.9541291052415657,2.5955123224326124,1.407922389150129,1.0883847743795774,0.675384900321601,1.862611210200006,1.2990444743383032,0.9326888776837914,0.9435414266776951
273,1.7276614643505528,-0.31886405792486694,-0.41886972424153,0.6438052824810544,0.6315407155404434,0.6481575467465035,2.844415219305541,2.7827992250437745,1.9049370006676367,1.7920059605883873,0.6727386042041725,2.1250899795770204,1.6885971251302638,1.3792697461829262,0.9451388255437232
274,1.4979709368665446,-0.296071813856284,-0.20311251082965887,0.92019024750585,0.9049466846547458,0.6894889272759834,3.1358448449927026,2.8188869265850203,1.4108399570167658,1.2536692600584245,0.6038851895711802,1.6735024718352085,1.1875046774310523,0.8332199111742707,0.9566573650755046
275,1.8566098594808036,-0.4411677846795635,-0.3496655944396928,1.2286985496901905,1.2208377363885115,0.7606130219022451,2.7522803172728434,2.112187601586627,1.6203817112528907,1.511999741873252,0.6566669596287297,1.8467085607130709,1.352637005102497,0.9937149693456905,0.9503835158779024
276,1.4791780122788596,-0.3237246738707812,-0.23480316272502394,0.9693334734157893,0.9592745326363231,0.6632980168001666,2.5734806961428722,1.9319673878263304,0.874159572475627,0.6823492548158482,0.6357360191111145,1.3178883284558303,0.6975981956248508,0.4747677320339145,0.9493588902218538
277,1.3608357379664509,-0.05367268475345677,-0.291420465487797,0.892011266239613,0.8827210606438686,0.7700158427394519,3.0007468024574573,2.999501902906342,1.3435667783748904,0.7903779296376132,0.6584896970785714,1.6105496412867908,1.2157211912028503,0.6821406334796636,0.8822760004234127
278,1.6927309812991884,-0.27707890590032225,-0.38995136582874806,1.073813438590253,1.0420804502167649,0.767201482780815,3.5747069103321634,3.5064640627448025,2.0979348124718067,1.9785147844757554,0.5748741956352443,2.0396227168327297,1.844460919906175,1.5270292239544765,0.9183557403818781
279,1.6528635843280157,-0.1851116386858267,-0.39186045213135445,0.8557857940661742,0.8150101538849237,0.7461040149096392,3.4311660739140053,3.4860123918171033,2.261867687791078,2.4694379861974904,0.6528756675646988,2.0089209488647173,2.0545711498746186,2.1400661634962708,0.9413955200746971
280,1.6731030868454047,-0.1504404718187401,-0.3605084696844582,0.6959581425473336,0.6756175856341217,0.6212263579178327,3.4043341471532034,3.574377781869914,1.9046558272391836,1.8777981187408865,0.6652988471865258,1.9247576706909189,1.6896329314322782,1.5259737986478428,0.9246753113531866
281,1.6929334583854567,-0.2567806204944333,-0.38275887289021177,0.897708937978034,0.8854778435338058,0.7496001986638278,3.238993163586811,3.0778088356311635,1.7855100239535222,1.7447515719693982,0.6333676938231112,1.8600383099813493,1.593856860681255,1.476697415760115,0.9218624833453101
282,1.8083342466402088,-0.20711303989265661,-0.3512993054389712,0.823512378445515,0.7946089555148104,0.6770056701180122,3.2220001125803472,3.2479789960790026,2.3523428543571323,2.683600845827364,0.6528756675646988,2.0815771538102577,2.1240714779705177,2.031432322493475,0.9454425461476802
283,1.7440604727291404,-0.2956609505135229,-0.44602108540458285,0.8932869410070423,0.8844032145030756,0.6850383840230388,3.007981087341448,2.938982932165369,2.2230268014273453,1.2906642130875963,0.6357360191111145,2.0753609895793788,1.9836164288054305,1.1044206302638566,0.9460946018786431
284,1.4743217723967956,-0.24909783154146015,-0.27059135724059935,0.8189717004401497,0.7976209639893602,0.47940874588072463,2.6060574170089783,2.3335600334759663,1.4747266636277383,1.4243618757434056,0.6097226960127671,1.555844487598157,1.2721160101766107,0.9732170617649823,0.9373928147042107
285,1.673618172517886,-0.2515390878363907,-0.3647855155518693,1.2106078578008683,1.1999670609077708,0.7922602471491946,2.8382981049615528,2.5401510235318785,1.9152708919553822,2.050665416210072,0.6333676938231112,1.9945286612911148,1.6235817219346143,1.6073696593700415,0.9446685554323128
286,1.8832208211814039,-0.1984267964182267,-0.45490080885104384,0.7974399405830561,0.7713474220692222,0.6271538589884629,2.6710327855319185,2.6939556441648724,2.1347842510716983,2.250324826868443,0.6333676938231112,2.229954401959138,1.8852733711793865,1.9500029242090664,0.9472266299688581
287,1.6724278048512942,-0.24639969118882055,-0.3049222259112819,0.9789663374700196,0.9729886233341284,0.6957019211653181,2.9521220214927273,2.919642394570443,1.785333270673696,2.0231606614585593,0.6233814453054027,2.02117263355586,1.6044190813221577,1.639935828847028,0.9457612525498752
288,1.9806182708096074,-0.46652871222844094,-0.3557036295618612,1.2825109640035388,1.2488464273949706,0.792051368611948,3.4125003483064655,3.227218235958584,2.420310065097663,2.307184474477415,0.6309483474627791,2.1893556189575243,2.2160533759512564,2.0676820212729297,0.9479809349308956
289,2.265711489821264,-0.5615912464142636,-0.4537491086002074,0.6476237088265469,0.6272552484967591,0.5593158666544487,3.2610837774706893,3.1838356783413855,2.1664805163519714,2.0874760276662085,0.6125606311107803,2.065056613758802,1.96600020922738,1.6693978615773444,0.9437231835797066
290,1.966609979580977,-0.4078478762540977,-0.4569920630091037,0.8906554188543083,0.8811232125024551,0.6193519466464503,3.242688122019999,3.0673932194755906,2.4015507849464823,2.411312241187406,0.6333676938231112,2.138672690386604,2.116623402893259,2.0164704189822777,0.9485926163146738
291,1.6693461482925007,-0.10410130342867085,-0.37375983766046283,0.7738755001712233,0.7732058846076328,0.5760620398735574,2.799525191237857,2.832784166925248,1.7784692836279195,1.8503318813072793,0.5978297680564633,1.8173508188949643,1.561107075797702,1.4211064293236493,0.9316965265765899
292,1.2901687705795817,-0.1188689104343299,-0.21938182211044027,1.0974008652605867,1.0698467757830055,0.7290466895564895,3.433681353447037,3.3678120883389195,1.6790901508830485,1.9051259585050129,0.6509067234006624,1.6237622397222538,1.467991577706608,1.4731278496451181,0.934846967756041
293,1.8480177892817529,-0.36891990817136744,-0.30175750037198856,0.8442386965328336,0.8213394262935161,0.691995457725302,3.3884644078272386,3.348856631022237,1.7689538518594572,1.9220110036578144,0.5915533975974677,1.7709769300455265,1.517189429654583,1.5640416978016278,0.941546543909009
294,1.7792940687836423,-0.19355907517723492,-0.3189279794283685,1.0479310282779803,1.041289993145595,0.6637100499361243,2.76313462537942,2.6111164981289003,1.6060928291514553,1.3885361247249879,0.6309483474627791,1.8952698455977197,1.4479731428038796,1.1338271949591763,0.9459948049038643
295,1.9310588863812337,-0.2704253540478623,-0.4288784877984012,1.4480662323868978,1.4515159664492512,0.7960335991888898,3.1448715922066937,2.7646716059229632,2.2510330919361827,2.2223027785528893,0.6207552362147116,2.1586771677239804,1.9975427982162077,1.7460134474398512,0.9425363611521284
296,2.2155140172898586,-0.5783908476883453,-0.5022484859189749,1.2179002682760263,1.207180858639975,0.7532441409183359,3.103152525524982,2.844863933890119,2.0538773586369796,2.6915938523862812,0.6180765742263259,2.013986773757912,1.8350614325088457,2.2114092123281757,0.9385920161442558
297,2.1505109063507226,-0.576432347568444,-0.41270017324629904,1.130552498956345,1.111092518175359,0.7048646192017294,3.199288816516502,3.15519267979722,1.9769897421204816,2.5587869626767756,0.6425374456860184,1.895565637953644,1.771334909441517,2.13854558103754,0.9409279153443523
298,1.1917228790823262,-0.2889384507957923,-0.1423043988579823,0.7476772054402088,0.6939750264857897,0.6087317830987911,0.8837845008085573,0.3506172698876192,0.10452515607092284,0.017171470434812295,0.6509067234006624,1.0617019346480125,0.10897938059579995,0.0253233194329466,0.9484248706604976
299,0.1348400239696368,-0.07404314466405593,-3.557568906663311e-05,0.4143809600846443,0.3178389075393162,0.2275517563455909,0.2548495409090872,0.1290134318822339,0.004704872822499985,0.0043584853485872654,0.6713451011121618,0.16348671791538585,0.011382675353529015,0.01105865911915132,0.9558119304696117
300,1.3257807123832568,-0.23736133522767733,-0.20114733813308888,0.8061769979578604,0.7865284201302751,0.609907649000845,3.011357646230121,2.7681040463811257,0.8326789218940924,0.4955839201304028,0.648888643467878,1.2145470334668755,0.6865809728165446,0.4554440642869324,0.9200292388088961
301,1.7532159790209498,-0.49331960278512244,-0.16666475954521448,1.267046875651009,1.262400054838034,0.7276142200552801,3.187741619246152,2.8429446707791675,1.5703379571363592,1.560154430088903,0.648888643467878,1.6651855571710312,1.3697496519164862,1.2274336052277135,0.9350115541126762
302,2.3210706212943397,-0.6369240889852006,-0.3191261606038553,1.112559578907297,1.1135932098810195,0.7410267825092686,4.022968628872848,3.738533816690464,1.992708533896676,2.847732517512394,0.648888643467878,1.989397730133903,1.7651468053743102,2.139591667639207,0.8967628570560467
303,2.081451024096301,-0.425277144905062,-0.2825581675581429,1.1149380040567571,1.1075617003112534,0.7425751905305935,3.9176862920524282,3.720992159837098,1.5374545038435972,1.7528969466716557,0.6309483474627791,2.0731502622342926,1.3899225231459502,1.4417021180165355,0.9023497111856983
304,2.565280839752599,-0.85495626172274,-0.2649728783964881,1.1763677420525223,1.1771181208906818,0.7262876835283026,3.8301787448703353,4.381779451173681,2.491275847372307,2.4910346402715486,0.6619902821573977,2.1491966083256377,2.215208424998424,2.2309755606159225,0.9523487916158315
305,2.174292780120245,-0.44662317170860943,-0.4484016772565068,1.2009257721485211,1.1804417954575672,0.7229268604698674,3.655548789690839,4.016289649507026,2.146650819339889,3.0249188591169514,0.6284777104787076,1.8659084678643771,1.850456383925162,2.1858685615905,0.9461051233880619
306,2.0924617421677247,-0.47247002639788493,-0.2588976504093108,1.2307043546398224,1.2160560566278014,0.6925495050548623,3.259872346373446,2.7457402438797613,1.910218815707619,2.315069089990694,0.6207552362147116,1.7662216854402164,1.6233765603785872,1.5348593520363998,0.948761630865518
307,1.590961183114989,-0.3798058897127605,-0.2519814571897771,1.1195829537968958,1.1211986439819601,0.7004253086609723,3.161997025248423,2.294995560537587,1.1671183338554354,0.8676349908188369,0.6380535849069913,1.4778737312796377,1.0317355311487344,0.7190363540356336,0.9499886351030402
308,1.8947171156271996,-0.47004937665046415,-0.30010437833597137,1.163583901812745,1.1431013379345254,0.7546467479011554,3.8605486936325133,3.3410187945116308,1.5900393030878417,1.3479389863000195,0.6309483474627791,1.9195170860316426,1.451474453573447,0.9890561883500167,0.9468751901797543
309,1.5312201031459742,-0.1496767819489545,-0.21211233967979526,0.5820967391412382,0.5671419685111341,0.6077195473874929,3.662835522226862,3.641963693823627,1.7251597631514353,1.8244388086601897,0.6380535849069913,1.7487638387669593,1.485507671579215,1.3609483447887492,0.9474835573343802
310,1.6390724902354334,-0.36639170753376715,-0.22579450907495602,1.0903158207391455,1.056514912413389,0.7193235547350427,2.634189938079441,0.9861008566316949,0.9887200202210513,0.38280243164713484,0.6097226960127671,1.8881969508650605,0.9204105052284646,0.3335645623666539,0.9527611932560597
311,0.20657402684255877,0.03712271864906816,0.020388413072729622,1.3726401763142126,1.382268011454079,0.31267882789471585,0.3125383158985344,0.20364906680718492,0.040771239937293535,0.03496644631205841,0.6357360191111145,0.20342262670200872,0.03173727710794732,0.017240828571371714,0.9409278395699029
312,0.425314504373231,-0.03862371529893777,-0.015697837219982608,1.4966255636534656,1.4852528462792844,0.8709216914684311,0.17704879423596118,0.19978151354165027,1.833599899354015,1.8328458287607323,0.6333676938231112,2.1330298652942226,1.6811608908968887,1.8095490107915533,0.9434009477786386
313,1.5621197919337675,-0.35041597861455187,-0.28784602858533537,0.7386937427238915,0.731361020424022,0.5992137316399703,2.4534399120919606,1.596194772061922,0.6695805199940454,0.4707842384364861,0.6668815377411301,1.389499492068839,0.5908410841243149,0.280676134230845,0.9492760311917582
314,1.5304639673513332,-0.015248970858485422,-0.44395951657191873,1.0974598008194867,1.0478038978913902,0.7353892693782597,2.906201343023345,2.9626473973668435,1.3144080206758058,1.037175325473698,0.6207552362147116,1.6793240398982667,1.1432021711028306,0.9071752376330939,0.9507645191981529
315,1.593923639123353,-0.32076639302139837,-0.29002391502357344,1.0790801522089981,1.0538163646467913,0.8065854681726373,3.880390556080437,3.87284373513454,2.1121114020669003,2.4609824883835474,0.6528756675646988,2.0170720378271048,1.9923188185148324,2.274210113567206,0.9259935679538887
316,1.9665927730632267,-0.3586006284779232,-0.4002630506452357,1.276660500769619,1.2579615799044015,0.7831179413934912,3.536996031714562,3.491442113705597,2.3734096622029557,2.0622700680419763,0.6357360191111145,2.276376015641657,2.1381738107377846,1.7780793653239748,0.9450928300957222
317,1.5927354714032922,-0.11584844927284532,-0.32106303748695675,0.6835380979525886,0.6839325821194752,0.6076729328138537,2.410583382001559,1.9764331093955905,1.154959537817387,0.7102467571320202,0.648888643467878,1.8515802475465943,1.024691385970789,0.6068591309074585,0.9485425427838774
318,1.5766711881583426,-0.17287829492710238,-0.3231689881502126,0.9578434382028692,0.9426224734888934,0.7463345385650865,2.6874492868927957,1.7392268006384604,1.1770413769198453,0.7440991851937393,0.6153451465759925,1.8324425845035899,1.027788016480588,0.609245621431272,0.9238603365965783
319,1.4715922272931148,-0.17106310163749894,-0.36059384847070747,0.8303831246841996,0.7862639216640049,0.660623621386246,1.8248782671096289,0.6057860054764246,0.48735629539365205,0.14168671322086762,0.6447042257417027,1.6197688712724656,0.46047299057813945,0.16009900655924234,0.9542282419609733
320,1.685260251205946,-0.2321769011254673,-0.3663266383068295,1.1218979771052362,1.1201914162108444,0.7657873939997578,3.0950426636707298,3.0222254154729233,1.7683148068399586,1.7922106966151163,0.6038851895711802,1.7981800370309777,1.4980569089946911,1.3743610452848778,0.9366387686543632
321,1.8168830574964983,-0.32159667405854264,-0.44355582593872606,0.5991765335406545,0.5854253816809711,0.5295637805954145,3.1205884293291235,3.3854757029310902,1.8449772661001858,2.357657992124554,0.6602640781246099,1.8209136866584061,1.6315769893912997,2.2613421344599964,0.9244658067561109
322,1.413820773555767,-0.22211293927574483,-0.2541546008557885,0.9875358069703156,0.9816337567861463,0.5722834979149272,3.263057497243717,3.928858149927374,1.5394909833342802,2.264501784795261,0.6652988471865258,1.2857454024592865,1.3529342207182526,1.9776638634086776,0.9155119928074035
323,1.3604765059020636,-0.16226172599709676,-0.21389107799822066,1.16785898781605,1.1510191235969456,0.7487557723818941,3.5954317698247933,2.7711400916972084,1.2607154139042689,1.2802644787338116,0.6619902821573977,1.388697245736201,1.0480543621647522,0.8691355939568773,0.9391494444179327
324,1.8523219152181576,-0.19289279635195067,-0.39017636779016657,0.8772390717561694,0.8738167557366908,0.6570247717357951,3.3813109686487417,3.351904811813465,1.7986892883636783,1.9352824118680734,0.6357360191111145,1.8672016643949134,1.5814367918673784,1.5821995451514834,0.9163783021951395
325,1.6511895286113565,-0.23581858256423893,-0.388322547884331,0.885291039066899,0.8712577409576691,0.73691928651028,3.031654389310499,2.825895673445688,1.750442020247109,2.173313652549546,0.6528756675646988,1.8356416970449043,1.4471802318819302,1.2209957628009693,0.9270810743722764
326,1.8802489204028294,-0.43404969449220265,-0.38753077684206794,1.2502766960368148,1.2228263332887876,0.7796065547159349,3.178118170160364,2.9186623582718623,1.8897963497465622,3.207880726814756,0.62595550513784,1.8656930976061772,1.6902106738169593,2.358599734548717,0.9411920911228433
327,1.9921970724742883,-0.4161021654207743,-0.36012020002077344,1.0709081004980008,1.0711375515050574,0.6943300740518977,3.3463307769969,3.0988474612257906,1.7637814726664511,2.0761140523879114,0.6811855325194978,1.7461489579760026,1.426585710894343,1.3391475826941885,0.9443304405408611
328,1.6927564313823358,-0.28249566645124446,-0.2864342745580438,0.9608324394489468,0.9696011455070491,0.7048295173082263,3.6389492805054564,3.4096561335665334,1.4569358728523665,2.0468026347265162,0.6425374456860184,1.6044503709230613,1.2337085155261691,1.4751712169384161,0.9373560235108261
329,1.3431028672942587,-0.022676519864907818,-0.258339170898048,0.9085132623389769,0.8753096656111428,0.6167870008013637,2.9523276431261642,2.4296875326930696,1.3672683927391494,1.3577550918855852,0.6153451465759925,1.5857756407607795,1.1735678547289812,1.0009126214664035,0.9310075309871687
330,1.475759939883281,-0.12455494459000793,-0.2914966522252889,0.920516310587296,0.8626098421705236,0.7469935153692857,3.109315038010923,3.05488312196952,1.4817231554364183,1.178978824574975,0.6125606311107803,1.8217376927477413,1.2912777414209822,0.9491846747268101,0.9240550017437408
331,1.5319315133602975,-0.2717177953299611,-0.1751208599162693,0.94509539440883,0.9260587626520959,0.6540273389710585,3.3424126030293206,2.9306563802285237,1.4845705499090738,1.191156403537936,0.62595550513784,1.8268341225115459,1.2849327161647117,0.8509648367439512,0.883947983967081
332,1.6311047177118365,-0.14814125381075316,-0.4421419267976422,1.1438578973869802,1.1035457143650829,0.7369287186033141,3.7026039894534004,4.087318800958855,2.1503536616829115,2.298010318535795,0.6403206450210053,1.9970631024139336,1.97035516623578,2.1468418559381957,0.8903803087033554
333,1.4547230749784006,-0.08205569325246265,-0.32379298486217767,1.0389499670346982,1.0039325978825595,0.7845198832223688,3.878860587821348,3.4307965950457495,1.6609534610519001,1.7609617438784304,0.6528756675646988,1.8216689996341988,1.478175887767669,1.3923366755758533,0.9035009368007904
334,1.7786693974065355,-0.2756411973515569,-0.2156070420892181,1.2140921584624558,1.1836222231894493,0.7992290914681736,3.957626581549434,3.882354113740435,1.7280736853507792,1.80312430285513,0.6038851895711802,1.9123464322171728,1.5151949247845846,1.5327177297694317,0.9265687474514817
335,1.5580988251713308,-0.0036645351316959562,-0.274295782377455,0.6171812734003689,0.5941284599820688,0.6861337954112013,2.9924510303672545,2.733167493923888,1.504033342257637,1.28184200388945,0.663668482632973,1.803697106801098,1.298878262370942,0.934758938333281,0.9326047046539409
336,1.7069386081445577,-0.12139840312857764,-0.4861505592488861,1.0259928493510615,1.0161914869553839,0.7077599651277046,3.4860704570236374,3.2386568600639616,1.9846347073981188,1.264826264589605,0.6038851895711802,2.046651718856845,1.7802134782309942,1.0483654600022136,0.9400296607680614
337,1.771059569029151,-0.45479374361103847,-0.21856849825103167,1.1304965517268502,1.1043296956621471,0.7642238966446847,3.925711317012302,3.7355465992870944,1.5283577261443066,0.8317968722784193,0.6153451465759925,1.8731864679237842,1.3596755989191565,0.7039091082743996,0.8859901394963053
338,1.779356171737398,-0.4771939495992969,-0.29897181700581754,0.8729802770332259,0.8666678225347044,0.6999507032669863,3.6846642464844703,4.041663794763138,1.5265904462549105,1.9194978672296277,0.6284777104787076,1.723540230250911,1.3490730876390375,1.371761645552216,0.9040127826633727
339,1.7580943884334033,-0.4465273130044965,-0.19578882950892812,0.8137251269946018,0.8012193673184473,0.6377287956357998,4.031615994949856,5.384741906615288,1.7691605803535981,3.22952428943225,0.6403206450210053,1.6770032319298664,1.58038244770021,2.4364464641729566,0.9190176352972413
340,1.4107410703947991,-0.2867146880539084,-0.14239217706116314,1.1374877573244262,1.1248105866106985,0.7473742849670915,3.822283556894632,5.486332717254266,1.224289823116232,2.086946152207589,0.6425374456860184,1.5333002554531774,1.0687396411497094,1.618624032297884,0.9357156530799515
341,1.6226603264944541,-0.2378125720913965,-0.21147835157821487,1.1836108767631988,1.1647198255175322,0.8148926922065629,3.854196180657267,3.253150096812491,1.6572886864437857,1.4207124342787991,0.62595550513784,1.6191516046217396,1.4079566768478962,1.1837700970084166,0.9132663529234242
342,1.534778141897904,-0.27596432737589727,-0.16190342767416296,1.1795515597596429,1.1791019617359073,0.8014008523020804,3.9951304818069313,4.781790108152712,1.6254199571242327,1.9554558199503287,0.6068309995095971,1.6584531019198299,1.3377237148733112,1.5676381835130364,0.9420379828999539
343,1.9746064447902059,-0.2310190577666762,-0.33079253699256994,0.8558753340368899,0.8342736920896637,0.6390860902193006,4.309875857337426,15.495055436018978,2.8398159491930812,4.419343346320092,0.6528756675646988,1.8324425845035899,2.3927702529235497,4.3491387678290465,0.9110813128934055
344,1.4075509530714296,-0.1810424213969793,-0.1268259102823136,1.2249799807683024,1.229868955403446,0.7875017677680564,3.9594533249728934,3.247347234330526,1.517421337877424,1.0594485311420008,0.6602640781246099,1.6518236289305381,1.1554945738303408,0.6281256176298675,0.9378720876454872
345,1.4910774842605639,-0.21473556796554688,-0.11809545217011241,1.2541026478021884,1.254878556474996,0.8401913164551631,4.341005893917804,3.107665472869005,1.329480746164506,1.3098458777834776,0.6403206450210053,1.6597959717756947,1.120287432226347,0.9344557968924723,0.8759474813810186
346,2.007129756363009,-0.562902580804936,-0.2064046107353541,1.089304652477767,1.088918905086357,0.691187028946419,4.301065609305642,4.913107378089128,1.5961630546413301,1.6320834738033572,0.6284777104787076,1.7076021612213317,1.3405936818684001,1.0501567405299075,0.9409431475767475
347,1.674789279614853,-0.3975945176657453,-0.2558910962398433,1.1982466856517626,1.1982720353545744,0.8079172236976786,3.6900009605982773,3.3101312171666524,1.3486286503621836,1.0599861977136542,0.6380535849069913,1.6610821455864389,1.186038570315411,0.8970365685170728,0.9303486111286521
348,1.5807195841357513,-0.13827833153522506,-0.18559383113572891,1.028566464145032,1.0286982345695848,0.7557278262504529,3.5485507916867114,3.615901561392354,1.6139951369911392,1.4987827046144448,0.6509067234006624,1.7147367016019839,1.4508616874786158,1.3036820762148424,0.9006887399911343
349,1.542710602667187,-0.24920746750642045,-0.1019896746207683,1.3355757845795615,1.3530955967996119,0.8623886043781268,3.9821444149449032,3.4920932322019946,1.541839936141231,1.4500516003023538,0.6333676938231112,1.6144504542576446,1.2170865179176276,1.0972931515692552,0.9534918409648888
350,1.2908822206065322,-0.16646038045311012,-0.057378250019822746,1.10987017174027,1.1126649671834696,0.7689460594725098,3.6655725288263548,4.249477308887209,1.3021193672032263,1.169962128454372,0.6333676938231112,1.6042292787267152,1.0453947939068826,0.9243406530177004,0.9388528854190322
351,1.4443956721314146,-0.2147016740499884,-0.1376454645797029,1.121802952094967,1.11930389068571,0.7932109249927287,3.661612519581467,5.28183987249804,1.4763648977973454,0.6880313746940844,0.648888643467878,1.6844009509075557,1.200784280301309,0.6614233532271484,0.9492239241992344
352,2.5506276058774255,-0.5371175373078914,-0.2193022878459662,1.3281029622452443,1.3279843800509519,0.8762650706788386,4.930680419387398,5.4336831140033155,2.2465981237105126,1.6054367956327014,0.648888643467878,1.8517925993435347,1.9233712233674143,1.2815154098867139,0.9386993980942149
353,1.734688152720009,-0.22333519554313513,-0.21655412656993445,1.0509635513068163,1.0459460427419043,0.7357729184375333,3.8072238430944663,4.71733978887384,1.243037381792102,0.8238823724566178,0.648888643467878,1.6360671212392262,1.0321215464378533,0.7555952126578716,0.933423121679935
354,1.7231576533010236,-0.22285700200233094,-0.26491707520866414,0.8088098813505735,0.7914644614096491,0.6290016005812585,4.395356749035023,3.670178461017797,1.7431141579561795,1.342750069077716,0.6233814453054027,1.4699175451295694,1.4546316645681818,1.0696484039194105,0.9110022963932686
355,2.1556539886425687,-0.4163722032026119,-0.5184432552976819,1.5365611480348584,1.5143040696511345,0.7234161137416523,2.2869534115468735,1.1971822108986778,0.8785016928814965,0.54472531403197,0.6602640781246099,1.7234779618116496,0.7698641667974525,0.3936353962190472,0.9399158312539236
356,2.5230070888084013,-0.6864875237701318,-0.5155442982998606,1.5163264065561237,1.518968248703331,0.6913055280615644,2.8137280398993862,2.210550100705773,2.213842337408712,1.0029185767039248,0.6619902821573977,1.952867629622812,1.823265655112685,0.7196843643252308,0.9594575858504455
357,2.578124804192273,-0.3085197601868044,-0.595669902473168,1.10333500644641,1.089083331190804,0.6712906551781158,3.265804354699012,3.8575467563997043,1.905451356666821,4.1829545682558615,0.6309483474627791,2.0476845100666443,1.7510098100544986,3.1900300213946613,0.9462197136983921
358,2.1177988793267737,-0.2252345589570841,-0.2741352587074918,1.0829962421754877,1.099491946794268,0.7855303539187797,3.331687766678291,3.3809098874183543,1.85912725387303,1.4971589062271988,0.6207552362147116,1.8054527963600575,1.6334464524861092,1.3687952012533986,0.9508162626225999
359,2.0488273498018876,-0.2106497713532105,-0.32127560597479,1.1336875152447388,1.1292376712021255,0.6968039560006086,3.398035857399851,3.202285775271306,1.6570465305216575,1.4789411828713068,0.6180765742263259,1.761424269431982,1.4118410441841664,1.250509670438119,0.9545759723020638
360,1.5544848104339124,0.028178521357227204,-0.2620259451983844,0.7038471542810267,0.6871220178036082,0.5879121034958064,2.773943805807621,3.3873474755114583,1.4614417044800514,1.568760397833247,0.6528756675646988,1.550540271186615,1.1660462609378817,1.04653765563134,0.9546890131664602
361,1.3369140342498014,-0.34111915929514847,-0.14794960347753067,0.7925091187422627,0.7848577011362771,0.6690059064979447,2.2939317648613353,1.6539946400028844,0.6176889315590416,0.37600762392523956,0.6584896970785714,1.1367988700533505,0.5347508806666725,0.2967082619991979,0.920214409367497
362,0.8944167519997889,0.022861494290295714,-0.1247689176916949,0.6160229877573253,0.6002754359370732,0.5946573732682812,2.1034367703676504,1.7490066525222083,0.7194106731228057,0.4642925752392961,0.6619902821573977,0.9896980948109857,0.5624147510038452,0.31998937609576245,0.9453127932085847
363,1.300974878308294,-0.39908983415389787,-0.13518530803596132,0.8026826958004823,0.798665568581828,0.5760198870354839,2.5864938232173045,2.451746846789836,0.6463508181753759,0.7005843537085193,0.6309483474627791,1.0548187136696945,0.5265177686535313,0.4722207452005808,0.9384169843905852
364,1.41203935331537,-0.21231028741669022,-0.18204641457416917,1.267690450577125,1.2598276111620152,0.8263178147257718,3.6533093805602266,4.637448087621087,1.4931230374779847,1.8499961889646706,0.62595550513784,1.742969305058623,1.2514305232615894,0.875735084405681,0.9391083047557549
365,1.0790412499806374,-0.0024812259038029527,-0.17148705736032477,0.8665301920550383,0.836158497779608,0.7088586938709082,3.3869110810729612,3.0724335602430743,1.4732978540529293,1.4605818716835364,0.6180765742263259,1.6634835289994878,1.2633447659072918,0.9941233412656676,0.9382526683455933
366,1.8304448986265884,-0.21689471512876257,-0.4669911119859069,1.1552802194201852,1.1515242191996766,0.7252934066860247,3.163740737323371,4.187361670738157,1.960081309620011,2.3009482211800285,0.6403206450210053,1.849953713472781,1.7367703559322774,1.9831104327414038,0.9423142987615791
367,1.9295505058815414,-0.2540686987543379,-0.3879222799805024,1.2451202642992651,1.2173815123394365,0.7494291106202189,2.8582626997917084,3.4142507601936303,1.8589457499298556,1.9511996280899748,0.6403206450210053,1.646505389908552,1.6318845624920564,1.675549998019102,0.9525562433721826
368,1.4513657490239087,-0.02178506707829564,-0.14548758650080973,0.5136298859710372,0.5122676145190405,0.5198308928909251,2.5343414462606764,2.615213462928258,1.2890187271543607,1.8779978869221117,0.6333676938231112,1.2715777505380392,1.0498504302574863,1.3958507478401088,0.9430794899061853
369,2.0623216211565696,-0.3534535733066164,-0.3082255079906291,0.7866797086609931,0.7722746496715321,0.6675368806681258,2.4482790080804677,2.215600538452326,1.5075939383121086,1.6085618669495252,0.6309483474627791,1.525760791607433,1.3614160753922127,1.2619759317174502,0.9506525575609348
370,1.3151353848798775,-0.23761977616889163,-0.29092445105502124,0.9222356034458559,0.9171235842411092,0.6679663027110889,2.056434709131705,1.3802764159075824,0.5223258609787719,0.46979359557785655,0.6584896970785714,1.0981457308564673,0.40388376430250655,0.29521163763831976,0.9509581378438783
371,2.212144349176965,-0.05998092419409007,-0.6274021711105486,1.0494175706584348,1.0108500591496836,0.6744618541828719,2.6244256891874973,2.436518028309905,1.9856533816582547,2.2569154833979317,0.6468212168108125,1.8993446799079925,1.8101910991316046,1.4403615823901665,0.9532606085001634
372,1.1901277363226517,-0.05113890008131705,-0.24748789230736362,1.084012322894045,1.0525664880833292,0.7058572725818798,2.29578731536136,2.038901225000654,0.9408707372672731,0.9514261232945479,0.6468212168108125,1.1448656731855718,0.7328148585501227,0.5456921059350334,0.9561199900728581
373,1.0841878630774386,-0.18354336837784785,-0.08248431327951361,0.8952956613078986,0.8966699219406578,0.6394614217214942,2.4980350015633577,2.33258619988143,0.72757332478833,0.6069554199228877,0.6652988471865258,0.8902440229360543,0.5276098070916022,0.38348470564739273,0.9482261354507212
374,1.928513065794326,-0.7311761065671454,-0.07941206282622892,1.0858314348652511,1.074574872174277,0.7011222839972758,2.8212840869036513,2.7432670138849717,0.9371310221623512,0.8686567005036286,0.6566669596287297,1.365577119531169,0.7551494868323254,0.5457019200478963,0.953821830659032
375,1.3969919340135208,-0.05138771834957456,-0.1637168871868745,0.9122361570170904,0.8979882719535968,0.6391090685663481,2.3888530442712455,2.0313651336972174,0.9619702644732468,0.9696510712375208,0.6380535849069913,1.2713796326572526,0.7789778688694143,0.6497245299263662,0.9245827652112223
376,0.9847176345991593,-0.0990953843974684,0.023044730822342097,0.9534530075362097,0.9519212334800286,0.6598550230079957,2.026344911032753,1.6926763617265954,0.7544041471546766,0.7561955514169981,0.6207552362147116,0.961462450520876,0.5869848939913387,0.5391159786144862,0.949868561205077
377,1.0807655756137942,-0.07368138537972735,-0.03714713292735977,0.9322946302146624,0.9329206400266519,0.6892626693228957,2.263422190200458,1.883845054753519,0.6343528894769753,0.7201729540075252,0.6180765742263259,1.0322941020749523,0.5064265006448957,0.4940918383659845,0.9537744947154053
378,1.2602472486101297,-0.040750187932082405,-0.09824994469006865,0.6091584531515074,0.5960116751824739,0.48632756118099,1.6470864009251176,1.2309178019351232,0.7071783802234948,0.5417450096721221,0.6468212168108125,0.9228958309262909,0.5523511841821062,0.39382555722232815,0.9539596648480171
379,0.7911188258851897,0.2028078879408861,0.00015013561315202484,0.30752023096499176,0.30962659537890913,0.2270706641086296,1.2916957927542223,1.281874021624141,0.4179552259826001,0.38738965185311525,0.6528756675646988,0.5538877798966599,0.3427909746621471,0.29888506018575317,0.9606307896376575
380,2.570668567927432,-0.533128082583578,-0.20657419139101696,1.0142871563798312,1.0100529445242834,0.6459653044992132,1.4866145207516945,1.4856529285670181,1.58253409645565,1.1563745064625477,0.5978297680564633,1.944755260640183,1.4464917901688044,0.8248885684670356,0.9243506605264226
381,2.409136108985233,-0.41710459327809446,-0.16994595548096783,1.2303069676302305,1.21728712068476,0.7741998281668181,1.4256973385214877,1.8218233798912644,2.0282176680948547,1.8361342253939066,0.5947193981915972,2.096113075967808,1.9268414901676199,1.7321212029083237,0.9208137689418647
382,0.7337579230151273,-0.040110962812790286,-0.03815654897548996,1.6605722584371334,1.6254135832504863,0.9227397959936746,1.7391862151711552,2.431957908450787,3.219105518502643,,0.6447042257417027,2.5577641220913914,2.7539762647887858,inf,0.9076100897892165
383,0.25995827784676273,-0.00866385429677391,5.273470398746774e-05,1.5851502382449143,1.5562018364718264,0.8923014715179971,1.6988205502965488,1.5775304131699515,1.773727489298118,,0.62595550513784,2.3199573427185163,1.7770574480594632,7.310550158534423,0.9162197913375106
384,0.6187825134179825,-0.05201795569384038,-0.008080382564884905,1.3521609242361574,1.3646220290590785,0.7815020636173288,2.0766344492081514,1.5605977223287102,1.9462414386631086,0.694972207612741,0.5783247308855777,2.3830723439067323,1.5663064480651827,1.043089198168892,0.928536838959868
385,0.37664736854023695,0.010168663017811892,-0.0035505724254378465,1.3617283232464756,1.329806150417308,0.8082163104935479,2.262754739804294,2.945434245894203,2.194223903674173,2.312057778469083,0.5915533975974677,2.3661167138185135,1.904169798233503,1.3815362236734738,0.9266711309937278
386,1.5398543303474126,-0.25926630038684384,-0.08330831006707737,0.9130210231870187,0.9160996232387676,0.6610250904271565,2.8584411727416867,2.592395336518577,1.3859072062991897,1.186255156304681,0.6233814453054027,1.548238292562044,1.0648048049618315,0.7001434068155667,0.9581297470037697
387,3.408976418885888,-0.6468917224229808,-0.11444634446153422,1.521777730269148,1.5211032341488888,0.8276231620335702,2.7002414321420076,3.61236158254788,2.5492263969963007,,0.648888643467878,2.4580699958344407,2.5542333553625123,inf,0.9265115271890207
388,1.93833242261129,-0.1964451310260634,-0.10076584044100104,0.8092592771271324,0.8173487329858966,0.5402900642125597,3.082656293618691,3.9469593450606926,2.559906878271238,,0.663668482632973,2.3517753371848173,2.000476768787833,inf,0.9391460728808672
389,2.0760611057294915,-0.039461044673612,-0.31110075150734606,1.039379293695005,1.0272355809312765,0.6698154932465932,1.863753012863246,1.3938040858558995,1.0239531408097926,0.9545848039046544,0.6447042257417027,1.5663252102558012,0.9011345259284784,0.8257805039727835,0.9471883470451842
390,2.6515447970831154,-0.43678762854505515,-0.41578419107240383,0.7320992102885115,0.7347101291311505,0.40019677674462245,1.3031405995989884,1.3349947204542427,0.9173405080345077,1.0512648081233893,0.6309483474627791,1.5234641105764641,0.8010258178056314,0.7359586598915866,0.9445101572691917
391,0.6963741272481142,-0.04677021718266493,-0.022867195542146484,1.711934394629241,1.691192447552113,0.9332762075270863,2.447335467901559,2.7720609394463427,5.317809281750392,,0.6309483474627791,2.5865703035645007,2.771261190515944,inf,0.9083171889276971
392,1.4363102206842153,-0.11971280218292227,-0.016701855229393617,1.7292011547500254,1.703195568290599,0.9091770826255257,2.969688933636352,5.1675913499706905,8.020309052321952,,0.6403206450210053,2.6874309138994743,7.333839674293037,0.6931471805599453,0.9088980296070308
393,3.2156895180418914,-0.6329809925672087,-0.22205288176039606,0.5944949993137738,0.5812797208935937,0.4910406531432099,2.0000073187873313,2.336159647126189,2.2120661282500262,1.1144102516839889,0.6380535849069913,2.3875379840597266,2.2011028999771542,1.1353442979368398,0.9484096985621577
394,2.1768972343783166,-0.1250661026516955,-0.6630033943773975,0.6573481798971658,0.6510900918576752,0.487695877890409,2.2992385410866456,2.3420568135152426,1.1666549727206217,0.9666718419505397,0.6180765742263259,1.5180242029088986,0.9186003482610532,0.7122589018782138,0.9532803510220292
395,1.8969934402867188,-0.4461904015353856,-0.32685555864856763,0.2793352849901255,0.2786116652264939,0.43801390909201754,1.1743878876765161,1.038760224282931,0.7648138573180158,0.7710185499339294,0.6097226960127671,1.2052328571183821,0.5040867798364148,0.41075873120476863,0.9530450182456166
396,2.621742245616935,-0.5605935095126391,-0.2364814398401036,1.1771189303264582,1.1824690944767933,0.6778708247910815,0.9132838950337953,1.0858013275397855,1.4976025533902657,1.5345977456931026,0.6357360191111145,1.988666884350428,1.2583798174844691,1.161095779969544,0.9431813392762984
397,0.8156828513911683,-0.08049508630800284,-0.03994616162622858,1.1539034985266743,1.132004828750124,0.7047538141697913,0.8032150033807196,1.02967977854709,1.9955699018730197,3.6200620678948114,0.6547956803312163,1.9943653693247168,1.6370841028889433,2.234851931940316,0.889346412036295
398,0.5469331232093408,-0.037457279110059145,-0.04387028483102404,1.1740803843213252,1.1532488815100408,0.8065516629388945,1.0301965995371598,1.3262105830233812,2.2603089510709236,2.5218152814448707,0.6153451465759925,2.1577154442415067,1.8173656971537762,1.9476868744264642,0.9036500602835483
399,1.0262443581983536,-0.08683139582163692,-0.0431595562168212,1.5114552607154825,1.4999687180283001,0.9073040958459397,0.7331619624935917,1.063392419495321,2.995611871569121,,0.5883313578629602,2.4651040224918206,2.9635751619194597,inf,0.8209456494969393
400,0.12322668002312469,-0.015541807961536067,-0.003627339144756521,0.9721147709852187,0.9636107754281433,0.6049453819566576,0.8759965156864097,1.313216617425548,2.408901461939117,6.007829646268414,0.6207552362147116,1.8788435761351685,2.2022557593369116,1.9148195619852824,0.8828820907287505
401,1.6867194433733868,-0.2482517825392529,-0.21980879388056274,0.541918578588181,0.529960260744659,0.5144978095895905,0.8556513916840917,1.1667672666981366,2.0083767905768912,1.9852753421279963,0.663668482632973,1.6967523656497203,1.8440902985259533,1.6052306008156862,0.9019857700940751
402,1.90806005704799,-0.3741230031816862,-0.15432757630535532,1.127363617857608,1.1204909516476145,0.6874425768509638,0.9108761967186597,1.3355662800475585,2.202763612171323,7.218781299011731,0.6584896970785714,1.9726420618277554,2.0653221669582376,4.278558267168093,0.8807548067622853
403,1.6988565370715203,-0.22655701664733452,-0.0792371600255391,1.1367784240551255,1.1283612282366575,0.7007355294775043,0.9405948104656883,1.3940196226392634,2.3064893997935534,,0.6584896970785714,2.353878387381596,2.1743307574703667,inf,0.8996852599681764
404,0.8978550197965112,-0.10000416361027126,-0.08279310291786,0.902087963013435,0.8937449630255043,0.556947775121753,0.9311063686916622,1.3804704306403979,3.1283393900149297,,0.6652988471865258,1.9680989543444622,2.719245839832645,3.629177701776979,0.894702062412344
405,0.8534884388835922,-0.0893087834013643,-0.11125536696712567,0.8267921173060717,0.8151445604037115,0.48533245585900786,0.8875445451603904,1.223696616807904,1.4508065032330677,1.6951110587945515,0.6333676938231112,1.6787879905688936,1.209585764664598,1.5494005241773208,0.9090722032599714
406,1.9894822691118423,-0.43519167957103266,-0.2629951588765417,0.5252538342741142,0.5290676161952126,0.4987153740874005,1.0032887592328383,1.179346035219247,1.2092028117458824,0.952341725056255,0.6008849035917525,1.5086377795326056,1.0474068980887343,0.870812450821393,0.9622211446759237
407,2.9166093221510008,-0.712354917556964,-0.3611002454660438,1.2267250289635696,1.2264328459843539,0.7888690306138031,0.9284594719015823,1.288004904854041,2.1990973306366977,2.1280040465843215,0.6207552362147116,1.896601600751638,1.8751764871651802,1.3800368196422172,0.9005879935531459
408,1.1375673147864729,-0.05738815571539163,-0.13969853544152924,1.1851586232150404,1.173971164719911,0.772225897523877,1.1165481292021067,1.3505976279877967,1.868214957136357,2.4313751763333373,0.6425374456860184,1.776476845696898,1.6243872581751369,1.704081869695462,0.9278819626428173
409,1.8055838678561862,-0.32544636669171756,-0.1517829714920996,1.1607479003166927,1.1350933503701828,0.7797865997474159,0.9321145284266046,1.1619764744184042,2.545201636065408,6.834915302707028,0.6333676938231112,2.014070034238373,2.240443280136549,4.513994305322221,0.9340325274413378
410,1.3276508312617479,0.31619562190048245,-0.3910171828868956,0.2995334833849547,0.304902185399082,0.2303533560930189,1.0076417000529092,1.1071705036830912,0.8743248669982893,0.9466581889934418,0.6309483474627791,0.9086257386897824,0.6832997486596869,0.602702464139484,0.9810832837602592
411,2.024893548518035,-0.3012774187586541,-0.20656021421377557,0.826707899399788,0.8211587552655063,0.621841294151421,1.2574302566433855,1.1472166583770458,1.0017713459112874,0.9385824272538233,0.6566669596287297,1.5760568665684385,0.8433117617489071,0.7112928397279993,0.9345914515304544
412,1.8495360035969162,-0.347552598506754,-0.3290069723617491,0.621511658854183,0.6095289033192325,0.5151849907818898,1.4342138996766445,1.4083034725113337,0.9579784650560712,0.9635365427081395,0.6333676938231112,1.1585746298407924,0.7368431009982498,0.5017222716921796,0.9589353147821386
413,3.2123896651942103,-1.2513177662458244,-0.47446240208185275,0.8184116052881006,0.8202279832037624,0.5137906006053322,1.13823931194761,1.2789100585570436,1.6752162949822806,1.3965349554975373,0.6180765742263259,1.7473598819313707,1.5479771090313075,1.3053985979575478,0.9273293675088472
