,acc+bvp_XAp0,acc+bvp_XAp1,acc+bvp_XAp2,acc+bvp_XCond1,acc+bvp_XCond2,acc+bvp_XDist,acc+bvp_XFuzz1,acc+bvp_XFuzz2,acc+bvp_XK2_1,acc+bvp_XK2_2,acc+bvp_XPermEn,acc+bvp_XSamp0,acc+bvp_XSamp1,acc+bvp_XSamp2,acc+bvp_XSpec
0,1.4100019629160312,-0.20631911840841477,-0.18436462643671375,0.8399473894841061,0.8261089849064288,0.6377874788145733,2.6527387179469106,2.821338445487905,1.0134531353582201,1.0823804075640506,0.6380535849069913,1.2731641081977036,0.8237627478231518,0.7285939295556929,0.9529160058570376
1,1.6015034214574075,-0.3132740102277347,-0.26035394442369286,0.7150033285677774,0.6913355076315686,0.6556491937834386,2.9404977353002293,2.6773771539653914,1.1874658987621964,1.1943360682709432,0.6380535849069913,1.4225434937950117,0.993085880508244,0.8788084707873661,0.9511047755431334
2,2.162722498345815,-0.5069208572328008,-0.34869252590135635,1.2494866163931897,1.252580379571504,0.8039679356988101,3.3748057184262357,3.020979974446488,1.536663054100436,1.5791867155911323,0.6668815377411301,1.732987542984821,1.3490290991661826,0.9188375769837583,0.9473118816610032
3,1.9952352774108775,-0.4837680336628243,-0.32438030378481153,0.9862623877988224,0.980879020012874,0.6522693596170243,2.9976945823002366,2.712959887516255,1.3894299586446202,1.551047787520537,0.5883313578629602,1.6196004880318131,1.1781920885712585,1.2721846291707348,0.9408479090749956
4,1.584494783319393,-0.3829536433147172,-0.24827326036257188,1.0336971161060389,1.0261734844357655,0.7760412673128871,3.569161845222166,2.760533316736327,1.1112410291709174,1.0282500047621426,0.62595550513784,1.5562131511968027,1.0206625993546015,0.8561563546307698,0.9243838266184984
5,1.251453505634023,-0.030186618953570776,-0.31992784713029115,0.5808811031857561,0.5658453071515112,0.5231956125985154,3.1972248108306522,3.0805600920837835,1.1027941122686395,1.0786424342339804,0.6333676938231112,1.2375295878547787,0.9532160233837316,0.793058091450207,0.9024935493277224
6,1.2492909037804882,-0.1885775333242275,-0.12231380805381808,1.3016057848320284,1.276826703594157,0.7993570190897353,3.856074537075875,4.035278330513455,0.968781147405132,1.2040528399029458,0.6566669596287297,1.3630988035167018,0.8488334026917919,0.8341581266870916,0.9350090843286324
7,1.5625085696942547,-0.21348501466527392,-0.392106559528797,1.1012116662239715,1.0804645798515187,0.7262604177341458,3.6232468301481253,3.747017222535205,1.3954726510939222,1.1061242404167264,0.6447042257417027,1.5550023379615645,1.244615056666136,0.9740939950029334,0.936445962399299
8,1.1546532036958805,-0.125471276558889,-0.1182975882875068,1.0526442537230851,1.0470407061584721,0.7173311115349446,3.766343555840195,3.9521698988799443,1.2281327486825024,1.2436742205227296,0.6468212168108125,1.6111616193859484,1.0438218607795695,0.820937447692574,0.9321877251371713
9,1.1888919964494387,-0.16734683785886312,-0.14454215308327573,0.9936683256433196,0.9839482149087415,0.7537287296690287,3.4572831910700264,2.8654266781940856,1.032367196330402,1.0871117014346172,0.6284777104787076,1.39428173095339,0.8765893865511281,0.8240678061329212,0.9366120342274471
10,2.1156720049935576,-0.5981032442769383,-0.17047233087722433,1.2691475318958731,1.2829657544355733,0.825332698624884,3.9356690696515115,3.52286430733336,1.491560626543988,1.0868440014202938,0.6528756675646988,1.85448629913636,1.1934753793345756,0.6360407985634967,0.8969991181085698
11,1.3000095150963604,-0.1517519900843015,-0.18064811916968324,1.179391686858345,1.1401163782575767,0.795576661807597,4.2823490114639675,4.616818667345469,1.549921527232567,1.7146703606417444,0.6447042257417027,1.66812690878278,1.3651918584333178,1.4044555121947147,0.9364992399535148
12,1.4849700014364884,-0.3738015283919809,-0.1444528696382243,1.0625536177288655,1.052619401306627,0.7379855390734176,3.6291919198045797,2.7990364505796905,1.2208691396215046,0.9766584392165801,0.6684167106117298,1.5599072817369446,1.0519240616247225,0.6949653628790039,0.9146514753498399
13,1.644754042772568,-0.17171963099151788,-0.3525663291305934,0.666977163497844,0.6638068330323235,0.54986256220175,2.8124982299969292,2.3236439033141414,1.1097484897499923,0.8273982341384345,0.6547956803312163,1.452006904485272,0.9893295306013536,0.7135218376581314,0.9569459318913761
14,1.9232929515114268,-0.30194434501063283,-0.2486091824505708,1.069803964765694,1.0589650910842898,0.7106924854213943,3.6517686994576732,3.3517128471101745,1.8090615257114095,1.877507862155417,0.6509067234006624,1.585124775629596,1.620505822488584,1.4450019619466685,0.954819604247727
15,1.1460012907987052,-0.07650749554973829,-0.059531851194957686,1.0185589149254628,1.0087553523962531,0.7280038264358607,3.3104997079626277,2.7906049741659364,1.2025154677677141,1.002106285631894,0.648888643467878,1.4432645573797616,1.0088522695852478,0.7664812586985175,0.9360666843540273
16,1.2145402449631082,-0.05346107235256159,-0.1684696174827311,0.8347831615408307,0.8152820033120399,0.6505485969962198,3.2684709136655403,2.8062438025046545,1.1101332358180946,1.1450890340422415,0.6528756675646988,1.3213392600971032,0.924760485021253,0.8981325367540789,0.9473603011894519
17,1.459261759168324,-0.4117692323407944,-0.12625491647775747,1.2761839377009585,1.2633147001764007,0.8576146120578375,3.6607625057592545,3.466631688337657,0.9447003461746659,0.7084762197473985,0.5978297680564633,1.5928539671671198,0.7789621209011437,0.40898403339861017,0.8201305547713732
18,1.468123183467171,-0.22266303629662154,-0.21125446409367504,1.0514049020872986,0.9806801203935265,0.7989088649056663,4.061556606709393,4.025722464873693,1.5326702659498197,1.5132352230856307,0.648888643467878,2.002645123146763,1.2984053099104538,0.9203702117328603,0.7786456644221412
19,1.4142940147202632,-0.2341238205539975,-0.14529795656062494,1.2156492074087806,1.2066169561999973,0.8571576071909199,3.5559963303916438,3.5080390630476392,1.3498162400407518,1.3947654434429657,0.6097226960127671,1.6807549111851436,1.1587336363964513,1.0669942774709358,0.8764360032195945
20,2.0410857044545505,-0.6094144535884302,-0.1330129962518588,1.438506973106605,1.422559121351687,0.8885635474705572,3.743459338059115,2.637953060154307,1.3114855694078575,0.8324581067940808,0.6566669596287297,1.796102218662192,1.1350915337542278,0.6579409248253258,0.9306769218089831
21,1.2865476405506193,-0.2554533231461068,-0.09321119252943572,1.0227979349858558,1.0103288462204234,0.7255466219392226,3.2850067735696467,2.8358139994627325,1.0256156136047487,0.8288723964945899,0.6309483474627791,1.3777531634427798,0.8637368301914551,0.6096610511086487,0.9428737986815897
22,1.4117339199947005,-0.18630442831103822,-0.23806402133321047,0.8967401983813909,0.8614041775903493,0.6207932655813413,3.0605844622284395,2.9693940404698154,1.28848894116193,1.3232928338450696,0.6425374456860184,1.485991929229889,1.082876207738984,1.0389434940562814,0.8962150634593282
23,1.6532109685119372,-0.366871808495262,-0.2565978552034993,0.9168374143275488,0.8893556208985502,0.6586299471796871,3.1171057678649166,2.8932135715474963,1.3759800020330322,1.410988317246886,0.6403206450210053,1.5441704903427182,1.1488269081331992,1.0012296619646142,0.929986725399606
24,1.5113927184916185,-0.28196467302767647,-0.19020816210757208,1.0997542436841525,1.0894257665016196,0.7298313903826935,2.879001383007843,2.487217518070774,1.2746769976181564,0.8872063468752941,0.6468212168108125,1.6062208704449776,1.059887962869061,0.6268322295782649,0.9530314209610302
25,1.80336924457258,-0.4543802613838722,-0.4002746128165118,0.9781914178922037,0.9381529880691483,0.6627440732948463,3.253794845502329,3.1733710267316226,1.9911526414934813,2.204038122732378,0.6403206450210053,1.920881549554432,1.702626397118041,1.5654568829481996,0.945501056611741
26,1.8398465964304525,-0.3951763868626714,-0.28042264899119623,1.023113961890874,0.9959260881426756,0.718874339578759,3.0879696024540904,3.3670776325235794,1.743801596862909,1.8977743159223281,0.6125606311107803,1.8692886717372927,1.5678813703836803,1.6195091904766896,0.9566860359705431
27,1.626800976137303,-0.32495340005944595,-0.2324662175417011,0.9958524047131904,0.9549361656374162,0.6837428976508593,3.1109668864488205,2.753017397884702,1.549979252915102,1.3276212076821656,0.6447042257417027,1.601855619694979,1.3830466220474191,1.173447650455615,0.9379718817290993
28,1.3723125886050733,-0.15640709205056402,-0.16909498993947147,0.8743690366210043,0.8611876443092283,0.6599359879415789,2.9419100403781937,2.40417174400544,1.2369267839201379,0.9159274060206839,0.6566669596287297,1.4358581577991303,0.9930463018735853,0.7604125629539408,0.9496676751172626
29,1.8306180878087235,-0.45293538606934525,-0.37328699015751743,0.9281850180282074,0.9107286408942122,0.6563161825466063,3.3886908289273,2.76752723656424,1.6373469203389974,1.4369655982720204,0.6699045166045591,1.839829892473138,1.362516630443852,1.1481814446975205,0.9383684633468368
30,1.7517882886368423,-0.3482871942791551,-0.370164996823111,1.192269407380784,1.1832764050314506,0.7572138531989161,3.414523545384585,2.9625847538405874,1.6942330639549024,1.3340825412664497,0.6357360191111145,1.9857488308896918,1.4759065198095778,1.096843315979675,0.9350023390654411
31,2.029848797905162,-0.4291187629000457,-0.31248921330423696,1.0434964267486366,1.0449863004380986,0.6764094344236099,3.4655109575186436,3.947376138862386,1.9228174301563583,2.098775662275148,0.6333676938231112,1.9880988177902137,1.7406771333230349,1.7598951439260069,0.9481408053879675
32,1.693342569462979,-0.19633518874611866,-0.29085593221033995,1.008434763622721,0.9792990670428785,0.759078097590028,3.149243100098468,3.681502730782319,1.7242957712795777,1.7463774441842634,0.6566669596287297,1.7707810628428633,1.5636926867763838,1.3760569520266706,0.9560218485772135
33,1.6495484820920399,-0.1471133939118674,-0.32531344532080186,1.2311426911861232,1.2113029144506893,0.8055352566153422,3.30709843331312,3.2044272920128334,1.4303378466284637,1.1702916874469882,0.6333676938231112,1.5246373107416353,1.2231937603724194,0.9553727102880352,0.9495758667956681
34,2.3057641580526687,-0.1897315764697175,-0.564678686710688,0.9296962053039991,0.9003753249279062,0.5546094077609572,3.163950370817658,4.748088348721893,2.1661248181210837,4.617618831056288,0.6153451465759925,1.902393122731227,1.8631274237079176,3.8578547689549962,0.9486971817181958
35,1.5666557346298513,-0.29251648060921576,-0.28815654944260105,1.2866701726648326,1.2811368852318596,0.7686269047435919,3.344782093733975,2.698134186549914,1.1435566153414247,0.503829197586209,0.5947193981915972,1.6223543043673274,1.0161698340862726,0.4293010448396589,0.9533146296681227
36,1.691423964211461,-0.1799954873074181,-0.4066716675719027,0.977241785129345,0.9837929398898579,0.7505404863676923,3.597850452755846,4.187103313823618,1.8531879830742504,1.842784968163178,0.6509067234006624,1.8148916332851015,1.6295612570480111,1.4498819480669825,0.9363996995500072
37,1.3752714331739473,-0.06278815034833307,-0.19349681277861125,0.7177808525179238,0.6843991223995761,0.6011769968275007,2.9514877271224123,3.360794742320214,1.4562373752857423,1.9137004214539448,0.6425374456860184,1.4366991614463258,1.212610544633284,1.355803722414548,0.9425067316912706
38,1.8773616275136868,-0.38653704269096734,-0.38723129512505716,1.2213396990903511,1.208820207586589,0.8388927206759499,3.681759326294432,2.654107740366254,1.4152916975057737,0.7371972807167803,0.676637947632344,1.74838074592611,1.2863233828599745,0.6248322960939413,0.9088843477642934
39,1.829856775785908,-0.4186085105024384,-0.18955930184190684,1.324671741628193,1.3283503119712214,0.8468406600763941,4.113967367262476,3.043841616865598,1.7696715256817035,1.8722037839281827,0.6125606311107803,2.0061084728607694,1.5455242767330188,1.5226525715789234,0.9458265523685959
40,2.246181595105928,-0.5490934895087953,-0.30245633838377206,1.2203800409126413,1.2243578846755752,0.7877507369718066,3.9621213194219584,3.6943177553027104,1.9019880193791578,2.3926447247950713,0.6068309995095971,1.8631122660066308,1.6427051647856272,1.910282971412162,0.9460577039954315
41,2.6216680868151205,-0.717782100211944,-0.40832936237235623,1.2692886643088133,1.2637088031313108,0.8161742796242167,4.2368856166061875,3.27234689275516,2.0910821648146514,1.9302413053019891,0.6403206450210053,2.115368130866387,1.8191277304138174,1.532897835311766,0.9056040707296569
42,1.3751833749852893,-0.02090329385522882,-0.18142689451897365,0.8295678438034176,0.7941700017089098,0.7170049259319864,3.269261082128577,3.4181994973293115,1.5405390869058626,1.8514040356385617,0.6309483474627791,1.5970153924355432,1.2917576440969245,1.3641765558662717,0.8944755147932644
43,1.9090105853418462,-0.002093942388657899,-0.48617778513526777,1.0190957319178227,1.0018611469358663,0.6324452596616714,2.9216283296490575,3.030351070721845,2.1069397915325045,2.7770290917174094,0.6528756675646988,1.8467789956488283,1.9279004482684408,2.2953474256938153,0.9419038858001216
44,1.315327036548756,-0.16544469690388974,-0.16911518967661188,0.8649860108025573,0.8542379179215688,0.704461672080001,2.9492670045965155,2.4738642350818054,1.0673256576401962,0.7576054124934813,0.6153451465759925,1.3149871327869482,0.8972495646697748,0.5596411663916526,0.9454609778465437
45,1.7625806950629483,-0.25953484965874907,-0.3427580056610913,1.0122154364334068,1.0208155624922397,0.6801261283274493,3.6315809406374275,3.063888507502359,2.003895953658641,2.4154208037072795,0.6602640781246099,1.950989694798612,1.7294807697339485,1.90701155442748,0.9154930941081708
46,1.5746614753562576,-0.24896106162859832,-0.3098058364702438,0.9350793952870882,0.9225466798174662,0.7714130908697461,3.398974300531473,3.3075804825761397,1.3982785447211061,1.1466384680762207,0.6528756675646988,1.636238300378613,1.1885330004336028,0.8176487455640551,0.9346147978599163
47,1.7866992509811022,-0.3967282182242533,-0.21782178714622785,1.090204441335211,1.0905298617085226,0.6281944898691662,3.451786001450584,3.0275591952297196,1.4475768781248184,1.4050544933236182,0.6447042257417027,1.7160955653070655,1.2743175467693255,0.964169507770551,0.9337873539424066
48,2.166832514705443,-0.38395171397430283,-0.2278563092806638,1.2129182100856197,1.2029098044764468,0.8104751938650978,3.5827011471586534,2.8923796455353434,2.076624747806266,1.8761231843803647,0.6153451465759925,1.977607235798568,1.676334166954088,1.25986970670806,0.9471584941807509
49,2.369228097450509,-0.533498673106565,-0.24105936487729251,1.0022198722255573,0.9702938184238845,0.7496973995945898,2.990336337605487,3.228641681153754,1.4742775204375413,1.4907887158416153,0.6180765742263259,1.6886013771254287,1.2051761739055686,1.0932084928706038,0.9472150614896445
50,2.2282038509217297,-0.49656550659912824,-0.3405217714704329,1.060691352481899,1.0562009477100427,0.7082890622917029,2.988783368958216,2.0832575966895215,1.5989550730230213,1.8672439048869833,0.62595550513784,1.5753585987812377,1.3756127812438566,1.2038311512341204,0.9559560486725027
51,1.441888094237121,-0.12921029237782966,-0.2827784652438914,0.9794631503547985,0.9232683302525215,0.5772641441257529,3.14432376298655,3.0441105519844305,1.542282408072644,1.3817733122037947,0.6584896970785714,1.4260983554596853,1.2361821113983358,0.9438931621628949,0.9385945620623561
52,1.4022656706702712,-0.05731939885100057,-0.3229665005246339,0.7913374329817471,0.7702911979520319,0.7035016928536554,2.9956212685185246,2.4354669878347806,1.2260631195271012,1.0726625460756172,0.6380535849069913,1.43017658893674,1.063569009518465,0.8261790630782143,0.9071894830261581
53,1.4436333774720087,-0.24589988116144323,-0.25160774949030024,1.0448700814558394,1.0359515074288543,0.6593649224590161,2.8976493978319326,2.6424570318868765,1.1051601826947546,0.9443951830826799,0.6447042257417027,1.3850063021352592,0.9330308954177081,0.7118265391617964,0.9233894520552132
54,2.324842907711,-0.27569774178403983,-0.4616202795427603,0.7434803658571787,0.7354783475721919,0.5666414526784306,2.1437968077461966,2.084734685445966,1.8634768041633758,1.721920099222,0.6380535849069913,1.9088927160429414,1.6714313315166496,1.3125282108802816,0.9480902646655776
55,1.7841750147670064,-0.502328524310511,-0.15882857162466796,0.8629144419202215,0.8395748028399261,0.5868873908668482,3.0903733280240906,2.415503993732393,0.8252893881381084,0.4373043035135801,0.6380535849069913,1.5335577020987823,0.7258614788305549,0.4200435633209603,0.9332815615476794
56,1.7712333600836292,-0.5256379484986853,-0.1134306715673805,0.9856272116997361,0.9526440528884049,0.7389064967266533,3.9786995671239653,3.1253210072083344,1.6008372378225073,1.2587721755011199,0.6207552362147116,1.8587543380523335,1.4175740615639527,1.0994952909329878,0.9391418776650762
57,2.2150538653613423,-0.5700002245449117,-0.26374260349519474,1.0067746442070575,0.9959552940421278,0.6856833785639045,3.915135839107415,3.6566865541337465,1.80821363574082,1.9014851246623934,0.663668482632973,1.8123704231321793,1.6714841922109853,1.8012175244548512,0.9485759711140735
58,1.0063957628753977,-0.0118882140716835,-0.04895577272607732,0.870834144379968,0.8722628077202379,0.6270361764726953,2.4442867769165924,2.040164531227809,0.8054078348045501,0.7257132894475579,0.6125606311107803,1.110010333620479,0.6509613154552583,0.5068900078599228,0.9365851257525507
59,1.6483959771082266,-0.2459988015058937,-0.224939525340823,0.8052252372366677,0.8150578997643131,0.5201898088532847,2.451306819180992,2.0651610959414395,1.1533119958214815,0.9968766226378679,0.6684167106117298,1.4009343378594057,1.026962057211815,0.6908827438142526,0.9365428205267929
60,1.2827866305087507,-0.15222643939456626,-0.08315344987569273,1.0060773272733226,0.9205991655622214,0.6913737454727961,2.8592358140742733,2.827767259007924,0.8098054414641116,0.9289001628610597,0.6403206450210053,1.1599204773965142,0.6435742480499618,0.5745325627144283,0.9081272812920561
61,1.659060451550673,-0.26671877967050883,-0.27689615832636805,1.3151248446225539,1.2946585352466158,0.8445004102246714,4.092959904612386,4.177228616710719,2.2304026102408563,3.3656912086425104,0.6547956803312163,1.809109107563168,1.7966554398402617,2.131919478928453,0.9218328452304462
62,1.8429211767571063,-0.400473283340279,-0.3934344877216959,1.0770775789956781,1.0795520129861513,0.6785614537167403,3.6715878653884086,3.5308875580434362,1.4034029331794056,1.4966897014935818,0.6509067234006624,1.6167982668403929,1.2426563884210502,1.16225921592575,0.8935154132825283
63,1.9177798544787497,-0.3672275094594738,-0.3467297010822861,1.2141955571387981,1.1704064365804747,0.7580474551027285,3.792169389072766,4.0732827800766405,1.9631185719679811,2.231694163695397,0.6668815377411301,1.7612949284242354,1.659085272654694,1.6863989535702288,0.9415510167941985
64,1.2246201131294279,-0.1349642721412534,-0.16581757841279376,1.0835364738936524,1.0566537339957096,0.6830455251207626,2.61074807258656,1.9024947143900781,0.8630102102755656,0.6340464306650828,0.6357360191111145,1.3256383672465444,0.7065803755054083,0.490182111463628,0.923905139022425
65,1.6100197728217334,0.40468957878336953,-0.0916945636358002,0.47293744624731227,0.43018383682130457,0.5609724992402348,1.715521195042549,1.8209950490041162,0.958003534759077,0.9873056828814323,0.5713653840954815,1.4279500363887232,0.7989093460771869,0.7190250853605133,0.9409953562614849
66,3.0598210897001814,-0.4217980216647613,-0.6161594206489893,1.3033861015734418,1.3034892242675538,0.8267325031701386,1.2822408975107593,1.530740520938452,1.57994049126066,4.202821428847392,0.6333676938231112,2.000507140258532,1.3178821302163084,2.409003069820494,0.8945259168863473
67,2.9270146641762596,-0.5681054713254228,-0.4087605829300021,1.5285804642976204,1.530308701596786,0.8421388572451898,1.3518466800826276,1.5452441975625284,3.526832860681589,2.7539123574225015,0.676637947632344,2.0689193171832954,3.1101346285379234,2.1854597357566328,0.8883740989135643
68,1.6434616375848021,-0.22214809881456757,-0.1186410443871962,1.3169001380555554,1.310021121673409,0.8472047912370245,1.3810448290715633,1.7607025515740964,2.021057492415474,1.9364851779585641,0.6380535849069913,2.089536771919302,1.8825901575785495,1.6333196444374878,0.9019646805899658
69,0.6801123195021177,-0.040765666475006984,-0.040218450299437825,1.3653581847147342,1.3304210516298844,0.8813621241729913,1.2714798378924295,1.6639414246610837,1.9073773172375958,2.6884899116020415,0.5947193981915972,2.0108280013891258,1.7441912552293557,2.0615587121830643,0.9060216077131208
70,0.7463293795834788,-0.05720583027326784,-0.03425220453268986,1.478243407808562,1.436417598710271,0.9011418750086052,1.2730252755866707,1.619773426496129,1.5597524024572627,1.7916862249451,0.5915533975974677,2.1131592022185517,1.3552469291370537,1.4839602546166746,0.8746801928732919
71,0.6397740822335953,-0.06300984303557207,-0.021016732506144453,1.4902205937731452,1.454464399124896,0.8605963673987572,1.4299303498590312,1.95554210169188,2.43833402005659,2.9092671313145644,0.6566669596287297,2.239923331869335,2.2120490090467704,1.3910722010736039,0.8870353407756991
72,0.48955479594512324,-0.03816951132851815,-0.015973035479982033,1.5245564001016165,1.5161758892703896,0.8808350919417982,1.3297744166906098,1.7024655900363295,1.9119344508439327,1.4380377832194013,0.6153451465759925,2.2634712231551455,1.8215832921598623,0.9981514716160831,0.8636685011298719
73,0.6165243632976205,-0.09510426336462609,-0.02438116958231101,1.4594648483163868,1.4655667871168958,0.9033776530727426,1.4700014432325712,1.7901830174026547,1.875582207221946,1.964289659681773,0.6357360191111145,1.801742467281457,1.648295079800172,1.27792821638639,0.8585667326407723
74,0.5641178557601947,-0.06492289223721887,-0.038253493241686844,1.3263246479339432,1.3125729312451386,0.8338510314619165,1.4491621475657126,2.055206160418312,1.7243251200021945,3.3637666668005513,0.6584896970785714,1.975361845921732,1.5536689072503083,2.2545166899530233,0.8840723031280171
75,1.0905265049102706,0.14981491052176077,-0.0670396246553846,0.28922259120732874,0.29051426249571005,0.24537788375743033,1.7064632746154158,1.5591675688908186,0.7492707139852529,0.7286697719624141,0.6425374456860184,0.747978891508867,0.5088088321251191,0.48307529980556707,0.9533740077052754
76,3.163507722924636,-0.8388357407679699,-0.48650783189556424,0.6085954224440339,0.6100319702064281,0.5165488506800577,2.4663751848769793,2.3317931498623907,2.9130494944505543,2.7357514540489785,0.6584896970785714,2.0565065703973398,2.446307608953224,2.7150960279354126,0.9360799530541376
77,2.502240757800888,-0.374120775440445,-0.05716479758617991,1.7694062574023386,1.7599198778744953,0.872837827258666,2.9632836034934713,4.578325090667192,3.2665100116909116,5.700410090978312,0.6357360191111145,2.427266870341586,3.2731878142219406,5.707110264748875,0.8822663569023989
78,1.3293702424843277,-0.024119105575381883,-0.09196485301583701,1.1133763640534275,1.0961516596339786,0.699810974037594,2.8298778936878026,2.611880570603278,0.9019162697398704,0.7822003593323488,0.6233814453054027,1.251142060654328,0.8289218969083145,0.6630954206531354,0.9387679808584797
79,2.199431725130598,-0.2951074345103085,-0.42612044771379076,0.7193078115750607,0.7123319119568761,0.6060541411723049,2.9763998087183046,3.423514779436741,1.756064399330691,2.6847213052337384,0.6357360191111145,1.7063771962858936,1.5349714844343658,1.7692866133759966,0.9527117114933457
80,2.329112809965338,-0.4672771320602932,-0.29355266674840924,0.8643589422127929,0.8508684996961656,0.6495536878568611,2.7149994937883,3.354813870409548,2.0175839043379735,1.4952585781454248,0.6357360191111145,1.8410897792499963,1.888611669384195,1.4068750688199112,0.9468338052778811
81,2.9214948132462517,-0.5197739791360261,-0.42710651480420603,0.572576458056807,0.5696959301702552,0.5039975285169961,2.1381167931209126,2.860035475774583,2.0471288357557795,4.961568723954063,0.62595550513784,2.1882648359647474,1.8440443353379006,4.484884020113589,0.9297493214843136
82,2.4908618446978465,0.07323967150918231,-0.5916779479491654,0.9136357198245966,0.9102659935272476,0.6404452702699255,1.5885768749254998,1.6479988384877235,1.3879775702482386,1.3988873902840055,0.648888643467878,1.8656213178265104,1.265548926622585,1.3381102208463471,0.9313539000487805
83,1.8269781701940764,-0.03981442524438361,-0.28423351423226817,0.37453890608529783,0.35801015074775383,0.3907578392640454,1.9955808102224042,2.0018949644423882,1.2716854795907193,1.3344193879926252,0.6284777104787076,1.5331972953501263,1.1614432188421662,1.121567388421559,0.9339671582548593
84,2.259783646261043,-0.1781464317613397,-0.3568515863786209,1.1646701790502072,1.164906018486871,0.8172006964908066,1.9638686595228052,1.6686167915347379,1.6496949266223944,1.5520318650959655,0.648888643467878,1.7515136406595284,1.4810667757097857,1.3759286708842917,0.947672139508586
85,1.6179394185260345,-0.010776042269134312,-0.16302337298200797,0.752320324088222,0.7276141068765495,0.4595415020153856,2.02958220106607,1.839605081956723,1.0414045885703802,0.9195010451444978,0.6509067234006624,1.1452497715194663,0.8470766948438936,0.6626570138021581,0.967936743397714
86,1.4062114362209936,-0.22717484532036047,-0.17194640520183463,0.8946508763197739,0.8917715233514057,0.6451553790968718,3.2358309024560654,2.604612372737013,1.0937717443050994,0.7361522236381881,0.6284777104787076,1.4695793563687067,0.9137338643307115,0.6308093446329216,0.8781348779869531
87,1.8147650389953722,-0.23495045134429737,-0.41040085000427917,1.4868272867864578,1.4501211493703396,0.9146990545323813,3.955423959971168,3.2052551343135685,1.738483455808545,1.1086205641082822,0.6097226960127671,1.95130243913267,1.547875350889689,0.9451971734198054,0.833353102360755
88,1.3326052645972049,-0.18343428601918998,-0.26387483213861274,0.9370540985642963,0.8903180072986111,0.685711802713948,3.676815376228176,3.5530870044807656,1.2142660152691833,0.9976770884061223,0.6547956803312163,1.4311987513637014,0.9503093060800131,0.6236013779228734,0.9135326747228611
89,1.7855053795613045,-0.39690966009121,-0.2816926174377265,0.43411623687065853,0.4362133616267799,0.4287923614814248,2.732460660045505,2.327441240784494,1.046864538240185,0.8657222508279323,0.6207552362147116,1.2224008212764101,0.8279566802502567,0.6237744813720824,0.9239102491772139
90,2.346442133318062,-0.5926264803289601,-0.5081804937630345,0.7518105966526439,0.7540899953372888,0.5343495396098981,3.0016360242467433,2.9879333891450846,1.4639527563041583,1.231052746286579,0.6547956803312163,1.4549539548167216,1.248274556006275,1.1900817856729955,0.9427392705135672
91,1.883879244250493,-0.44935072825810174,-0.32158837903036763,0.6778058807483474,0.6536970792368761,0.5858062610471907,3.8600719222694084,4.898717495457266,1.6649479275459134,2.371415856433356,0.6668815377411301,1.6180302768523054,1.436980302985506,1.3377400181990458,0.9404902545537589
92,1.29680625190467,-0.21265248907414225,-0.15548539348533097,1.1075603701805898,1.0870371175459257,0.7644018779907689,3.1778620522166046,2.456674695007347,0.9926090329103009,0.7811580115936404,0.6509067234006624,1.339962241924307,0.8255698886794227,0.5838610340328629,0.9009957918437222
93,1.0420048217936688,-0.07184158579437089,-0.06808927611945781,1.0586091503547412,1.0436639901485898,0.7444309003751615,3.144188829066887,2.45772353712822,1.1959865929950215,1.0608243666357262,0.6652988471865258,1.3245931948024798,1.0212474068625232,0.8187048786581504,0.9368309947824193
94,0.6499244494151023,-0.021073960141515913,-0.06243522817927327,0.8153474937615177,0.7843545850750729,0.5864508095299787,2.307272541596056,1.9947010830789496,0.49288611425030127,0.4181624509405939,0.585052858160615,0.8700700034454529,0.41877505328794756,0.2995382890961301,0.9459000314067435
95,0.7321725518931319,-0.09938818892912166,-0.00020329307185817935,0.6829295952050055,0.6466386993474106,0.49007209279214897,2.008019595035037,2.1794573369674297,0.464871773460104,0.6135931359971473,0.6380535849069913,0.7151655942319495,0.32297894766907065,0.29952898155367413,0.9422346561861691
96,1.234493666191423,-0.20331254947726268,-0.13117851583484524,0.8792102435782453,0.8748588297354281,0.6132563970023598,3.28008891381901,2.9041258995968735,0.868079950079092,0.799847336453825,0.6207552362147116,1.1633286033878008,0.7308327994583352,0.6927041472513623,0.9312761518588714
97,1.1277883437504692,-0.24166706704659874,-0.07878150008744361,0.8038787095512888,0.8015609703111416,0.5751994471540078,2.615460361451293,2.1873171525803317,0.7945902511410022,0.7627644482222952,0.6309483474627791,1.144342140374284,0.659152585072192,0.5273755367596616,0.9488667733469872
98,1.2688309957725539,-0.1373332164228892,-0.13173715044604173,0.9003699839953089,0.8863034205696154,0.7387535928382024,3.195163722661164,2.6136507521958343,1.0702094006619494,1.2873368966899275,0.6125606311107803,1.329578020288459,0.8786063972841023,0.8416521149746303,0.9473779345796027
99,1.2551400371796682,-0.1902661312013848,-0.21544290124326174,0.8371643046238073,0.8312915184067208,0.6554150219507675,3.5691597690950054,4.371235486542959,1.4063063757576275,1.4317506669436884,0.6180765742263259,1.5016802721765525,1.1637894813905392,1.1209000329354657,0.9471176305269249
100,1.1706243890435852,-0.14835983815576587,-0.10640489141252107,0.8709639031233669,0.8582728983776183,0.6541776960451654,3.7205546836525927,2.740677449675033,1.1228066634476952,1.3285898592671053,0.675384900321601,1.5409488715521789,0.9460933903662432,1.0213692040508828,0.950182202613113
101,0.7324579405069536,-0.06355281426774334,-0.09250003909874696,1.126124689968777,1.1096983892176548,0.6640834966916974,3.090723568218318,2.683428899028883,0.9334177204487784,0.8500253658721987,0.6584896970785714,1.2136864965135752,0.7677011580242075,0.6172104130033477,0.8903505627823842
102,1.2949765129148432,-0.08964213001476401,-0.22141026986382578,0.9641650035654249,0.9594830795641239,0.6909504304380574,3.923169471976352,4.259473325379156,1.5342643718906568,1.7188099099162906,0.6566669596287297,1.4652894695690137,1.3246941142958826,1.1159469075640924,0.9481119366393118
103,1.4298902087282435,-0.1540523369477665,-0.20171377711249275,0.9156996409297422,0.8888050628562282,0.6825655591362473,3.6490899406908914,3.83383283923021,1.848273530736619,1.8767935594035523,0.6380535849069913,1.6801584659807742,1.6220989678264774,1.7167461099595205,0.9492563179666932
104,1.4290940418744438,-0.15319883178962623,-0.208734147056733,1.1048494685562296,1.0954837698610311,0.7958105971633417,3.460270987222513,3.984687964039465,1.4737271033555897,1.2661016884618113,0.5915533975974677,1.5469327070827033,1.3293389264346798,1.0296588579116057,0.9480577333075665
105,0.8011012695223725,-0.029014043177058635,-0.05180207979094481,0.7454891320583712,0.7224652938947732,0.5943430306868537,2.44351902319014,1.8823572921823266,0.7776087692166606,0.5929848800082476,0.6468212168108125,1.0396517958446003,0.6353325529103744,0.5015556373884121,0.9245580567204381
106,1.3342068945127277,-0.04586017191469949,-0.20227235659480297,0.5996830967053572,0.5951455028419911,0.4451124604235621,2.8556594734842053,2.1974295527091847,1.1430090339416739,1.182055392641631,0.6153451465759925,1.3706397585465575,1.019077930905113,0.9900444114904199,0.9359889866699252
107,1.2498358625975572,-0.2821157066211222,-0.2182166834612735,0.7396273067707979,0.7411660843240754,0.6128779480582075,2.71767698627151,2.6338562837005313,0.7589969575663106,0.9199565785719709,0.6425374456860184,1.0601931787641647,0.5973851089978703,0.4032814150536676,0.9319124044266742
108,1.8986516457150586,-0.2187063294420648,-0.24932446884768839,0.9799518358985412,0.9742567961223257,0.6638190974473941,3.3278827134380324,3.813475170359669,1.9597258183199366,1.505382916811067,0.6468212168108125,1.7763455431757011,1.7436353744764213,1.3953441966398086,0.9498667792652453
109,1.4189798233100994,-0.14494581670593598,-0.15459347916254662,1.1783948017756665,1.1686904212412712,0.8247692891142521,2.935824302171336,2.157532700301274,1.0348144931981067,0.8386835606570008,0.6233814453054027,1.422958345491482,0.909513381252763,0.6775848740978992,0.9350060690807304
110,1.1850459843761827,-0.10068919309033714,-0.1526260491349264,0.9578195035986136,0.9571675128504956,0.6962319483765401,3.071731403173841,3.736715577642474,1.1726331101436587,0.9037524933041299,0.62595550513784,1.3865166080371294,1.023406262751761,0.7423332667379146,0.9545298337566156
111,1.459622008745744,-0.1342735736939924,-0.15915390139220298,0.6652237715592054,0.6652285101773788,0.5588662264362322,2.542519070359836,2.5395466150460075,1.407857176468096,1.59436948899302,0.62595550513784,1.5003344104974397,1.0863835054372453,0.9730844959041088,0.9578852294165117
112,0.8783388125805646,-0.10738466571423155,-0.08218668112501237,1.0336426709259312,1.0234515388174659,0.7462272060402041,3.070442016474417,1.6775238029328357,0.6616714660439187,0.4650285218899837,0.6207552362147116,1.0949523278366227,0.5607040583990921,0.32815179554487717,0.9226171481248171
113,1.6092303720162777,-0.2488950256896555,-0.26513992383619017,0.8499054362921766,0.8473161275079885,0.6516634798090457,3.051284985700515,3.2945669426723687,1.1477374581884663,0.8742694865033872,0.6380535849069913,1.4808492706570668,1.0122239684639938,0.7445890628321961,0.9511186209777365
114,1.4132108099793335,-0.18521974754143322,-0.14308388495060065,0.8699061134543191,0.8655414813872004,0.6657634736482791,3.1758300647727387,2.428799505955478,1.2538371427686568,0.655450271354423,0.6333676938231112,1.5069314657591806,1.0009026886725243,0.5996990831011221,0.9342484571772277
115,1.375647503186266,-0.18566927570663766,-0.14812603791042178,0.8710314099156051,0.8689997246690283,0.7030083897699525,3.0763075603954455,1.8188013458180396,0.9896182301663948,0.6679778841610019,0.6038851895711802,1.3474583373346924,0.7922523338009202,0.5498449473304331,0.9238846691101074
116,1.1118748995368801,-0.1718569568369594,-0.13742649759854808,0.9768459016891714,0.9595100303478608,0.699903655986089,2.841541106379053,1.6309304483153104,0.79717319341601,0.4591252357962245,0.6333676938231112,1.2361134551905968,0.6796986627074372,0.3806804610968545,0.9513208959494119
117,1.5668300019607393,-0.15785848140898573,-0.26739839807219257,0.9666455035373217,0.9482162543659718,0.6481039391087947,3.251311228474614,2.6491974630805046,1.4952104797045105,1.237188190291329,0.6652988471865258,1.5348974941161615,1.2738942767875805,0.9687974713808709,0.9374043795294904
118,0.5129992299504949,0.03352022868080051,-0.016318025995204877,0.9999560627211913,0.9772760675667218,0.6560045892547928,2.086511330008612,1.4409248694842631,0.49733225954147436,0.3802707426181293,0.6284777104787076,0.8414409714213508,0.4189062404323252,0.26833030179083084,0.9226058311585562
119,1.2399302021176788,-0.13615860113986256,-0.1872046758116162,1.0121423038793198,1.0050428251800794,0.7568109936440957,2.9373669578864474,2.088388130634008,0.8530846696976175,0.5988606968594226,0.6447042257417027,1.295073338615786,0.7114482378985637,0.4697557465755962,0.9098096641109139
120,1.559502616316099,-0.2519001344450068,-0.2617823603389881,1.0270890947573057,0.9950087917812398,0.7776969671893055,3.3538953111048033,2.2418104260090472,1.4251579381939679,1.1192279255445086,0.6309483474627791,1.6796815658227044,1.2339588190128146,1.0084329564461285,0.9478331392802084
121,1.5680935701253422,-0.28358042172676423,-0.2389291536205358,1.0788403816601246,1.0540011603687605,0.7818091870717003,3.8684166775714246,3.450303416171644,1.6347602013559428,1.4896964372075387,0.6584896970785714,1.7654421609106816,1.4576090353679998,1.086138114442934,0.9058266843308945
122,1.7371442877867347,-0.3630039593104974,-0.2973747443817673,1.2312059634392727,1.2273137326250187,0.7625486353150606,4.196489594606812,3.769415670004819,1.8805850300932343,1.8205009884197474,0.6584896970785714,1.9000873461136834,1.6472925457265535,1.6140782919906027,0.8827677674787784
123,1.5936539074580898,-0.2901279850742068,-0.1569564669001113,1.2178754893259496,1.175821698419807,0.8284424086940982,3.78934143670087,3.0169596720170744,1.2906801282820866,0.9420833012179117,0.6333676938231112,1.7657019349087653,1.1153137280633743,0.6760561054691219,0.929207219115612
124,1.1525645149930235,-0.16343791320649653,-0.14278101222361292,1.1754381209338347,1.169120810621002,0.7862069103751188,3.605761901929972,2.4941338181089296,1.1036844313980236,0.715128920188372,0.6309483474627791,1.5110516605136106,0.9612678737689183,0.5747060336590126,0.9221025795356294
125,1.0879858417200319,0.030487375755661295,-0.08115753481682153,0.8841683243437611,0.8347984666845686,0.7272689355021373,3.0700459663921227,3.011381874683816,1.0259261674273472,1.1962475151401266,0.648888643467878,1.3722599721560875,0.8040841276007766,0.8303367805396836,0.9388143513842506
126,1.5326865512549936,0.029349607932734334,-0.11506442894979829,0.8578577388098534,0.8440650574413415,0.600602329101661,2.54388149901959,2.333904719449341,1.2841146488702073,1.2839725711533672,0.6038851895711802,1.395985614425434,1.0434379207601545,0.9203120566689724,0.9365371451167124
127,2.7589880868955223,-0.36158852892741855,-0.45243698535871507,0.6398064185888169,0.64416129412041,0.5430656782847808,2.4469369816918545,2.438246068873004,1.8245061244087775,1.6022167696494092,0.6180765742263259,2.0168215263648954,1.4423581378356072,1.2305805900882083,0.9436429868141781
128,1.657986569276842,-0.26458295286693145,-0.019794339202928897,0.6866736433234543,0.6912164642951835,0.4812083198710118,2.610987028011641,4.859266769351079,1.649455154931934,2.078197834752546,0.648888643467878,1.9728018445236293,1.4564521349210513,2.277867396477035,0.9514926323987482
129,2.354757101528557,-0.3272414575276834,-0.42392037181492326,0.8463818102871102,0.8456233054692457,0.626061529234953,3.1096842952637718,2.89452802852659,2.1009185738923715,1.8152856716062833,0.6357360191111145,1.7254100886865211,1.9732952595787066,0.9165151735763654,0.9313067590900885
130,1.8330969691911303,-0.20769281355820957,-0.04894076212854871,1.422178506408834,1.4348098217371414,0.7922686260776429,3.954220938026409,5.450139384026445,3.087229766260809,,0.648888643467878,2.6065471157716886,3.0872850280313444,inf,0.9169574948814659
131,3.173304774882101,-0.6111951551228746,-0.1291397169635095,1.284689640149877,1.2850226918455705,0.8045559377202122,3.140922393761394,3.112268535568168,2.1391205635569404,1.1172299228818356,0.6153451465759925,2.4818446757521806,2.00702505453975,1.2522685309080392,0.943584166512805
132,1.8204462631709806,-0.21381110085319824,-0.08401657153300202,1.1386437152322202,1.147518171579212,0.7740866594313653,3.1048217860120926,4.965395255589482,2.155237358971325,1.3904775095067199,0.6180765742263259,2.154739965730064,1.7883151489458107,1.7607273599803266,0.9564850749433318
133,0.9504956718881807,-0.098217886095112,0.0,1.6474339090172974,1.6382491488377122,0.9301231333213398,3.608582852356274,9.131899445940418,3.2187318144992054,,0.6357360191111145,2.481711758891481,3.2254096170302344,inf,0.9404566299538492
134,2.6920377307555947,-0.558289118889893,-0.2601178351888982,0.8076374851206266,0.803924175686002,0.5836725439422255,3.1610110647732363,5.99771280116253,2.0065082051909773,1.7480506667123976,0.6468212168108125,1.9732014129950022,1.95111912024355,1.8030718070567826,0.9618494414874554
135,2.395076471258986,-0.4411158774970513,-0.29769864523792683,0.4448819137655455,0.43869411359581995,0.4781958314886853,3.1293750342141426,1.9875000838258527,1.6541695765440851,1.0073779861993826,0.6425374456860184,1.9956724522654858,1.551321711508252,1.1141586569652904,0.9609917292762461
136,2.2858069578922406,-0.34834337529538917,-0.0250050944936768,1.5233363216243205,1.5193618163750293,0.9051300464943592,3.4589503879344474,6.507828437306839,1.8868373664463705,,0.6153451465759925,2.4281483159693913,1.8760945708168983,inf,0.9417568893025688
137,1.6544536194738997,-0.2029187765306907,-0.05070748404746799,1.6019706419906758,1.6077486396779264,0.8636068333172642,2.8174696427459045,3.5076955977626834,2.222245149792381,1.0986235494855325,0.6207552362147116,2.379586134930195,1.743844008187002,0.9023187887891067,0.9477638386380978
138,0.12238261958406639,-0.008298371149817676,-0.0035319487433087414,1.556584051800995,1.524954429816154,0.9119188514309077,3.0143196126622764,3.8238380585188763,7.906355409865144,,0.675384900321601,2.395919448248119,3.0127089391175996,inf,0.9173624023964564
139,0.19923730824995467,-0.009940438476892867,-0.012639789791435327,1.1092870907937744,1.1188398317193435,0.6977546571199242,3.106980227185322,7.160405787590343,,,0.5783247308855777,2.30759763481759,2.6638169461253844,inf,0.9348852600262502
140,0.1910023028034958,-0.017190207252314623,0.0,1.5168845884394948,1.4778417133441706,0.8893182778575122,3.117871798855071,3.2916049013407216,2.164039514924894,,0.6584896970785714,2.482243532368517,2.1262655548850895,inf,0.9120257176690059
141,0.15372918016914025,-0.007940256048186238,-0.012556967974365797,1.5014593838177908,1.5095753293057346,0.9000671076117744,3.0617626938924887,4.78351066276116,1.4295407106185698,,0.6038851895711802,2.07553805907962,1.4317608534650808,inf,0.9419766793110723
142,2.7546767609367895,-0.5964457163864246,-0.35531106884250757,0.7803383306540993,0.7830810910739777,0.5710746776325545,2.785618536060462,2.865377320184444,1.699872291364739,1.5916611283568145,0.6284777104787076,1.7379027964373441,1.4746044619799805,1.6199818502954568,0.9462680446274601
143,3.1804078588517832,-0.9425146042078802,-0.2515643558432929,0.5873767234753612,0.5798513304803715,0.47018377466586875,2.7152108646149413,2.7595601533889793,1.716836103237652,0.9593326499984051,0.6357360191111145,2.0334064921068244,1.5678691679385446,0.6485538050171266,0.9356585040915976
144,2.276262167048547,-0.37601054279077883,-0.06948377723196941,1.7391988071895548,1.736248864691873,0.9035167222787216,2.6303620419640676,2.3275664853417983,2.6255317486706065,4.86722407478379,0.6153451465759925,2.1096716803283577,2.6283951791261653,4.723587940802566,0.9136486325870576
145,1.2379058255640916,-0.08846819515693305,-0.06338668642489498,0.4912499349693358,0.4905701453434166,0.44543321052106877,1.582588714287817,1.4281761767597396,0.42273676861023624,0.44776085179537656,0.648888643467878,0.7313568494352307,0.34100306808881325,0.24631733284867802,0.9503801115087354
146,2.9451629911189885,-0.9191651301367159,-0.3712103193850695,1.022840333064095,1.0385298181721736,0.5590430013881842,1.58851723680155,1.7642539713827081,1.4391176333358044,1.7142081418572248,0.6233814453054027,1.646447738068001,1.0821453642655383,1.06219603828049,0.911232081478099
147,0.004802494281359254,-0.0005811033240701542,-1.120430396415376e-05,1.6148323369591293,1.5992554309088058,0.932108650054622,1.7570751918103582,2.1973920960119537,1.5241314305994282,,0.6284777104787076,2.09728874872362,1.5308092331304575,inf,0.9018062498490772
148,0.0,0.0,0.0,1.6024965906005877,1.5991806831237052,0.9304777323891079,1.6817734293789575,2.0957286642501805,1.4519483313413277,,0.6509067234006624,2.3025850929940455,1.4586261338723567,1.9492602359405953,0.8986374764657081
149,0.0008963898489438706,-7.84346809302333e-05,-1.120430396415376e-05,1.5861800941353985,1.5509838478148974,0.9271063724425109,1.8667326286857753,2.172090658170874,1.358053566913345,2.03556554241313,0.6447042257417027,2.30347437717893,1.2067940995375874,1.1015906974223706,0.9019731585884408
150,0.7547686612850361,-0.04988970377032073,-0.016901988419754356,1.639480502636737,1.6085816818442866,0.9510148329291204,1.5589164930585098,1.8435459532032106,2.558776669223353,0.7046745205486468,0.6125606311107803,2.4302922098481226,2.396633602179331,0.86690633177558,0.903603899011945
151,0.049413118607885324,3.422991629117682e-06,-0.0042061274342882,1.4607173631913843,1.4362592892302928,0.8892913863939138,1.6399656582369377,2.128107243952016,2.411614098174987,,0.6309483474627791,2.474560357733856,2.050567120580699,1.2091142038263547,0.9075499920232337
152,0.05446768072206621,-0.0031415325062162077,-0.004238721384409753,1.4670971754756037,1.4297995174726346,0.9174420620011022,1.7618019800929976,1.9081389588098439,2.418190839506522,2.2450572825859054,0.6380535849069913,2.003551032206041,2.0541402123680244,1.7258561985509984,0.8978109632260111
153,0.436867300033621,-0.049500423033179565,-1.120430396415376e-05,1.4464807007039309,1.4238435375965266,0.8296889249954165,1.7544443893205104,2.0768109145936586,2.0231276290326834,,0.6284777104787076,2.2960509316431144,1.8023016519765251,inf,0.908725450015822
154,0.22077357803032047,-0.01837525445685797,-0.009589398760315953,1.5685693231439601,1.543108486948631,0.8830482336488984,1.6164760852033353,1.9857850227816256,2.8208174281654217,,0.6333676938231112,2.151964445931355,2.4377699319268973,inf,0.9097630460297601
155,0.6625964382567816,-0.060805566717490454,-0.009871386696566254,1.3582753633176907,1.3473463665012215,0.8346296420705086,1.5234825248562545,1.570539911057895,2.607431779908981,,0.62595550513784,2.4408259705528255,2.5582101877000785,inf,0.9213474221871669
156,0.5570257811558685,-0.0495635448749113,-0.02099305407149871,1.4733755154268446,1.4789445434856554,0.9069840838507802,1.3287828985153933,1.5392274101077317,3.2174690799654235,,0.6284777104787076,2.2275806973511187,2.5374974505940275,inf,0.9024039967673811
157,0.4480131400968768,-0.04555292405630732,7.263735383062882e-05,1.4559007490597704,1.4349360012832972,0.8799456361735338,1.232350074536884,1.3890118058582397,2.106216878066226,,0.6357360191111145,2.440315766460125,1.8165477252597506,2.58635326612469,0.89524048828733
158,1.3324388146812278,-0.15143211746787,-0.05589350530755782,0.6487932550971665,0.6521279178208655,0.48678919557421335,1.8083384502719513,1.962373735977135,0.867748725244427,0.8858129981925943,0.6357360191111145,1.545941600874973,0.7429597650331505,0.4118422600116484,0.9687217782676383
159,1.5698008203442004,-0.14772442894999496,-0.13153553248059385,1.4733045784464172,1.4748869713349895,0.9109283268426254,2.225582139085185,2.3451839467982563,1.8726443902219108,1.3035971484188045,0.6284777104787076,1.8361294169639955,1.584590631187024,1.1956234384351971,0.9011948053012314
160,3.465257488413321,-0.8949061138692829,-0.6551126903003681,0.8063570404031739,0.8012382083883153,0.362618532143562,1.6322895898239103,1.8391748022797965,2.1453460136505256,4.828920138714175,0.6008849035917525,1.935014170858108,1.6993770979717586,2.0528619038751237,0.906285895606248
161,0.13702085062791416,-0.004383068751314681,-0.00520839079263931,1.6733663925529634,1.6503835088602372,0.9090902840166835,1.2717000720728273,1.8142158868376945,2.952265581197697,,0.6233814453054027,2.748177992192989,2.7677427452936416,inf,0.9110155548134685
162,1.245393697431627,-0.13677823728897698,-0.016820318727590353,1.6857022210111559,1.6485658474530207,0.8881539046377935,1.6407227399055715,2.384393966658687,3.213526043780691,,0.6153451465759925,2.480250838251806,3.0495783292809566,inf,0.8958483625518907
163,0.5554048936537918,-0.033109921677544146,-0.016746899433577114,1.7205905372518548,1.6855684435758935,0.9212821374329804,1.484169879439456,1.9031593523352448,3.37274938169889,,0.6097226960127671,2.3548144979109904,3.3523068780107255,5.0072963928307415,0.8882490724925974
164,0.3965139902354945,-0.0121282954773765,-0.024879676944602986,0.8826244874309813,0.8746332746292756,0.5533124994695993,1.382421521934998,1.8259166849096435,3.746212809762694,,0.62595550513784,2.5609241362119164,3.123055711148105,inf,0.9209297325739665
165,0.6413013381387556,-0.06840547606813392,0.0,0.6862457368408543,0.6810431798324108,0.37484872827025695,2.6226655181344456,4.660484774619742,3.165106414803321,5.1290982632796975,0.6403206450210053,2.406835114367845,2.6071390809939254,0.6964972674452273,0.9261013089124368
166,1.3000917174980668,-0.15960720997120126,-0.013715754938446983,1.3393438779663736,1.3246815200835735,0.7890884750472179,2.5152916225022355,3.2226452163941803,1.9264038999928543,1.4000030589805337,0.6284777104787076,2.394456746865928,1.926370267935897,1.3963784801865167,0.8829448225211409
167,1.5478979115421687,-0.16831642270065353,-0.040670499192073585,1.6541729077076708,1.6358698587696185,0.9212484448010627,2.39564658643215,2.949237908068157,3.3481015991067498,0.700835744241481,0.5783247308855777,2.4179959445053734,3.351214335473283,0.703880736203054,0.8758345167985766
168,0.4691172642909687,-0.043689159785918724,-0.004710928710158344,1.6186894870663682,1.5955364830935663,0.8935744924574837,2.2522153215158824,2.456761848564019,2.644371359716803,,0.6425374456860184,2.362925033113938,2.433943871480705,2.334029925701704,0.90861144249847
169,0.39153303890138824,-0.024003605605605254,-0.019065028673547448,1.3368418242642215,1.3312942956205618,0.7293120094429498,2.131455046576924,2.238069032670975,2.68792681786183,,0.6509067234006624,2.3176987308040937,2.694604620392859,inf,0.908492892868645
170,2.036650524901777,-0.3306957882490613,-0.04182648462836229,1.465439008672905,1.470755101842431,0.8817975689950125,2.1138931012625894,3.0107325332283428,1.38244618943038,1.7046510238975952,0.6425374456860184,2.104554242494911,1.2497595532683938,1.4120689838085059,0.935612251100764
171,2.202128055193581,-0.22112656975146916,-0.11209615570196889,1.5986865258291387,1.6119262704668273,0.8940019977050365,2.399889019368364,2.8481081386045455,2.6280642519527175,6.328354077727495,0.585052858160615,2.4377686433305965,2.296498338214152,6.673297967767653,0.9156769236602719
172,0.8793668999189812,-0.04542187732051117,-0.019065028673547448,1.5564157436651591,1.5356390654619578,0.9167692166652549,2.2670056754497523,2.491387391516552,,,0.6309483474627791,2.8273969587347763,8.580167990577626,inf,0.9156678024032899
173,0.39338820505472694,-0.03671623247177452,0.0,1.6601910982868555,1.6505840629630493,0.9355577491820394,2.2583207290895033,2.3206562566115907,3.226055056998598,,0.585052858160615,2.4677218250338995,2.546252370327871,inf,0.895082353481706
174,1.2884462602588438,-0.056987700909084484,-0.014359249016769354,1.6310989671015346,1.631405248205587,0.909860330224141,2.262946308818857,2.7088056985843707,2.703846116592059,,0.6380535849069913,2.9193887069666573,2.692118491580373,2.5379612127438897,0.8703031935323563
175,0.17918369878568044,-0.013737416906902167,0.0,1.6684961926242377,1.652712257035646,0.9102366278458496,2.539002783276163,3.2153787624815022,2.39410172274121,0.6897970936746634,0.663668482632973,2.613194670089531,2.400779525272239,0.6964972674452273,0.8806061603761484
176,0.2537268731445077,-0.020298149851560615,0.0,1.697698058732821,1.695348583066501,0.9123325207543627,2.3280437329348826,2.3055376284183104,3.0984036767878,,0.6509067234006624,2.6020398966028866,2.411934298758884,inf,0.9128851130473187
177,0.0,0.0,0.0,1.5972636746548834,1.5974240459818816,0.8815223192376369,2.69585714703763,3.8833846465663555,2.1955593166287346,2.4933966415114117,0.6097226960127671,2.8134107167600364,2.200563478601734,0.6964972674452273,0.899819400363487
178,1.3582920984326616,-0.1364414602264688,-0.05669684823918401,1.4561214735247625,1.4312174385690346,0.9122845568889613,2.465886316334559,2.3284588210294683,2.5934854897984145,4.7591300722303025,0.6509067234006624,2.0956612619267783,1.98939325338823,4.187016218068244,0.9001444748140683
179,1.7901527029508861,-0.26875500629140386,-0.0490523572621602,0.6264291836866366,0.6360173587637014,0.4061951860919488,3.1287567259154114,2.275707554546076,2.0382099899066177,0.6766908318440167,0.6509067234006624,2.0986470139752256,2.005747884100377,0.51984485063284,0.9263024613023835
180,2.799205033173452,-0.4748087688270365,-0.15756075772815784,1.384830986404365,1.384847864327007,0.7367486346638621,2.7923177829326935,2.2623781455234933,1.9782060327387208,0.3111176272788446,0.6447042257417027,2.3502592135052813,1.802420925729783,0.2545503498021078,0.9255261750158309
181,4.099493317827487,-1.0989279697496899,-0.07626011469418979,1.6424044538452975,1.6360320266377872,0.7532426501477364,2.4199420744219173,2.4790848219550905,8.020798728329453,,0.6468212168108125,2.686941237891975,7.3343293503005365,inf,0.8776954455493748
182,2.8064850496981415,-0.40603763634392953,-0.6256326104426627,0.8419656464469932,0.8434111738695087,0.3921257048839824,2.113466170064661,2.0410141012745497,1.8192044887818537,1.2135911976734421,0.6547956803312163,1.7046647623771212,1.777381207148355,1.1399313347789963,0.9666097344764978
183,2.7334258188588416,-0.5613194273546889,-0.038681570304785265,1.6938337930926586,1.6906246112188887,0.8722263687696595,3.1569813486012195,6.076287181993106,2.605918839312886,6.471809468438005,0.648888643467878,2.3164586652599177,2.392838229937072,1.1337476467927197,0.9266944572460349
184,2.0575343395978267,-0.2672193914919297,-0.03910720846650553,1.1906582778218426,1.2006284134005265,0.682685538261236,2.519947302630679,3.341178588536267,7.274019392853712,,0.6403206450210053,2.5174298414935605,2.963209081848431,0.916290731874155,0.9208841949493319
185,3.1255527541682033,-0.9405633679109046,-0.13698918418876593,0.7292329223077993,0.7402952100171909,0.3121900245999562,2.233450084264385,2.474536913120607,1.872301928009299,1.9474926048516132,0.6668815377411301,1.8976386378816148,1.8746224251713726,1.9415717474567151,0.9518717982010899
186,3.577399896645646,-0.8317833195415432,-0.06256665461986838,1.7354586015272502,1.732927711316449,0.832547767987429,2.1506600866226186,3.0986972882877875,7.725837543812945,,0.6180765742263259,2.576437314300318,4.687992908620552,inf,0.951778180860061
187,0.5336232324152993,-0.03342329065916018,-0.011045312042114768,1.6896391693541801,1.6709847892008987,0.8979613532891699,1.869025859107958,2.369116546858288,8.789812404802548,,0.6284777104787076,2.611074741978824,6.398594934535208,inf,0.9171416508329189
188,0.3789819254111679,-0.026528734778781753,0.0,1.728891360539098,1.6833606207475975,0.9454610018062931,2.0049347043180434,2.3282147059024574,,,0.6333676938231112,2.805479290878202,inf,,0.9203470498203458
189,0.6559722379416346,-0.07330519434292473,-0.0032249000835993004,1.3756651098054355,1.3603195308131706,0.7480041435315884,1.94883727142651,2.1107650362961627,,,0.6584896970785714,2.5225392912615554,4.148827209656352,inf,0.9124929137112094
190,0.540381001098357,-0.057837453213890264,-0.0034057269105901896,1.6571322418276373,1.6268635154984057,0.9005621784546823,1.7386511331367938,2.290354573542432,4.618164283254527,,0.663668482632973,2.465234749990536,4.260198972197647,inf,0.9056303716358752
191,0.2457732261768577,-0.025396566704941965,0.0,1.708273910593858,1.6845063406114629,0.9203971372597614,1.6538539257098857,2.1607345182937436,3.3245706846268086,,0.6309483474627791,2.375872888763878,3.3312484871578376,inf,0.9027914718567832
192,1.8863129618147394,-0.34682340857877836,-0.18722429855089306,0.7056196950708093,0.7023392748288925,0.28277891925817195,2.1624500915196814,2.374442554960783,2.5643423163116212,0.9660839835563306,0.6008849035917525,1.71529237722521,1.8770655098981044,1.4232899487964856,0.9231651381803636
193,1.9269469592165522,-0.2954652004132047,0.0,1.7357414560238158,1.7454024613232337,0.9344158918773793,3.3720045847256648,3.8108389264295157,,,0.6380535849069913,2.415131861855183,inf,,0.9392436617873633
194,0.05820335295787811,-0.0050442905896827695,0.0,1.7107828185594673,1.6933237233671172,0.9413995445481321,3.037843815441349,2.2654474668518922,2.725179826258786,,0.6566669596287297,2.487443197439997,2.5265309979217734,inf,0.9181289767678327
195,1.4692790238451001,-0.19440749153217363,-0.03900545195033099,0.6719746304206055,0.6787355769157255,0.38277875554440477,2.492853859128892,2.7388671216266975,2.859840020078799,1.1321428016248747,0.6447042257417027,2.0889981722653483,2.606826381990874,1.0180082562534802,0.9458500593043576
196,0.21247539578267297,-0.017706282981889414,0.0,1.6745959660969576,1.6582192657988757,0.8680957227120871,2.473316469388805,2.721291364563258,3.0674681287027696,,0.6425374456860184,2.653246409061536,3.0538749668601795,inf,0.9014592716946119
197,0.2913560373507483,-0.02330848298805986,0.0,1.7331430500654073,1.6991486823093487,0.9502055656335194,2.507924886457595,2.8372728799942895,,,0.6380535849069913,2.7040581798326726,inf,,0.8816694084234461
198,0.3387117599667065,-0.0259679015974475,0.0,1.6755549593468737,1.6387235836628655,0.916720278396012,2.3632101188638663,2.348055115386638,,,0.6357360191111145,2.7231638389122583,inf,,0.8994953797868032
199,0.32625898091498545,-0.02392565860043227,0.0,1.7116979382654613,1.6893706725786606,0.9028992367412517,2.334811528786542,2.1063224023812683,,,0.6425374456860184,2.8056630299692107,inf,,0.8900912171386415
200,3.016536785751153,-0.5451853047908455,-0.08927990207770277,1.327088472603626,1.3328088862718055,0.6983160296728707,2.1400301522745337,2.2772982245837676,6.928327790941268,2.072741367909272,0.6357360191111145,2.3931178141602687,6.8172225578159145,2.1972245773362196,0.9155281541045953
201,2.5390215244083274,-0.483900815329681,-0.3879652899328749,0.8076721015425952,0.8069521407458216,0.3546770291725298,1.9835571797757068,1.765530959546641,1.1989500191630098,1.1749107288108502,0.62595550513784,1.5581112852687597,1.0278687866126768,0.7531819188612662,0.9528221533321543
202,3.7320647405149536,-1.1161688331481638,-0.18976019017622608,1.4088890442479287,1.4181140067346651,0.6657476428882938,1.9715350259987225,2.5940353578518742,1.9739302495053537,2.091935815165419,0.6153451465759925,2.468508503978364,1.8186120729415503,2.0266941715857256,0.891948825875858
203,2.2110586633093305,-0.024547459636580005,-0.6900467922781294,0.7102795618088837,0.7046566309925678,0.4873436714362821,2.0642589444736634,1.9138643100911712,1.43098972199127,1.4644722210942647,0.6180765742263259,1.3904808901937336,1.1163987404046745,0.9210040163262533,0.9606205510017461
204,1.9876858205565435,-0.17139138114844632,-0.43771940175810864,0.6884500534077617,0.6840490900005515,0.521928564839706,2.3996439628582404,1.5136766487146076,0.8022377001548437,0.49823532736752874,0.6509067234006624,1.3672327490484302,0.6932780049719671,0.41616321084112656,0.9073875045079923
205,4.071262870508949,-1.1614415384765204,-0.18455231074145254,1.6692346539510983,1.6709256476786005,0.7989098086794967,2.5320822609558573,2.2493044390160346,6.264153086987441,1.785059295457491,0.6284777104787076,2.651827410005932,6.04768733820426,2.0149030205422647,0.8852568688419196
206,0.3203329215375328,0.0015531502723524632,-0.024885690729653263,1.5508253989515373,1.5323832884089368,0.8881744564539324,2.303587404604821,2.5065435057632195,2.887315507535239,4.241795068278795,0.6153451465759925,2.3191662481414617,2.0058501318156403,1.0615252200057737,0.9041251750518051
207,0.39628649976631247,-0.013734069799926743,-0.011364075185273046,1.647824610915418,1.608221332529333,0.9089697054515642,2.3470390381860695,2.2338733912125854,,,0.6125606311107803,2.869589218713636,6.23539063760472,inf,0.8713406080591676
208,3.045291141109129,-0.607021309952372,-0.2806168825142883,0.6647818774083869,0.6453902113139187,0.48281283809165676,2.1355427627390067,2.0622953710979726,1.5323006614366261,1.4339806133465427,0.6097226960127671,2.0700634317195403,1.0871425661155674,0.6311255352504888,0.9348613998511305
209,0.54321514492514,0.10684845179323377,0.07417722576255414,0.7790110991007472,0.7711712752446175,0.4414973134442592,1.2436162578041754,1.0573903163458531,0.28311980294744243,0.29983524655042126,0.6528756675646988,0.48873802730198596,0.20465362758381678,0.15617544494544422,0.9342516673453931
210,0.8056050064080396,0.06468927629164156,0.02057617355899033,0.5999824410586854,0.5783725066829976,0.4616940891590912,1.882209629447029,2.162934995441243,0.3149200570460243,0.26285192523600076,0.675384900321601,0.7247066494677112,0.2608746172383525,0.1532976151906011,0.9488338834856012
211,3.1102839282629837,-0.7285780391948609,-0.7581914924317171,1.3425456595954017,1.3375681569468612,0.6941161948504038,1.6978255849860937,2.118429667332618,2.56143500220838,4.463795108890926,0.6668815377411301,2.066371768917457,2.0279727933046434,1.5929086104828898,0.8627616169193421
212,0.9072573051438743,-0.1545408991358561,-0.011789606807187521,1.379592565156057,1.360322546812075,0.8060905192388597,1.5450583225264543,2.536818975750551,1.980133860745587,,0.6447042257417027,2.101550827267937,1.8501374345526405,inf,0.8699784877336854
213,1.357211911871717,-0.23108033167140768,-0.16872733977662857,1.3754755466850725,1.3531673373579551,0.8591149477134014,4.14298360508194,4.20992463136728,1.2477925966965198,0.5499295208440335,0.6068309995095971,1.6840417339965505,1.1657640621529526,0.5960403371815343,0.8978766185715719
214,1.87787674579598,-0.4408843138205888,-0.2650814201506192,1.2327113125856233,1.2174504742162156,0.833005055678399,3.385610012690407,1.4829744815852157,1.0891261376237993,0.45407208137119665,0.6528756675646988,1.772610650389294,0.9895438097061168,0.3880248334865551,0.9297331125289908
215,1.5838849597305593,-0.2648202406683562,-0.26821882524736756,1.027855992024139,1.014727817969281,0.7265571512787655,3.6713924740267236,3.269994148292656,1.6511796868357334,1.2504296138911444,0.6233814453054027,1.6747471008297812,1.3718107402557123,0.9380358571774879,0.9221488547758581
216,1.4794422003203038,-0.038485142061696176,-0.4212842373349589,0.6550335056686314,0.6346294718797683,0.5843500352707559,3.111522328953954,3.5329240252905265,1.8604334537367886,2.4465451941109717,0.6509067234006624,1.581876789230686,1.595643849955601,1.942185749964331,0.9406401055239575
217,1.3292455261039746,-0.12745126598974188,-0.23862062812119594,0.9359309312144501,0.9122108091720055,0.6229193972037842,2.7212174730085055,2.959171938678674,1.3860711683655411,1.576264261996365,0.62595550513784,1.419736248342523,1.110028307087304,0.9077510889064399,0.9452166199029989
218,1.2760463126404755,0.058781730637441854,-0.3379881277153133,0.6083087516500507,0.5899615234499425,0.5221267784408162,2.452623405303167,2.729778661817953,1.9055207772178837,2.0133903141932157,0.6357360191111145,1.4279037025534316,1.5923489761972531,1.4896073274330819,0.9420116081401486
219,1.5693805710993558,-0.3761684819815455,-0.21736580432161656,1.2192645904580073,1.2108429327082857,0.7807006862337628,3.5754674794861305,3.219875410437953,1.073996127858731,1.345450452145785,0.6207552362147116,1.490371749720162,0.9114199933573316,0.6741869626041549,0.9027820083724498
220,1.5142853925359905,-0.24559519444724337,-0.2671887525363116,1.3357171637738983,1.330853574261464,0.8202667097874167,4.0668025456309,3.695709625239311,1.4923651594866751,1.4912600834533754,0.6528756675646988,1.794496544937941,1.320019264606017,1.139997504830964,0.9262693605513697
221,1.3625978447221947,-0.16521897040143796,-0.24873314059344048,0.8367580602501856,0.8240644128061583,0.6808274496110586,3.728185028593676,3.2328007619608843,1.4222334058020643,1.127165552825017,0.6008849035917525,1.6391528379733638,1.249220917260128,0.9073487944984937,0.9425633011062184
222,1.564049435381905,-0.26266101237867867,-0.20694409577568254,1.2711422523013762,1.2751198208009311,0.7930347945961929,4.150571087407576,4.1223869972631535,1.6898191218186376,1.6919926907053817,0.648888643467878,1.7740505354472818,1.5034553738723238,1.2323540968641609,0.9307996517404051
223,1.5005116473652775,-0.19942693634603248,-0.20676143120813179,1.0518982846893183,1.048230296061778,0.710013894458701,3.115739088166057,2.4571008141676454,1.1572610638803846,0.8398971611939464,0.6509067234006624,1.5940021043042611,1.002357657445253,0.6518304507874619,0.9357313641439811
224,1.2390901931278786,-0.160674289774824,-0.24144656502244113,1.2016577165315379,1.1907304318525593,0.785419707171862,3.355869791959031,2.8545922757457425,1.232729077476482,1.2529856944782671,0.6180765742263259,1.5282164126295998,1.076826038398381,0.8956070096058344,0.9382080082418169
225,1.4195714890007365,-0.2449531732369843,-0.18696691212282332,1.211682194988254,1.2037758535727496,0.7905321709771597,4.184673831639936,4.066757284121297,1.6049593121321093,1.7119036057481585,0.6357360191111145,1.6492187824459448,1.4374111979830475,1.4426085005920848,0.9356055517072537
226,1.3430415410008567,-0.07494247157425549,-0.13639783593735355,1.3011340209003028,1.2943318052577533,0.7885579274048405,3.2225803454759694,2.805266872048321,1.27146168064023,1.261709685506463,0.6713451011121618,1.5214779114564414,1.0636174655869912,0.8496587881475656,0.9476016831270347
227,1.6377950723460581,-0.22298196680199567,-0.3610229494278874,1.1203758369317145,1.1194473831159801,0.7462090795009106,3.3792762960862746,2.943546396189965,1.6634990987866478,1.1146288062837455,0.6380535849069913,1.7367032634799766,1.4355010420790775,0.9181482353935092,0.9411911136565334
228,1.729811394894919,-0.3660200858040562,-0.2902988625262947,1.258610324800457,1.210002162868008,0.801645976074303,3.7133376580735895,2.911570087283794,1.5704525089670607,1.3135103304656528,0.6566669596287297,1.609493469532923,1.3558173750277356,1.106620122824542,0.8501439435273105
229,2.224587302504755,-0.5314559087609362,-0.33249554957420097,1.2125177618495955,1.203626437918108,0.8098428063400313,4.1270807642502305,3.514728865965976,2.2909079378586044,1.9348450622000481,0.6447042257417027,2.0685675451279577,2.0459797244116626,1.4436928998259229,0.9487213521630551
230,2.213945085288596,-0.5769868437245318,-0.32644806658669623,1.2426554435363908,1.2422829849512695,0.7129230909612914,3.944332164756527,3.484190406842723,2.379907264875755,2.607916020685549,0.6528756675646988,2.1436838104081897,2.1466756357398684,1.839090843933827,0.9494567652516248
231,1.8853217356710823,-0.4064276107046163,-0.267371611076066,1.1661149284614862,1.1565712167490114,0.7376871071508173,3.9719339785814554,3.2823014987208037,1.9496089382632384,2.5641868557621894,0.6207552362147116,1.8369660620661343,1.7084866755835195,2.115909021122595,0.9473609098222165
232,1.5769410136702557,-0.2132813755047348,-0.23392680562952772,1.0841416275440845,1.0603114855590614,0.7852893658764325,3.792659111711016,3.3268212210415937,1.75608592910293,1.5363972034840565,0.6468212168108125,1.865334250220118,1.54861070426454,1.2855359109746747,0.9379981528138118
233,1.4577223000983184,-0.30860112164757386,-0.1592302222960164,1.002302708970122,0.9811694449801968,0.7759854315728681,3.565738400500427,2.7368180745542947,1.5231231783701729,1.1220057345593504,0.6380535849069913,1.640813920349745,1.348715409079638,1.0241573297752629,0.9397278824959986
234,2.165208025808786,-0.46225856792807163,-0.5642195747996758,1.0959961710432808,1.0910573998099427,0.7038433300285525,4.062532329287182,4.480826555349907,2.9066108018118872,3.67501079086476,0.6309483474627791,2.1735080507189033,2.749421662958247,2.929287174145838,0.936473458896671
235,1.7941665712062134,-0.1400254970655439,-0.407732330099178,0.8823377624217535,0.8434263710343615,0.6982386557831379,3.5185151834468105,3.8864053766690767,1.948564437825374,3.751912618358048,0.6468212168108125,1.704725870263113,1.7338272979428113,2.232439483627286,0.9407966907629299
236,2.2309190111120594,-0.4260618077734446,-0.47964525905524025,0.7725852021357373,0.7578658546276383,0.5818695443688867,2.946697573215111,3.3943891291531205,1.8602538899530314,2.0894119826565913,0.6602640781246099,1.7746401774206666,1.749478417753996,1.9172996150140476,0.9526515439244182
237,2.02961133286437,-0.30087019473853516,-0.4290708172559308,0.8599490931043118,0.8609078284075559,0.6659226063085436,2.6193727569582643,2.7211761599617033,1.4787503224783893,1.3478454890347462,0.6068309995095971,1.5323225622165764,1.2356545874659823,1.2884295731991497,0.9618819862702175
238,1.548007857220682,-0.22417798955961044,-0.18287078578100402,1.0081978506032871,1.002846247504752,0.6225475083991779,2.9538779230879455,3.337950096301217,1.2785426238475694,2.0621976698518996,0.6357360191111145,1.4645202017778203,1.1015965034357234,1.437777954086485,0.9316388821936143
239,1.5443127386403324,-0.32422922837721235,-0.23532403409528962,0.7809010397357821,0.7816538375555323,0.393414727968543,2.427540593280428,2.504258056159837,1.0236316695134222,1.086764941491715,0.6125606311107803,1.103189414411223,0.7726765641138316,0.7725012204159817,0.9401056465774231
240,1.3604795466499733,-0.14697734563397047,-0.13741391508370432,0.9781635617786529,0.9730365515949532,0.6986870482078129,3.6357034370649215,1.739465317898854,1.2490631729020405,1.612877242515976,0.5713653840954815,1.278776174908265,0.9210517882980694,0.8780789185366725,0.9081604151313393
241,1.4227772773839638,-0.1793609283641978,-0.20836671472423712,0.6870905546061009,0.671164215839707,0.5943705894868406,3.2383772107781823,2.4115621490147676,1.0477849445748155,1.1834390360668392,0.5748741956352443,1.1915319945998037,0.8622851194416866,0.7735798446932859,0.9512581103354737
242,2.3804288055074347,-0.5199966256434566,-0.31707753632363717,0.86728407311133,0.8616409112834966,0.5833101402975058,2.4074957565448027,2.7014632679654054,1.6014220613425463,1.5191014661972926,0.6284777104787076,1.74716858590018,1.4990213402147354,1.3261904370501851,0.9353558773016223
243,1.2443993002612863,-0.1636551000114158,-0.23048019833054745,0.4152554885334208,0.4034953734148784,0.38952802852184687,2.493206805156493,2.3252577366016163,0.8118697362055581,0.8534944851891492,0.5883313578629602,1.059423627310533,0.6739411555404403,0.5845595797230307,0.9436345518380204
244,1.366494888406683,-0.2211223422568741,-0.21140320397475248,0.8570837002899585,0.8501440556979784,0.5046160598782857,2.430320399637493,1.8422105890810179,0.7064239409047024,0.6057090905383474,0.6357360191111145,1.0981124136264586,0.6066745682570478,0.4426955035578988,0.9430434913896765
245,1.3080559148897415,-0.1669702952857901,-0.1976539988111768,0.9390002684736719,0.9152641189407635,0.7144580553433149,3.306469100006502,3.5254970448979743,0.9970796742899107,0.7713358300407595,0.6468212168108125,1.3746293295893877,0.8731519713639841,0.5661851257403876,0.8840389379618568
246,1.7792448088343995,-0.4028260216029508,-0.38141856072643715,0.9780484142124465,0.960820316423788,0.6613383915066683,2.291062499532312,1.7592078148779664,1.1470582315415563,0.908006190198888,0.6528756675646988,1.6098268769598834,1.034622742732732,0.7934117463411314,0.9461066566894776
247,1.3851933215514216,-0.20542397081299102,-0.329030093372124,0.8173430448470619,0.8054259722832487,0.6389812181298336,2.519848503660372,1.4519036295080352,0.6838388905644529,0.4786434660660004,0.6380535849069913,1.1375610388066846,0.5823119716212609,0.31957888303573195,0.931149560016411
248,1.4163494351283243,-0.175654440693505,-0.30765793810777575,1.0515892212147266,1.0334090759594503,0.820358258411804,3.663478501542735,2.742992633307257,1.5034895518470819,0.967975213666784,0.6727386042041725,1.7495304650103447,1.3400242067551862,0.9040399873564265,0.886266989595577
249,1.8748823231225915,-0.4137691401479163,-0.20360946540000247,1.2223022772668348,1.2230799605775493,0.8202400757196764,3.895614830485604,3.2814746833204,1.9216320962599152,1.605691950560968,0.6619902821573977,2.043817030706907,1.7145315987848622,1.2341193606490375,0.9106382269306365
250,1.5270726452770393,-0.02737873147330827,-0.2666637622326614,0.7674685812418077,0.7674187274628571,0.6290748367323576,2.6238204745239755,2.1470085879925414,1.2232582440998225,1.0397735749655763,0.6357360191111145,1.6552491845780128,1.1198315289834173,0.9195932742608425,0.9509949112044518
251,1.3517005348588083,-0.23593702563786478,-0.20438792418467494,0.9261273120663498,0.8985369535602858,0.6663706618297084,2.891377509016354,2.502325478628547,0.8409302833687444,0.8542227922667281,0.663668482632973,1.1697145261612583,0.6911806819016588,0.6398698576595411,0.9508063631760645
252,1.7123114773647719,-0.1428988657189958,-0.44386370728013813,0.9520140144904059,0.9325514715273153,0.6725550316292878,2.3689207880712053,2.4125910987109,1.3405067450161237,1.7376383857388698,0.6180765742263259,1.3690658501203972,1.131699215602061,1.158339859690247,0.9402204564422585
253,2.5098935670479263,-0.7793083830529157,-0.3546024494389666,1.1748834102626056,1.1718367680323496,0.7441362541180493,2.5539153060224513,2.535543403186465,1.3512617284683828,1.1808762361124587,0.6699045166045591,1.708215206851125,1.2035844984586601,0.9222339812566666,0.9564817576955162
254,1.752421621106915,-0.2827378945763628,-0.33677848180910697,1.013727726592596,1.0034129959258107,0.7017212084329014,3.1274083036049234,2.585776085091187,1.1748685270564672,0.8283275940248253,0.6699045166045591,1.4289235431758498,1.0142015725971956,0.6015640025074767,0.9394099871930702
255,1.346779549581997,-0.21083989539194203,-0.1586658222606389,0.8070431449496668,0.7870538993915818,0.5243615474979861,2.9163323951513123,2.3334407540657054,0.9129796594077889,0.7972372756408695,0.6380535849069913,1.3053494964098526,0.788596731472865,0.6493857873641322,0.9497367048624878
256,1.5380906084534296,-0.4156430962677152,-0.23270541192558772,0.8408652904467903,0.8188533656951968,0.6505485506440751,3.3899286096763044,3.040781426618022,1.2513710985028526,1.2677119825259668,0.5883313578629602,1.461736556286749,0.9608841074169738,0.732237609041034,0.9157844016721942
257,1.4328436565188718,-0.2104302860442222,-0.3282415269332717,0.4225802946498237,0.39856790099661715,0.5292291915787248,2.9670238107704328,2.0543560481627403,0.8989442780711632,0.8686576435011414,0.6566669596287297,1.2129761762788374,0.7391868144422414,0.6185920761929591,0.912044004347246
258,1.6963069016392864,-0.19560852968320486,-0.46469792684097067,0.6097987615274116,0.6069658275452314,0.5571595456288456,2.7948912563937793,2.1058245091210446,1.0778589847476445,0.9170645532991326,0.6602640781246099,1.1673551913998537,0.8964755027658345,0.7166110043582802,0.9471347830656349
259,1.4567493105465772,-0.15906317466431752,-0.187709369648919,0.6861332844072263,0.6909655931008606,0.5806081768640228,3.492977609174309,4.9713607414722265,1.0198842008767737,0.8512731187039985,0.6566669596287297,1.1599204773965142,0.8234838760863795,0.5419077109401454,0.9465068571844106
260,2.034337597631064,-0.456092783463742,-0.2627300212648719,0.9154202794028732,0.9177949566415141,0.5870721655758369,3.045399431191429,4.221409289227449,1.517965934696516,1.319401319047596,0.6566669596287297,1.4717554253141494,1.2275002281065654,0.8664233669070642,0.9231544703276666
261,1.1176467880812775,-0.18673560616122636,-0.10152851259448648,0.8957365642798222,0.8847320658005913,0.658099641101109,2.6662399628513898,1.8791863486647657,0.6176078238025363,0.4593376625951262,0.6180765742263259,1.050520781200856,0.5477574109742452,0.38674245388529405,0.9235899954932021
262,1.6323217530538632,-0.3958759270865263,-0.23015872978243812,1.0887523758785504,1.0961746297888209,0.7517982592842047,3.5353234990236304,3.0402384602763726,1.2464169213360765,0.9482039874044617,0.6403206450210053,1.5244842065539368,1.079506324623495,0.7512779185963238,0.8888111268454324
263,1.5644503069803406,-0.21864075430444718,-0.28353443452281857,1.005206700882071,0.9900177551814161,0.7774656573277371,3.5567592390013085,3.196619844762737,1.3130162079570469,1.0430660832457672,0.6509067234006624,1.548133782973194,1.1389706536135538,0.8362605790496154,0.8812125104406389
264,1.6083124375831155,-0.12569943510860737,-0.3739423310583452,1.0342908536443927,1.0145887764514392,0.7502357032417183,3.550025356010907,2.9469782020640047,1.3906592867223777,1.1402819275822829,0.6125606311107803,1.5681893422435182,1.2108199477991857,0.9391845517400076,0.8622952639180922
265,2.524809374604974,-0.7452655668297835,-0.34167054393606866,1.3395526372491957,1.316647697361554,0.8252159624321587,4.155112049312898,2.9019458161099854,1.928375432369426,1.9562075516533204,0.6233814453054027,1.8928328913214911,1.7256916563334341,1.9085074152567765,0.8977078700951406
266,2.196906258503146,-0.59108188921706,-0.5141770301413643,1.1613610815456863,1.1494119220960393,0.7714001667843124,3.232471660322585,2.5813324481931645,1.3702904562962337,1.3109703876510266,0.6684167106117298,1.655889147365657,1.1630926144438347,0.9722996259225256,0.9513388577717186
267,2.5011741120055087,-0.7267555978795747,-0.4763530475527802,0.6647199539753272,0.6613510971622963,0.5982148969322606,3.6086672405013034,5.926681660986526,2.211277575807874,4.366537954870238,0.6468212168108125,1.8206391687787056,1.9820312997220768,3.1740776819683063,0.9505498639756998
268,2.0497323353078367,-0.4806597312753492,-0.3585124339237786,1.1446889192493603,1.1193868623478145,0.7497413495637046,3.6780643099560573,2.813857883891986,1.8910950896289436,1.6765108333234777,0.6547956803312163,1.875938497470661,1.5874889607276286,1.3902040870883015,0.933331335239848
269,1.5449032421654965,-0.27514566011488983,-0.27582931810331196,1.026840332556767,1.0248524045036496,0.6637995262901553,3.1350304357686296,4.142633745691123,1.4909517627817614,1.987156471134503,0.6284777104787076,1.5108502810637028,1.234209745672408,1.2194265482277762,0.9142542710831263
270,1.6432676450521169,-0.45474982446056994,-0.23279449256170984,1.058560369656629,1.0408054621189908,0.7185392206189558,3.5548434062104226,3.2108502409559936,1.4248027734857132,1.6357484827290032,0.6425374456860184,1.558269625859701,1.2155643157885123,1.069492532493698,0.9287538279534003
271,1.5541200847515384,-0.17660371176776846,-0.3209995524023153,1.0153515854618247,1.0004427228508461,0.769198755157001,3.882090753968095,4.369899920308928,1.82230506522923,3.284496312677263,0.6566669596287297,1.6429946959629431,1.5051120580170503,1.9350992329510976,0.90794667331657
272,1.664118988242637,-0.3705558480016633,-0.22480609495685483,1.2665722978689835,1.240238678494789,0.8395439638242201,4.246034502918201,3.80740392312663,1.4996313821953522,1.278007140401086,0.6284777104787076,1.851509473633829,1.3204297557142628,0.9576871470186488,0.825063046643346
273,1.7937349676739616,-0.11706561021704187,-0.3700598409801346,1.0869674310063762,1.0794393590615252,0.7717225119818251,3.9194641822231984,3.448761615693306,2.1836733982534984,2.4582893383484006,0.6309483474627791,1.8770269132077584,1.8981369095031901,1.8363433758360814,0.8011546398936175
274,1.8358942698519387,-0.2696774263064501,-0.34997945008408937,1.1671769220240713,1.136337973768713,0.7909253184800339,4.1226637382967795,4.337940812209303,2.256718272528514,2.442404987101451,0.6547956803312163,2.0037158311517005,2.013667689934272,2.0968766035019373,0.8889546052984224
275,1.9620686669686491,-0.3308224625656484,-0.3804515011249057,1.3730567655471142,1.3483417162547329,0.832217553556344,3.8529051722723473,3.546715607249938,2.191530300824969,2.0690581224929754,0.6333676938231112,1.9978001126426026,1.9327263643501031,1.6809807215543244,0.9226345094465818
276,1.7811593420201153,-0.23818865516539867,-0.17481031176119943,1.0240147007996965,0.9915509268175412,0.7313028607695008,3.32146308646338,2.760846176647346,1.956391105856762,1.6307568129733945,0.6233814453054027,1.9044057207792862,1.7312489720973525,1.2646325440507518,0.9231135939020099
277,1.9905013326855556,-0.35470035330530025,-0.2623088905404676,0.9719750966014702,0.9615898819923764,0.6762232999943283,3.2568185163854233,2.6712705210638337,1.814183597141484,1.6689459880234032,0.6528756675646988,1.98680159043139,1.5142161265129763,1.1791155075171804,0.9277200825486063
278,2.4182817464137853,-0.7177332054715928,-0.2986202030302406,1.1958501290942496,1.185657060963526,0.7091711808665203,4.301923130550862,4.233188846981335,2.303308405943327,3.484109366581279,0.6403206450210053,2.141033297686477,2.017316594511536,2.8183982582710754,0.9226311460055452
279,1.7418015371721576,-0.23906542182056123,-0.2639943245322229,1.063995903704382,1.0228846464487766,0.7324214803203486,3.4786818965136574,2.900003624135027,1.793605749521032,1.6271340695866376,0.6207552362147116,1.770911636715217,1.55332470381081,1.2820455743147547,0.9110984104331558
280,1.9691382663711021,-0.3756456848611711,-0.3808974376004683,1.1090021437304463,1.0864652322047819,0.7334348686074736,4.256109446470808,4.374399561484255,2.0640147769555712,3.2548867691906866,0.6509067234006624,1.8856306848381257,1.8343954982726476,2.738778875823461,0.8887498391375495
281,1.6429080840230534,-0.2414510433270579,-0.5062363789880597,0.7117210941893051,0.6609999673999709,0.6072906695135051,3.353664192497156,3.493088420781081,1.9414584077006742,1.4643098007222555,0.6447042257417027,1.9316347513592547,1.7361357395444466,1.2177016602385486,0.9218460520155115
282,2.888577189712887,-0.8145137242214316,-0.8223466832825376,1.54185892708203,1.5472052915969445,0.5944328882624231,3.026627398173727,5.2724102838363045,4.130791186324826,,0.6233814453054027,2.499411335990882,3.4657359027997265,inf,0.9234963381777711
283,2.5273918979098373,-0.7228871126309648,-0.588288587601322,0.9565514420329683,0.9479410305116284,0.5670448332746407,3.0720565274694938,4.006393743913605,1.8008919998239352,1.420068295277101,0.6207552362147116,1.8188566371124222,1.674456033457539,1.085540207100757,0.9506140537413741
284,1.5640610239243753,-0.256491631180417,-0.2583520524586868,1.2437103792973587,1.2274626000408415,0.7697363586991587,3.93798481071664,2.9841823975073636,1.5496680227910018,1.500797700320542,0.6602640781246099,1.820158943749753,1.3800041721862937,1.2125518475432846,0.9271583646851413
285,2.331157962474951,-0.623424471064148,-0.3173654333208662,1.2057423260181208,1.1831598402301688,0.6884220760411678,4.271195005266796,3.9387741333668647,2.2084229112871268,1.9039640362230745,0.6509067234006624,2.175854551600027,1.984629813126619,1.54663701119507,0.9444712092903552
286,1.8997117929671523,-0.34980921079655947,-0.2772830032329581,1.226356806971363,1.1992990803726375,0.769083804141444,4.198843390420336,3.259165049510454,2.1179792510452544,2.3991844890612852,0.6584896970785714,1.9643683471682172,1.8914843867928743,2.0104486701928845,0.9206151070724429
287,1.7724206671774483,-0.1626168865520945,-0.34928391304811235,1.2664363903759135,1.249253233701492,0.8548654423341151,3.848240626066762,3.464941831209925,2.3566321177006486,3.190270815709587,0.6380535849069913,1.9760830286926827,2.0848267574431807,2.3227746423302627,0.8923985916299593
288,2.060683331441569,-0.5989906186774698,-0.2543711549606723,1.3223779408365526,1.2971402238296916,0.8518077861789094,4.4183611004068695,4.639200756501038,1.9385899252880137,2.520027970870775,0.6468212168108125,1.8603952616181931,1.7295442446408396,2.068232457145116,0.8979430732425958
289,2.0655317636512565,-0.6315838423493843,-0.3720062306621036,1.104190078608834,1.1037754223502712,0.6448454197117527,3.9130337492678198,4.313891952078753,2.0915010154793277,2.241569967341283,0.6008849035917525,2.00487018484189,1.8420936017019554,1.9658897831667175,0.9288339127383284
290,1.7972764380494073,-0.40352117933174125,-0.257441938472183,1.1687135443183991,1.115025606568191,0.767154822335189,3.661050843916736,3.617525291157968,2.099431986230968,2.0050891960984214,0.585052858160615,2.026975601776534,1.8571080349623705,1.8745070744122916,0.9369149564253207
291,1.9803899816254098,-0.49732545257031496,-0.27681937025842185,1.3079813713520687,1.2847763497219542,0.8460540413717389,3.848625244901723,3.7501430945810266,1.6903936109299713,1.4778270890829208,0.6447042257417027,1.9568699892916552,1.5023096749088471,1.2501172309964868,0.9085706694217729
292,1.9532020865537207,-0.42546279323184455,-0.5445812707287323,1.1298737815176063,1.12756213127937,0.6765885580623919,3.9584643131199626,4.704773974494575,2.661382350854318,3.845947429241579,0.6447042257417027,2.0536438488586954,2.332837136164567,3.5870967598039942,0.9317611712490012
293,1.673764363825854,-0.1436036337975488,-0.4420613105983667,0.9629000186521355,0.9407570676105115,0.6180122255353913,2.967019195038466,3.522790223624363,1.948675888507514,2.017574986600564,0.6699045166045591,1.5586391847689567,1.563412455463704,1.4154598972816157,0.9375135987015273
294,2.1538443294998264,-0.5354380783893262,-0.3296145261113732,1.3627412279851951,1.3524367046540826,0.8078719715149647,4.1727282796642235,4.403012295498721,2.1529166457314854,2.7920148530614375,0.6097226960127671,2.0066042177275696,1.7748779735124518,1.2804463972437847,0.9530958108875162
295,2.077678584193696,-0.5066836825058979,-0.36190665085965795,1.2664018058284878,1.2509211482383582,0.7942771200748701,4.385834460473168,4.121981806503429,2.226010566242517,2.159393484970482,0.6584896970785714,2.032049179377235,1.9767294945152185,1.6367348926397713,0.9434679470164328
296,1.931289116302151,-0.5059557962442711,-0.4427849738151024,1.1183715925999795,1.1020960018506962,0.6882295663069198,3.7685091943375104,4.364355794986224,2.040113982489502,2.0975479471075507,0.6153451465759925,1.8905490283919046,1.7925692752869602,1.7608673020150911,0.9510774377933321
297,2.149453895319489,-0.5136126118298205,-0.290613122001205,1.1500551892043547,1.1476422461568858,0.7507666646041522,4.014991913379875,4.979710110313457,2.0108546201202047,2.3515244252384884,0.6566669596287297,1.7639497685887877,1.8280046486884238,1.6480940411468494,0.9430923144272938
298,1.4145339338274108,-0.15071438944549664,-0.3735921644747273,1.044035906324738,1.026334201876162,0.7198399180268649,3.9130750916359633,4.303180000584653,1.4823367615842773,1.4615391212004143,0.6619902821573977,1.755749031705022,1.2910426454624444,1.4234591909212544,0.9115431400252514
299,1.3605057305690211,-0.1927492269202356,-0.19503751764305866,1.105462686514637,1.0648450431814407,0.7388401010342942,4.034447646876385,3.5187770361248862,1.8420484913037032,1.719174697928759,0.6097226960127671,1.809516190817314,1.6095057757573934,1.3292490630540574,0.9186725675527517
300,1.6355368376576416,-0.23748369831755722,-0.30024340559546947,1.1768925992301187,1.1683958698106036,0.7877265812993591,3.8811454203653106,4.454637329253188,2.2537871399053913,3.186857843113347,0.6447042257417027,1.9281902992569215,1.9656654022157756,2.888736434555434,0.9471675701803467
301,1.2860975593132997,-0.23438477369945138,-0.0695864974700301,1.4002872367807466,1.3637742359413645,0.8207100130642091,3.29980818486315,2.853816216912843,0.9515754986216581,0.9001174262779804,0.6699045166045591,1.4127296023169986,0.7877001059681691,0.6157626514367455,0.9456930815225986
302,1.5662472655820354,-0.2391360640825077,-0.2555968170054196,1.3032494175276734,1.3000846401887822,0.8254369411402297,3.961052558393059,3.0536539417115285,1.5592472106590571,1.3911779673820948,0.6566669596287297,1.8223561432055224,1.3734544087316822,1.0462609223143515,0.9331758591657977
303,1.772251874854923,-0.2780526823811004,-0.21056859161561994,1.207287142034554,1.1742340401055833,0.7919631690156936,4.339309016902317,3.471720197776275,2.065678363291179,1.6642854436430623,0.62595550513784,1.9840505570595002,1.8211130565870837,1.3857952345809534,0.8713900188055346
304,1.9017849284538397,-0.3832814813096501,-0.25882588086861985,1.323756607803509,1.2851119741862695,0.820327861691312,4.142960545029833,4.266851830080982,1.8998388533895787,1.973445984993984,0.6509067234006624,2.03196440847056,1.6954249004052522,1.6423047205144525,0.9211319171017116
305,2.276155163973254,-0.5758662383415631,-0.17586472883937915,1.4232972973250937,1.424244594999475,0.8262871070490148,4.403726259206175,4.538971452444067,2.0083145795232915,2.870355808149829,0.6468212168108125,2.084699786494375,1.8157240830904193,2.0734190761733684,0.9256134300995713
306,2.017874486556458,-0.3509101164560808,-0.14753855844461003,1.3907745681843515,1.3668132715819368,0.8666916015106508,4.267897341181225,6.150411889892407,1.9087043473734515,3.920633592894674,0.6125606311107803,2.00950097125327,1.624048900808405,2.597865344676898,0.9391828760878201
307,1.6886776599256406,-0.2972684648537445,-0.13368034097904855,1.279210601633179,1.271152432664197,0.8145201482311739,4.063305415727147,4.515589251545182,1.6532920355248943,1.7072422731006833,0.6008849035917525,2.109396866970699,1.5254153658729612,1.333402345368643,0.9363274114820127
308,1.3530213070874157,-0.25222382869136517,-0.09752883810208407,0.9112000724988462,0.907906343050302,0.7159460516925292,3.7900216033086833,3.3749654488422145,1.7854648818770362,1.829336851104901,0.6180765742263259,1.7486999797676082,1.4969191700761038,1.3485011999577947,0.9394379969813565
309,1.6411912720551038,-0.3602650309099983,-0.3450054258646764,0.902225528675467,0.8902450827635675,0.7344066728893237,3.890223299073717,3.776728937663031,1.706220744419213,1.899719351845661,0.6097226960127671,1.5999827536633453,1.5137825868022385,1.4705134864911313,0.8882823207457335
310,2.1935113993536803,-0.5151937123237752,-0.6561891240803478,1.0064765792964456,0.986170392625687,0.6160420884781441,4.0488588246283275,4.625998797145792,2.519432529264631,4.069777386623112,0.6727386042041725,2.0323883348832843,2.412933150162911,3.4965075614664802,0.9390843775301778
311,1.9767800150701202,-0.523973647114041,-0.3596020783894141,1.275929000656955,1.2657524806372062,0.780474697141907,3.3295320163970015,2.8163632635181344,1.0970288063596336,0.7119836527449218,0.6468212168108125,1.7559419763626614,0.9567858142906597,0.4918069169442219,0.9492881284009781
312,2.0894296778439907,-0.376393073724265,-0.5010378541893656,1.2211045757767152,1.2086209431986545,0.7476486800905953,3.573575074083394,4.546656716327661,2.062516378371015,3.8106576051165035,0.6125606311107803,2.087025785038144,1.8520258927779214,3.049672663699739,0.9456666850880231
313,2.3804928441054938,-0.24267511588559687,-0.5852728989097828,1.0540997579224078,1.0441025352565811,0.7193173332300977,3.1087722574062395,4.912033880854432,2.384329863640483,3.5213396123653173,0.6333676938231112,1.9331694355155946,2.1739226995290086,3.1733384292227074,0.9492328746815277
314,3.3745208790201393,-0.9608076444113494,-0.4036281526093726,1.1821212245317274,1.1896700971430554,0.7111517839807504,3.64299506995632,8.244001839319392,2.8329321518218795,6.3032181044559525,0.6153451465759925,2.2580367167329767,2.5162097992990486,6.633318433280377,0.9485679634730108
315,3.64854904382169,-0.9022612469466522,-0.3712308457572333,1.1521310385491503,1.1522436230802215,0.6777158607122056,3.2836520986749798,3.9390592018463444,5.3575443389047255,2.7658885484692175,0.6207552362147116,2.577606905076921,4.567278167194166,2.8763855159214247,0.883105692906248
316,3.2596595708411846,-0.6305210147616122,-0.5589517842574978,1.139552074684516,1.124546233253246,0.7414639590483737,3.2703903079213794,3.7167142847176775,3.0380401768433885,2.211272035759904,0.6447042257417027,2.1745828468553947,2.511556401666364,2.3906923605043127,0.9282064613212297
317,2.8745220065269113,-0.27222075835774895,-0.8321933345217092,0.8880639525714196,0.8784522526380165,0.5156141156961306,2.770235706134542,2.9314986064991424,2.457875808546879,3.547781711831001,0.6068309995095971,1.8920218911664493,2.0818765179797842,3.244011798139743,0.9507286282090824
318,2.11587821738713,-0.3378985532481452,-0.3549653362307301,0.49725760836762223,0.48347782647202847,0.4300044501080866,2.9051753744809488,3.7781649406290225,2.451035053331235,4.667685081239001,0.6380535849069913,1.7905601886525728,2.3886163090862254,4.183866013850181,0.947322535255011
319,2.2102341487776487,-0.23776773693718734,-0.4561589153327983,1.0838570648967105,1.0881884080567354,0.7190252293211907,2.9693606118949387,2.2955141196226196,2.2625893152941012,2.7037713360206563,0.6403206450210053,1.7273459559036348,1.7314805385951568,1.1710918611784937,0.941397235756079
320,1.6083442616519197,-0.13507168622376386,-0.17374774422199185,1.077033352698531,1.0585749042069519,0.7300527675391072,3.240614094682348,3.9373600397004744,1.7516263941763581,1.3724996719428355,0.6153451465759925,1.6133343827132236,1.4229884306672453,1.066726189471778,0.9500056184883479
321,1.6707496315196728,-0.2359534460011785,-0.2269608193436737,1.0766085936729393,1.063579838553453,0.6535414626066605,3.4826259835381213,2.5162681347513485,1.6165498600263841,0.8951901798177748,0.6380535849069913,1.7555561242678421,1.5406808217578267,0.773089853221144,0.9475455872712193
322,2.368664761183354,-0.19300055114862524,-0.46850962402265683,0.8682548796449401,0.8608010926460905,0.6457043511819635,2.986188096570561,3.146095386774883,2.1654385819716886,1.3592949828783982,0.5883313578629602,1.822081229114444,1.9253694010240296,0.8314022475322442,0.948204236048205
323,2.1377859985699765,-0.1622521505371033,-0.2905603775130401,0.9292298821083705,0.9092699949202945,0.7008803468427266,3.1956735761993813,3.2073828085899567,2.009111894057459,1.844085911244967,0.6468212168108125,1.8141414201211854,1.7515376002065934,1.878306585366177,0.9539302107357476
324,1.8148544514133444,-0.161413601645507,-0.4627301352459516,1.01313680019693,1.005041320872365,0.665479550534183,2.9709098618364367,3.2981659617184333,1.5892471778602604,1.412827653066359,0.62595550513784,1.6634835289994878,1.2966671235045932,1.0031656473116153,0.9547237893959571
325,1.72804173864656,-0.22651323463977147,-0.31581351544232433,0.887722607997972,0.876069982145133,0.7151408657327699,3.0608460086771565,2.7254340565260753,1.786671657008143,2.2954698953536523,0.6740851607140061,1.8272484871583585,1.5019383585275248,1.4812324017398675,0.9528489907933644
326,1.1554161597610018,-0.10318276775956947,-0.11192277926085425,0.859146622252043,0.8447689961353125,0.5754555485436315,2.2880055560766435,1.90213119916281,0.6622439755084749,0.4888755200316227,0.6380535849069913,1.0686652123001577,0.5606353292301944,0.39725342175277434,0.9113062651520393
327,0.9603689952500789,0.18488596360428156,-0.006455103969695619,0.6236452226838107,0.6179196050959199,0.3978155789019274,2.1106100415755122,2.002195805667426,0.7747457773251326,0.7466833265594752,0.6468212168108125,0.8630659706368573,0.6093674208049552,0.5221769258326898,0.947609991543629
328,1.289411475085945,0.18268686155085156,-0.06360595620688914,0.6161972846383685,0.6123771962938258,0.4463395967171154,2.439102863632892,2.4712780230344316,1.0000043227161568,0.9583588884502474,0.6068309995095971,1.0551378150828303,0.7370217341665644,0.6129505770120535,0.9594033147231641
329,2.1459721068833475,0.29283730956585674,-0.839663775716304,0.1963043554646035,0.1883286849841896,0.347724814422506,1.8589495100008586,1.5970068336558427,1.309461084419225,1.266648891690707,0.6403206450210053,1.398097073239042,1.050670529933085,0.9061825273247085,0.9585846188448061
330,1.489393570788933,0.03977450155609452,-0.24630521731456267,0.4896718266254335,0.48988515406410416,0.4113936641196279,1.8328432738775797,1.6666951226178135,0.8653030717212565,0.8240533311124139,0.6425374456860184,0.9035116225118973,0.6451970984099707,0.5029447330951325,0.9614665478840693
331,0.5938367995603812,0.27729653875668425,0.18462945819525034,0.3697289172453472,0.36755451893482494,0.2564534309181033,1.5523308314455313,1.3825438228988287,0.42431496092584947,0.4787593179916736,0.6008849035917525,0.47939873648628656,0.27534020008029964,0.23185504877963067,0.948086819358802
332,2.88805103154997,-0.7837338454157312,-0.33524801832857676,0.8255417531290389,0.8265718359310065,0.5353537701014156,1.2753229614246964,1.4635477970819537,1.3985786386343506,1.0587461278008183,0.6097226960127671,1.722357792424496,1.2832003752807861,0.9748626481985044,0.94768836562944
333,2.214074570590475,-0.4509365224227161,-0.43787835851087215,0.44091046806668754,0.4442814246638456,0.3271790682650464,1.5532869056593401,1.6622859701871515,0.9831818937267731,0.9778259411224884,0.6357360191111145,1.2320674937187888,0.9132289907570714,0.8961307483402604,0.9633374614995343
334,2.5817095718567487,-0.5378172124991185,-0.595372789492286,0.476077348602899,0.47633940404948094,0.5455958427892053,1.223087625392468,1.488057970279932,1.056625106620199,1.3357302157725501,0.6699045166045591,1.3674944149897401,0.8240463458781817,0.7626231301160225,0.9460198537602064
335,2.635619974933214,-0.4841738575272807,-0.5671749291412138,0.6152204283008963,0.6161943736185902,0.5036039552429634,1.3543058184070338,1.4398708469993307,1.3672948399612883,1.631420779533874,0.6233814453054027,1.5120087671025544,1.1238758231994703,1.0561108244901691,0.945979796557043
336,0.7220498390836023,0.18447356291797135,0.13340556303853324,0.7118890509343105,0.7018911898712364,0.3582376706973028,1.5855414145161184,1.4683838159095934,0.5351605890047517,0.5559411118053352,0.6333676938231112,0.6568152513125551,0.38057651469192955,0.3368861932369451,0.9423131364158592
337,1.600058642467187,0.11957736133518315,-0.08661898031180237,0.48139217548408136,0.4702817729674369,0.4615398453016513,1.9298722965791193,1.9235261436657771,0.806701959614319,0.929093326331285,0.6207552362147116,1.1603813150657416,0.6196472312866148,0.569298809193821,0.9553651093294733
338,2.1183925174549056,0.09454727883442438,-0.36589737098694497,0.3899834876814828,0.37880933036697984,0.4627461869624934,1.6103290931648861,1.6900934136659753,1.2321149042206008,1.1717292162531483,0.6333676938231112,1.5490224628194427,0.9641464966865292,0.6996143513630716,0.9438066968797764
339,1.173387690831675,0.12699872284181468,-0.13489855930923278,0.8147284046140885,0.8132851400292124,0.44368105602501984,2.2973432679908807,2.2908993870272645,0.8179073562422398,0.7117000668051161,0.5978297680564633,1.1358296764849258,0.7259946671914161,0.5018090719937828,0.9443040945198957
340,0.9635672559778178,0.16649351313147465,0.03839698729880425,0.44859068071577,0.4338788760353906,0.4772632966696938,1.3326175436157912,1.0737408405326807,0.5694742366500769,0.5526807258284572,0.6097226960127671,0.9169854175568336,0.4303446735449163,0.3677770266052227,0.9492886879989462
341,2.292925220096683,-0.4726290384193379,-0.09218913572139811,1.292560850507727,1.2971433800539376,0.8307959404523483,2.0657449107847468,1.6248876425400347,1.3294464391602703,1.121640655058675,0.6309483474627791,1.8681366808258202,1.0701656108278945,0.6572892280366646,0.9557713689186866
342,1.5543740832084871,-0.04461735744440254,-0.15056199005483017,1.1326430938312162,1.105911632924787,0.8150684264635332,3.121901509075821,2.273516107397152,1.0299792553708185,0.9906488832083198,0.6425374456860184,1.514531854680133,0.9248916805054553,0.715174219126016,0.9136316146489138
343,1.71000110693264,-0.3129049530007427,-0.37044638328622115,0.8889730048090798,0.8891200873594913,0.6812136469400796,4.030607770397969,3.689776981864397,1.6110508497947147,1.6290984083546047,0.62595550513784,1.75877611674604,1.3984298810890676,1.3228010451989778,0.9424241212348262
344,1.7307175390263851,-0.3486447727744326,-0.26073648927913656,1.3341751245669327,1.3260980749016107,0.8811147968921359,3.975036112771934,2.23358171576233,1.1246207879516843,0.7116311159968158,0.6566669596287297,1.7618770947461855,0.9730305605259073,0.5294305436728655,0.9207403170781956
345,2.1839441114947786,-0.45941267510179146,-0.17610245139621183,1.3406488336141653,1.3068135263793954,0.8335708836831968,3.9469682702605713,2.699911706484298,1.6838670573878751,1.2672888690086614,0.6333676938231112,2.0697112570372598,1.4116121691041805,0.8538196226335909,0.8638916384478876
346,1.706180946376645,-0.5209620258128426,-0.12659859505009485,1.1793071087760372,1.1648256962763026,0.783390533903593,3.0113645192421603,2.405398021452786,0.8211850227603474,0.7568383085142507,0.6619902821573977,1.3777972308659443,0.7007558167527764,0.5886751589632342,0.9100555849967774
347,1.5368129537740531,-0.2007151162186227,-0.32625015055558787,0.7195945036903151,0.712600487303126,0.5720816463394311,3.24132256877276,3.1122219903001054,0.8904206153445212,0.8305579350697869,0.6403206450210053,1.3569081735596535,0.7680887697796852,0.6181624348764394,0.9251754225543428
348,1.1776741783765934,-0.133594496098991,-0.164024473599005,1.1545292487850556,1.1610173891794469,0.8225242000530129,4.049575485431019,3.3478349064450077,1.2590062541098552,1.2601267473439985,0.6403206450210053,1.476267696137007,1.0770605597696528,0.7827057998490824,0.9378252809371818
349,1.5707852595018126,-0.2998255695168653,-0.15877475453956735,1.0268783148480949,1.0098324882352396,0.747629439770491,4.061803852671902,3.8645947408344616,1.2242804032729249,1.3598551943920758,0.6403206450210053,1.4015208084511819,1.0108791505500703,0.8615775726501832,0.8761782298093236
350,1.644214264803087,-0.31546006111955105,-0.2666682024803331,0.9241717586649694,0.9255255637154536,0.6136894099874116,2.9469473846751066,2.232011216885115,1.1688827658578949,1.0692817601279665,0.6584896970785714,1.4114526376704521,0.9687337013471451,0.793609901077707,0.9315546837944272
351,1.6612998224192401,-0.24485573060321497,-0.24090652373907437,0.9414455990258396,0.9228764958577512,0.6674048431778166,3.2867582985210193,4.300159910031821,1.511295687528341,1.9699565136882413,0.6097226960127671,1.6648918972857976,1.286079482739297,1.2887843849708638,0.940969827453875
352,2.0627660578016056,-0.39870907259141086,-0.3784572249345723,0.8865632813645402,0.8761575101147153,0.6758559464254097,3.5909969793500127,3.285606693166058,1.5704617333825175,1.6188857250715185,0.6309483474627791,1.5532676409670458,1.4120432035936126,1.2698295276268985,0.9471615608617425
353,2.1475194989771094,-0.3964402120874189,-0.33193309635713053,1.2548039325687788,1.2386028614758744,0.8123005194744678,3.803781201004852,5.484827211695919,2.152604740385207,5.46714489015002,0.6357360191111145,1.6949958007957469,1.8969586164814647,4.126731077921254,0.9391260631824622
354,2.101388086197153,-0.4129432340881409,-0.23298053093334026,0.8734420202126993,0.8488324549963904,0.6827445606316852,4.187948242597904,4.407374525499759,1.962208099934601,1.003709079375637,0.6097226960127671,1.8959355014782215,1.8136002775613755,0.9422602482885497,0.9438808141581388
355,1.2789129785398232,-0.12250276140560845,-0.1816569112612004,1.039466057956113,1.0207297601411571,0.7197391159827918,3.9736449802304805,5.212540275887119,1.980016117667117,2.6733185134757598,0.6447042257417027,1.6409859140437335,1.6442077918621156,1.5958763838357628,0.9174248955055024
356,1.4839060639367938,-0.2697306825294402,-0.14841892947507573,1.2176242804364925,1.1895406531943054,0.8419244582001283,3.9579480787203716,3.7022581568503807,1.3724981696360365,1.0033543458471776,0.6284777104787076,1.7655720394744072,1.2081813273608084,0.7999580227954182,0.9391672819598775
357,2.0857928926998563,-0.4006513121217205,-0.20607256005765168,0.9818217607342811,0.9661697513219197,0.6593851442438,3.8887386290089148,4.960888682777,1.6589599572155347,2.066163839262127,0.6740851607140061,2.013071365713295,1.4791454143360292,1.3614147652372672,0.9458404535847804
358,1.4917727725414456,-0.17178397036375315,-0.22449690628875618,1.1754754349740255,1.1492837040886545,0.8002781381656426,3.8362064569240335,3.4399271352806564,1.6231571250452217,1.5219679496878333,0.62595550513784,1.7492748576218997,1.5115810394871838,1.0295035490389743,0.9050167824364312
359,1.3162802215820937,-0.19003432230787037,-0.2140758960863588,1.2016216979056056,1.2060315471874377,0.831925108389105,3.9636423775622633,3.645653563471393,1.15624418911942,0.9088745960985435,0.6584896970785714,1.4990401052590059,1.0049814083886766,0.6703059349594493,0.8770251304278681
360,1.014547175730297,-0.121890166352012,-0.06331436552824066,0.8037916172919645,0.7776323962607389,0.6385571147356511,2.901407910806722,3.3498538702211236,0.863771683863832,0.9500046844708403,0.581717464821069,1.2103262782981115,0.6923647516372254,0.562412992556484,0.9040796906289972
361,1.9451251332379733,-0.3554833119520922,-0.19337898451404326,1.1350742981988982,1.1200933431947924,0.779284023465305,3.88912730059659,4.025696282374411,2.1097689351423607,2.7794105738011914,0.6547956803312163,1.8898869472259971,1.892570853847505,2.3469924890083824,0.9400919319971883
362,1.3282576688859746,-0.22740749751993175,-0.09241869925333407,1.2007135668748985,1.1986151931446363,0.8118201914208094,4.3484810046207425,7.581782466533947,2.0672435396527136,3.228753887501158,0.675384900321601,1.893496926465971,1.872983773671517,1.9609116401578468,0.8923210043234582
363,1.462515597259341,-0.14575919526501546,-0.18599746696905436,1.1535309822764326,1.130658230414903,0.7434261682213174,4.223101291637286,8.076917742067838,2.378746774091328,5.476435629770014,0.6233814453054027,1.9295666567153662,2.0786002092656823,4.626809361091572,0.9295394642253318
364,2.229759879053128,-0.42169716912210364,-0.32834205154567714,1.3616248561118949,1.3579304817870395,0.8357971012676403,3.466635713316918,4.082354495433036,1.5430713134910803,1.0539205779703393,0.6566669596287297,1.686498958570562,1.391649206802521,0.8822484243392786,0.8890948967232758
365,1.7061563440687533,-0.06825229336070882,-0.06612443010720037,1.01001077286685,1.012491096780743,0.6283334432608483,2.602467972147049,2.2346346280590432,1.140852945899735,1.0372828782557868,0.6566669596287297,1.416707750639367,0.9315723016168083,0.7010874371304474,0.9457506174600189
366,2.2593532960748632,-0.2720430044113593,-0.3156754353261164,0.9141284293931226,0.9057958276206236,0.6825010595283987,2.458073870900511,3.1285169186001496,1.7582578180532218,1.477772841237265,0.6447042257417027,1.870297753558538,1.5630785264678526,1.0785059715381438,0.939661984351059
367,2.3682823182546286,-0.3930990936774831,-0.318229501285616,0.8371154364179357,0.8227541992340711,0.5196338554183958,2.9130210893148596,2.2791912805734995,1.4251574785668126,1.3600772335303077,0.6038851895711802,1.5272436748081135,1.3107254042950027,1.0163092646088667,0.9489155531504055
368,3.2582552972189784,-0.69780353632866,-0.4523501664466166,0.7608003010903361,0.765081704997201,0.5863616177185712,2.68433935912177,3.1902554134287033,2.4685069455964213,3.8812252800785214,0.648888643467878,1.9999323096124433,1.9198988782635147,2.4443086445171978,0.9425856348488901
369,3.0299600253628083,-0.36098970905755223,-0.6336492902668094,0.8773446344066161,0.8828703111676971,0.572670040569072,2.1793031039499846,1.8254192264302147,1.3366270640070619,1.6048773490010477,0.6207552362147116,1.836617374869882,1.1340971357088212,1.1025210884331624,0.9472293661981861
370,2.888686987688069,-0.38317939645102395,-0.7773743910682098,0.8413325201061397,0.8612892194756487,0.5097147409182049,2.2713139574876364,2.5369194223739377,1.578682619696379,1.2406991598437604,0.6668815377411301,1.7635608148693762,1.325749805644181,1.2629414854590932,0.9423415718527242
371,1.6016288930536686,0.07213454777006134,-0.15413793587480973,0.9954530504298509,0.9784614459190701,0.5575306898894825,2.261233909138903,1.9836277555152249,0.9679300061664619,0.8633884569523804,0.6547956803312163,1.326977783963471,0.853586352479641,0.6361854815824389,0.9483039407506223
372,2.9467763117717998,-0.18560725965174263,-0.9032133589542919,1.0818085575604053,1.0875417575479818,0.7141831909677313,1.7463990184836242,1.8813818488082092,1.612697315186097,2.4094787744617685,0.6333676938231112,2.0637431859617386,1.4335980562533193,1.4014545701256627,0.9274394956385434
373,1.4880720198689448,-0.2752394583531272,-0.09441035996482955,0.7023267434389665,0.7075426100007443,0.39787627880159454,2.1239296731493438,2.1146156637429336,0.8592766503187774,0.6322472210594432,0.5947193981915972,1.261837349771076,0.6929902193290469,0.4188955517272624,0.9546876847809653
374,2.0935724607329442,-0.2811686829884983,-0.337476010670885,0.9475581436413472,0.9498246140684911,0.6000331232780779,3.4232649805402695,2.6685862033575134,1.5850451268779164,1.4013983088138942,0.6233814453054027,1.5366522427084526,1.3735141425158914,0.8835798792794292,0.928135839813628
375,1.481677719422227,-0.17099977416138695,-0.19421710148274168,1.14794308403546,1.1316646478051877,0.7873375914093631,4.257626063122963,4.521073007842254,1.2616207705541675,1.123024199099502,0.648888643467878,1.7483169113852182,1.147268413563834,1.0103451664799366,0.9060307378025038
376,1.801803234150574,-0.3054535208954211,-0.31952934879127537,1.3231877050053968,1.298586262113568,0.8499883739945989,4.578498113661405,3.913134022141521,1.9268842285197347,1.1976156248993282,0.6333676938231112,1.9014999332412539,1.5838039577179013,0.8967227437147266,0.9256953543281627
377,1.9422149993693005,-0.4501909045069068,-0.19125768921099978,1.401695998009336,1.4079587589752862,0.8408035981690447,4.300528551876672,5.330775136759513,1.828406597166318,2.50528172084047,0.6528756675646988,1.9425048425872655,1.6665370530999304,1.9124190221750506,0.907602523422845
378,1.812173948868713,-0.3642472788702431,-0.21129625233291363,1.458573111657821,1.4386183453510721,0.8633208430949717,4.355896913269832,4.316060796267016,1.6530926511809227,2.4961955138535097,0.6125606311107803,1.9366311105751715,1.517967047814099,1.8002340962190273,0.919937562906116
379,1.8037347619940625,-0.399179737515447,-0.2510817231363831,1.0501007632433734,1.0335482687622326,0.7737826031178554,3.81424840198413,3.772485440996785,1.7128770974496315,1.8342365314335751,0.6509067234006624,1.830916184429249,1.5063678714892537,1.4290987236533081,0.9080421358919087
380,1.698224961539912,-0.4501096838009033,-0.2167597952414187,1.1376914363734396,1.1278086817900197,0.7838414587893128,3.8871815692821885,3.5994567253677667,1.3291952305405292,1.4012637496548255,0.6180765742263259,1.6543190601068172,1.1524471139345507,0.9402133135677782,0.8856499349727137
381,1.7307893987457712,-0.40426136918425293,-0.229109442499763,1.1618036067250257,1.157516024585559,0.7710281591297743,3.45837091421522,2.7392045949831547,0.9879447726130327,0.9101353687953563,0.62595550513784,1.5113034418680136,0.8262182210069283,0.6559908539407361,0.9240999845547833
382,0.9896412619100745,-0.15467796682627727,-0.11617089875467107,0.976737300344824,0.9738730234884118,0.6830110123407882,2.03238081090612,1.5713199274278806,0.4018450135833369,0.27844457467536465,0.6425374456860184,0.9019222327220866,0.327710318384427,0.213632006273248,0.9490239630477436
383,2.137273384922851,0.15871108827379077,-1.0554899074846769,1.2661780560524312,1.2709910790596048,0.640848620998752,1.1806569311986488,1.517923244235722,2.074454356626714,1.8318210613655304,0.5947193981915972,1.8460044840804508,1.8939343736469607,1.5085307030930575,0.9023553367438618
384,2.221058845197841,-0.1069671710349287,-0.5153878491535502,0.5373411262005562,0.5358887872540362,0.31567190643919557,1.3021187628944213,1.5811000029727047,1.478167525558873,1.1166757062025225,0.6403206450210053,1.4934837085654042,1.3219661228135013,0.8922727105365108,0.945172541760496
385,2.992188521003893,-0.6454898561936268,-0.48316943715388283,1.4438935469304277,1.4388893864055008,0.8349911568298869,1.2236347709382,1.449351311810912,1.566276112250187,1.7865563017250843,0.6584896970785714,1.9432802768692974,1.4040604320021473,1.7376590005136734,0.8815673718649002
386,1.46544813941606,-0.18231162261323905,-0.10480967697373476,1.3704519292039483,1.3806117943446936,0.8464779154257374,1.2598282695729348,1.575722411012178,2.5696131454499844,5.120828871797191,0.6425374456860184,2.094307043329533,2.1633410698507602,2.2154429030014167,0.9262715283469084
387,1.554591315507638,0.262360682179013,-0.23598447165740422,0.7345870469204454,0.7063666598721817,0.209088484571613,1.6601099147721146,1.6564143670185774,0.8417728979607985,1.164683188456426,0.6468212168108125,0.9779002135058463,0.6400179996941874,0.5875401690632893,0.9292759590617525
388,2.3813624930989596,-0.4682987366847653,-0.5471875122213903,0.8140372432255433,0.8024985342319965,0.4382868609836285,1.2581965453335886,1.4582270473402719,1.2726095561425903,1.4482781491661372,0.6284777104787076,1.4269311875996205,0.8721046558832839,0.8790179868650414,0.8972415163153642
389,3.4146887915726243,-1.0480040423792345,-0.5253875436448614,1.3934570563958055,1.3686718188774358,0.7193335901257291,1.5657383776076392,1.6966239506910563,1.452654031042573,1.3297034177358615,0.6207552362147116,1.991756317702018,1.3737522215516305,0.7710478717777618,0.8925239526432436
390,3.2661662679352923,-0.8460040995168403,-0.6435867531561013,1.3529924928311732,1.3641298678658578,0.7570037094021539,1.7765738437679333,1.7912519616910765,1.6276050139360456,1.0870177780974066,0.6566669596287297,2.058158529213222,1.4815349297028584,0.9681483831114489,0.9143707822955798
391,2.0093182651548034,-0.21774597284845804,-0.26328914633989897,1.3730807042647728,1.3746117233315231,0.8534761791683707,1.6870042893519182,1.7523229641973677,1.3567599942515185,1.1703226132859752,0.6180765742263259,1.835363106710187,1.2512668737188053,1.02316668635203,0.9107829234568677
392,0.3758400538346087,-0.02168097301442279,-0.032027960714138916,1.2879237261848366,1.2600772114055685,0.7702350570973236,1.5235601926142954,1.865058360106444,1.9810476363832226,2.0354036974716276,0.6008849035917525,2.1254622111093284,1.8669276285897785,1.7662008714520887,0.9041943061112281
393,0.8266483178661016,-0.10154731327988864,-0.019117333299867062,1.370641378906289,1.3529865083212702,0.8635163433096862,1.5263410760857843,1.6864093112429541,1.646267535800191,1.7474937773693293,0.6233814453054027,2.2013330053807625,1.4487531773474607,1.0181421392270051,0.8862429135879206
394,0.4287429471620875,-0.009543070980470678,-0.011040987537617522,1.199857491860316,1.173124728072477,0.8398702937658952,1.4441468952238743,1.5406832712481726,1.398859342626527,0.9917943904026154,0.6008849035917525,1.666596326274049,1.2012314671872213,0.848537058328269,0.8939891798547015
395,0.6349561881230483,-0.06999756977728991,-0.02667862452464633,1.3187978674540475,1.314298569845513,0.8761545704920798,1.3874051867275323,1.84238835781525,1.7062407102911856,3.853113786290285,0.6284777104787076,2.006191079940243,1.5677736457110552,2.146624867321284,0.8869983949949255
396,0.8001392548254539,-0.08664103766011312,-0.012599163893757433,1.3013498948308668,1.2600188458838943,0.8362442519481058,1.452380594631623,1.59713111322693,1.7607166934680079,5.339454522191633,0.6447042257417027,1.9914306643571225,1.3355873191307812,1.6005024038978453,0.8892390376375041
397,2.0121279716461467,-0.22706065225484684,-0.20346847457292921,0.8661851841342876,0.8753972636634513,0.5394389337964649,1.5964352758567482,1.6725396140793751,0.9867547656363911,0.8477481408115923,0.6180765742263259,1.4809958373329528,0.7671010703770232,0.49679018344420794,0.9499311737690763
398,3.019483073291402,-0.7727554852127465,-0.2781668904282991,0.7565524538718776,0.760996190305924,0.5867335403205853,2.072558760849338,1.6415154093630142,1.117448207994023,0.7826472245850302,0.6125606311107803,1.8236630182410631,0.9746766542086077,0.6711365499657788,0.9232921022237327
399,1.184721627453986,-0.18040998442184353,-0.02252850132917171,0.8209849645675114,0.829534647715934,0.5708529853257535,2.7164117367189373,2.4834768276671984,1.4063765920112192,1.1123356638550725,0.6566669596287297,1.8305696000151463,1.3263752671225641,0.968546424081227,0.9170923223894217
400,3.1415478259186496,-0.3602389284318743,-0.016746810678363686,1.6552573388548473,1.6660596322609564,0.917490959958217,3.2916086734961056,7.094447913885431,8.243942279643662,,0.6207552362147116,3.1569448671377103,7.557472901614746,inf,0.878050667940204
401,0.014678200531920132,1.0685926820539664e-05,-0.0014295786449061525,1.6212569553902703,1.6012312553189518,0.947547181979685,2.713574535823218,2.7521947544320358,2.611427914598451,0.7371528803569524,0.6180765742263259,2.348512691550001,1.626568449845282,0.6367780327436051,0.9200152989938107
402,0.05312101811983659,-0.004426751509986383,0.0,1.6680491652721423,1.6539077646530107,0.9328522896317585,3.244215352035267,2.8772652593334005,3.179011242253236,,0.6233814453054027,2.5214323311374502,3.1856890447842656,inf,0.9161998791742899
403,0.0,0.0,0.0,1.7129448009404662,1.7043940209762973,0.9478581800450924,3.1311055214585073,2.725821207678418,2.178124254806633,1.4096716425866047,0.6333676938231112,2.2380465718564744,2.0827804429453507,0.6964972674452273,0.8887481700043384
404,0.01664747249794923,-0.00122081464984961,0.0,1.6795713015462872,1.64874811286025,0.9526038152983215,2.8280648611076917,1.9464199968934035,2.3805189118572674,,0.6357360191111145,2.6267774809734736,2.387196714388297,inf,0.9195232296858294
405,0.0020136481316627253,-0.0001476675296552665,0.0,1.5598000644591574,1.5434987869700725,0.8983772661433471,2.860799574437828,2.6669554184112916,1.476294000284877,0.8495563131615312,0.6180765742263259,2.614711660671709,1.4829718028159062,0.5141757106512727,0.9188326578920061
406,0.04394449154672439,-0.0036620409622270325,0.0,1.716478998311272,1.6993239880986837,0.9442852512838196,2.655471855617739,2.3208452146338843,1.802213890094876,,0.6566669596287297,2.5119353221759195,1.8088916926259053,1.3896444480051726,0.9078058351531132
407,0.1789512605034377,-0.016702117646987518,0.0,1.726201718060297,1.7148290061784528,0.9557817341671385,2.7574358571160973,3.5266954110080344,,,0.6547956803312163,2.4076987255497664,inf,,0.9070912279371758
408,0.38627388797786466,-0.031150576763574956,-0.019065028673547448,1.6538661035571072,1.6473065247265393,0.9326209915606255,2.7346511686175483,3.448989307636722,2.186730509178539,,0.6509067234006624,2.1274187030922564,1.969596087685723,1.6134566720290182,0.9257004836695413
409,0.20168431416965776,-6.0519699692070106e-05,-0.015401944386648358,1.7429781361191425,1.7331877467916703,0.9651949406150445,3.1223439057401863,4.647692011528554,3.331764841224569,,0.6619902821573977,2.6138011901991023,3.0866534943644237,inf,0.9127504540150798
410,0.32766799732193524,-0.025121213128015036,0.0,1.7266425598732278,1.7059653142636346,0.9364106213897275,3.2307085028374063,2.7558327403970275,,,0.5451288209179292,2.6570402801944653,inf,,0.8966807566414071
411,0.31686583232516896,-0.0316865832325169,0.0,1.7165669198614375,1.7035250384419776,0.9416347171241236,3.037339139008445,3.047151250960714,,,0.62595550513784,2.376470867613246,inf,,0.9054705496725172
412,0.0,0.0,0.0,1.6897948886818226,1.6856041379538291,0.91650492848941,3.1615138965354306,3.9712131753232236,,,0.6038851895711802,2.5257286443082556,inf,,0.8914388509172142
413,2.044353661172111,-0.327539933715405,-0.03362921309166796,0.7589232606060884,0.7480261137076117,0.4921743107053126,2.915892527245503,5.877849503121826,2.613312706497725,,0.6447042257417027,2.407451903383883,2.618297028522421,inf,0.9327742710078906
414,2.5565446162407457,-0.5033129521863589,-0.014443653846662748,1.7447334769161962,1.7472418771563663,0.8748147277148952,3.1450705412388946,7.37699104708674,6.659816241162479,2.3911950990278066,0.6380535849069913,2.3431756328205235,3.370657177689179,5.6937321388027,0.9321095088141731
415,1.4524835652427615,-0.1731341041760074,-0.08078513529478984,0.5254663893018687,0.5220570120487917,0.37638570164687984,2.953237855594219,2.7475122882634473,3.1951547306379564,,0.6566669596287297,2.1076581339771763,2.5233998229630425,1.1967771663859608,0.8688748694853415
416,1.2166935160493382,-0.1266924298214569,-0.014472389730563863,1.6541520144802786,1.6543432410857764,0.8918153528599989,3.251736138293715,2.644546689337652,2.6356088086849447,,0.6008849035917525,2.4924013315502607,2.6347677788019466,0.8165640339345848,0.9174384741021187
417,3.644792303976119,-0.9282026482476327,-0.1459922441256365,1.2403369177452968,1.233038953228011,0.7161126595476789,3.1429198572339674,4.4773158383966045,2.314505002469,0.7158435973907263,0.6425374456860184,2.325967453228945,2.281427427781258,0.42685027872518705,0.9447631764293343
418,2.8288408474137445,-0.5935092788534139,-0.0002884747086958489,1.7508845634391639,1.7624432602246578,0.8622399296476698,3.817589185033445,7.262807146803186,3.4719948912994165,5.569248929375752,0.6309483474627791,2.35294315233564,3.4525029760970614,5.602118820879701,0.9088278797239546
419,2.8651399462674028,-0.6842409627814643,-0.3260375997104429,0.677507197628334,0.6571690224354203,0.58462380241418,3.366140887151967,2.7140094575112177,1.8082760096031083,1.3185582967629574,0.62595550513784,1.9217163058161473,1.6885573699487826,1.1151826760976637,0.95918112833807
420,3.6998978191824676,-1.0292600744489573,-0.27789005511922554,1.6308461753536085,1.6298617678973444,0.8609367492899659,2.4696316789040607,2.613825715272104,3.2661893132010795,5.713611602836847,0.6309483474627791,2.414386056972882,2.621567045107664,4.762173934797756,0.8961171537319453
421,0.08056850498861129,-0.007788288815565757,0.0,1.6635440962579617,1.6400118908437897,0.9217639025358952,2.381834303077287,2.6338335711853773,1.5405525748477116,1.0952622017828277,0.5947193981915972,2.36813152931492,1.5472303773787408,1.1019623755533916,0.8881069921504596
