,acc+bvp_XAp0,acc+bvp_XAp1,acc+bvp_XAp2,acc+bvp_XCond1,acc+bvp_XCond2,acc+bvp_XDist,acc+bvp_XFuzz1,acc+bvp_XFuzz2,acc+bvp_XK2_1,acc+bvp_XK2_2,acc+bvp_XPermEn,acc+bvp_XSamp0,acc+bvp_XSamp1,acc+bvp_XSamp2,acc+bvp_XSpec
0,2.861171057971282,-0.6165313178531943,-0.5893910332128858,1.2399430381011578,1.2051935178384114,0.8578741771283745,1.4958038945509335,1.5921887364616774,2.6627321620700144,2.2878527475262174,0.6584896970785714,3.2247262385463764,2.4020951949736964,2.0918640616783932,0.9475979050562386
1,2.8962624245708652,-0.7713558485553184,-0.7088265963711076,1.3105821544493548,1.2549280992109668,0.8353019632734873,1.7656481715363546,1.789003401214478,2.971727304850458,4.393902846476253,0.6357360191111145,3.3354096411241523,2.7155690335162372,3.747148362237912,0.9321479667875251
2,3.059651034168881,-0.9057527323258017,-0.4958338552386484,1.384746273862116,1.354105610179756,0.8485469175746834,1.8331541096834096,1.7477292107908804,3.114805676328522,2.624388986195518,0.6125606311107803,3.4577677331505496,2.8683928511773895,2.308815642744682,0.9487016644970743
3,2.486260734329445,-0.6340626358897024,-0.6178854733038438,1.2260680928625451,1.2033076985069329,0.7860594647424225,2.0554957843976425,1.9486130624977616,2.911900720289631,2.8671967469220956,0.6509067234006624,2.781876161742866,2.6698514181047055,2.4901014666651045,0.940496384981032
4,1.8999882638586056,-0.24452804153783203,-0.2600469585095756,1.1690764998991958,1.1782993520070928,0.7018673615286847,1.892755790842021,1.5000899136946169,1.648263053165509,1.5074690517743023,0.675384900321601,2.0605107540203975,1.401144596678872,1.0222809704747053,0.9386997631372702
5,1.8543145425067438,-0.3487322213444478,-0.4552915510345871,0.8967122008562863,0.8787357164140868,0.6745824251017102,1.6487392347342296,1.4851260907199937,1.5076453712763025,1.3683088011176603,0.6357360191111145,1.8311241927503317,1.317241393895789,1.0625127918319315,0.9440000202882254
6,1.72148821978937,-0.26669511096184106,-0.452526962028511,0.5935332863224029,0.5863463525204544,0.5736524265742358,1.3976485894157655,1.4480381888728713,2.2237602944973673,2.740170019181228,0.6125606311107803,1.8659084678643771,1.9427560245766156,2.2613623771700913,0.9527946341711359
7,1.5667969131823825,-0.1913150125202655,-0.26741206952361807,0.48804459839242614,0.45596558440676016,0.5496449820298878,1.2319590014131916,1.0803955397752687,1.4530806181560854,1.8658444330320227,0.6447042257417027,1.4890902669680257,1.2285053469777156,1.380756969673898,0.9371357151474007
8,1.4178955050985635,-0.23216851488848134,-0.1643760602748704,0.5600867835236567,0.5547938783287886,0.5369393239071848,1.5271855253827806,1.2088215934680178,0.8969688758106684,1.0497735087998825,0.62595550513784,1.3445554537593893,0.718050821852069,0.6630988607294727,0.9522177832096206
9,1.6669224176047082,-0.35044958654582625,-0.2306996327232247,0.7876628785250193,0.7837347123446311,0.6277291519891216,2.080344592981928,2.0973030195070343,1.3870088395560543,1.4478514942573242,0.6357360191111145,1.7007616044060652,1.2308489015066968,1.148831151140347,0.9461501069615019
10,2.070557619119463,-0.3225647609262755,-0.486650386183286,1.2291304062314394,1.2041223638088634,0.7501296070302991,1.9729917344062442,1.9265974198725686,2.261612695645791,3.263818884249475,0.68318204999448,2.1798759390016063,2.022053833900432,2.4871363051152695,0.9458238668654569
11,1.5616270432487958,-0.08638978547602871,-0.21211367583988794,0.407369937951472,0.3704855747345049,0.5950654670575493,1.1251854781584627,0.8477744651355326,1.1428738801302856,1.0114088960484753,0.6153451465759925,1.6435118927678518,0.9201494057090536,0.5513551368597361,0.9521312032921819
12,1.5692903321263383,-0.14667405173018722,-0.22725595979242064,0.9730639094759699,0.9700563046451205,0.5403523485536158,1.0523303726687685,0.9765505402534587,1.4571062268992307,1.3751006055991282,0.6547956803312163,1.3220475491919808,1.136931478586104,0.9583477358139543,0.9504773145683664
13,1.4331156404473642,-0.21257582894832094,-0.28014247973393963,0.5055111090208558,0.49510294083505646,0.4645254656976349,1.2865663692997222,1.0108184150726631,0.9087155016036615,0.9792374518506115,0.62595550513784,1.1933626252139204,0.7352098055773236,0.6949834473345246,0.94696250321268
14,1.29901115588169,-0.04199117017183118,-0.0756297462619917,0.8622486549134422,0.8560547264846401,0.5957165740430842,1.136460235367045,0.8729004124330426,0.9016158174227847,1.045420330106263,0.6153451465759925,1.0357626929625001,0.729809346511907,0.6792168637177038,0.9494094041430258
15,1.3124279502266514,-0.0170311443349338,-0.14499079501980705,0.4177750880277238,0.4182526684299978,0.5183014722456329,0.9809387741003882,0.8899098288314554,0.970375120648002,1.049340419755356,0.6180765742263259,1.1860601245284204,0.7887411608180726,0.7505646379654052,0.9412310827952212
16,1.7731028116763161,-0.30647479966213564,-0.2661834399763261,0.9245622007549813,0.9070031833285511,0.6772747617801672,1.6465901831632908,1.527524200103522,1.4329543610409472,1.2330288789113248,0.6509067234006624,1.499089855265235,1.1587426296763577,0.8992392834996691,0.9587192215265538
17,1.6016113621209669,-0.1605724905303365,-0.353511023330056,0.8574020205576368,0.8416828203675087,0.6914080015835906,1.7311252215294957,1.386700065841854,1.0236118559620828,0.7916957843611648,0.6097226960127671,1.6834433257445962,0.8614964541588838,0.579383728023498,0.9462915086170153
18,1.6125372544495122,0.20346612215855142,-0.20102053395929564,0.8581507388451715,0.8115044903023917,0.7135581569276546,1.2633979865771914,1.1570825076206144,1.084471552362771,1.0566153170408819,0.6684167106117298,1.6382947388960825,0.8410275325980174,0.7073015095369132,0.9557286222260752
19,1.420791755570427,0.13347564629701392,-0.03957100852911766,0.9755306544270531,0.9529503756294566,0.6297409202236758,1.0551148686475462,0.9575327885080744,1.1332730318289093,1.3678230508991156,0.6403206450210053,1.3540638344587892,0.9022740073699367,0.9087339542960506,0.9449225621497562
20,1.1939910872182282,-0.10363165382343509,-0.219475740804975,0.8703472723951735,0.8594306206350634,0.5062621662434301,1.1347665989333262,1.1483199905004002,1.0398293328619028,1.3399818939983343,0.62595550513784,1.2307351499293184,0.8648357736804011,0.9893569287487424,0.9411001889712497
21,1.291568994987735,-0.10558216006786358,-0.1811603176146005,0.7285145396684202,0.7202929665547172,0.502350785809407,1.0620870853297013,0.7512076935912619,0.7326131550904249,0.6151073084716451,0.6652988471865258,1.2636834920555369,0.5789483075462749,0.3856707333052693,0.9516272828526616
22,1.5261695967700406,-0.08422265829501918,-0.31475580835657546,0.8355696923710627,0.7947550359406989,0.7125640951721838,1.5243242411559033,1.6447211830968391,1.2841068908030258,1.714471951137382,0.6357360191111145,1.7022844628004523,1.0082688685198764,1.0140684481137816,0.9445723705548836
23,3.617256538377917,-0.9478391705587725,-0.7790892105009483,1.3821446503375077,1.3759136293929466,0.8052652675866747,1.495550597300047,1.6124817694953475,1.8039858213361784,2.342768505122332,0.6357360191111145,4.028556821684098,1.6169567448481277,1.9119037810701183,0.9302750047148614
24,4.885509935369394,-1.6976122510714449,-0.3582425678441795,1.4675108672491979,1.430957818961635,0.6903330638401625,1.3975242127872944,1.6337581785118496,1.9174331181816995,2.171832270553503,0.6180765742263259,5.513162115047551,1.751268107873318,2.063693184711697,0.9426018044478558
25,1.894730948323992,-0.3780307809401058,-0.3483228439563745,1.0244316853764075,0.9887379996242364,0.7327951450154602,1.4877079387015335,0.9682467570618314,0.5202917662974925,0.27966953284063634,0.6566669596287297,1.9766443084251744,0.45845681982731956,0.20342301020110598,0.9512927083814102
26,0.7825395597390385,0.021578011360698812,0.02882238597635567,0.47100805993585626,0.4574026562543797,0.5567288349227142,0.6439565658230685,0.4317688685661437,0.396679335049405,0.37987130980548656,0.6509067234006624,0.7357299836533936,0.28481076959456064,0.22379118976956167,0.9568009684637209
27,1.5546650836074827,-0.47411147127379805,-0.1433807796414609,1.109493375209388,1.079963222295273,0.6501607130266358,1.2317401170624391,0.6557703620942565,0.7848286982277587,0.6061061920932168,0.648888643467878,1.1918978527241058,0.6214257944197898,0.3620415958394303,0.9448925835652605
28,1.6953308903200022,-0.22901589116124688,-0.346301207529606,0.860678511344135,0.8389667045510757,0.7305391646867181,1.5732281859089834,1.4616370186575043,1.2697600989926074,1.1565461972182371,0.6207552362147116,1.7916261447828206,1.123653248819529,0.9024440435273952,0.9420306841674283
29,1.6590000696467657,-0.11150219295238628,-0.254710202918212,0.6802548593539324,0.6632299158195254,0.7021264037692707,1.682521448952044,1.5558073507349823,1.4352099385095503,1.4649712755496571,0.648888643467878,1.8207077911839478,1.18171347052084,1.091923300517313,0.946882273574718
30,1.729907314641634,-0.2661985956411541,-0.3622790812478701,1.116684306624131,1.0876473103670903,0.7176917945197113,2.2527045787709583,1.909638777919053,1.7966961991177188,1.753284046943119,0.648888643467878,1.840319659843432,1.5896201906843774,1.3682758556172123,0.9484245119978852
31,2.0569071773036054,-0.3436570333309438,-0.5304071414739034,0.9645570780847066,0.9629845304679007,0.6065406944384274,1.9609504905388466,2.0386600856727224,2.658992324273672,2.523463067605557,0.6566669596287297,2.222747534567305,2.423244645941041,2.2729363990719156,0.9355543728772511
32,1.9028903997417743,-0.03473749066077314,-0.43966901529285407,0.8594817382675487,0.8669055186105704,0.5412711018827643,1.4691170411393026,1.3146216031596343,1.7678803043384792,1.5090732627689014,0.6403206450210053,2.0651442369790116,1.5529661462467177,1.1495787322601372,0.9410338747725694
33,1.739907705718418,-0.4032760646731063,-0.3105491377265747,0.9901966808905186,0.9698403791815138,0.6636032891633953,2.4951538108519364,2.168863474058038,1.8790925171350128,1.686899530985247,0.6153451465759925,1.917398280850022,1.6455340239976997,1.3284395684217165,0.9370755477041243
34,1.893053298576884,-0.23694488455641105,-0.5189583400780503,1.0443496055527446,1.024843165476507,0.6617275381247155,2.501372788205386,2.3042090309472463,1.9833939735043757,1.7022152590076751,0.6425374456860184,2.0631308428555206,1.7770884304436418,1.4989200877691293,0.9440940356849881
35,1.886167582159695,-0.21120221799839434,-0.3211878287217952,1.1649520727950191,1.1611348611176089,0.6510774707664306,2.162178017530575,1.8572998928817257,1.5434499391325371,0.9776186441804436,0.6447042257417027,1.929031181468301,1.3324042578186956,0.8402694773413965,0.935194563825311
36,2.049613587154624,-0.3863676220062259,-0.41781516873087315,0.9916866304490147,0.9851358290123915,0.6795438806648054,2.3020302923891993,1.963513971468621,2.2285629041978634,1.3978762321867757,0.6309483474627791,2.1656290157464686,1.982116323202747,1.1242547192814474,0.9422046085484246
37,1.9546565190854475,-0.2680916079023591,-0.3582986191296486,1.3611897999938367,1.3642512503339637,0.7566818567228341,2.390104730426304,2.17662854974614,2.192388842319135,2.1311849637793467,0.6008849035917525,2.1653383884738977,1.9574056482699012,1.7593679734368195,0.9382463935053275
38,1.8803080212709946,-0.23384937444071985,-0.36476656498656745,1.2431808055849358,1.2292473206703673,0.8115595784182715,2.511676156181733,2.239445252907424,2.070513630021172,1.8449062114667434,0.6468212168108125,2.0538171140414905,1.870503419197062,1.5916002042480788,0.9364721926442093
39,1.8298053252261857,-0.3035652195586518,-0.2562657392045655,1.0838984511378702,1.0490727411093719,0.7766470044812817,2.4249496502648458,2.2394203973861417,1.8699842046530137,1.9984053369153811,0.6584896970785714,1.992407942714894,1.6581058645654945,1.684006607931609,0.942191646534095
40,1.8096326830958116,-0.2193019433748501,-0.39804923928491504,1.0921661271573004,1.0694823140282772,0.7185962919941126,1.8605555028308909,1.7343007994737292,1.638536816884115,1.4992586911054158,0.6652988471865258,1.9816294437793394,1.4476245356653414,1.2178962787842935,0.9509494877492116
41,1.5006183329479479,-0.17905727933024773,-0.3322051459598633,1.0130185465946702,1.0018392634627546,0.6918553380959165,2.18496540395628,1.8224602016037807,1.199841129293297,1.033677081538567,0.6403206450210053,1.5758956845667464,1.064495868061649,0.7668239013593231,0.944773012451959
42,1.5376109459982956,0.08772331737660433,-0.2850777330696379,0.9148894403555763,0.9024550127192059,0.6804660013685454,1.4893851293034903,1.139654620756967,1.0165423289366704,0.8887241282998063,0.6180765742263259,1.5519030262588787,0.8202703535418823,0.5529968836380992,0.9464111203652917
43,1.549747915463028,-0.12433196463004859,-0.1801117754875292,0.8574872793095349,0.83228322384709,0.6412011021437098,1.6773874886777662,1.3027120790604427,1.165748645178606,0.8542175933319102,0.6309483474627791,1.421253943577161,1.0012414460894423,0.5886889884463093,0.940508090722694
44,1.9210420245069961,-0.4917516797434558,-0.28303531391288417,1.2021359585464084,1.1966539201253112,0.755312656251116,3.155032220136784,3.0039615103697153,1.972356608729109,1.3162561465480052,0.6619902821573977,2.00974965530147,1.8034340514591154,1.1792842833802215,0.946470985415558
45,1.5634962974968805,-0.04532378456604513,-0.28329053079642585,0.738304950751305,0.7101676080445105,0.66644417891529,2.0080031615548553,1.6798166726084975,1.1896554002364819,0.8254292957164256,0.6509067234006624,1.8610380958248236,1.0647536073026016,0.6702047568397974,0.9491083025901565
46,1.654028019326297,-0.1206114986534802,-0.4032732952667283,1.047389386531648,1.0511780340951185,0.6873372840035806,1.4815997726752723,1.317081569537361,1.2928140588845862,1.2605817241496928,0.6425374456860184,1.6344138985042775,1.0673229405413407,0.9118290207627887,0.9483823944039271
47,1.213564014931229,-0.22097611525098448,-0.23896076061132765,0.5622728660870293,0.5429643965818071,0.4832704977158137,1.296019382060814,0.9659606175238364,0.6460612988529638,0.6136906322758124,0.5978297680564633,0.9755985127729654,0.5186275679529344,0.45294041275522834,0.9341714101319808
48,1.7691471785557271,-0.18021061460001386,-0.394921888062439,0.785934974278157,0.7645077483706381,0.6914918347328796,1.4545634857563747,1.1181617461252433,1.3373813561761547,0.9161418215908129,0.6547956803312163,1.5821470521981966,1.1224092596497575,0.6999799710797158,0.9535421977279188
49,1.369870029175637,-0.25411630461611734,-0.1907367940598716,0.9734172078993875,0.9809303634216705,0.6115863119718109,1.995289841689732,1.3887056055105655,0.8709099953811595,0.6942291472314362,0.6447042257417027,1.3660996538343713,0.7301038094431199,0.5061362834026045,0.9403974096565824
50,1.5507541939157166,-0.11436308693853792,-0.28894473585741987,0.6762919773576858,0.6662325490158442,0.5651722380399599,1.5458034645129437,1.376215942374264,1.3032875971823552,1.3029276233984808,0.6357360191111145,1.5017800377275905,1.0745111738622624,0.9064778237661141,0.9535250440435452
51,1.712046094301422,-0.35451254782160335,-0.28400145142896144,0.9773747393084846,0.971906790663273,0.6384865004407062,1.7563838772133682,1.6240769504424588,1.337186445497635,1.3812977652741105,0.6509067234006624,1.6083829135855878,1.0824824627625214,0.8744207938469412,0.951365129991432
52,1.2404228283439542,-0.12310432106197544,-0.14466256187050486,0.7615169949388102,0.7293220703357588,0.6075141442166739,1.1852657570164327,0.8591972778453507,0.5853746725393535,0.518938885657757,0.6619902821573977,1.1947194526466332,0.46923331209376556,0.33286478825548116,0.9497316885331208
53,1.1460726746881866,-0.15641941491394207,-0.19723019789922658,0.4219278349422323,0.4117917665893226,0.5002315046876546,1.4997464541700318,1.0229927150212,0.7054260609861217,0.5023574503206665,0.6447042257417027,1.0626018511450765,0.5758072584264893,0.37001494487298986,0.952397364606847
54,1.6620943976190694,-0.321820974345312,-0.3590384683951702,0.7975788327551248,0.7775782695983633,0.5774922621037873,1.6203805876178272,1.3789086578619894,1.1624044965076095,1.1225509130997353,0.6425374456860184,1.344086660467333,0.9529582521510974,0.8487353571792196,0.943867727482397
55,1.1247687308173695,-0.09016648515384329,-0.05054571931631757,0.8338825099054996,0.8199393774211754,0.43672928575088327,0.9171857944495855,0.6161991652583287,0.7808046473617586,0.6974786282056086,0.585052858160615,0.9485270042307752,0.5995545280435538,0.4346770349413686,0.9510958433882676
56,1.4818387081914968,-0.004405164341338308,-0.1502660791900503,0.9885848263424611,0.9687733150028409,0.5912861488753646,1.265592630949815,1.1125746055001913,1.0194600744711726,1.3072910888430882,0.6380535849069913,1.2469962944343675,0.8377928535720638,0.9149511469450986,0.9414365777691334
57,2.005527538984479,-0.4553209242058228,-0.328728805333578,1.0881713486739772,1.0836883412915697,0.683402159396416,1.541814950339218,1.297000715530123,1.4504668681678827,1.5885252965418302,0.6180765742263259,1.643454413244916,1.2375612497272237,1.1639040159224379,0.9480187841561976
58,2.178800757927125,-0.4258990856755941,-0.3871728161335772,1.089482210698562,1.071113319472829,0.7587757612633156,1.8723925697952353,1.7591555876320168,1.8333179676565083,2.5582491836909727,0.6509067234006624,1.8551253448498748,1.63199309931992,2.020549151560116,0.9480952907121398
59,2.3622414139657675,-0.8128553041396016,-0.23342289219397955,0.5363751524351538,0.5215522499006848,0.45540952254950473,1.8169414458573794,1.5177395923043904,1.3706022338020662,1.3974898502746134,0.6333676938231112,1.567336736415465,1.145056214120882,1.0497742993474215,0.9632384012537096
60,0.9357677651543341,-0.044382469316129436,-0.04444978382256737,1.0031088914879993,0.9981262751484697,0.5054469500751699,0.946899437923163,0.7386832269779802,0.5007239190763482,0.49159106987882323,0.6425374456860184,0.7788261123157965,0.34431796854164537,0.2508704316206639,0.9505132943790874
61,1.0696263546647484,0.1768013572327658,-0.08247203654046575,0.5875466904703252,0.5701244727429227,0.4958896178034743,0.9112465892703189,0.805913743444217,0.5899691965811317,0.6713661433767714,0.6333676938231112,0.900554093724681,0.4751300882831941,0.42316704103393615,0.9528288811909871
62,1.4079298378670317,-0.22336970598984052,-0.08836864478374518,1.0394985548675033,1.0247052029316177,0.5621782503779786,0.8573521168826662,0.6214069013869619,0.8603715736910237,1.0323912294896789,0.6233814453054027,1.161445597839679,0.6958128536210718,0.6012010283124014,0.9540162243899921
63,1.8340089012300076,-0.3233676523935609,-0.3175951203662071,0.7677604688071153,0.7607520314502295,0.5752469715216897,0.9118984390098898,0.6796282345258613,0.9715966296823799,0.8369379014147692,0.6447042257417027,1.2749915360064352,0.7857809181942843,0.5684665664772008,0.9459363948623977
64,2.638836700885997,-0.6281484342339755,-0.4168284969049004,1.1016357768124048,1.098392035905216,0.7622640724535843,1.3988905361529138,1.437398369269136,1.4578909192056557,1.3597684650982387,0.6740851607140061,1.8126426801444793,1.2393072734077404,0.8842519075730852,0.9596962785457221
65,1.8956204100398908,-0.25292757964750273,-0.2311186233898451,0.9547029761106806,0.9510237165972631,0.7057559877205631,1.2878024979885663,1.6464691992159475,2.086305542922675,3.22686180028717,0.6509067234006624,1.7905601886525728,1.7755118361998163,2.154517568120193,0.933803862880125
66,1.1412840167891067,-0.21867694582169728,-0.27397716521733506,0.5344781181538073,0.5265701561859827,0.44189773652291625,1.408176551276891,0.8520494151515867,0.46254287270121774,0.28026659106845675,0.6684167106117298,0.9233153468111195,0.41533236084141806,0.18818667624635269,0.9218152913361178
67,0.5721860693898293,-0.06269928963459726,1.562322812675987e-05,0.5273812636683872,0.5144647134853955,0.4301506764535753,1.4306716514913413,0.8843802848340054,0.3079570002841764,0.24311890269915548,0.6333676938231112,0.5706149463937997,0.23951558965196465,0.16193721129738903,0.9557671238551587
68,1.0184691805163433,-0.23450722138491487,-0.16212288279921083,0.8462708541049957,0.840512600097465,0.5282603032051407,1.541364103166384,1.2776394783712313,0.4497859921443502,0.4284666039270556,0.585052858160615,0.8151139558626599,0.3697463648533405,0.3018192988838535,0.941576477874922
69,0.9611229507679346,-0.2532152774157752,-0.14180922941962254,0.7008393768317657,0.7042785156526324,0.5898740878891671,1.7320335691584898,0.9597551508094613,0.3287526730776534,0.21551135922914266,0.6357360191111145,0.7893889052286012,0.2657489098542292,0.17286208259979796,0.9518185902420953
70,0.8134678862304314,0.13874096025580873,0.00769185849026266,0.4163996051380652,0.3980279894393903,0.30692833278851755,0.8249385578431078,0.9031938593658828,0.6914003418913225,0.8436587477227346,0.6509067234006624,0.8301894911551401,0.5385706086735044,0.5555407760313393,0.9509932917551402
71,1.30686736833294,-0.19036209512768876,-0.2924859033161889,0.8284792944444486,0.8222179253780778,0.6437309454241291,1.836685509602193,0.6336955241258517,0.4326038463807579,0.19641332162413114,0.6547956803312163,1.058366460099583,0.3802041344745713,0.169645841943265,0.9361878579192012
72,0.758076086525047,-0.04278285491401029,-0.03808186616856729,0.7676321070808172,0.7447576546767787,0.6433162631863313,1.7193164850040605,1.0306042032368452,0.34820291411498666,0.2480446860743389,0.6284777104787076,0.7967807931119092,0.2981051138153868,0.19520978032715464,0.9545340410025807
73,1.3503116608232009,0.039919154499947984,-0.3241334281323379,1.3001543429864628,1.2890846115186954,0.35626233684752173,0.8454794175790791,0.7646853294048609,1.0234487461982402,1.2758861681362044,0.6309483474627791,1.047982547716788,0.8676786381758278,0.8750462488906038,0.9345743549340357
74,0.6794536877384303,0.049115138210930054,0.0025666534419233056,0.4512955761728361,0.44829083167598743,0.35137786313797853,0.8183110326062926,0.6839431035495708,0.3423009598653839,0.36008162616350703,0.6357360191111145,0.45793453246198146,0.23935454726529903,0.20707308128160082,0.9610933978089654
75,1.7988800970778203,-0.2958517717158097,-0.3599144957832793,1.2781568861145276,1.2585365601519285,0.4543649769721719,0.5038926432420446,0.6358613847599026,1.2076978624191135,1.8785370462342967,0.6357360191111145,1.2967380770070316,1.0240109866146851,1.2878825756494685,0.9045593205280663
76,0.5503115410402893,-0.02253432444693415,-0.058788387778722376,1.6186124790241163,1.588697704968465,0.962184259074815,0.6891808104686251,1.0409214457980913,1.950902842402281,3.5067692675779787,0.6097226960127671,1.8093804779854576,1.724967416464203,3.2882495761921695,0.8827308395630085
77,0.6696423967748141,-0.047600214022201374,-0.029089882802185475,1.710183203599564,1.687424649267904,0.9418084699750127,0.74227369315188,1.1444436455005609,2.1208398725845816,0.6736808759663457,0.6447042257417027,2.4405708359679488,1.9684844710938523,0.5077861077480939,0.8775226658805914
78,0.8964762999463918,-0.09710381096092127,-0.04932065136365605,1.6081802838435144,1.5962558911958018,0.9072148719844452,0.7809424934514699,1.275917697275653,2.836224057471879,,0.6447042257417027,2.2120336929899276,2.6148921190375254,inf,0.8539057378187729
79,1.0483931850505073,-0.08926893378167164,-0.019065028673547448,1.6085469469083482,1.5816879286201346,0.8783335281802972,0.8620973491085238,1.2972494006253492,,,0.6566669596287297,2.640547328000624,8.767017621311778,inf,0.860069892744658
80,0.966210057738007,-0.11160516235210899,-0.020443545538751964,1.737001510856414,1.7271263615959547,0.9360232644640639,0.9843140360481957,1.6552035370569853,6.144043414242306,,0.6233814453054027,2.366471974642902,5.607105770184353,inf,0.8497191504642041
81,1.957600849491314,-0.2096427328343944,-0.17848563762577033,1.6118739898576977,1.6116483024087298,0.9315259546369525,0.6667114894068074,1.0149050721708877,2.177661574195212,7.074167722920218,0.6233814453054027,2.1423576758953793,1.925669578009348,4.343805421853684,0.8787484718724882
82,1.533164964158847,-0.23402321255120428,-0.322791099292684,0.2583197561569447,0.2599372144111808,0.2907254858074111,0.9811326623577817,1.0169771496724982,0.9931706040499675,1.2365651743115995,0.6357360191111145,0.935473551290929,0.8090207254700118,0.9219342496504498,0.9585918746540173
83,3.003461504122396,-1.123041969130275,-0.258992000430153,1.4979425068094654,1.5014253101320545,0.5542107826934618,0.7588256309019178,0.8694745385629298,2.1821308163490913,1.7033335579336615,0.6153451465759925,2.101550827267937,1.9478203693114327,1.5233830156704273,0.9633554707414875
84,1.471403050744744,-0.18894197815854988,-0.05138718679642496,1.4396419009000019,1.4482739902255293,0.8674198591369388,0.8000738118581878,0.9300138588551711,3.7882971911621017,,0.6447042257417027,2.582152034226836,3.2494638119392505,inf,0.9349240788281612
85,1.9183485929503599,-0.33766780299496313,-0.040824690571377234,1.437867740120659,1.4379326993998254,0.899559618502864,0.6912077436078414,0.7821926215246319,3.0001600874354715,2.4432902109112087,0.6333676938231112,2.424376150047968,2.507756082560344,1.7840848344749463,0.9343464180584868
86,1.9003953056644545,-0.33659579504950776,-0.10497987377267737,0.4558682490996651,0.44239950764625297,0.4708991028221327,0.8721303042647655,0.9992071762449071,3.050816965141194,5.219046499942637,0.6008849035917525,2.4311763273670324,2.724484738779481,2.9938073451444067,0.9531375080387285
87,1.406495869352252,-0.18346497905222264,-0.08199667457791732,1.3744774497916405,1.338334037802313,0.7760296321631748,0.7356462049500676,0.8716088339332627,2.2953773487442017,4.540576033798625,0.6333676938231112,2.4787920487881463,2.0828930252602063,3.4446824936018943,0.944895775353514
88,1.3003237276893962,-0.28749027333211913,-0.049469351464302855,1.4501561059121113,1.4265572269983346,0.8389441085398694,0.7070230964756348,0.8033546102659135,2.295984987522222,2.078195218591736,0.5978297680564633,1.9448329516630243,2.0781216144724035,1.4985063517268187,0.9312728077007019
89,1.2035004295596154,-0.1341741091868937,-0.07218443585277834,0.8425611508102046,0.8217021666438415,0.6185965686083921,1.0126495397897797,0.9349499228802942,2.4203221086091498,3.2902934303615887,0.6284777104787076,2.2178355312403437,2.2417923494570893,1.8603407333825848,0.9423580919552887
90,1.158372863665598,-0.1884679999793356,-0.026414806626450245,1.3734342721726538,1.3177540218571466,0.8705835123527044,0.9062659594287397,0.872131481044166,2.970661155523739,,0.6180765742263259,2.168734306936592,2.715268336226298,5.8304151255895675,0.9336543255486426
91,1.6241116309735286,-0.3296862416977562,-0.10053354616071843,1.3045327886616356,1.2982786705953857,0.8336716554960982,0.9496831272456017,0.8793744761578562,3.242703570211562,,0.6233814453054027,1.9597048600775024,2.8910817330768572,6.556778356158042,0.938370938250242
92,1.6496826971205898,-0.39505500611870537,-0.044794949053532034,1.4574191764956421,1.424294842628242,0.8937555559129238,0.9862226974145917,1.0687659174544206,2.485931998311773,1.969129104444975,0.6447042257417027,2.0949387837954694,2.301412178166566,1.6313166338099074,0.9252395949126945
93,1.6409509640202884,-0.32026929305460816,-0.07616477675771958,1.4570076469396334,1.4343638533585168,0.8771399158989509,0.8682252616708245,0.9803107840430321,3.3972567668362905,5.232397833117502,0.6380535849069913,2.071385192497072,3.0920128561515945,3.1531244473054203,0.9193765859378128
94,1.107464773430571,-0.12848176203836034,-0.07672684902807583,1.563514838249886,1.550646105707062,0.901438541813232,0.9022445092149074,1.202204191829879,2.934151261869063,4.561806027845936,0.6403206450210053,2.28879177086171,2.689053700411555,3.385197040315714,0.9150588645133149
95,2.197281969071368,-0.5724638063356393,-0.19658488283933934,1.1829185082389935,1.170979576112698,0.7764534044166196,0.6754921272628563,0.7525505839366363,2.4763486655219924,,0.6425374456860184,2.041075894846288,2.355275067115747,inf,0.9439550710911947
96,1.2092489559429391,-0.050640218729990916,-0.11080386385566621,0.6846883204161266,0.6906105170583602,0.10345795109085679,0.5801528307739965,0.7166466826708444,0.7925783427498989,0.9780291507152231,0.6284777104787076,0.6169477462451064,0.592409900727736,0.651609002418914,0.9727551968686247
97,2.644108794314699,-0.71498282646162,-0.33401716627324235,1.118495861260226,1.1222465558631352,0.5156144736403676,0.2435217442627732,0.3361441480297315,1.4954593261568128,1.9558587028508192,0.6584896970785714,1.8314016045004984,1.2786198154556203,1.4655899637904284,0.8925170083637578
98,1.2866026655350657,-0.15271306591764502,-0.159127582064098,1.4130662739540683,1.3769507007479491,0.8956342380198966,0.13693702851726527,0.23746264606004172,2.1858074294412937,2.9202838167775775,0.6125606311107803,1.9976362856435466,1.9639271653447354,2.3400560244235393,0.8850236895434522
99,0.7165336342449877,-0.014752225604328373,-0.03158725584819361,0.14516110362951753,0.1479063932915966,0.14730120274319636,0.181721756327586,0.2360881454580157,0.6493381668724831,0.6828551661930691,0.5713653840954815,0.7804495089627419,0.4901776335106834,0.4431224531196025,0.9454440166398808
100,0.9546798933526197,0.1474292224086038,-0.055804648676439195,0.24137394552797656,0.21700943037211598,0.08743934174596585,0.18043694445001496,0.24670222950362675,0.46285482540004075,0.5157798575336584,0.6468212168108125,0.6561083331249589,0.316664570704003,0.334833513048938,0.9673263492374781
101,1.9850790499163529,-0.4568951340512156,-0.25473268598308174,0.7461055711034312,0.7536389233933168,0.17817017132043045,0.4921344470659357,0.5608760999774192,1.2697145698759706,1.4671288208261941,0.6008849035917525,1.1447260376341335,1.0493036488055667,1.0184775719776247,0.9705979347499205
102,0.6614352297148092,0.1612384620323104,0.017411037122471495,0.29874863549611025,0.2961488972302769,0.23006061546530732,0.39475125768252756,0.35936421382961786,0.36174157812477903,0.44502111727703214,0.6180765742263259,0.45453281078784596,0.25508256247940675,0.23139505489736742,0.9559240766153514
103,2.496623583879473,-0.3153706651569026,-0.5773772476734498,1.2389794974830919,1.2454267774209662,0.49547195652152987,0.14189803491433378,0.18701531588009102,1.6829559266993899,1.7918924363682716,0.648888643467878,2.1635963963562355,1.4741675569522705,1.549210825904157,0.9077386975515789
104,2.4749353558488307,-0.5055833616663644,-0.2942893383633257,0.9370635137142627,0.9154042669854072,0.4984507071420648,0.17036938971901686,0.2393584580366633,1.8385094336132088,2.1126640817933833,0.6038851895711802,2.261229907312132,1.5820965668297795,1.7352928575602837,0.9102258131071613
105,1.7228405596636318,-0.22544234901133087,-0.25710500668694736,1.1963943119489497,1.2026771802605918,0.784471231365431,0.09610496164605317,0.1535836246302138,2.3074463960911418,3.1355645487257964,0.6097226960127671,2.485440125394144,2.0880160851044196,2.8267755535813675,0.879300381864177
106,2.2345876308634502,-0.2980517411489425,-0.5172399417404022,1.1842810108061625,1.1583331022748349,0.7728801191451324,0.11010509591388833,0.17412814383768985,2.5798997222667857,4.964847731617645,0.6233814453054027,2.463145158006488,2.3150565378684655,3.7961499093812328,0.8806001165819604
107,0.4319276185750518,0.0603838997434093,0.07391397720530424,0.10696905971831198,0.06369191834860916,0.07233489344336959,0.1665737557442234,0.20672970044187342,0.46118974498271775,0.4796583866209012,0.6403206450210053,0.3471961999841886,0.24795753526349734,0.21878098998894152,0.9539578169775994
108,1.295750989452597,-0.2582068913165699,-0.09261366223416903,0.9664703191638032,0.9716774406006236,0.5700598506081364,0.6634383691985394,0.8021496392889647,2.2333010288493353,5.059404866370053,0.6153451465759925,1.904256500455201,2.085728046442657,4.05028457242807,0.8959524812047389
109,0.8071317933914979,-0.07704634390118985,-0.01442859268317992,1.514075738499444,1.500519005254114,0.9119431711018847,0.7454525694955941,1.1108407365670474,7.611696137923058,,0.6333676938231112,2.4028966477384244,7.618373940454087,inf,0.9196545960487206
110,0.5650365712563765,-0.02169446812026231,-0.030429208122626374,1.4995676858500582,1.4784664337070959,0.8612816870137397,0.5568276545284682,0.80161026321343,1.918993346615893,5.701240311034301,0.6357360191111145,2.3876589542407243,1.9165839325455654,4.395271861423902,0.9031139839769409
111,0.679273110405054,-0.0158088671915515,-0.07716572038838748,0.15643652800837793,0.15797622027706465,0.13223484924503248,0.29328500034160765,0.27828472946029387,0.29288886501112565,0.2716171106501001,0.6207552362147116,0.35662732602486424,0.1847338731666107,0.15249734543901639,0.9442565414637185
112,2.2096586331574457,-0.17020307195615825,-0.6313434998135162,1.5603650086912348,1.5507275911421696,0.4159046530980503,0.11659557611092673,0.19352476400234406,1.4037771552062057,1.4261438726129063,0.6380535849069913,1.9230837754511056,1.2380473877009321,1.2994577940249459,0.8854038920310399
113,1.6491282117886275,0.04874064057401606,-0.27919135228788217,0.407710450922397,0.4096882746324871,0.29306560976916385,0.17649072080921763,0.2329363507598942,1.1546170951773433,1.1182967917232765,0.5978297680564633,1.2948299506541756,0.9114353713341928,0.7421593673564133,0.9479293651828312
114,1.5792685762983176,-0.06306701593899544,-0.4903983326423453,0.9224327563061533,0.9256217928136216,0.5766323417402497,1.81279518978339,0.9399814312249384,0.704398921600219,0.42533397858531374,0.648888643467878,1.1972914705254214,0.6040470651496277,0.32022213774018066,0.9502142741223509
115,2.173716654886241,0.06993700496146382,-0.8487398370940342,1.0831894921156586,1.074095543711304,0.624264899254772,1.6970361781304872,1.6131905289710855,1.2388838255141557,1.135119322236175,0.6233814453054027,1.6374373755215665,1.0264364632478147,0.8294388318005798,0.9526151232283151
116,0.5002928146544469,-0.11316827612858726,0.028300381932771124,0.3943472455130873,0.3898602363919402,0.32950288846252423,0.46676228418866333,0.2963414046570722,0.17503655513988844,0.20586725850882973,0.6097226960127671,0.3531573284848195,0.13090015065482255,0.11369871679996729,0.9435002887475454
117,1.7480287042450748,-0.46660519388630595,-0.2810132870251147,0.9776067592819375,0.9788149378383274,0.26551432847619266,0.5382412800854273,0.5351231378154442,1.4523774798457365,1.618582506591975,0.6309483474627791,1.3183449968602377,1.1337718301047717,1.1306024313205363,0.9231004766945683
118,2.8497277975379034,-0.5987876535634621,-0.6770274411912495,0.9056543452578326,0.9028809933795802,0.4752162520439369,1.048153064777313,1.19894124337696,2.1338253829793765,1.8508725140270628,0.6309483474627791,1.7259093086656878,1.833502554447189,1.5924030444461583,0.9393334948459544
119,1.7047468410621303,-0.384435001448873,-0.21401371343871833,0.5601398370994604,0.5521912097959785,0.394377257977104,0.4801774081772828,0.35850639782814453,0.8933937511975621,0.8717471668881389,0.6468212168108125,1.157478041535146,0.7017041040103431,0.5741445842693321,0.9553336822208353
120,2.652117063619697,-0.6776557888900011,-0.424350846510537,0.7392344656010718,0.709268660188125,0.4779340027851407,0.6194191928614093,0.8220496156701309,2.1908645478543542,2.0842489747607518,0.5883313578629602,1.7437950427115378,1.9716565670053978,1.8228164264616922,0.920749195446603
121,1.77223043696887,-0.27288327458044526,-0.3135112142078216,0.5335829578177741,0.5315119294095318,0.3223237190660901,0.6283108319375037,0.805970616821473,1.7136308938165594,1.61421524354613,0.6207552362147116,1.4529566172685597,1.47823713514786,1.0061470609960161,0.9169529172839457
122,2.1083781346219355,-0.31793659284027465,-0.42598004717092297,0.8378337609322665,0.8459608549225587,0.3899200602398961,0.2306864484898612,0.33552174457923367,1.7498876637760101,2.2287008125147914,0.6380535849069913,2.0357011431795478,1.5619167196560637,1.9127932188400498,0.8905642368752279
123,3.727781870025024,-1.05989060470907,-0.36240062165640446,1.5548160736217025,1.539194330070374,0.8536709918915816,0.16892014577804484,0.32029182707812315,2.450794076322777,5.954305165852709,0.6447042257417027,2.9890877308353225,2.1569855341560373,6.261491684321042,0.8864769924007565
124,1.873863809065463,-0.19380887913169725,-0.08064535424435702,1.5204766915509191,1.500122211287949,0.8682893607162849,0.2022682831570044,0.3196923697018176,3.6512146646165684,,0.648888643467878,2.905485395706213,3.3259298210323602,5.176149732573829,0.9004613521248503
125,1.761629435037959,-0.2900387155451157,-0.06113860059819651,1.3639771917864072,1.3099018408217078,0.88070471339441,0.19335145989754152,0.3175499052632407,2.766032744646467,4.287665522344892,0.6727386042041725,2.394578556964136,2.606106406278952,3.3158375327109986,0.897872568823621
126,2.4890227741704014,-0.4069189576408866,-0.1013100560577651,1.4723753866215181,1.4537574166125111,0.9204250383144398,0.10986632312201121,0.19563395698494254,2.513961772269755,4.5833563744074794,0.6547956803312163,2.910574465213684,2.2803843830138533,4.830311739964975,0.8236632172035764
127,1.8529993821204753,-0.27426279339586035,-0.13666983120237264,1.442308072844657,1.4076839191853607,0.888341689675255,0.11184034282236421,0.1952523460797866,2.6587096683360456,2.2495445819647797,0.6566669596287297,2.5156408091578615,2.4638188674699446,1.9621971540300123,0.8463792387178967
128,2.367115076060963,-0.3719157703828516,-0.23028225481008213,0.6051095568865799,0.6011738306143176,0.5106140938375788,0.6672448664796959,0.5057228760659145,1.617505233218051,1.6335473228067334,0.6008849035917525,1.4597734712197497,1.293274095813196,1.0347931684967862,0.9420043486095876
129,0.3663200948101897,-0.11236996472412404,-0.059057360674089426,1.1929089788590304,1.1899298693075115,0.7094977078020125,1.8168640236833633,1.2878296362962467,0.1898135395551969,0.08606328806269689,0.6309483474627791,0.7274396132173461,0.12407824998076739,0.023177839690602147,0.931687814590372
130,1.9403497596283692,-0.2010541041679211,-0.10290007138359192,1.5978028963086188,1.6035914015547252,0.9088740946540542,4.655945252804474,20.02711023105516,1.7334079452755466,7.290390831389854,0.6309483474627791,2.3703881963454085,1.7279643872742312,1.6222370093529428,0.9339800991828274
131,0.32326679316750034,-0.033404235293975036,0.0,1.138861387829061,1.141021770962615,0.761407318211397,4.370937547730134,44.20071547694573,2.2658043045058984,,0.6207552362147116,2.3360269802166784,1.9848000345851466,inf,0.9305560479073328
132,0.455522807045679,-0.018956337174569564,-0.023559124816360473,1.4899388532730105,1.4799597364860515,0.8904959348925773,5.234636310897336,28.55587518545409,2.5329999221547563,,0.6207552362147116,2.4742964706759847,2.415597205724142,inf,0.9346583567047632
133,0.009819888168938454,-0.00044700401374771204,1.4182364990909465e-06,1.5794875327838453,1.5859789858489417,0.8941822329302243,4.512352749774288,20.80390130968555,2.2865301286504196,,0.6284777104787076,2.717427362914807,1.9113526887124181,1.1439952945159273,0.9073944217972069
134,0.056039355266880496,-0.03994001381492276,0.0005505005855425437,0.7593445932448524,0.7619546218525222,0.43875268295289827,0.7279503014211298,0.6402137324989963,0.023340988673971334,0.009828864200279149,0.6180765742263259,0.32449974928505965,0.027661586800793732,0.01361842323914047,0.9420890619885515
135,0.3722442181467893,0.0347562048151715,-0.009365904476389242,0.3476184827122292,0.33370886610291184,0.23647592177790122,0.5290706870754421,0.43723251476640523,0.17150756291680813,0.24838060446118562,0.648888643467878,0.2818767338635461,0.12233915484418648,0.1086302935308672,0.95302010495718
136,1.7788189486016035,-0.3206860543554003,-0.34506852107664904,0.728084702631036,0.7233059191432203,0.46067570252403833,0.4242170658661747,0.5276844334538467,1.6608920008899035,2.0202040343813903,0.6284777104787076,1.4826094901610332,1.4525504505252655,1.5477926125775434,0.9507388965422157
137,1.0676095475157985,-0.012696205845738051,-0.20162596814819123,0.20815691547802762,0.18326096054870036,0.31103414577905686,0.4485680040774229,0.5084246493868534,1.5696903446888262,2.1478912191633794,0.6619902821573977,1.294789391752505,1.3327566696907451,1.4123103154947807,0.936063831167274
138,1.7995566529062812,-0.3667139959587123,-0.3278390183100752,1.3908193426323245,1.3886980401620859,0.8274849329034993,0.327192104389615,0.44203690887658625,2.7058853072409503,3.2166102481655026,0.6727386042041725,2.175854551600027,2.465518683052025,2.688654270754631,0.9055003453470086
139,1.6336712306217311,-0.3365178510669463,-0.15418201439460766,1.1497665235906722,1.1199776736682368,0.8193701399973699,0.35081902126877884,0.4731538969221321,2.506249960735472,2.366288559813451,0.6380535849069913,2.0789971959715694,2.2784452330717735,2.0066974033498126,0.9332023689851736
140,0.8642300742953763,-0.20296196158660262,-0.17730393063680094,0.55811228216695,0.5655296471365022,0.22753575816788857,0.5307558017038583,0.5728686266947177,0.438769058389721,0.5193428758333839,0.62595550513784,0.5334878914947401,0.3015557300848563,0.2648695128215613,0.9368468859804164
141,3.2813874166734083,-1.2316789292954775,-0.4280632402133177,0.6983511422120023,0.6978346107605968,0.5829753259872628,1.6721903185333933,1.4502673451893875,1.0673982334876106,0.6007069614462213,0.6333676938231112,1.7933607505950289,0.9350622403151183,0.4525684834251413,0.9346674745375899
142,0.8216662557562755,-0.19778310243013358,-0.002950145454721942,0.589580053750693,0.5799670061885429,0.4087349534699685,0.549248997214909,0.34883574621675295,0.3879104696151258,0.36133154415221563,0.6619902821573977,0.5993937674438716,0.28421467427044256,0.20726718558207347,0.9540306244973801
143,1.5755852266918102,-0.13488222504408143,-0.2979566901988637,0.45437131562253136,0.4501686546738077,0.5382821846546075,2.1485945099770083,1.3852069979890183,0.9856145093846297,0.7438166784480447,0.6403206450210053,1.148362913932666,0.8179880660274329,0.5743503081502163,0.9519184019396816
144,0.378798442565825,-0.016362555907529552,0.015111188790878027,0.3980663047016575,0.3840586765737077,0.3917210065644152,0.523255648014796,0.29670092758328437,0.13136385840825493,0.10247692688890914,0.6509067234006624,0.3778337284958504,0.11249960025755568,0.0811470098744033,0.9452076847149906
145,2.047425162692267,-0.5289067868240476,-0.26043669047813,1.3899653972079897,1.3857615532638123,0.3125975933803804,0.2628133211252566,0.37210119645874734,1.2445577878806315,1.5450931799428418,0.6566669596287297,1.1984326239503205,1.0583296661020951,1.202770668622703,0.8709416030761689
146,1.535490017702632,-0.2104631854710029,-0.18142372577311427,1.558777558731324,1.5427209023314363,0.9159169949560905,0.37088302071657264,0.5175345776632181,1.8783326481686153,1.5301385237026597,0.6233814453054027,2.0534706136915233,1.6556115477399325,1.2276832840983445,0.9305800926882257
147,1.6942085782084428,-0.14919487662512737,-0.29207553686801946,1.4416777108415881,1.3984505135381933,0.8758979285515537,0.3174472082822329,0.4901001599827172,2.0257381226662865,2.540113031898265,0.648888643467878,2.155506983984351,1.7812641911329892,2.142917605405481,0.915771835596743
148,2.0592381967500373,-0.2565093677775722,-0.3385126218331866,1.5759537424776295,1.5279838693466659,0.9054692756311441,0.2659550093712285,0.4571215545020867,2.0405498036232785,2.374373844537663,0.6180765742263259,2.287915442620723,1.7885892014730465,1.9792021717425659,0.9048646088963198
149,1.1042958323867231,-0.1754277534338804,0.025167298280660888,0.34582804303842074,0.34683449306839587,0.2322636976723722,0.6275511655065691,0.5169536938081432,0.75361855687328,0.94611781694621,0.6566669596287297,0.7576264441940177,0.47489826206035896,0.44870761736449305,0.945535466262483
150,1.9267617690659302,-0.10563598980147604,-0.5758233621540245,0.2968598972146867,0.24793244045807447,0.23544819760210728,0.4942175755902349,0.5404461895007977,1.277004241156752,1.820670431906856,0.6309483474627791,1.3504983088479734,1.0225092484426181,1.1018363645398623,0.9513178336351245
151,1.2761665457722322,0.004261151313081912,-0.28230351128085784,0.22490934442804392,0.22239531673819135,0.19235657615646545,0.4151852588707371,0.4065841964978275,0.9165562626885305,0.9674309474390315,0.6333676938231112,0.8967877137264667,0.6963941581326283,0.5812054715743672,0.9416619133015417
152,0.8896828209486269,-0.17577489849269123,-0.13078275812583529,0.7000132801019895,0.6870382260281597,0.42387496407620684,0.8439197231862987,0.4450604640119047,0.26120725473100803,0.15966660143908465,0.6180765742263259,0.609746016256546,0.2181777763363537,0.1230446541626476,0.9501563302532324
153,2.001061884248682,-0.1305823355502247,-0.49768258458309733,0.6293603308698391,0.6210218453750201,0.5599832771262455,0.8956316370286868,0.969993502058808,1.470397940486672,1.6853478418423187,0.6038851895711802,1.5817146665034265,1.2019574727336824,1.0224904754915598,0.9410686756253982
154,1.5054295534259459,-0.2288511414525105,-0.01696458468593154,0.5391864043560664,0.5378243261087926,0.5357158572029367,1.4160103342069406,1.2539349590948408,0.8396412688502833,0.9026413176457615,0.6652988471865258,1.170752966445792,0.6879300881478378,0.6427595638344701,0.9348268194085624
155,1.1523166065945976,-0.10789430574968151,-0.17797992933135776,0.6848076388013258,0.6718862469999131,0.2842096091103101,1.98183458823222,1.7669458774921019,0.9336019092712721,1.0487890692742075,0.6668815377411301,1.095251276535931,0.7217576269455747,0.6670980661359303,0.9404780810447663
156,1.6713051670200458,-0.30791435901811903,-0.4388765866433092,0.6332365275958795,0.6248851690554422,0.5613523717276766,2.5464350717741313,2.1308175401326386,1.4951990609703987,1.255520266835823,0.680118107274185,1.855622662895008,1.3272427244501597,1.0242746690222775,0.9489728171252131
157,1.5323028798419978,0.03591575616283804,-0.12890409455743845,0.5505568646971462,0.528243400663066,0.5426142003248545,1.5913263714725112,1.3637469247995977,0.6202199924877155,0.45862266534725843,0.6357360191111145,1.657519994019852,0.5058830348408567,0.2746200350284412,0.9448666611805397
158,1.966882135945359,-0.48187578354078997,-0.4282224054746724,1.2765413833721206,1.2409457503357006,0.7644343431587892,2.2737850068191534,2.066087476273511,2.047295469569555,1.8571704232490274,0.6380535849069913,2.2693652551139016,1.7443214040907444,1.017151342209129,0.9356001997098424
159,2.0516736066600254,-0.29798729969566173,-0.4692702270259893,1.1347774115640672,1.1121130892670616,0.7599606677833654,2.3767660544541047,2.343827963228666,2.354529909608778,2.4294163118480046,0.6207552362147116,2.3617455095046673,2.139064661159181,2.0864732130435164,0.9426436894438337
160,1.5544539474465064,-0.04631894127639935,-0.19257578889492666,0.77266690034165,0.7581957366764568,0.7426209031358598,1.4905530658437902,1.2530344275002918,0.9578660476648536,0.8314844766321823,0.6447042257417027,1.6011391096194054,0.7809703069139335,0.6056546873714753,0.9387713551817815
161,1.7665545703500456,-0.20932605329643073,-0.4640516016732654,1.0766288572630205,1.061048608758722,0.797637445466888,2.7183940139904763,2.5876445555398453,1.730935303327069,1.4720594150214201,0.6528756675646988,2.017406150760383,1.574144959392991,1.260656947348363,0.9425851999629147
162,2.159252524117507,-0.20909157384633192,-0.7313344577216685,0.8785500324674758,0.8634058295064446,0.684164320460715,2.5699221088119866,2.462853493687296,2.636530633086608,2.421602847212522,0.6233814453054027,2.365761579159557,2.3697704246917777,2.0373039572314315,0.9481852853505529
163,2.351968209754046,-0.3474299701270047,-0.463964673074967,1.1529490180600883,1.1341674277320684,0.7213212598282392,2.4279124273959733,2.238261870944513,2.2758424666341677,1.7096008842058978,0.648888643467878,2.5183944939489895,2.066973064742922,1.442300037080031,0.9415858462606305
164,2.203211441846061,-0.331277512268087,-0.6302324093530824,0.9258913971769452,0.8936616650509049,0.6463314350351292,2.4496775062719185,2.3993036322493357,2.644684462274608,2.6191119290946743,0.6468212168108125,2.492804421915141,2.408976467269033,2.2017189669240587,0.9386681280243083
165,2.459445912253857,-0.5612689240478528,-0.5975148504867493,1.3016210801915382,1.2912444259060771,0.773087757700658,2.2550379623611794,2.125078040612442,2.9825952992498914,2.7577029638827777,0.5567373465730988,2.5183944939489895,2.7153843514614757,2.222542385320509,0.940180798969362
166,2.0336426869168407,-0.3721631183451818,-0.46041467989155727,0.9119246233805115,0.8946268854903622,0.6951196976924853,2.1820643964484447,2.0400596542802365,2.41291965886129,1.8258812899777461,0.6509067234006624,2.3678942813897264,2.2098769304102506,1.5215260401112205,0.9407918811798577
167,2.000568992377967,-0.1958470047370542,-0.5439200906698208,1.2976740929096588,1.290784957011814,0.7949374598875978,2.2183916177758642,1.9504632310156103,1.865124374370562,1.6027377386635364,0.5947193981915972,2.229231373471306,1.6308318930261292,1.1242547192814474,0.9402971813254143
168,1.9329722172240043,-0.23211662635497787,-0.29554604700290843,1.2124615936041123,1.1748442067348734,0.7128673485283388,2.046657286225834,1.6128280495694822,1.606022442483635,1.0138304460927143,0.6468212168108125,2.1542608779041035,1.4216867950556882,0.7291179205779613,0.9328084914971513
169,1.7395876114871742,-0.08102182517231182,-0.4410546349502865,1.1426558173130035,1.1382733371942622,0.6768926641006425,2.425016825396943,2.27613130244617,1.877505971747441,1.8932304271674039,0.6528756675646988,1.9130235567210943,1.6065820559913628,1.3100979788788982,0.9479681090230927
170,2.0256307805447373,-0.1466532547894812,-0.36233051215220724,1.0317237264684112,1.0247182680654052,0.6251110257874363,1.9080883629364453,1.6749927769174,1.7548850407101562,1.3085530887241885,0.5567373465730988,1.974641182880573,1.5267449260370147,0.9894638200412056,0.948353757182591
171,1.9774130427571146,-0.23771577912893893,-0.38651124187365327,1.026039190756644,1.009457076766869,0.6902919496303364,1.8501793812218927,1.607605170025777,1.8909601828844353,1.3596448224254054,0.6180765742263259,2.0500121976558328,1.6955551927546761,1.1834879166933239,0.9457000766775381
172,2.1467720979653286,-0.4978300270328988,-0.4631223765110415,0.552371288736648,0.5389616051660132,0.5782280348890838,1.606506573423868,1.6177333779148018,2.614791267904204,2.6382918913645095,0.6153451465759925,2.269902802834205,2.365726590638595,2.3774864011671633,0.9452610434332166
173,2.7108279062236234,-0.8219546691063798,-0.5059500616882734,0.867573460837808,0.8576331009348882,0.6048647115043839,1.169517148901493,1.1407701749061274,2.9647328143549156,2.3429098578683445,0.6333676938231112,2.7907074347832195,2.7197036468924423,2.135953751943178,0.9257935242259404
174,2.3498257833461618,-0.5427177310420217,-0.6969851541661649,1.0412659862962754,1.0260082574960916,0.6984508595632284,1.5780295718452004,1.5814297353974436,2.7855092777773804,4.93494224883874,0.648888643467878,2.5751231577265785,2.5520459526256287,4.6709579265260945,0.9355024276299866
175,2.0285483848586328,-0.3314960189976106,-0.4031763635991442,0.6423316884578254,0.6476039089524995,0.6001205287025467,1.543603751700166,1.3734398823444032,1.696604515271903,1.2479442628245097,0.5978297680564633,2.1748761736724576,1.5104540309303371,1.0008090439189636,0.930171016773243
176,1.4079872148689105,-0.10618546249723892,-0.1436625122506926,0.9521916441075043,0.9526488555399807,0.5651208230143717,1.3342089140382503,1.213480412198577,0.999775107127893,1.1483510336611602,0.6357360191111145,1.4026044278456402,0.8486540379830647,0.8422091480778914,0.934307110890477
177,1.3858011857005128,-0.11592339296340415,-0.24582158211368488,0.7988973478089479,0.7891427632250525,0.5476790382510506,1.300502527070282,0.8884346309215889,0.8559017450927873,0.7286564198388129,0.6180765742263259,1.2018639184785844,0.7095803936954505,0.5124299558056821,0.9392958948758914
178,1.7783605865242231,-0.19160193141744486,-0.2117535920293041,0.5720629391543259,0.5626678298395775,0.424254933485327,0.8183566225784032,0.6956497910504181,1.1377063409656383,0.9972906976042696,0.6097226960127671,1.3196746737784948,0.9437965493766507,0.76363705831449,0.9580696759856497
179,1.029858975241949,-0.036553247368902975,-0.02291227993626066,0.45532982386116677,0.4457331681694285,0.4376394498293491,0.4978211788850492,0.34997068512796037,0.6155972528212738,0.5422069041313512,0.6380535849069913,0.8614606437660565,0.4887804082953505,0.3746700657421863,0.9482063681587146
180,1.4117643502104515,-0.2692988053580978,-0.23608102426189703,0.7755392419689652,0.7596822815030456,0.5364263974314982,1.386441165292296,0.999467639955204,0.8509738383786413,0.8281784491757203,0.6566669596287297,1.2188608612642855,0.7388744862216382,0.5981661764597012,0.9501157323793301
181,1.3464935042524202,-0.049345917047876164,-0.03133547204191023,0.4444379338012615,0.4317209294098911,0.4383654459571264,0.46412695190270387,0.38420879462733803,0.9878937188002334,0.9465776676881769,0.648888643467878,1.2098791010966965,0.7841597642662591,0.6304364121533506,0.9533373308028598
182,1.2722445366683721,-0.36791646130702116,-0.09691403258294745,0.7875107305611536,0.7821935064250771,0.5488660400006704,0.8181596533548867,0.45485492864942034,0.5008570473817858,0.4787906722935974,0.6207552362147116,0.8967877137264667,0.3528412819071851,0.2847529814074778,0.9473838734805867
183,1.3572517789385157,-0.15355315720267082,-0.09090338716203783,0.5997848104311647,0.5913633538061733,0.5536594392035254,0.6801707863931197,0.40061995761016167,0.6618874801402338,0.6056245646557619,0.6309483474627791,1.0357939962759584,0.5109299752217882,0.4412126008147038,0.9530056596239609
184,1.666321932264499,-0.26804173467668413,-0.3151786437283812,1.0597642879781133,1.0497306275548857,0.6214599482918529,1.42301690672325,1.2093056716740125,1.0403968588798587,1.081488210335108,0.5567373465730988,1.4713198325381018,0.884197323792711,0.8545090532604054,0.9479416339387171
185,1.7340525297075648,-0.06965988274430868,-0.2989980079318806,0.7682729034384588,0.7467165568835734,0.5464983336725335,1.2350568177331411,1.032280211362463,1.4027175071816345,1.3226622099666152,0.6584896970785714,1.722793264763332,1.176417441800037,0.9054537805442776,0.9414854633369457
186,1.9122716741969954,-0.25169656899267323,-0.4098040032120702,1.1137491040742271,1.0850738022844932,0.5972771154376423,1.69943052945027,1.7240697750832639,1.6471165844658286,1.4876580520336513,0.6153451465759925,2.104554242494911,1.4548576206179658,1.2786716657852293,0.9476606681630707
187,1.8707572959219096,-0.1794894807852725,-0.43706754348059773,0.9382434856715688,0.9233380136130548,0.6585631968653187,2.253230511128227,2.008412558538181,1.9616193986095045,1.9036104393012665,0.6333676938231112,2.0441602016093827,1.7481064078772048,1.4477818489374736,0.943802897184536
188,1.46484036781986,-0.125509994016332,-0.10384091840877474,0.9709696782581341,0.9248367069270889,0.664561880380089,1.5769169557499336,1.0951902508149571,0.8023811272623916,0.5814276134272047,0.6509067234006624,1.5164536678443294,0.6553956031606617,0.44362174880412575,0.9384759977921051
189,1.1650894756715495,-0.04542038851703367,-0.1594367018686248,0.569813173141393,0.5397523007276482,0.5709682843905576,1.225992871899737,0.8068300875750998,0.6906040667172606,0.5606736891539468,0.6547956803312163,1.172222948604618,0.5636604100645192,0.38753329152236227,0.9334552500353489
190,1.201805422911956,-0.10446160577516261,-0.11906708397472343,0.9779073655595376,0.9546222677332334,0.6435012163720533,1.270721960359928,0.7395550415033367,0.5196406110452059,0.4310192575095417,0.6566669596287297,1.1084942885225604,0.4271253762635923,0.33136635068437265,0.9459598624141897
191,1.473330703591988,-0.14168446300812443,-0.23526092818877786,0.9339242413807923,0.9171871679745021,0.7186220763401081,1.9010499308955413,1.1607120901605814,0.6757371335626251,0.4550476886980002,0.6380535849069913,1.555423324127862,0.6072066084438582,0.3633765281017058,0.9428944285783086
192,1.7157238404480741,-0.23563730271320316,-0.31902379326535446,1.0908113423911467,1.0757104808767957,0.7512460261723346,2.207605208065424,1.6300979697682827,1.0728282138732361,0.7688749473140055,0.6509067234006624,1.8174876178007862,0.9374795030891755,0.5964881688773795,0.9427221425091361
193,1.4842633232743287,-0.09716355449429614,-0.11549540626768817,0.9344603604254831,0.937572289836849,0.6770644506210446,1.7891152722393115,1.243915904380902,0.8761053363618483,0.6430240925195118,0.6790044388599258,1.598662839266142,0.7029227533948202,0.46603769997614913,0.9457596989228616
194,1.4299058777858986,-0.21804492635087758,-0.15963041258406319,1.0727546528991239,1.0610001917051077,0.6993317982971731,2.1324712916749196,1.6586252104237746,1.0339688504151512,0.8398283687825657,0.6447042257417027,1.4626955589975048,0.8704632955795476,0.6358233039010237,0.9509431545773711
195,1.884496736266307,-0.4195357022593833,-0.3886580436986383,1.0941847521709325,1.0877676601837465,0.7832085334771884,2.553333904006116,2.1152866486939392,1.7657285360904191,1.4011209693370636,0.6403206450210053,1.979294593074897,1.6026256240175158,1.174072858630262,0.9440164247797006
196,2.1249298695634513,-0.35763316011105406,-0.49513926380077267,1.073780595349023,1.0581875938652894,0.7138647818179009,2.2344026847429785,1.9999724969924029,2.2722165455038716,1.7841118771014512,0.6684167106117298,2.167374555367334,2.0176243751228973,1.4605146360419938,0.9477797082860313
197,1.6822038403726671,-0.09875264051921673,-0.26777844797135153,0.9029237615992504,0.8857701846496494,0.6384292457995929,1.4747353247346626,1.2691830962798158,1.342405957274587,1.376565411687166,0.6425374456860184,1.775492496764183,1.129586890004256,0.9608024626618519,0.9454186985330502
198,1.4244670227471938,-0.02569724401545792,-0.23013454345009654,0.8335679647854355,0.8176372399839038,0.6363606264047117,1.85618454581957,1.373306748328299,0.871961172110249,0.8268057984464058,0.6547956803312163,1.3643154544011153,0.7083049597105732,0.5469611390029133,0.9355388123880961
199,1.4379252901087447,-0.2074017659211218,-0.19317431704124544,0.8221889605404497,0.7999787878195495,0.7257403240338338,1.8333969354774946,1.4714196052703565,1.0867399446145953,1.1414956150863738,0.6447042257417027,1.5650489537677577,0.8992710624118544,0.7565021460192715,0.9411877249346488
200,1.6161276481717302,-0.15491831200757034,-0.33044009562689425,1.09718341029843,1.0909972686417306,0.8048528652240176,2.182301345302279,1.4825323468627452,1.0945497663613761,0.6891382412053432,0.6652988471865258,1.8222874075970135,0.9379336658341062,0.520825707100574,0.9404931959054562
201,1.010150116448975,0.0430415675283764,0.08460871526651148,0.6741085607766101,0.6410095655462227,0.7121504051904738,0.9805491229609387,0.6652919198245247,0.3650852973348287,0.3743820670316211,0.6180765742263259,0.9858790186808702,0.2820201485107385,0.24961814195136747,0.9478916600575246
202,1.365115476930345,-0.13829983747289598,-0.20474978622671836,0.6614794946786453,0.6578432675818561,0.63234804814075,1.3341445724482142,1.0377729539453264,0.9735152565584024,1.0740437304796555,0.6699045166045591,1.317846823485604,0.8099449791352786,0.7247063028472005,0.9474663053667016
203,1.5657172207089605,-0.031771009223988234,-0.23936606534250537,0.7778094825157598,0.747322762815254,0.6731242252081086,1.240101917617508,0.8305309407772985,1.1216328013424979,1.0052012186794075,0.6333676938231112,1.4758301338381714,0.9042361355388903,0.6132245425269447,0.9502989933653915
204,1.4789839714589263,-0.10730947026914994,-0.36943490752775,0.804843337636476,0.7870521630532579,0.5849345641085383,1.534467851711251,1.113404489561618,1.0780048068479517,0.9681674118976735,0.6309483474627791,1.404232061806558,0.8963550285248146,0.6880592368331325,0.9510800187224485
205,1.3344941420620888,-0.13741048431066505,-0.15727535750628152,0.9059227432756757,0.8757925567572743,0.6391904195985768,1.4914499912605268,0.893642795242084,0.6526933244238665,0.5529156141648589,0.5978297680564633,1.2611312181658847,0.5337665035626737,0.346419223669365,0.9418788076302245
206,1.6350619521922027,-0.20602465192042296,-0.25550089182278213,1.0907996811449125,1.05103020476144,0.7053548685471073,1.8166288609131849,1.2793769707932536,1.1733444841266056,0.9032448854474978,0.6425374456860184,1.6443744823149968,0.9905801637166625,0.6794536055581052,0.9491943191255358
207,1.5698848362590796,-0.014922887995096223,-0.4560621085904766,0.9146440968128269,0.9189114901838947,0.6417377859774606,1.970672189123822,1.1188601006672672,1.0267610388955875,0.6740187685677048,0.6097226960127671,1.5981133887028682,0.8793543319881336,0.45518542946176893,0.9382543721248763
208,1.5615058215579698,0.0040179559159079226,-0.32960621774365984,1.0235041779857617,1.0242846975275282,0.7144290097358174,1.8451346486189384,1.2461940460769427,1.0428979052757776,0.7782482384641582,0.6468212168108125,1.6439143419640734,0.8822310558405244,0.5352519571436699,0.9365790960315253
209,1.661053272182912,-0.15277663089794502,-0.305986305890108,1.0652333697136278,1.0159915921180094,0.7057051543949304,1.886336141439947,1.4017893549825755,1.1496994313601427,0.7713277216041543,0.6309483474627791,1.789295839790082,0.9820492116844417,0.5696984073678846,0.950569299933815
210,1.6561806767452627,-0.21392497216457318,-0.2927909558634797,0.9449890764603579,0.91722526127157,0.759200802419837,2.321857852995348,2.0131280772713724,1.5950878964545372,1.2032427975418758,0.648888643467878,1.8684245541635405,1.4052595071996554,1.012628434704665,0.9442375966664206
211,1.6227170871100824,-0.09738863647391183,-0.27625130017637767,1.010772484754113,0.9858526270657703,0.7071611617345641,1.9806447197264725,1.4951023262409682,1.189613810288178,0.8299833872360445,0.6566669596287297,1.6697778525539926,1.021579125606557,0.6233569436134685,0.9423994998940265
212,1.713423497341637,-0.21588191811229773,-0.2215296697458764,1.0725256400471708,1.0454055954768127,0.748356082173441,2.0273711366100446,1.3583206669998957,1.085313260861422,0.7786734488768036,0.6528756675646988,1.7882323634518982,0.9115190348356168,0.5196801365144087,0.948039996512668
213,1.548651449729133,-0.006381754009515017,-0.2816318746910802,1.0794457914402822,1.0489401131382619,0.7049329493881955,1.5905691271767306,1.1936325225210218,1.1605308111778398,0.9517349860938022,0.663668482632973,1.6189833252776318,0.9646392974495263,0.6968331412388687,0.951770193738559
214,1.65611220778208,-0.2712417819852242,-0.2705130353992202,1.0675591861546108,1.0744636392624938,0.734297281545503,2.123888422161069,1.6251291698553785,1.2122232033541627,1.0630557987048612,0.6403206450210053,1.6272624973466523,1.0632752786709265,0.7897028129850293,0.9438925839918525
215,1.4170431287347838,-0.03413534186667544,-0.13028124010555342,0.7593150271340132,0.7627548216436176,0.6246182303919605,1.5409037836507347,0.9146507829540091,0.7319145639208311,0.5138552253629586,0.6403206450210053,1.3071135632454494,0.6129339262841366,0.3356540175656093,0.94582946038904
216,1.4538417868714277,-0.15481593299806962,-0.33120385210284,0.8537088501019131,0.8445397642999959,0.6623556102454737,1.7964299358026976,1.1576909384307494,0.9677120966044105,0.6678798191138067,0.6584896970785714,1.4454783544733383,0.8468264291131509,0.5259323765504762,0.9425219018431331
217,1.4235875273456378,-0.16185620125822942,-0.3825663662027381,0.735367700774395,0.7280563469702818,0.7082382595130822,1.4035303072106173,0.9333120930278131,0.9946335305347249,0.822829312434208,0.6699045166045591,1.3786348810857596,0.8196903016944929,0.5573408722636208,0.9374345383287804
218,1.432528617262747,-0.22720963514034231,-0.22684330597897118,0.6454009924695305,0.6327225784597676,0.5667731746343864,1.3929580915731992,0.8436990367281838,0.8098043164019388,0.5837012989622941,0.6333676938231112,1.1774751370938343,0.6797833143669164,0.4423311325534965,0.9458571663795984
219,1.3553463732038264,-0.10202506536488964,-0.2273512503467905,0.6864700843105814,0.6738531717015639,0.5975083886842284,1.2503736579846334,0.943355413242279,0.9904879723831737,0.9808482065316789,0.6284777104787076,1.3670583431181864,0.8023565335787657,0.6615565379177649,0.9525434602833234
220,1.261730452573595,-0.04000450981658821,-0.010831537310221129,0.8116918022859907,0.8043382209657014,0.5522949793392739,0.8100403633065351,0.5411037115074159,0.8722601180379339,0.8666727390028118,0.6447042257417027,1.167283783230729,0.6968313481894666,0.5808018701516465,0.946845188586183
221,1.6054122978465146,-0.3086169763840745,-0.3083415138735702,1.0634186703013881,1.061613583946191,0.6500142128658184,1.8431285983362293,1.024994151067351,0.6453497201637037,0.374072321747229,0.6284777104787076,1.4964068904720542,0.5786000541399158,0.30397934625968975,0.9386988844495527
222,1.1241246445484048,0.0991789606734369,-0.08040337682244214,0.5142569814321251,0.46934535354678114,0.6485929759431849,0.8699993484857058,0.5916323326336962,0.5858060288463794,0.5604325626141575,0.6602640781246099,1.1332382405893393,0.4423351578920047,0.3231775453248958,0.9536450639552897
223,1.215344103062798,0.12733139978874353,-0.07391771234552835,0.5299330196929408,0.5222561172630057,0.5055066036701896,0.726011581525502,0.5466186480570323,0.847284243224251,0.770614910878733,0.6403206450210053,1.232257973538028,0.6470220932195223,0.5089839579923465,0.9389286883293146
224,1.371001234508298,-0.1153606277203224,-0.13125570520182195,0.8351604235913116,0.8220749302464165,0.4802361210982374,0.8453883424159152,0.5295946530704223,0.7833932468125925,0.6521385884508097,0.6713451011121618,1.1620136788064919,0.5934138611741729,0.40826555414676224,0.9434288286453185
225,1.0416798247576518,0.2741108162228517,0.09911300864724115,0.5954951815423586,0.5922889785862211,0.3327032608772044,0.40970102585170043,0.26236512012509894,0.7111555602680296,0.5940891952229712,0.6153451465759925,0.839381132390344,0.4731259429108263,0.3695015299677655,0.9492638279869173
226,1.368702594892916,-0.17295586330818857,-0.15076712120525326,1.076206644462649,1.0670811671806133,0.603946180007408,1.05686564542085,0.7039119587734126,0.8287968887713706,1.0400944967936363,0.6425374456860184,1.1626531558781628,0.6738944961400262,0.634324608806008,0.9405704337929993
227,1.4381017876858462,0.10717180508281587,-0.14065187033171522,1.0729635143117915,1.0591558983848646,0.4468083043443321,0.5073465075297992,0.4568742607822298,1.3492841707396257,1.688790955247699,0.6380535849069913,1.222815892127416,1.1185100291830603,1.2251392625798063,0.9421139440810816
228,1.440465678545319,-0.1694047576096911,-0.31979624350163227,0.874829661148802,0.8390880911802577,0.7037485306923609,1.484783681022694,0.983763892500831,0.7245094590175326,0.5457774796879938,0.6528756675646988,1.2546425115079958,0.6026159399527549,0.38037154051050764,0.9574600493840053
229,0.8903401377419654,-0.01334188215817933,-0.019375063260250736,0.6573775677121225,0.6279394530060665,0.6964953174176275,0.7769123104181076,0.4683744424557055,0.35267192973730255,0.3337749187101658,0.6425374456860184,0.8658088777263182,0.2622322216326036,0.20435447572774276,0.9558041872146752
230,1.4777726257875299,-0.017401680353148485,-0.12117686233950486,0.9211306473456188,0.9121771765406346,0.5533556430464568,0.5301139114518935,0.36579892222640964,0.9294538524746381,0.9395766977345026,0.6547956803312163,1.237376395713236,0.7357450908140738,0.6622980235399929,0.9445455249846832
231,1.3541890750859085,-0.023469334519738094,-0.011331513277347938,0.7390259693629561,0.718767737021838,0.458334876124378,0.4954670243673954,0.3421343354793215,0.8656621938883394,0.8496425106226041,0.585052858160615,1.0860251731626382,0.6667059090979384,0.5755137575140467,0.9377461450888391
232,1.3152988179070946,0.18256574626871092,-0.0018373095803700945,0.27979550255740415,0.26736228105348964,0.3343709726139381,0.4962870100740611,0.39497607551558106,1.1867335893277609,1.1946427544493248,0.6333676938231112,1.168569911091912,0.9351643231569686,0.833100398057625,0.9491348336506081
233,1.0673792411183827,-0.028829752326285485,-0.0722555880096637,0.6707466747781011,0.6577581185235735,0.5456510400427302,0.8191537989921085,0.4834058741503505,0.6938841051975662,0.7532724666168055,0.6425374456860184,0.9983145673527458,0.4894466649385922,0.36935487041472387,0.9357075539881105
234,1.5505014274905187,-0.21788099485352164,-0.14870703372464233,0.7403973050846993,0.7220517890242668,0.660548386563633,0.9620702794816957,0.6545390478714508,1.1779485344598932,0.9596030325914192,0.6284777104787076,1.4838826894907549,0.9803067187085239,0.6731064296764991,0.931122781830512
235,1.6677585430135613,-0.2018823842799653,-0.1465530689540978,0.9497931735721639,0.9354071525752784,0.6365493429441288,0.8278520671481113,0.5409730889068561,1.326856499487381,1.1703527310778543,0.6309483474627791,1.3870946812906597,1.1150259492320285,0.8776414704194021,0.9302184449195111
236,1.4539165907016964,-0.18679468598903248,-0.0786085837579612,0.6965325102447901,0.6886480537771045,0.5353563597043963,0.6993601313340733,0.4503507048046197,0.8952844141821484,0.8842880276742815,0.6097226960127671,1.0904457260017162,0.6818379667256821,0.5861665331080428,0.9547106621668514
237,1.8013783547726248,-0.5618144055046166,-0.1537078011509353,0.8947514027970092,0.8827264427834782,0.5885937300879226,1.187956813502081,0.7444705306430519,0.9057454668843488,0.824302578588005,0.6699045166045591,1.37134006933808,0.737965209960256,0.6269729432604287,0.9431463323007563
238,1.2488324168700677,-0.1884541464955557,-0.09170782140979383,0.899382692782354,0.8936997959757186,0.5738640217918343,0.9988221984722369,0.6328446386863646,0.6374808776122791,0.5762417604082157,0.663668482632973,1.0514424841917198,0.5004080940562377,0.39228337140610003,0.948313719281998
239,0.9977409214498113,-0.08571861041079121,-0.03269832417059837,0.6663125339730381,0.6575542044766208,0.4745384535565156,0.6443597171607024,0.3844271265344278,0.5595655277350227,0.5639745913809306,0.6425374456860184,0.7939501961816445,0.39794765654246117,0.3032198026806965,0.9499706950136221
240,1.102879781669833,-0.17883370882224192,-0.010976363926956889,0.6913086147457197,0.6817494077233549,0.5129194371638369,0.5777299679317777,0.3271693960362093,0.6842920832340926,0.6178581317651866,0.6684167106117298,0.8481649028265545,0.5105575260903483,0.39202306422053784,0.941073552819118
241,1.4562934260539366,0.23675218942246912,-0.09905371702149801,0.4277650560724663,0.43048185655277627,0.372318016435494,0.22271942977162779,0.1768251477467732,1.3930707614400843,1.3043453455066427,0.6309483474627791,1.4647605343993237,1.1634008170187295,0.9862292507051439,0.950564781199381
242,1.652107417005947,-0.5899378360926524,-0.368224485962381,0.7008683698025733,0.6694462398725092,0.5327483531446174,1.173877204606364,0.6507095740560387,0.541458549518762,0.4095952533994294,0.6668815377411301,1.1638265936517118,0.4750401294732008,0.319340953740807,0.9270581838837645
243,1.4614219806300421,-0.21382912424049783,-0.2607531792975769,0.6502376657464757,0.6254792959549558,0.6751870998448454,1.1221556240205972,0.781872602941688,0.8574879276685797,0.725094372794421,0.5978297680564633,1.5278579254416775,0.6996196950655628,0.4676563553284234,0.9534957880875193
244,1.300588122795342,0.2507820645870096,-0.05513241785935308,0.6293254257153009,0.6195718329876472,0.5951664367309003,0.5799192702492512,0.45292098818150306,0.8624858324542664,0.888369137377188,0.6233814453054027,1.2073488671886603,0.6264833784613024,0.555400654069755,0.9542276958909015
245,1.021486204391896,0.11544022824231726,0.05700796618886406,0.4108355719301386,0.4076038782892401,0.37081983675006813,0.4296690115864401,0.36578273744930745,0.6999580376862639,0.7813036994356588,0.6333676938231112,0.8984781007367528,0.5362131685545136,0.529756307762505,0.9461363341116906
246,1.5709722605560483,0.2747793904575704,0.07831094542948613,0.2516641926927463,0.23664299014739656,0.37325683318688146,0.33036879316904727,0.2771075308537175,1.2811764857756087,1.4439082667846879,0.6602640781246099,1.2479246918551188,1.0314865564690476,1.0828859843804322,0.9414003814937641
247,1.9968071637460052,0.0225709693470324,-0.14040049521865194,0.8155796131603353,0.8196399365578796,0.4324325038642879,0.3204278521223826,0.27990465920402896,1.8204872519878528,1.5015930808519202,0.5915533975974677,1.8068054274333263,1.5772071294747283,1.1915988268384925,0.9482533169915683
248,1.5855317585782591,0.028973541102906175,-0.07558741030158878,0.6482795159609337,0.6464995274593626,0.46069796593209467,0.45643755827014515,0.3361376949444226,1.4831151752143752,1.5083415379402119,0.6284777104787076,1.4673598138411112,1.2554656728432532,1.1414661159225918,0.9495468631671398
249,1.460857181430133,-0.04744495652387348,-0.13011934524172464,0.850098500517831,0.8530778077581321,0.4492807730144828,1.0273563917005024,0.7468677460570547,1.0193417136166587,1.089041495743586,0.6652988471865258,1.1975490365281332,0.7830330758362363,0.6998529217048671,0.9333466107213507
250,1.1600660257752322,-0.08141556571267317,0.003934249515241461,0.7332749294060517,0.7254909417520166,0.5621555643777363,0.8325005051538877,0.4397278261743345,0.527885145083555,0.5169786922435312,0.6309483474627791,1.0125263397549809,0.37956255507324604,0.26665598196018603,0.9447085381412423
251,1.5214653391164208,-0.19026757305571318,-0.33523297471291025,0.9180232616456097,0.9006684254708803,0.6507337755661895,1.631241016390358,1.287401143423465,1.0624207839671596,0.8115272086522498,0.648888643467878,1.5697365455825483,0.9111780829359145,0.6206721098266377,0.9477788707031484
252,1.520729015692146,0.0647674106029763,-0.17828264060865862,0.7166830871280968,0.685190467909291,0.7211533509875487,1.2953195203915508,0.9882745539585507,0.9790236325186726,0.7004272013341277,0.6447042257417027,1.5700569557102495,0.8011639296739345,0.4820477845604786,0.9467063004566079
253,1.5993547555279306,-0.20390910366368642,-0.35006852159406954,0.9200658054688564,0.9172131425660219,0.6922916199204497,1.8087533809267817,1.214618007065543,0.9593068898800834,0.6581411110042321,0.6284777104787076,1.6493344094334126,0.8496711647340894,0.491407537908889,0.9443984831538706
254,1.5473241739929238,-0.021863966325417428,-0.058479269202851736,0.763462162184128,0.7251095364662923,0.6571035004124177,1.1366050316147853,0.7506488341285602,0.9288083620712803,0.8892798652560278,0.6403206450210053,1.6263015295216483,0.6885810912828034,0.5223275889774804,0.9468517329682516
255,1.4723952776943547,-0.09251549712048779,0.01050287481652612,0.707451829094202,0.6967964916341786,0.5971719727274153,0.8730614695490891,0.6197297059757119,0.9714667669589996,1.1460965488503678,0.6528756675646988,1.377841300231132,0.7332055808640348,0.6994052536251242,0.948151827230555
256,1.904959853981067,0.08349091411346721,-0.04785467113572217,0.9048323787557848,0.9043058338068254,0.5898501200669136,0.7305958965061333,0.5375821774464016,1.39363275066945,1.6337973725296504,0.6403206450210053,1.4700625181889964,1.0798449818164177,0.9963156537069988,0.9412056066972003
257,1.4088739644266062,0.35727772770466215,0.27982370801957424,0.32690308098251686,0.31368241642698325,0.41353146511777594,0.42057115250917426,0.2812626328810013,1.1623521890660726,1.1693663083701262,0.6284777104787076,1.1696429493234923,0.9014777512170009,0.7931935230363817,0.9508728011577269
258,1.3444419707333823,0.07883170504631454,-0.1201462651876416,1.087306731468647,1.074339058207898,0.6224456464622944,1.488208458063116,1.1795281927099883,0.9038112768781661,0.7971056599800583,0.6509067234006624,1.3667532059130552,0.7857848538007581,0.6223644483762372,0.941560971585256
259,1.6287015250225334,-0.0362761494811592,-0.21770020906207943,0.9839367132759632,0.9887468112187323,0.5968603141114049,1.6132846814874202,1.352249518931706,1.1989975342276153,1.1296676843432687,0.6619902821573977,1.675340326213495,1.0242457964765856,0.8286873415400507,0.9530213013343353
260,1.7319654430421096,-0.28458020538379647,-0.24175103087310668,0.9622910058934604,0.945519782671194,0.6503431373966466,1.6295929244997482,1.2562232596763567,1.2328708267681807,1.0339314774839359,0.6284777104787076,1.8121662790057176,1.028844049352723,0.6164047333019435,0.947592409355378
261,1.6736018053255304,-0.237998355232391,-0.28731385764464346,1.147125832300057,1.125741838962382,0.6954867659171096,1.72281777198454,1.1142295891284215,1.035161828514415,0.680966572317394,0.6233814453054027,1.7279086845269818,0.8979472789492415,0.5152875128516253,0.9515436267388941
262,1.6084636189959527,-0.024084757042823313,-0.24734437483860838,0.9211656672378544,0.9168523294477631,0.6810873703197425,1.6286508447892372,1.2111294877553314,1.094514645524482,0.8894729205669736,0.6584896970785714,1.7327989764045457,0.9296407134456122,0.6510521113928921,0.943300903615508
263,1.5437146616293143,-0.2105052359161087,-0.1323741715623703,0.9438321781142025,0.9358346909220733,0.7173056477214116,1.667485799491951,1.0348226525942696,0.8220238535968823,0.5637858092186688,0.6566669596287297,1.6119967389957683,0.7008631819393755,0.39819478918736484,0.9411294459963158
264,1.4828452829024772,-0.20033380071945628,-0.2553903389620942,1.021378671327055,1.0248619809802688,0.6418546627043304,1.7633361740065723,0.9406210859702797,0.7744183034221208,0.40151124571012015,0.6602640781246099,1.5495455848234208,0.6877720860792428,0.31786839189775334,0.9274142465044835
265,1.4502972994381726,-0.005627310289404219,-0.22455973209457514,0.49554769976450325,0.4758102050519145,0.579861812092164,1.2015723898079576,0.8815419382999858,0.8501895088723253,0.6740130450777708,0.6097226960127671,1.4874661309710773,0.6944758228339852,0.4856063039878178,0.9469730727234148
266,1.5161267045512004,-0.20276997086271975,-0.14155696286375008,0.941884681339701,0.934564225574304,0.7786349745652628,1.5406772448438943,0.9562222852053897,0.9124587894762523,0.6825924130621845,0.6528756675646988,1.5645707772052366,0.7534664203477308,0.4679745450189545,0.9361662900945268
267,1.6128414520507315,-0.18389017052338874,-0.21095301582282677,1.023371292513272,1.0247778169677964,0.6635150735217219,1.6731518515801114,1.0500303468836367,1.0692095545979623,0.747721640545588,0.6468212168108125,1.6710769374724441,0.9033168788170924,0.44973793178615257,0.9383189783913369
268,1.7037126816467156,-0.16954980287684485,-0.37423534423099003,0.9638682471517015,0.9487817275997436,0.7448726543344678,1.605361745449882,1.3252232054493518,1.3357035398682489,1.5048008378845354,0.6403206450210053,1.632024411106896,1.1210231559260497,1.0264862553491212,0.9399213767996758
269,1.5049362183159793,-0.2518401586967307,-0.2823595573254374,0.8402669236639919,0.8265421539355516,0.6019079220535308,1.2851745267867813,1.0787655500424516,1.362931639673855,1.2765658399982653,0.6357360191111145,1.4421359952360908,1.1187881409758256,0.8982555279885862,0.9541657831985201
270,1.7910112255986,-0.29891306430445863,-0.36524667849824877,1.204030569260018,1.1943815015994774,0.7232808654684288,1.8688138644555579,1.1500700596439133,1.0845276544805678,0.7987922466802917,0.648888643467878,1.600643364752605,0.912799943177584,0.5998220325249779,0.9458991021947637
271,1.1231134751837242,0.04716148632612627,0.006042839397195854,1.0662100245736594,1.0603655217828853,0.626165751154011,1.012486309466766,0.6359825390999767,0.5269564675398242,0.48850745608859764,0.6727386042041725,1.0377053537645884,0.40457164210623886,0.3381469636934821,0.9532672843929737
272,1.1195850806891854,0.05928289281661758,0.10590546282160795,0.45309308030322704,0.44343014329559804,0.4176783307680695,0.670107928051563,0.4610026512035932,0.7764780212278611,0.933487356932434,0.6447042257417027,0.9046641389667852,0.6210455579366027,0.6233916052511033,0.9451495569228847
273,1.8125304093227215,-0.5580150420402659,-0.038489972687265506,1.0594721664166484,1.0580717917290132,0.5996681621245202,1.046859224017045,0.611035023302871,0.9617107290033517,1.0782392052142618,0.6380535849069913,1.286147412514952,0.7508308156791705,0.6960479589782649,0.950897943317055
274,1.5493874308471591,-0.1445893056870894,-0.20019143064782396,0.7928151339896161,0.789306575709538,0.7066136260032757,1.522278312904018,1.2864965280065601,1.3602641649636769,1.5058879126736187,0.6547956803312163,1.5087382416584687,1.1568912435597891,1.085125372613766,0.9506509763547821
275,1.6134855319898274,-0.29384557484508156,-0.1006738113782214,1.2461022603356577,1.2329622624271799,0.7429714722189598,1.8533715722087782,1.3472193876741034,0.9181493402376135,0.7066171137385137,0.6008849035917525,1.5584807856556606,0.7622682779660562,0.47467621696549417,0.9386296576380373
276,1.637519904956344,-0.05487251986229946,-0.4018611921689591,0.9939162711537939,0.9554123118379154,0.7841919142842232,1.9550054009456261,1.2920042183001983,0.9639527073016381,0.6353197288378393,0.6602640781246099,1.7334276700000053,0.8449109245805476,0.49619641498893763,0.9373188475399918
277,1.6685499930143037,-0.17588469305204524,-0.28654112788180075,0.7914909569898226,0.7695215724252032,0.7600454353316047,1.8122087088214547,1.3866634877117783,1.1164122638308842,0.7842232790888998,0.6727386042041725,1.8802264505503854,0.9628801148786651,0.5537668447530504,0.9481228918184534
278,1.7218457524096669,-0.12752464946731779,-0.34491543666018054,1.0579141403946883,1.048838800438785,0.6776445135113094,1.939919597407545,1.910047253826927,1.3920390785874184,1.5103219168855762,0.5915533975974677,1.8598242001421843,1.2373257549819259,1.1875483355892094,0.9375812598258335
279,1.5973568533703812,-0.20692984256379388,-0.4265297905648345,0.7679091960976014,0.7509100594017875,0.6600745618037943,2.106676752205456,2.159473132783785,1.673098229983403,1.683897141037148,0.6727386042041725,1.7511935074813934,1.462971209878911,1.2956952888234623,0.9436118656765754
280,2.039243671358609,-0.5351857467307181,-0.17259013918172472,0.870190040668285,0.8709797129002739,0.5685573711426888,1.7030792214911508,1.4013437583512014,1.7272694443996581,1.5069466740218609,0.6602640781246099,2.1292855943280267,1.4538334241067565,1.0686770088933637,0.9316766409552111
281,2.099826041998859,-0.3690562965374986,-0.5138129051583717,0.5416983555092005,0.525271738152486,0.5665017200156379,1.470263258110989,1.379711278122589,2.2672215391566453,2.069326452809203,0.6668815377411301,2.3571586152525446,2.0284299109876973,1.8016205979938351,0.9451993162131332
282,2.1891811941009465,-0.4278834465244924,-0.46492124785474925,1.0652276608187916,1.0622277460471647,0.7150648494674378,1.4253664423979402,1.3373621437165135,2.08417687806196,2.2684631761058474,0.6566669596287297,2.2375258741097452,1.8594889166682345,1.9352717508502575,0.9379454365357219
283,2.3052439743449593,-0.4667235973772257,-0.5442927463350474,1.0135213281333426,1.0116758577232288,0.6768583520087157,1.3103687037589835,1.052967424899941,2.0491267322325384,1.6087198103410838,0.6566669596287297,2.43802306388915,1.7811291489262986,1.1894761745502707,0.9471956662851367
284,2.080145801537297,-0.36023368909046927,-0.44679016698262897,0.792280490214389,0.77891086736852,0.6296834082627312,1.4563835735248247,1.2216464075430749,2.0264379095836156,1.567477675707056,0.6309483474627791,2.2629371207016007,1.823439271871323,1.2321436812926323,0.9438468865063825
285,1.7640996834114113,-0.20503363097138816,-0.2805554308251055,0.7935573332666735,0.7913309069630946,0.4683623700493419,1.1838460664045338,0.948242219727208,1.5017620370535467,0.8828336938916805,0.6602640781246099,1.9542783987258299,1.2712864142931675,0.6339711663583906,0.9301718797707286
286,1.5985739146322446,-0.17738548384660113,-0.3280299172320341,1.1940303755381998,1.1793686518536421,0.7633765350144487,1.6085985316738685,1.4156846298785652,1.7936128351400809,1.6299048514305219,0.6425374456860184,1.8770995163950703,1.5697928245292145,1.2525885245350479,0.9439853895512925
287,1.9015628502632966,-0.22292308067241673,-0.5521726537043339,0.9312590044819112,0.919604962824708,0.6936293787851027,1.6907069064565,1.5694237921126666,2.4163782907727662,2.2750817915937187,0.6357360191111145,2.0777540773600527,2.204527780441638,1.9894846544604494,0.9381849631664679
288,1.6532628416679542,-0.039975464253532156,-0.4168906703206592,0.5339629113374911,0.5129094307288697,0.5973645288513127,1.3506377139878478,1.2885072229359653,1.363185494992873,1.282646211903313,0.6602640781246099,1.8476246020694505,1.206914502040627,1.033823386434476,0.9419602351736048
289,1.4060438871952774,-0.07484642233887329,-0.2486443773670033,0.5069361977805473,0.5025983274785564,0.5110152521155088,1.261177407570329,0.9468707279532356,0.9852642921172744,0.7834436066308091,0.6447042257417027,1.3624042384601283,0.8242761250004199,0.6009543169845043,0.9339029339664845
290,1.09878680663377,-0.05428726771719761,-0.03260619563101408,0.2772338192589956,0.27416935351079774,0.39576577620517384,0.6135911216445806,0.4716195165391184,0.7805119683000235,0.6529665578598369,0.6425374456860184,1.0337925570739055,0.5961882565915242,0.44193357270534295,0.9532382807125724
291,1.6021530193578666,-0.07629435534574114,-0.3433868783610826,0.736220380971645,0.7314129285741074,0.4051167307023319,0.5875744509453666,0.6653348089028571,1.5255840867668464,1.760303104946243,0.6509067234006624,1.3607132544684037,1.2782774107023114,1.2943694776455619,0.949910981582194
292,1.2742564857353567,-0.20983793782596105,-0.10954308025301152,0.4996273533468646,0.49069840977498663,0.50662232956867,1.0876434842615963,0.9156790858463721,0.7575603180327741,0.8384404622536394,0.6447042257417027,0.9791122094565642,0.5986117274880085,0.597250031456827,0.9524715069066053
293,1.5329653475767102,-0.12782947577496162,-0.28761157474879906,0.7282320564728826,0.7166655265012095,0.7216473632103448,0.9046225297980888,0.7572095323853125,1.2295161070606258,1.3370964177618685,0.6528756675646988,1.5790703758177043,1.0627240295074407,0.9879779176484272,0.9451602799165532
294,1.6954140035853629,-0.22693202435508597,-0.29159320535797584,1.1183220705336447,1.0834707670061015,0.7080768086921335,1.5818478319340101,1.0831598901377224,1.01996611725618,0.7062358837503965,0.6008849035917525,1.712209190470046,0.8835545349036047,0.5417881616649652,0.9417067503047145
295,1.5734811011526035,-0.059066134718849694,-0.3231248650685664,0.46562166212032446,0.4489205880612631,0.5469867683332049,1.131637474208379,0.8766953941444375,0.8850537229741291,0.6614589572025398,0.6447042257417027,1.7330504064140415,0.7623107012778175,0.46436072833909864,0.9399949204650837
296,2.2166964630353685,-0.37557866581202815,-0.619963226874,0.929324841653053,0.917600152658055,0.6913104364064983,0.9379855985266086,0.9719503739290933,1.5773899363020332,1.3042227911488329,0.6584896970785714,2.5311600343054623,1.376428374054818,1.078354273145604,0.9479531212036364
297,2.456834596962548,-0.545483176700015,-0.4502548348154321,0.6667141414025821,0.6554601804218179,0.5813534355303649,1.5244113006416875,1.3975034382656104,2.548714033600785,1.8517506699561632,0.6447042257417027,2.527814150799277,2.3018894407920785,1.2025829500368816,0.9316165398404881
298,2.294424795327363,-0.4424709448731641,-0.5733259774028269,1.1347310539032778,1.1408003368800361,0.6744905091615833,1.7603723299886445,1.6453421572932692,2.7197770527004472,2.7284309859343168,0.6038851895711802,2.419618409759883,2.480668827167507,2.332890442489375,0.9437463243884976
299,1.961842991418156,-0.06044851027393161,-0.6257040586504776,0.857808705148904,0.8717701055554353,0.6008495044265079,1.933502249196511,1.7205999024374303,2.2139514389115194,1.9765975073563697,0.62595550513784,1.9306384681791728,1.9802740429649461,1.616119451767583,0.9406339364873278
300,1.9884335397813475,-0.16151232284275174,-0.3612589153686513,1.0513571612692116,1.034772017333761,0.794474243661638,1.3358984854213067,1.2291565826449367,1.8436225524710603,1.7439752120876162,0.6447042257417027,2.22685938246591,1.5928883468530652,1.259880436264232,0.9320875084765146
301,1.7514283575246223,-0.19934230165033395,-0.36708707515007755,1.1898365435282854,1.185250902937868,0.7381955940103962,1.7282867324231113,1.3164473119361784,1.3638122246832056,1.2150621721188704,0.6207552362147116,1.750553548416931,1.151283687588512,0.8503370684808073,0.9545116987027994
302,1.8629207290118854,-0.13054861142178376,-0.48337506233437644,0.8794834326764669,0.8877871886253559,0.749768290534542,1.8900414433364887,1.7079605023222226,1.8786181674269244,1.7304382109772658,0.6207552362147116,2.078020329857743,1.652144188939852,1.295584413108709,0.9458919160508796
303,2.193126537408909,-0.3762915678102525,-0.4448321480438515,0.9390037097028138,0.9071824975910602,0.6425514187582199,1.7796792434010984,1.630672448550961,2.1192084960818764,2.0438349263636217,0.6425374456860184,2.3184886648292586,1.894639433382809,1.672975933238088,0.9405175607284424
304,1.780302264633239,-0.15206956712720077,-0.3072411073486182,1.285719641847378,1.2811317656139651,0.6549870663350119,2.019400791892228,1.5289791385563625,1.644333842214501,1.2804631580654156,0.6447042257417027,1.9939572560268022,1.4648692384719895,1.1017953152282307,0.9551064241714226
305,1.900904862672891,-0.187445149491144,-0.5354142910482949,1.0659251796278666,1.0620958968677494,0.6412119506506211,2.2588699358717235,2.238079601359796,1.9220661105285477,1.6271135446616811,0.6153451465759925,2.114907534847006,1.691754954923314,1.450299691095803,0.9450684462006844
306,2.029982354634712,-0.32203247899019927,-0.5284715190152688,1.073328611779463,1.0780247210288016,0.6383393089704854,1.973960357591092,1.9048848100135085,1.9575421893735505,1.8571908675026594,0.6153451465759925,2.256443936996191,1.7640307766594547,1.4006382303723193,0.9449601791915954
307,2.137169015555624,-0.43195053515481663,-0.5269794271806064,1.131674203582358,1.129167797964708,0.6251913174845566,2.1137198215175412,2.0990198626482615,2.5490385797088244,2.090908671864721,0.6425374456860184,2.4367516079009532,2.358772306578357,1.8758425864385964,0.9398789446921129
308,2.244287638065671,-0.5102689057814342,-0.6050854074713238,0.9260613249375725,0.9259799333904936,0.6682342427487903,2.124210546599474,2.086044391581344,3.191793233580144,3.7611224826834917,0.6380535849069913,2.4953611076918594,2.903390656177948,3.4438638279810583,0.9380051936295533
309,2.31785655901268,-0.34362980315286773,-0.6166284297756869,0.7150787496863529,0.6976144139203337,0.6002058603480197,1.8352253482700371,1.6947136364784308,2.434995968152405,1.62781742306056,0.6207552362147116,2.4950916748463654,2.257032924098389,1.337320356523431,0.9433484656429916
310,2.0708487883885325,-0.3187583329135587,-0.6488824093962215,0.9611886413662405,0.9443084467622779,0.691108301859225,1.8615955995508437,1.7761639700878533,2.3583736023630184,2.0740160653412727,0.6284777104787076,2.3768298266359458,2.15447051078569,1.899530869470192,0.942481814487891
311,1.7749803242240916,-0.16103960934816564,-0.3965055399931715,0.7925199739824179,0.772531897659527,0.6483436727594871,1.7904161434775518,1.5646294197084412,1.4699686359212591,1.0620156119633797,0.6380535849069913,2.0291709923399694,1.29630067879405,0.82157068008853,0.935000257568524
312,1.885653635278505,-0.19813388070389037,-0.4948578690742488,1.0932082024741274,1.0932963732049892,0.7291195134881628,1.9128538941317257,1.802931920326676,1.567518677670369,1.3727651145993844,0.680118107274185,2.142168371588141,1.3629091405614064,0.9917366492009192,0.9330786507359231
313,1.2142521656372987,0.17138724422901697,-0.0035660899541729574,0.8883281416318176,0.8371395949601541,0.7013185451997938,0.9109821071749677,0.6493571363226781,0.5554007318200589,0.5687870093075561,0.6566669596287297,1.206420241302415,0.41892124296689837,0.32034646725147836,0.9425813797276067
314,1.1352165968856756,-0.010423079220726827,-0.01932536830811793,0.8047543106487024,0.7803240642217187,0.49604457052908835,0.7189911207965627,0.4626636760821359,0.6046908343713661,0.5926741818101489,0.6699045166045591,0.9694278302872837,0.4597740318438833,0.3650273209978156,0.9465773728585621
315,1.412323269747419,-0.17193853085988775,-0.24916475032580543,0.9843515757765555,0.9541735865957175,0.6954024435985882,1.2521384709969599,0.8467530612704386,0.802823606496025,0.7703779153851994,0.6233814453054027,1.4814845481236396,0.6714361036560554,0.51398760599134,0.9502248796879452
316,0.6527422303738551,0.14620480835239968,0.0018820042907575774,0.3715645354598,0.35178144966373753,0.16194566868778176,1.3477279875081407,1.2040355461354033,0.4883593142748997,0.4259790280504152,0.6357360191111145,0.7073813405877699,0.39533937612488296,0.300651985941989,0.9501403457935271
317,1.0221720385291335,0.11508470511019775,-0.026205601098812203,0.5707246735734858,0.5584645615373867,0.5046124608063464,1.153908931135301,0.8878430217944242,0.8460937767618893,0.8335413817940885,0.6207552362147116,0.9893693194960613,0.6865052106179549,0.537784353685628,0.943142176080409
318,1.5464403674422702,-0.1883649107460963,-0.27753249232747135,0.35339138236332307,0.3380953911588529,0.5364348628864306,0.9618133230373564,0.8554163870384552,1.545849865812504,2.352795163314049,0.6528756675646988,1.496605381937573,1.3593649492412594,1.8386384174565,0.9476358349208183
319,1.6367401289419723,-0.4013653633952522,-0.14604446398505044,0.43969846136430607,0.4234504724284333,0.4739646560286557,0.6173326069766569,0.5074016362032606,1.1794504495501539,1.5027257231367215,0.6447042257417027,1.5220886295781257,0.9903947879801089,1.1817436428822967,0.9522632386825611
320,1.6373601842301593,-0.49804796003336216,-0.2312582475766773,0.8228987015281385,0.8044138578549463,0.5661295474935684,1.0924241321007686,0.8419044935762057,1.26496752319732,1.3355512599267956,0.6528756675646988,1.425959617512322,1.076568041033081,1.0007024486819043,0.9439975158284257
321,1.9327333263755795,-0.6000799004652673,-0.31327538804724,1.1347175820649436,1.1244607938784954,0.6735813218623004,1.4890371232675916,1.339011324521974,1.6688693284389253,2.720649762990373,0.6699045166045591,1.7316683230177639,1.4587280305285684,2.0045625000145515,0.9491177114716676
322,2.1329717423159464,-0.6673417483058162,-0.41162118499241795,1.2134418004466716,1.2233468873215778,0.6856239672961948,1.3590288874583336,1.3603327919634387,1.9718217886232299,3.246577077814969,0.6668815377411301,1.8991219875565544,1.7432980588197167,2.4618399948770553,0.9420382799660986
323,2.406916188442862,-0.8212749276167386,-0.3449416421105156,1.0674116543494023,1.061358861869104,0.6499119744790216,1.4417609991113762,1.2095407521524677,1.9416657068666812,2.3462266740843325,0.6509067234006624,1.8913588344508097,1.7271657132041156,1.775325245614675,0.9362749571601318
324,2.148807348222876,-0.5787302847317719,-0.48780372175617104,0.8898885117987024,0.8846767990674435,0.591944479775234,1.687411428970625,1.7436392574850115,2.169148481769204,2.379437942041763,0.6584896970785714,1.9039581265905379,1.9188337451096655,2.0050432516259766,0.9373258553978541
325,1.9957765508381522,-0.6074477329064083,-0.27120707786699544,0.8682788131966228,0.8675744405741337,0.5302433141448247,1.4785411739395282,1.0439283314949552,1.9504154919788317,1.8980826838608864,0.6447042257417027,1.8026856093616084,1.705354867918596,1.3997374313763435,0.9415557610296599
326,2.1558804103222946,-0.6883511224152619,-0.28908182280539446,1.0759672401937688,1.083075723161019,0.6349514832000169,1.5400997489071386,1.1610723282572708,1.9425585553405365,2.3756103680111083,0.62595550513784,1.8081598905958358,1.72809385539316,1.910305863700133,0.9374357234025925
327,1.3677001694159432,0.028199666914393573,-0.31070078001615054,1.2028547275776638,1.1947803277892937,0.5637921199523968,1.8868686772268075,1.5296594089694773,1.2780700419801185,1.1638856145226348,0.663668482632973,1.4153341869418854,1.0643859361588148,0.8213303099565162,0.9559107873795611
328,1.9503879461836857,-0.11782679414867459,-0.6193476669037726,1.0910412696528369,1.084652046114172,0.5905793303636386,2.1250361156632076,2.168936331796446,2.3246907248761257,2.3632284912886616,0.6447042257417027,2.217631387113882,2.104869268245973,1.9434007374498874,0.9538796478415462
329,2.581116658600535,-0.5387950151603322,-0.5866313562316934,1.2640454442490647,1.2501386882628844,0.7222608895378755,1.9997413175883159,1.8638059459483771,2.7448575105109194,2.0754550737808684,0.6566669596287297,2.745232992229926,2.437773527807116,1.5240780634829436,0.9386816819784235
330,2.3098195090523377,-0.4453230253244581,-0.5596454208788697,1.352933667159704,1.3072355904164628,0.7652809954530722,2.204473394379835,2.3195430439936238,2.8010492176517103,2.20978222017007,0.6727386042041725,2.6944760810750923,2.599406688405079,1.9240274378058055,0.9474772945486035
331,2.534658668437201,-0.5112668048274387,-0.7967999216833329,1.2548733371759324,1.2316442497425524,0.7240339662985641,2.480428196618588,2.429971888706553,2.9991698047640547,4.087644388451537,0.6153451465759925,2.697934867361117,2.743483342827593,3.886705197443856,0.935854374477176
332,1.8770217831302425,-0.18201479719264035,-0.6758272046640145,1.177436992259269,1.110304371990847,0.7579567281585445,2.261280917846637,2.1138435602135934,1.7523677636170005,1.5272301861553914,0.6509067234006624,2.2201861889735666,1.5506266479030562,1.2414905143203303,0.9399311072476485
333,1.5343149446440114,-0.25691693136283866,-0.40019568592626953,0.8446557095818498,0.8312427332613489,0.6595253402028577,1.8664592220566738,1.901556171582001,1.4530029666724678,1.7621789534979808,0.6619902821573977,1.5184299030006745,1.2342690497704174,1.2928554452815766,0.9472766615446724
334,1.7528392831018156,-0.20569385863164447,-0.6241302943775041,1.0639052373053823,1.0732485404117742,0.4892091266042135,0.9987764722710109,1.327766053274297,1.733158035058186,2.3449601867448093,0.6468212168108125,1.504927758231113,1.4634055411347635,1.6105195783048414,0.9545720232049668
335,2.7908644843731185,-0.7982088458966832,-0.4523419055316704,1.7303270073960388,1.7344639254736132,0.8344242784930485,0.8264022091227256,1.458470282258605,4.419204681406662,4.637690725370809,0.6619902821573977,2.3372915662333376,3.866266696002269,3.006782109740576,0.8833782061635889
336,0.5547029029227337,-0.13649618618055814,-0.04177095009535636,0.7017015466021314,0.6978373894817095,0.4383754243756337,1.1645018854686318,1.4154066780649026,0.2629007195568578,0.3141786524043436,0.6357360191111145,0.42583789791610144,0.15550954335711584,0.11502716404580086,0.9574235035403117
337,2.8345655448954297,-0.7707918807082531,-0.7651596393506328,1.726451648115095,1.7286875256680825,0.48765554170743514,0.8733825158778621,1.6434486817441682,2.6575909464307252,2.5261459383065556,0.6528756675646988,2.1850983975383786,2.427879970897524,2.112455353752279,0.9127016987796197
338,0.9000488913459065,-0.024670314585999165,-0.2418679824713083,0.1868316548269977,0.15778540982932174,0.1947665338485312,1.0070186743961984,1.5540518017763858,1.7229634172753066,2.080090690888424,0.6602640781246099,1.1501863242141577,1.3717993338152634,1.3343924239868317,0.931519238923047
339,0.07618090251435256,0.04038801011929736,0.016317434588454305,0.8938340760627521,0.8765083322298362,0.4574999005510792,1.3504396380291344,0.9582948601888812,0.19982357477662185,0.16008050810023777,0.6584896970785714,0.4528887064541608,0.16729719089463593,0.11174831264103421,0.9217827475604767
340,2.161849225026315,-0.31393172035275585,-0.5669670773639093,0.6688098371013642,0.663040995619845,0.42911471046381133,1.167277663234166,1.4827953333034738,1.4952624696029067,1.5235202837704858,0.6699045166045591,1.4991396077466503,1.2586261856014926,1.0354870095122592,0.942460357842398
341,2.7764869827372443,-0.6808248178571529,-0.3284678993097204,1.6737560276929253,1.6752226648477222,0.631156874364725,1.1645220881645852,1.6525864118851354,2.798432360099293,5.647541855325501,0.5978297680564633,2.2550655770260692,2.748925174351518,5.017279836814924,0.9129863177809905
342,2.5845535363101675,-0.6625244989224656,-0.4139785485325499,1.0548889172577387,1.0478980786214573,0.6933707791956185,0.6383921707656771,0.9109983861705013,1.8375708710434635,2.0686176507254097,0.62595550513784,1.994937007901387,1.5909848151710335,1.6646641406544265,0.9498334429349033
343,3.0849971386480224,-0.8666627639895574,-0.3622765333512631,1.7478893347464886,1.7398921960860803,0.8582292648639639,0.906601051520366,1.5363688798692792,3.3550260014709825,5.707032631738805,0.6097226960127671,2.332128339801021,2.916341221019448,5.0604830998238235,0.8745420318038464
344,1.7819571763667854,-0.2422886905269144,-0.019065028673547448,1.7759478361883947,1.7658529202845268,0.9208795684588565,1.2204761569767186,2.274165415766105,,,0.6425374456860184,2.773122197845925,8.634442751466477,inf,0.8935266380215962
345,1.1064588815424583,-0.16228063595956055,0.0,1.779512016789434,1.7735535167649619,0.9026449731248438,1.7204497610843175,2.863595489058633,,,0.6713451011121618,2.5571906453731654,inf,,0.888320923028265
346,0.8460422599735432,-0.07614380339761889,0.0,1.7713804610197144,1.7657413405161761,0.9034373105705082,1.6866505824762446,3.4948711329172664,,,0.6509067234006624,2.6820576208279565,inf,,0.8873578850299229
347,0.5830751522890293,-0.05401198724203123,-0.0023519441459082654,1.7783794981219565,1.7539133062893184,0.9088252571256666,1.5960217136847286,2.472663906444925,6.334562946824528,,0.6509067234006624,2.5814175501688443,3.828935125379443,inf,0.8971162335455106
348,0.882043652534619,-0.10033155188015702,-0.0005488990172309322,1.7689793803428757,1.7374821981031026,0.9053329703629898,1.1859761072362778,1.8603066159377055,3.962312027503794,4.970033568650011,0.6509067234006624,2.4618413768570044,2.9150383121941346,0.936935059454501,0.8896882991900746
349,1.1070096127427105,-0.12915112148664956,0.0,1.7341417858765034,1.6942903745029292,0.9461249508540169,1.315020378095806,1.8802890922723652,,,0.6547956803312163,2.581123907529823,inf,,0.9077909205542031
350,3.4126258391913935,-1.4876714539397646,-0.27801360024288335,0.39024994825246945,0.389814327959233,0.4940217477229801,1.0592801009622488,1.3773842684390918,1.7792966791808205,1.33918464901145,0.6125606311107803,1.7146749789219655,1.6095613616040614,1.1499055830556604,0.9605312326871563
351,2.337774496134169,-0.36669436676519157,-0.27459186225964965,1.575132258144969,1.5838779109816712,0.6041050640354195,0.3927056433602058,0.5994333765765837,1.6652718047134052,0.992237097462647,0.6547956803312163,2.0863990222473348,1.4268478632234436,0.7819906191307123,0.908025253239229
352,1.4607519992968803,-0.19978475398111406,-0.07811705583171669,1.7463653177663458,1.7037894985319553,0.9229979565103321,0.5889181237563462,1.0426817441337977,2.8379984780355323,,0.6284777104787076,2.4558657810035864,2.541524286342649,6.410174881966167,0.8848524459777212
353,1.0090396273129427,-0.11760787092630254,-0.016930746048756492,1.675355847081826,1.6749559770349183,0.9252577145556545,0.5825104256302929,1.0231529376865596,2.6147397377383212,,0.6509067234006624,2.43003974834716,2.607624218137015,inf,0.907172329867653
354,1.5626052479893213,-0.1993974563810957,-0.01935599864713172,1.5599950214424634,1.552424005763851,0.7490279615494078,0.8270106665943103,1.1858241868150827,2.6532245322029624,0.7080964784862347,0.62595550513784,2.3391338235189125,2.29764170188451,1.07705728510628,0.9322409154094239
355,2.1257703865903537,-0.47678419991627474,-0.2607994019389319,0.8672714848481692,0.8509562835457264,0.5639081743902326,0.9009104579058567,0.7646193822946855,0.9662332627719123,0.8253239883979202,0.6468212168108125,1.3382663921093092,0.7785770732800978,0.6098800009784244,0.9403942968267207
356,1.724566916164229,0.16031643864492606,-0.2453583112376938,1.1008348802224863,1.0967603811914381,0.3865019039191553,0.3868365361066923,0.509576834276406,1.258707543519186,1.598446777688353,0.6153451465759925,1.2590940788576084,1.0477221751087054,1.2112895459415642,0.9273523547202013
357,2.743140575373937,-0.7441109226619682,-0.3469931809866784,1.5888479103255424,1.5797226044063117,0.8234367938762278,0.32162478857772403,0.5289132436913799,2.497515120852203,6.634481995970027,0.6380535849069913,2.2621898561885785,2.2619125067107313,5.274024673978992,0.8877690288209127
358,2.169383761927824,-0.38332612363578755,-0.3152619906862503,1.5416742885209085,1.5431611724307968,0.8908234246673274,0.30320763196350675,0.4891613574017834,2.1292819303508974,5.275778128747727,0.6207552362147116,2.0432167648568718,1.9154320819113297,4.615702758487984,0.8850453238968297
359,2.0064147332324436,-0.31525036564214676,-0.3005893217723077,1.3618036300294087,1.3388513151610826,0.8134570198185134,0.24735053342200608,0.39598336776729715,2.3316428121373374,2.418400807156981,0.6528756675646988,2.155506983984351,2.0419783371572633,2.0171227772805778,0.8963670808323666
360,2.2578134779221255,-0.48945821895643776,-0.32972820279896886,1.5352786070648745,1.5150291424144096,0.8754817312152923,0.23669465678142626,0.35861294646004405,2.236622743879519,2.5507161913834278,0.6602640781246099,2.200128790483609,2.001058867356541,2.461445163109002,0.9210533110862598
361,2.1576502934343726,-0.5304405445283114,-0.30866081662930356,1.475853646227692,1.4583529920000984,0.8247488757718269,0.15240817800488143,0.23876185530570815,2.2675157603621505,2.493770992558548,0.6309483474627791,2.190248963599794,2.041826272088386,2.1320645967049754,0.9112716032649494
362,1.7532300825139213,-0.34191158907623703,-0.2266446437112491,1.3054140504299572,1.2957129214669256,0.8718316157923873,0.2430351115826618,0.38818362877606094,2.360257540866717,4.6998225064778145,0.6233814453054027,2.1368823483300576,2.1246981332679566,3.535066555070163,0.9325936554768001
363,1.4929160418715195,-0.17096200822981175,-0.12011478446431079,1.501734481838007,1.452644803017058,0.9209558055472246,0.32298934464040163,0.4832155158871637,2.5437719805617776,2.965909682362573,0.6380535849069913,2.329157248597045,2.2325278254513075,2.379971756609466,0.9322691836842596
364,1.3731578429424485,-0.17150546032367364,-0.11978754742498947,1.4032003316560817,1.3905574684729998,0.900501799345448,0.32356511297576496,0.5063947966159266,2.3534235134922556,3.2952905578081433,0.62595550513784,2.1619539632543003,2.1522063601893358,2.662587827025453,0.9255064561471641
365,1.737984725927309,-0.41344182228280524,-0.22969465930396876,0.6022459938313189,0.5977137902820671,0.34277159394282986,0.4143290352111217,0.542156086450756,1.1989124708090872,1.4647310117528363,0.6403206450210053,1.2909841813155656,1.0041840403507802,1.1053627154526489,0.9401162324069682
366,2.307935911829518,-0.7493402910365567,-0.2920122526367497,0.7056637097249714,0.7080222829131382,0.4117977337372984,0.39186698175277945,0.5546076251513001,1.5019009868875832,2.0753475721470225,0.6403206450210053,1.6452378165652877,1.281590478341492,1.4202602884058213,0.9386806723941118
367,1.9630961559624664,-0.49623706021573305,-0.16728286240667084,1.4949007434249504,1.498943916000712,0.6763224479000847,0.21046424248968604,0.34676862826062066,2.844906752568703,3.2272988126718576,0.6207552362147116,2.2774589700468253,2.584756318931157,2.4678122164287,0.8754320221960056
368,1.8270985280604508,-0.3278437518575201,-0.2269717485123108,1.508210062598907,1.4962644629836221,0.8839586583658293,0.17301704978408214,0.2825648175993488,3.294940449407225,3.660061475089753,0.6153451465759925,2.3597435068339943,3.0195429222477097,3.255689797990917,0.8740374798362025
369,2.3675887666203823,-0.43528015885212057,-0.08558936980436363,1.1175178874298177,1.103337497095768,0.7942676588348355,0.163451412827099,0.2494486461175925,3.2554290530966066,,0.6357360191111145,2.8421531856256905,3.0241482185282855,inf,0.8312777144938569
370,1.8141537389089442,-0.2357446576983973,-0.14522762747248097,1.3276009079448676,1.315831755891799,0.8619318329050488,0.17836067748861958,0.2956731586388379,2.991631792037262,,0.6740851607140061,2.6726830572649187,2.7713025484290372,inf,0.8351230114719845
371,1.8108531394477039,-0.29406924973445225,-0.08078770155365017,1.3698407642018018,1.3484196314561023,0.8741177147639803,0.15112353685286034,0.2676145040813915,2.8377000572087674,3.609608587508537,0.6528756675646988,2.6442932352994593,2.6540241312485775,3.2188758248682006,0.8244810135593682
372,2.600818726072557,-0.5300545880697003,-0.265879524066413,1.281061624532828,1.2175391633213606,0.8392032313978711,0.20294899538031078,0.3389885943162408,2.97514604097683,5.884944038055207,0.663668482632973,2.534096893978772,2.6790626642289577,4.584967478670572,0.8323480432853017
373,2.90268542539341,-0.6442505583448456,-0.24889782537539867,1.3047664840292201,1.2805485708655147,0.854081952267818,0.16927673785441405,0.2702181399451078,3.6822016515829072,3.4973545933312993,0.6447042257417027,2.828336366976712,3.425936987837911,2.3807028722579977,0.8717329641974922
374,2.4089964559544943,-0.4687673740621532,-0.3874978648911338,1.0858653409272547,1.0667935729047935,0.7291500545595668,0.2531692063496765,0.3612204067769906,2.8600463070644606,5.189953539000973,0.6619902821573977,2.2455748382772662,2.6267488400214773,4.232656178019613,0.8836310537047384
375,1.2905318118164788,-0.022448473150601944,-0.15411502232893948,0.5110276542323784,0.5081421250753146,0.40705401916826867,0.6138529448781984,0.49374890413098305,0.6924301296768279,0.8779256434596223,0.6180765742263259,0.8748555920325833,0.5097069362425484,0.4289654994260715,0.9458390366139402
376,2.149409687336319,-0.21867726117663766,-0.6256707928902436,0.6863921523587446,0.6493756938089834,0.401755256059359,0.7810574518618252,0.9567107227496036,1.3474854889079189,1.1540831913602387,0.6684167106117298,1.5576364138708372,1.1675599460663435,1.0279253629051095,0.9583994229502713
377,2.7399238736232077,-0.9430345846001702,-0.28832519996409717,0.8518299750256495,0.8515132242415008,0.4136930891353333,0.5788347678914776,0.7196907429345984,1.6624849123009198,2.1639875924213015,0.6425374456860184,1.8739823294858877,1.4746226020570972,1.8503699916727887,0.9438927384256233
378,2.1543021683441874,-0.49710637747960895,-0.07630057687615119,1.542730012235525,1.523054993444599,0.9295063945083973,0.6652062017557404,0.8814548834808534,2.1184142402943276,7.174131025273992,0.648888643467878,2.1016417074424893,1.9071369664499644,5.319344733740112,0.9419546288018508
379,2.7279996237890995,-0.733595400051685,-0.2652116741037668,1.5076196555080716,1.501730747678032,0.878567253219975,0.49218733271193155,0.6636891836865604,2.7911659467045,4.7117986975245305,0.6652988471865258,2.0994628595537237,2.501272729366502,3.5879535355239756,0.9366489272129657
380,2.251660496390344,-0.5155482243491155,-0.21915215995978965,1.1583762950645293,1.160309360264771,0.7702570809487677,0.41988785560434766,0.6213330183217323,2.4033736381468245,2.9932783906648783,0.6740851607140061,2.147387342489048,2.1552121585535122,2.276651710967541,0.9503805033248516
381,2.654415807148047,-0.7004617177473415,-0.27580612873605836,1.2330198912323342,1.2262928907921642,0.7106404801349425,0.395787183608455,0.5274951844212029,2.8570200846660323,1.929890243335947,0.6380535849069913,2.2634712231551455,2.5901603221314455,1.5703267823174747,0.9425568513226726
382,2.5879543776202727,-0.5936687269566782,-0.5759185485618339,1.1702459103021878,1.1679522637388493,0.7578450130577967,0.31861915611195346,0.42105593664711377,2.9453337026367254,3.9951635356573716,0.5783247308855777,2.1511046417226662,2.6297425583407112,3.3308808832446957,0.8971546108197183
383,2.565393237726009,-0.5743082454408395,-0.18988867046218388,1.330312412984194,1.3090864840290268,0.7836770996607885,0.26806911109550363,0.38834779925144863,2.6849509984024773,2.8204617146022968,0.6447042257417027,2.2252126138763884,2.3482435966221753,2.1427608565846947,0.9001446889418957
384,2.658194575386817,-0.6871002905592616,-0.3133010152296501,1.4100635104112635,1.3985093053307862,0.8167005303295447,0.25923218428448036,0.39959955307245054,2.6230190843246657,5.556542278106638,0.6403206450210053,2.1160133219113963,2.352297681359498,4.636668853047462,0.8597325029697032
385,0.9841793572558665,-0.14677736144508602,-0.0070627349937568695,0.12932326130896363,0.13124134768141793,0.08982546859012554,0.2957543927548615,0.41481524691543453,0.5713103379276516,0.7880589533419431,0.6357360191111145,0.61900905013083,0.45276658458371993,0.5114532003671616,0.9755900013709646
386,2.589967116328434,-0.7275430319147598,-0.10997084014394368,1.23599215006143,1.241656425420057,0.6818943261472195,0.9856239155601615,1.3408798760724285,1.9568833244936,2.6240812465408347,0.6468212168108125,1.9456879515207917,1.7503280181624643,1.9494975968489692,0.9379544758644893
387,3.457339723349167,-1.2309061299431476,-0.2620071164586548,1.507836110130385,1.5097030015371802,0.790935930368939,1.0110104078569717,1.3693509474724026,3.20171906693818,,0.6233814453054027,1.9946103172745022,2.5491512405849455,6.170656210893009,0.8852700975202055
388,3.2321003694231663,-0.8294476475204069,-0.17793498655195536,1.4974547023825957,1.5028879617154633,0.7420700516804939,0.935287760741695,1.3191665206601768,2.606138954431712,,0.62595550513784,2.2508363467848684,2.107473761271697,3.0602707946915624,0.9144841391483342
389,1.2870690331045507,-0.1794922430771177,-0.03539580667837415,1.484204117507746,1.4649312902144815,0.8881109860165831,0.9722013558831623,1.4635619746963808,2.2352235329825274,,0.6309483474627791,1.9401821410165505,1.8466777214575896,6.927557906278317,0.9315379119831585
390,1.1838310545471322,-0.12830473949059268,-0.05488793649157296,1.5367066819669968,1.527399709675901,0.896796878601593,0.9332409730306073,1.3771005474178892,1.9493526100027223,7.354039729287714,0.6584896970785714,2.090794633720373,1.797620357922206,5.57323980861451,0.9089533557708306
391,0.39711671672705967,-0.03913102870521955,-0.023896827097069123,1.5241887152732532,1.5050679867378796,0.9144003601503119,1.0883274081054235,1.3554881022486929,1.5668236901349302,2.251669052073439,0.6380535849069913,1.9092675426900074,1.3573989460145417,2.3663469150634446,0.9256502174056982
392,0.8153692014117259,-0.10809930195943393,-0.04288263149984954,1.5293673946714073,1.5042502362220953,0.897392955184501,0.8636625565604711,1.2499321412352304,2.1135586513795235,6.1924558200927065,0.648888643467878,1.9895602128704697,1.8668178691457828,3.8376148005918416,0.9310705444222966
393,2.5966320701632353,-0.30717688422728506,-0.8571936234543324,0.6485895264822534,0.6500387983505727,0.6037509298140624,1.2613888529107682,1.2933224930852032,1.4697907003605448,1.2312036803210542,0.6528756675646988,1.4808981238288688,1.1037551991294163,0.6802664404113224,0.95480926473312
394,3.2209619248367485,-0.8436671475772599,-0.29708907308926463,1.5415223768539685,1.5434144095375886,0.8894170260582143,1.8021865326943318,2.13381196659415,1.8926514697035937,1.692101419280135,0.6207552362147116,1.9013511458581493,1.6011409539555872,1.4721327567594862,0.8901033194453343
395,0.26659947466011713,-0.03636020536968626,-0.001852385998263861,1.6138486883396075,1.5985674740694047,0.9329383480864986,2.0683943512435814,2.3355536756017763,2.0709238122267997,,0.6425374456860184,2.0194131760201506,1.9699709505654632,inf,0.9175318056225504
396,2.6555467402267916,-0.5301498664386135,-0.26870210732496325,1.2128046062942626,1.219631443121485,0.6725906094418687,1.8412535729400321,1.8874782933883865,1.9573051275839786,5.204423981075095,0.6125606311107803,1.9298727713576893,1.5111054803163106,2.9427061767921256,0.9465185393294403
397,1.4642792637123916,-0.30140033043584813,-0.08252999591037208,1.2794763067510055,1.2715032661585088,0.5152513582249809,0.8393885811384904,1.135411396363633,2.230863065270523,2.3146471956790045,0.6447042257417027,1.9658747894749102,1.917128933552132,1.4631043073573429,0.9170948051011556
398,1.3267247660642092,-0.20739483243229856,-0.14359712336156857,1.2480974720902236,1.220044465350464,0.8080271979323462,0.6282127610324718,1.000615824696328,2.041074228191824,1.6922543361701035,0.6008849035917525,1.960414835258195,1.8467477795538072,1.4476696397962958,0.9350560589643356
399,1.041903579185025,-0.15441889772054027,-0.06466011491285543,1.2255808518537046,1.206048586164683,0.7965312137578392,0.7669419741825757,1.0443521462224463,2.502784810489382,2.1884257669087344,0.6602640781246099,2.0395373015006255,2.2212554683591397,1.9264163543743122,0.9395335681627133
400,2.4504819030603047,-0.5788584311809695,-0.2760085646823871,1.3440462606511188,1.3343773683400137,0.8152062384880376,0.8209078460147878,1.1087942689241033,2.385657880912034,3.1490478990630835,0.6357360191111145,1.9276555603113654,2.011967056715185,1.899597828524755,0.9282126911762457
401,2.6715931236163746,-0.9602220656044593,-0.18831898053669427,1.4061808677409087,1.401625203996757,0.815555530820109,0.5577111666772988,0.7834069179439549,2.276764557748057,2.20466891095182,0.6284777104787076,1.8628974970613945,2.1039337448617466,1.7708527844087412,0.8953022823272201
402,2.462244238752054,-0.542186379436584,-0.32366661802645835,1.3014066121696102,1.2902164866716723,0.5540809919683602,0.7946232502523907,1.0224653114190723,1.796386435837625,2.8325639218158063,0.6509067234006624,1.9289547084058998,1.6776281696487618,1.8634458661753142,0.9348383742025922
403,2.6142066177769587,-0.9418917740790418,-0.4040403564588516,1.5630126803535878,1.5611759268503906,0.39563597740205364,0.5533132353648054,0.7585984392915912,1.9324654255303042,3.514746336043168,0.6403206450210053,1.670309092421281,1.7558642753110518,2.8574276021768106,0.9305596148096665
404,1.5128083133470676,-0.22896225943508397,-0.1391544301460358,1.5009777343637447,1.4752252535620332,0.921290664024043,0.7392494508090477,0.9704663530151746,3.209879547276073,,0.6528756675646988,2.2508363467848684,2.89333033993591,inf,0.908549810565716
405,1.2717962888996444,-0.2266351092133638,-0.07859600012255083,1.4840364580907373,1.4741118659167056,0.921142261003243,0.6102631484355148,0.8446216463228988,2.281110048688088,,0.6180765742263259,2.0541637344955674,2.1315653895283857,inf,0.8852647880310544
406,1.888768607362374,-0.2530897510310912,-0.5771733827519596,0.4932277241073278,0.49805870178719197,0.3285076740986537,0.5838882284405278,0.787861680641257,1.2482985477615463,1.724020031490134,0.6528756675646988,1.1905813894315134,1.0755646333711277,1.413003146668719,0.9659606532015934
407,2.531626850762335,-0.6031115458326031,-0.5613811517886041,0.7620553183426458,0.7479610625295597,0.4414898655072738,0.4856763014498369,0.7222942002092658,2.566384812824682,6.015131909953815,0.6602640781246099,1.7140579615642029,2.3449194568206067,4.640537329825383,0.9260056775075837
408,2.354565586444982,-0.5884112247199246,-0.33831861419107534,1.0380803319024066,1.0373393995416749,0.7106997702107294,0.4172545916948475,0.6963313508407345,2.5860826856668484,4.2432226202699805,0.6547956803312163,2.2622965740799343,2.3296283851581365,3.414442608412176,0.9055738890801336
409,1.7944683570032893,-0.3878543970301964,-0.11950610166180708,1.2364700702717548,1.2162346094600511,0.7629965305942193,0.5033115971970246,0.7120588072065579,2.421950825877359,4.348939705730123,0.6528756675646988,2.1383897916153267,2.1446968952036514,3.099126571758275,0.9166401269328218
410,1.2183267629564551,-0.17735710808855315,-0.14798909695636153,0.6072716024401669,0.5913789009450493,0.5510542154170094,0.6563478172794629,0.8166968798290003,1.85875317689758,2.491821878035434,0.663668482632973,1.6011942075560015,1.5981513582595663,1.828096846597069,0.9564781747803356
411,1.729832145088286,-0.3989819907206631,-0.1345299536672212,1.0854390338974766,1.0885789856382806,0.6189488686507364,0.8039978683006141,1.091991703976184,2.3315484907948782,6.339812995531567,0.6180765742263259,2.0296783061244192,2.0930657306193794,3.758460387952442,0.9655218833994649
412,1.2561286859463092,-0.14107334784236347,-0.21423473001769394,1.156812622093931,1.148645592755349,0.771119459800263,0.6598738783368906,0.965355458629205,2.72050362741513,6.007014982272238,0.675384900321601,1.9735211827634955,2.5536596843629016,5.494089721066114,0.9122496152306255
413,2.4695642304549366,-0.5455270355552292,-0.18355358793880566,1.1617592483141337,1.1658418489053186,0.7768463318550178,0.8071904871610688,1.2934052038250337,2.0270360817012514,3.1362198188554355,0.6447042257417027,1.9824358304047631,1.8786828451616153,1.616857130356129,0.9275280287841908
414,1.4820791613927409,-0.32274294176258544,-0.2564105032451274,0.38720681248322236,0.38171431084792157,0.254884075555361,0.6283239786801944,0.8818812272228144,1.436847866695708,2.0955986632466748,0.5978297680564633,1.1307223425863433,1.181800859113339,1.5189444069896085,0.974167937539045
