,acc+bvp_XAp0,acc+bvp_XAp1,acc+bvp_XAp2,acc+bvp_XCond1,acc+bvp_XCond2,acc+bvp_XDist,acc+bvp_XFuzz1,acc+bvp_XFuzz2,acc+bvp_XK2_1,acc+bvp_XK2_2,acc+bvp_XPermEn,acc+bvp_XSamp0,acc+bvp_XSamp1,acc+bvp_XSamp2,acc+bvp_XSpec
0,2.4157176156578335,-0.7355644265540082,-0.32025096548755044,1.5572787715778444,1.5542232910549714,0.8006535879308683,0.024115022538939632,0.028921160143953142,3.461115091737536,3.936821498716953,0.6468212168108125,2.3868124701222193,3.2713594932819294,3.9576335166801986,0.9416281329690315
1,2.052240052285428,-0.6446226677633202,-0.2720866002040556,1.2182360111764916,1.2155263244409265,0.7711197637816103,4.404876788316546,2.9439792633913004,1.2772188212826416,1.0548791077141575,0.6403206450210053,1.7343085055923786,1.1164579977114268,0.6858688492534543,0.9486060617765975
2,1.636734516830397,-0.27426502216759374,-0.1637634500838151,1.0765471454933766,1.0485626345909018,0.768459347357274,3.572508743336165,3.5456505306721113,1.414419460979468,1.3219853484130852,0.6528756675646988,1.7060099992193443,1.177584774397797,0.811973668647592,0.9123027632743971
3,1.5298611933574155,-0.18237475039872453,-0.29048232919645467,0.8483476756890339,0.8359993740676089,0.640079173739597,3.7209719898867255,3.736939378294229,1.701314298194027,1.3127273764521643,0.6619902821573977,1.8463564604312739,1.448381010129754,0.9668430110369863,0.950721380344536
4,1.6034280365876405,-0.1640867280958349,-0.3729780623430332,1.1799935251592197,1.161710665134301,0.7950039195630431,3.5706084636785898,3.5260385158467034,1.786104983795316,1.540642964537637,0.6425374456860184,1.8832901337403727,1.5625559995906646,1.332355562543916,0.8953630493100266
5,1.6405278273295907,-0.16578816310707345,-0.29221442230861716,0.9164271484934031,0.8904220656488682,0.7480622824429922,2.8667874746597226,3.0505642739095222,1.5519743867978837,1.5160390221941304,0.6447042257417027,1.6242131980162546,1.3301638898558223,1.21469102054596,0.9499337138253814
6,2.4153845397785543,-0.22253354399643266,-0.7600502638187431,0.7506673022909707,0.7240768263643605,0.5193261118492312,2.767712215114066,2.8394069705811407,1.7404827912167689,1.2517777007434936,0.6309483474627791,1.8901811514058184,1.5553164891529168,1.1333552371119826,0.9075426815014355
7,1.9772571954350469,-0.340499145305883,-0.3972411852244026,1.0246254868964002,1.010137681422,0.651530775688883,3.1424329532062654,3.890925344308864,1.5029411224759845,1.3940925368984685,0.6380535849069913,1.5794477038010508,1.3236041072524887,1.1317667718545346,0.9460991123268226
8,1.79286250952565,-0.2730735900129324,-0.3825706747850994,0.9712974388415141,0.9542242568055315,0.7378748128734326,3.653908975320372,4.257180466060778,1.7897199823482388,2.433738099805141,0.6403206450210053,1.741383261902988,1.5681469312333434,1.8655867396255479,0.9260004688317122
9,1.4815876326354231,-0.22916166309844632,-0.2860317193113321,0.916156250551715,0.9038752392948795,0.749257764637133,3.6340833365046477,2.9340118449874955,1.5903680945470746,1.307352720099428,0.6652988471865258,1.6431670651782282,1.389920994919532,1.0639267306802196,0.9256421866560725
10,1.6160589240524115,-0.1890412282635182,-0.3054369021059186,0.925328716304172,0.9131352568613348,0.676859198270277,3.5500019891425403,3.6957978573076664,1.2469814743544096,1.0167398659314213,0.6038851895711802,1.6173020874909023,1.0610275121622263,0.8051630247358568,0.9442692898908743
11,2.2466749701557096,-0.7140161332915383,-0.2904742953830053,1.1097791436947302,1.1138031158272925,0.7479706451935222,3.98506069700976,5.092036428302591,1.5893173038502844,2.348489082441997,0.6333676938231112,1.675637070926198,1.3567591869993845,1.4138726454766528,0.9242532203223224
12,1.4145443088580278,-0.5929377488493257,-0.08553457216789706,1.1628743536297261,1.1743723889703086,0.7366884216388757,2.4015947874291674,1.3384606324494808,0.4488481748008154,0.24297695595499927,0.6333676938231112,0.9868920390577017,0.39302271509814973,0.1834350540854938,0.9304544899156512
13,0.5283035083367374,-0.1221295658432539,-0.00669453095174441,0.9212918411051063,0.9132644619526064,0.6390794813473781,2.1927682279752103,1.5938203495039769,0.3151402498832174,0.19508290766873057,0.6528756675646988,0.8790484702926195,0.27789939538845376,0.13654450902838697,0.930666224429163
14,1.6258692391727552,-0.3620752166107824,-0.12309284103998663,0.558653499148466,0.5273283881732304,0.5128548145509472,4.121981513162349,4.90556198213727,1.13184272080249,1.6821502002337636,0.6357360191111145,1.377532855451318,0.9190701658651803,1.0847917330494774,0.9557485009073508
15,0.7294712561650268,0.00514851437943864,-0.07797385105441323,0.7097314495834058,0.7049515731085013,0.4752207687553856,2.199240469032788,1.665801179920373,0.5125956011468943,0.40897595664397285,0.6180765742263259,0.8203494381328204,0.4408209964882939,0.3356255031583663,0.9486064118685279
16,0.7839198561856491,-0.10726838128248922,-0.0885191341088461,1.351058116808096,1.3507895242979002,0.8229191265361115,3.1506469528577736,1.67378116299614,0.48880086822779767,0.29801078494394073,0.6684167106117298,1.1203127156474486,0.4191846263600857,0.22095727739210802,0.9463933756560543
17,1.143555465398811,-0.13643787568467158,-0.1866822565962502,1.1561427368183876,1.1568873108381217,0.7740252564534456,3.0874236337031333,2.982579913394748,0.9317123924296836,0.7861109601739144,0.6153451465759925,1.4032822867413794,0.8229592396653325,0.6210707420290058,0.9166140670446575
18,1.7001482051576866,-0.30351442744939017,-0.31695430237612243,0.8321304170606086,0.8167182571054151,0.6871670170487127,3.8849040654779112,3.4440709747505567,1.6775674080797234,1.9976207374411639,0.6309483474627791,1.7300374106000582,1.452292214610676,1.3510368286483736,0.9241627875221639
19,1.3467251226102468,-0.33029250820780626,-0.18561003174295623,1.1151332479813547,1.1163802844126989,0.8159543986157756,3.286182175491007,2.3460917094225398,0.959592611897928,0.6978539745827579,0.6528756675646988,1.2799343451289809,0.784071388421016,0.4727557717802808,0.9154521149427822
20,0.9183902477938791,-0.16910569505000178,-0.05213879519984432,1.130188055606839,1.1033510914773064,0.7163755068910294,3.1560393941191247,2.5084566135610817,0.6099231335639629,0.4381858725638307,0.6207552362147116,1.0748306600033113,0.4922397861008846,0.33049408202083563,0.9104500314397806
21,1.3023282190341887,-0.10220358345779967,-0.24775447168709863,1.061935865052034,1.0054418939682637,0.7132996589735151,3.1808870221069356,3.257325675124153,0.9399386963771212,0.7502071294949371,0.6547956803312163,1.3015856331929365,0.806529769071507,0.5914707204256373,0.947203084532576
22,1.4730106838602994,-0.028775403144913114,-0.10698728802810847,0.8568742400829483,0.8576113220413502,0.6858813486745848,3.6988455126397244,4.173101347559779,1.4570877837947664,1.634777092408153,0.6068309995095971,1.707908637058111,1.246042102480925,1.2865763328611461,0.9565267019379323
23,0.8993591328132091,0.06584380068216938,-0.1506146959467477,0.653650628744733,0.6120523355850033,0.5292378967159724,2.793285788862675,3.4963295983555454,0.8763330713087176,1.0060390899502312,0.6584896970785714,1.1431216286540669,0.6503726778677048,0.5715573814579498,0.9131677749142266
24,0.8277175652067965,-0.011913839160123896,-0.11801712420576638,0.9940083583980482,0.9733978349062015,0.7040266089241668,2.228124844951457,1.7608815794409423,0.581794459512147,0.5105070200774621,0.6468212168108125,1.0400918398561014,0.41376784075955503,0.2238570725717381,0.9218526126239792
25,1.366418206777744,0.15423890844229227,-0.12282554107625787,0.5186644001602366,0.5128012169942242,0.5269886662070666,2.1721716713821038,2.5155789173886425,1.0625705049579601,1.195828884816298,0.6509067234006624,1.3417884937325555,0.8995969793894336,0.803770498575042,0.9493989795568837
26,1.530034691703524,-0.25609046951273556,-0.23376432372462663,1.3280857549794665,1.317410033044676,0.8389917447305919,4.22769453173431,2.4545391790899016,0.9347987061397718,0.5621930675182918,0.6528756675646988,1.5954254362355795,0.7683260919959536,0.45634817667929983,0.9159039377098337
27,1.276593778834335,-0.08617363089275654,-0.16257248600576207,1.1870970279828272,1.1522807529991674,0.791221166260399,3.637751515174892,3.328839538573446,1.1966206604563139,0.9674743323887991,0.6509067234006624,1.649392227941133,1.0087573147076179,0.6857227723941351,0.9499994672607033
28,1.57261648921102,-0.19987619818922153,-0.30102877969430913,1.1419466127160103,1.1413983610474143,0.7673602554461249,3.7654808731453198,2.893416259314109,1.3182710675789626,0.9526068119329302,0.6425374456860184,1.5944398368566655,1.16824255989861,0.7175581922473331,0.8950767218398219
29,1.8675699012294664,-0.3690404731961201,-0.19570430241000195,1.4221512662015816,1.4083765175279308,0.7838362203242583,4.435396142342159,6.397030179749799,2.650055427979398,4.991862539091422,0.6447042257417027,2.1428310935058876,2.4723894283357053,4.489759334476764,0.8877816819432488
30,0.3257017016085728,-0.017805169984319226,0.006504569490091386,1.3782137922214601,1.3602579473758307,0.8819684261632159,4.647582162142524,3.206081942688341,0.9793170714057317,0.6736030956620314,0.6284777104787076,1.7164046556566348,0.9089908673233871,0.46099111884210014,0.9531166171377546
31,1.1898206139324479,-0.22924898690975964,-0.1552619184041022,1.181325987272957,1.1432610853241516,0.8233413658195039,3.1643123163353364,2.913984577003054,0.7196420286056631,0.34059697147141266,0.6619902821573977,1.2916712860048056,0.5916919070963302,0.3674731536837327,0.9196737457082632
32,1.4897096442295026,-0.33051300024171476,-0.23471953395548342,1.0999856496026161,1.070427405568331,0.7983151427984585,3.2443839307084543,2.4814904270516274,1.0864657772824249,0.8421371173314055,0.6125606311107803,1.4394138834505519,0.9478822041396836,0.618486521817257,0.9006979608492419
33,1.2277872031666675,-0.2825423043844488,-0.16264575357217745,1.0604178845783576,1.043858129990101,0.7313773004691566,2.7718197117428307,1.7241649379060506,0.6041706440537725,0.5184831209341187,0.585052858160615,1.14490058512022,0.4943667217177374,0.3693223516477151,0.9529274256468194
34,0.9403609677981656,-0.10149687244979289,-0.09013403685874921,0.5334253106945177,0.5302733861567368,0.4765190018638634,2.0288925318314455,1.282194504408444,0.4253534507454533,0.2788088724072627,0.6153451465759925,0.8873524025607812,0.38692365523721667,0.23894299689555962,0.9468521135926554
35,2.1802355863607263,-0.4630437659747104,-0.5150039939773974,0.8873058581128046,0.8998126759468058,0.5364879229275493,2.401473216292054,2.6318905493096048,1.958937654955125,1.5181987615863073,0.648888643467878,1.4571461020918417,1.5917525640325605,1.1016635760959272,0.9577316923352356
36,0.60107631896299,-0.06693414803495878,-0.04345930470526002,0.7444914128415634,0.7319754949652013,0.2998781678324491,2.1431007955419394,2.1995948151493336,1.0260659198025863,1.221860942222586,0.6403206450210053,1.0524923530545565,0.8650571222317983,0.949301087568464,0.9224952472716712
37,1.9280381776327324,-0.5083941192136957,-0.31091771220200476,0.6818169280130839,0.6520902609665237,0.4580783515150266,2.3153360089760384,1.6863562965877237,0.9638253102077429,0.9506705838470556,0.6468212168108125,1.1629019518844932,0.7801456315573435,0.518663508742975,0.9446714370058948
38,1.1472049820320818,-0.19547268414678154,-0.12117428042324907,0.9333498548609038,0.9280191227418991,0.6149903397467857,2.698063059721067,1.5300063523134422,0.643030744057483,0.48629598806785534,0.6233814453054027,1.0184772775623585,0.5104564952127821,0.33367743742486544,0.9561988324576507
39,1.2910099628672755,-0.19130592146691328,-0.014944711141844147,1.0614554393732143,1.066932016068432,0.7350226419046333,3.653150584445016,2.7234695093957497,1.2220689661258437,0.997754882822503,0.5947193981915972,1.4799703214330409,1.0156602917179351,0.795218711342314,0.935958247934618
40,1.3647998668996404,-0.19574827101269915,-0.15402548330440108,1.2070364584631843,1.2017556549243151,0.83465073623209,3.4988932025138366,2.3986446086273285,1.4140845487086775,1.1662112401394065,0.6425374456860184,1.5913251653405542,1.2106694819381976,0.8523760321493092,0.9172361903021653
41,1.3021527449087655,-0.1301835844357766,-0.16037397905637404,1.254099279213772,1.2610399181851313,0.8063648491620794,4.082976619527594,3.1270165738126092,1.5980255289538536,1.4419997535367564,0.6068309995095971,1.766611675695403,1.3466536647597642,1.0260765876976694,0.8942226696973621
42,1.574912578611061,-0.35064626198821397,-0.04860049426504631,0.835798693881035,0.8275707267119347,0.676614101223609,3.057539007182232,2.2091212273590264,1.353470899535248,1.1588797684714143,0.6207552362147116,1.665126818294689,1.1951037826894888,0.9862127587979865,0.9485007510496769
43,0.681555190690617,-0.04613092029860699,-0.04626203556044314,1.3323280734109662,1.3282977325881857,0.8804382008612153,3.8863977634352675,2.464310034401428,1.124036903370206,0.4983143926651212,0.6333676938231112,1.7644686089921513,1.0075869220859712,0.4319316812963277,0.9394144738306627
44,1.7207472126366177,-0.2899508352548813,-0.2773725176737343,1.2599965675460325,1.2316083556999633,0.8169054011274519,3.8921355334764636,4.804118678614709,1.1702523795844988,0.9743554003918397,0.6333676938231112,1.5492839896143533,1.0211805485352936,0.7822601900617305,0.9326603946313607
45,2.0303333988427408,-0.4607267582273004,-0.22801768357239272,1.2026540175204852,1.1820953771002911,0.7808703429720877,4.498987250384581,4.668749564182208,1.5709175001469113,1.3128129059042832,0.675384900321601,1.7500418758761864,1.392902244025,1.030443649661367,0.8842296826292816
46,1.6691347006869839,-0.5007808314525533,-0.14112096144218625,1.14052508017592,1.1136519197623216,0.8231233759821985,3.5149044863457886,2.304058143146465,0.9294058062968247,0.7511512966799225,0.6509067234006624,1.4787995895920054,0.7873464332106357,0.5823163320163138,0.9184774926205777
47,1.8648312552474677,-0.38122010818487906,-0.2828103515003353,1.2059073440663224,1.203020423987064,0.8338688025144443,4.478383131315873,4.643123409512632,1.901176582096006,2.026393870173539,0.6180765742263259,1.8462156550241138,1.6419931036276714,1.5684704739458775,0.8690002564484479
48,1.4094668845270688,-0.24341430272793102,-0.1430457961687519,1.1052280846555458,1.0638014592949891,0.7595096014850458,3.4031249078050947,2.553197548416205,1.3720469980091228,1.070503577508364,0.6333676938231112,1.6004781710626284,1.1781733372231282,0.8291601227393978,0.9185909180640424
49,0.7826685548676208,-0.00441573530875089,-0.0437992624058684,1.2119582398628066,1.1866424275695666,0.7850987780125971,3.2349204581264113,2.320984455501068,0.7802440488943045,0.5164372166336929,0.6284777104787076,1.240559951323791,0.6551536156242056,0.37526519897688454,0.9219191943863368
50,1.037073523688638,-0.09283975850372922,-0.1902898928816075,0.9824564863277354,0.9374117263510113,0.664040610325402,3.4332950993272595,2.1420600795212974,0.9985084853329608,0.6688525348828576,0.6547956803312163,1.2958444581978186,0.8388749137870037,0.5447433722654753,0.8796087803874622
51,0.5886816405035563,-0.045323493469418885,0.002902017509760213,0.6717948049690503,0.6685014573401565,0.49240262963037257,1.5969176576353497,0.9977565457434678,0.3614783030173498,0.26727246787726644,0.6509067234006624,0.6355703357559255,0.30401745516881223,0.23504198416728792,0.9182322331957979
52,0.7403647053394758,-0.12203499697204656,-0.00856456988326737,1.0312374659632015,1.0074420637173418,0.6078551505935607,2.441012672476635,1.729577087482932,0.6205851934342991,0.5546468473681629,0.6584896970785714,0.9392750821535514,0.455544403686201,0.391355605094402,0.9289242286443761
53,0.8683741014824917,-0.16556563780039557,0.021843065945002238,0.8442296491294703,0.8378561186303184,0.647118880848492,2.5570683448208293,1.5732463443262743,0.5406885299127349,0.42154496266942026,0.6468212168108125,0.9916131163417748,0.4768558529671315,0.32910738524071337,0.9400388475319981
54,0.8994924462426469,-0.158148947047264,-0.002707355522999777,1.3057975294769895,1.3023887749748249,0.8055591684666726,2.811011434970346,1.7732889753443524,0.4871305673803853,0.3626648141416979,0.6509067234006624,1.1481527342282458,0.380934825552196,0.2665460709962138,0.930763004151893
55,0.7637474091014556,-0.12623087840279193,-0.09437201758316908,1.2448790975032007,1.2274928919612003,0.8195436541182559,2.714279623896163,1.2781327026358813,0.6355749258859096,0.313206762629674,0.6357360191111145,1.2101771970112638,0.5411443514434159,0.2523942826970207,0.953819717932549
56,1.4026267813822593,-0.2783322553173373,-0.2151498540245418,1.1696733915861635,1.144994892675319,0.7707628883298344,3.1006676445884676,1.881145956424874,0.6752034228344249,0.529515873882204,0.6566669596287297,1.3325219201351597,0.6280507558620577,0.4695932951333227,0.8960592260485067
57,2.3108795536043023,-0.5760139443716199,-0.29241777452021184,1.4183071649391963,1.409292208336271,0.8178396250689378,5.34922713037028,4.565580518856162,1.8121651949511703,1.3706575773829197,0.6380535849069913,1.8798623507830279,1.4722274567720997,1.250860621694651,0.9459916835308054
58,1.1036021124572704,-0.2247493613220214,-0.18101030812041358,0.7674629483418756,0.7544150511835085,0.6110322391439532,2.268458144854475,1.015578920203477,0.4435829695120571,0.31909012128159503,0.6468212168108125,0.9230076846217738,0.4077889000126946,0.2748706679034389,0.9474535663971063
59,1.1115023793799959,-0.24493009452831105,-0.1298035824908204,1.0516780476852214,1.0295738776863466,0.6945197013310092,2.401958248915534,1.5750731495694148,0.5156799167984293,0.32096761654089984,0.6284777104787076,1.0475390184841091,0.4386493454564249,0.2753652632304551,0.941702367016817
60,1.4629839445013642,-0.29412941907407775,-0.2032685678717191,0.8094966921548598,0.7901550594662933,0.5789883683614883,2.5930144679739713,1.674416197906801,0.6835084907169556,0.5090390815326704,0.62595550513784,1.2560461299542853,0.6168510907334088,0.456145931269373,0.9497443853970312
61,1.2127615574781938,-0.23237146499239258,-0.1432660245037674,0.8571859148629164,0.8526644851373306,0.6172115531522568,3.409716614369535,1.1916044776945052,0.897725339495109,0.743439927158811,0.6309483474627791,1.262583252249471,0.7895025594205097,0.5763833267618904,0.9548964449809659
62,0.7106570124789322,-0.05607103399293306,-0.03150154777919839,0.7325992310528331,0.7046505457011882,0.5580636976876812,2.4733599230198005,1.7374894686034277,0.4672095070075359,0.42007433931422,0.6180765742263259,0.8400243764207053,0.3816976094095131,0.30828879297256034,0.945778211387592
63,1.0410103495459446,-0.2194727741080087,-0.12145351169985508,0.7988950969215777,0.7966267247826618,0.5624251828713838,2.4520132073356375,1.623702894394968,0.45450616129893545,0.408883341393606,0.5783247308855777,0.8405650213460195,0.3939433584054007,0.31949482579457966,0.942509756984083
64,0.9869139226010682,-0.1675673737653462,-0.172108950975201,1.1387273800014464,1.1188367100585286,0.6966404612663334,1.8408209672010094,0.8654212502569327,0.42525804695963504,0.23197693481167866,0.6509067234006624,0.92049399767647,0.3855935666691344,0.20390730619470723,0.9483697888409863
65,0.8539324742031354,-0.09890214119478119,-0.10128387655761467,0.76996058242153,0.7628190314104546,0.6279853768350211,2.408252975039469,1.148555809499607,0.6901533503553658,0.38368771055638223,0.6447042257417027,1.083460984900766,0.5430100600895748,0.2671735047413249,0.9282655573941757
66,1.6716415309922898,-0.3180450102820592,-0.202482407075477,0.8707237050762983,0.8686535771029218,0.6332079610578671,2.9638872422675466,1.9902561234480607,1.1062699101595146,0.6997295526417219,0.648888643467878,1.3715590170761296,0.9042759608420011,0.6213600053261593,0.9511549796067713
67,1.2522008382722254,-0.14324148845439616,-0.19063038656450945,1.2722218383340966,1.2492002892858638,0.8506574880819227,3.8612978089939767,4.848346437603205,1.1638887522188697,0.8813451546505076,0.6425374456860184,1.5753585987812377,0.9728429013790764,0.6737345580044809,0.9454332414411476
68,0.8714348682276374,0.003486362592673209,-0.18884729441859163,0.849232710145104,0.8491583371389366,0.46866650756838796,2.6494755477588687,1.4391679292337436,0.8509928093485036,0.628292997905282,0.6566669596287297,1.1720076942448863,0.7338167312711416,0.4989164472487023,0.9265649740202581
69,2.4585689178141585,-0.6854494006489382,-0.36960201461839354,1.174676453426733,1.1502032539594051,0.7676584012918594,3.073259192967854,3.2389283401645095,1.5248167928303598,1.879021766162948,0.5883313578629602,1.8811008312531354,1.2740180278123143,1.2304696671747926,0.9491940813542253
70,2.1802070453268105,-0.384407379468264,-0.4912895329010463,0.9854416617344053,0.9732865954851415,0.695732257069552,3.1950141763365187,4.170431808595711,1.1152963511890235,0.899275611091017,0.6309483474627791,1.4468939832488201,0.8844335786108793,0.5404187319133001,0.9543552391041339
71,2.482075313830104,-0.7219528618638934,-0.3241927461207958,0.9936870295000477,1.0020778738791685,0.7058462666594431,3.4110817239891107,2.202310843837085,1.5286385908873668,0.7572865233639936,0.6740851607140061,1.7386611382330397,1.1799043540339071,0.5817158476191078,0.953051101183713
72,1.296238832160323,-0.15599241099269207,-0.0595752564522134,0.9698251944118984,0.9730252769189469,0.7471759628919108,3.5377254218068055,5.758404078628004,0.7341434618819155,0.8336931712700951,0.6447042257417027,1.2638014467217635,0.6424714092950522,0.6499149957761482,0.9502412958938554
73,2.1276247330356974,-0.481879322854869,-0.13984293697802858,1.2891635663827488,1.287567272717372,0.7939660058617863,4.387837450521493,4.833437881924367,1.1009665522505847,0.6572904224979258,0.6233814453054027,1.9511460547395139,0.9282857631183166,0.4343653735234915,0.9401873544370254
74,1.422626186152993,-0.3077121961510487,-0.2853746844470868,1.1190770820054445,1.0931221761484369,0.7074650214687561,2.7122192609864766,1.287991014362249,0.6977336724884201,0.3969296505005939,0.6447042257417027,1.2254612963382399,0.5981328964098337,0.3355641837816896,0.9496021434936798
75,1.2782274311389956,-0.13537018459606165,-0.04271275308694866,0.7023623984372559,0.6922684741521394,0.5825612689413341,2.5387096973108467,2.1996630016613037,0.9811720090473508,1.1033637144192987,0.6153451465759925,1.1568771968000855,0.7630945035748923,0.6658608680029832,0.9381606880813661
76,2.8810509636933936,-0.2748948803247373,-1.0251216681764752,0.8307487166445364,0.8258366560040652,0.5809407565053636,1.852708406506132,1.9455976202538974,2.5487815667456593,4.25009387109349,0.6008849035917525,2.1104048853836592,2.4662858292825636,3.7398317812878634,0.923811587383482
77,1.6670515694253556,-0.33783734351384187,-0.19321957483836094,1.181601131541324,1.1460594587211728,0.8168432389570672,3.7998879148319213,3.125901654264076,1.1378284699782708,0.9833503913463726,0.6180765742263259,1.6872192899541312,0.9984173163111788,0.5865813941403851,0.9179210356607685
78,1.3973633452599725,0.048795169762196444,-0.2715175774323395,1.0875951317988366,1.0588563277492529,0.7508036746762033,3.308574271265417,3.106467394632035,1.4329674474502825,1.1478707685455904,0.6097226960127671,1.681650246548025,1.2295366510620598,0.9584153919341092,0.9253747703536445
79,1.6526745549450712,-0.1932065439950128,-0.22774083072529117,0.9956675911478138,0.9806492670336907,0.7682393798483832,3.3202118537365206,2.9105032438908003,1.3891122971268541,1.0156333335508712,0.6652988471865258,1.7830640508608313,1.1917768636617834,0.8090820882782156,0.8387488042860104
80,1.6212607590150085,-0.23557085993751714,-0.3931568667286282,0.8580873126346653,0.8335385788366014,0.5942972744879811,3.0273305157516353,2.3968352751202633,1.4610711419381441,1.755566541232879,0.6547956803312163,1.548186036402337,1.2192603746565294,1.2413322628335874,0.9166981345283481
81,1.7144466724499914,-0.1274420820628731,-0.4304961368900304,1.0535708648659603,1.050301860005608,0.7370922442988246,3.088059463353739,2.7157024784597867,1.7668166134430794,1.5747374228434243,0.6468212168108125,1.768498775653503,1.526238694907525,1.1931436289039632,0.9485001835536949
82,1.6889640886766377,-0.32162327018390513,-0.2551757351958116,0.9346516737589148,0.9367651526378107,0.6366540556085406,2.471393471166919,1.8291225474257575,1.2926874935781403,1.1562333470761625,0.6403206450210053,1.4917042607131328,1.093096391895511,0.8257738908661085,0.9516836447054061
83,2.0959674449277936,-0.28804097891223546,-0.5496532769794262,0.8971341369441798,0.8935721758182922,0.5862094735418318,2.580545127791653,2.623453432761656,2.2584330484275,2.685453738844151,0.5947193981915972,1.9177006925859021,1.9876777701235755,2.025722934671414,0.9387623882002368
84,1.500553280639772,-0.0368726489044382,-0.3034091529317433,0.8362786707746057,0.809925067207055,0.6539871946395986,2.6394621557229696,1.9891841145722635,1.3900976577182724,1.2379117213478008,0.6284777104787076,1.4325011982870521,1.1741965085548705,0.9136586566565472,0.8768726355114113
85,1.269800820078193,-0.18373743192895897,-0.18327961214787808,1.3198016047717493,1.279278884180357,0.8668915965123918,3.8765697231177536,2.2993530748605036,1.2201591705065857,0.7063919676444962,0.6333676938231112,1.546463113272712,1.033927064676905,0.6019394472611173,0.9360976185000913
86,1.2610028508035591,-0.1400193919274087,-0.1961683429653754,1.17326997113974,1.1681154309019413,0.8065758875398882,3.603471842769717,3.575770913258907,1.387960222952048,1.4553192685015293,0.6333676938231112,1.6613161732027655,1.2254620491832688,1.0626005695858805,0.9510585396189256
87,1.1514264097258295,-0.1396047508762615,-0.1902909070609234,0.8731853429882019,0.8596383198571856,0.6939439185321317,3.2451880881304778,3.0724329402255286,1.2883801951189904,1.4200136863922221,0.5677978065141052,1.3785907767348582,1.045910883197178,0.8832053786427804,0.9233113702598306
88,0.9088211350623677,-0.0486720976939366,-0.02985010179869374,0.931768026344295,0.8818019900589635,0.5856239093656301,2.649546962572693,2.0004909887296134,0.725822237714015,0.6482201301882133,0.6284777104787076,1.1839160335825663,0.595124663237714,0.44936499799951385,0.920736072881883
89,1.375059415392555,-0.3035659476415277,-0.13874661383976666,1.2690399334102733,1.2431414789133992,0.8573714655038893,4.505597841772118,4.595282195493735,1.329580598817917,1.3944687385404848,0.6528756675646988,1.712640264775456,1.1829450601735965,1.167906773790284,0.8973564348611297
90,1.3542471317627984,-0.24121248221012032,-0.17122984098494332,1.2246573803686682,1.1890461706390636,0.82725005456406,3.749305790740229,3.5687391295838897,1.0612713737534831,0.9088266426527118,0.6425374456860184,1.4581962215200857,0.9266841142007902,0.6729637761190377,0.9196568542009077
91,1.8073818278438898,-0.4305732349472996,-0.11785985889727368,1.3546810673274372,1.356319772169724,0.8436744197512909,4.3278751986191875,2.8238593094974593,1.4028007718531221,0.8656274346824748,0.6380535849069913,1.8205705510821746,1.2403523080090293,0.7824036150507074,0.929886932736126
92,0.8339893252616608,-0.07638723483238458,-0.05243419544457653,1.3285366066016855,1.3000249548346046,0.8494509095928314,3.2923624605217228,2.2610640414622623,0.8252049910201776,0.6908932550196524,0.6309483474627791,1.373575588712116,0.6917439177441648,0.4828819937040333,0.9480624972624822
93,1.2555583396070131,-0.12371146273144046,-0.1243742045462104,1.3296939150273117,1.3178129032142991,0.891301317249923,3.079244384286691,1.7035709684111349,0.6532671126983429,0.4415528616290451,0.6180765742263259,1.3085517324987368,0.5202867449707389,0.2597110832410875,0.8995637632100318
94,1.3732437239061324,-0.2079902095353705,-0.17307842253037548,0.8624224547742031,0.8578966391714319,0.6677470320163958,2.755726397946333,1.7469319291849583,0.797521507456394,0.4370041723209265,0.6425374456860184,1.2508315016456208,0.6282302959852307,0.3354106731149212,0.9360194283193825
95,1.7925015987611799,-0.4944473158310882,-0.1543543263473232,1.1210934516897646,1.1201305972087627,0.755006029991403,3.028671675565269,2.4108885822579222,0.834219878466754,0.6634678984540776,0.6097226960127671,1.4918030359008858,0.6872869712398506,0.5309621966321464,0.9338324495250987
96,1.5419093715142964,-0.2843254122536895,-0.2221604441895811,1.2252695059647898,1.1890711908381244,0.847724441672019,3.880341815039253,3.3355774116865855,1.4597839312254715,1.332337740427009,0.6699045166045591,1.5703240425952003,1.2597054862948027,0.9701539947826077,0.9106406948266099
97,1.1206275565972394,-0.06875786665787198,-0.18116275109276964,0.8460121980672431,0.8264867903918882,0.6382885631991728,2.8580644636794292,2.4307048222024017,0.8444504847922562,0.7407779163063398,0.6584896970785714,1.1805818515353603,0.6813855127361911,0.5235163625253759,0.9491800032539695
98,1.373910109978033,-0.19421106792921,-0.1979393681823239,1.163022390366076,1.1459329927898676,0.8077623246790655,3.5103823752698697,2.7563440701765387,1.0260845272021142,0.6200065365929432,0.6380535849069913,1.6470244060962071,0.8620383335695523,0.49067755528577034,0.8595342946738155
99,1.5304790482897488,-0.2845167960634307,-0.1494259565023986,1.2888424956538282,1.2338717891192392,0.8171833613299543,4.157365204029485,4.499128131509677,1.650742845687902,1.8123940703710353,0.6097226960127671,1.88841722326949,1.4697206689322182,1.5541615011736856,0.9141053161515578
100,1.868957883960372,-0.40027848839685265,-0.2748030624060427,1.214202682788152,1.2105781316476563,0.7715970716131754,3.758097663543651,3.5881439455421833,1.9014410748087787,2.1579482331310427,0.6403206450210053,1.7741160340554598,1.6889567513247832,1.7199337346567993,0.9476474131489956
101,1.9648046348565187,-0.2589912620558783,-0.35696432270430245,0.9313433063492924,0.9275080762139356,0.7103411521759,3.483653134053972,3.0815611495416255,1.7254642598046661,1.8947286963397045,0.5978297680564633,1.6872192899541312,1.4924358217607883,1.3588953869317764,0.9229181512053359
102,1.3923452485441383,-0.1778940781456465,-0.11861313148649155,0.8796921340218333,0.8766536030605275,0.6838864524206224,2.5269619942352204,1.7733762056057771,0.959775300749276,0.5523656785513521,0.6468212168108125,1.377532855451318,0.8260116506297209,0.4503332161327783,0.934346904833211
103,1.599158774497161,-0.43520726194586434,-0.20768510925092626,1.0083956084465082,1.0135072125149815,0.6276912629760358,2.9078908185287977,1.8800187154131005,0.9720452997442692,0.7139628730511774,0.6180765742263259,1.2691633898631487,0.8175937344470996,0.5297779679561885,0.9434414924083943
104,1.8147207595976975,-0.5230730019513736,-0.18665931749095316,1.119821141223712,1.0922886320325629,0.756203148414879,3.538059382308829,2.729106455412057,1.077040694722198,0.8684296379742621,0.6309483474627791,1.4588172653714095,0.901867861117846,0.6854052064063298,0.9033312623133551
105,2.2335932991896112,-0.6072127567903914,-0.31147968570504836,1.1570101848514562,1.1457727817148724,0.7286086620799352,4.17443531021534,4.39231919841406,1.7116253726374,1.7611347093722458,0.6602640781246099,1.8740547119548852,1.4866407263979402,1.4030797778119044,0.9253171598101485
106,1.7866315015991123,-0.3077872593712406,-0.20993920540958114,1.2540312602625099,1.2492675019841124,0.8482408624046952,4.660789400784405,4.097181257386254,1.6068392653786248,0.9466622732951617,0.6468212168108125,1.860609493775259,1.5029710243155894,0.8076450884672097,0.9378091114699165
107,0.6205209082508132,-0.08408517987261466,-0.08100262699003602,0.47039263768868894,0.47004493896219807,0.34271739868925627,1.9493875251846415,1.6707047097485364,0.2701460105123105,0.2118739616643193,0.6333676938231112,0.4513519908806406,0.21441783734656245,0.16345165796137706,0.9629754233130035
108,3.1034445231093075,-0.9099680829315628,-0.36791390234650867,0.4768043233294326,0.46246770718914393,0.4463708128340016,3.5247679883845273,6.5312830322293225,2.5156475486455183,6.776625026833396,0.6038851895711802,2.1019143975318944,2.165197508679349,6.041840754433049,0.940034642653566
109,2.297287995313061,-0.2869011729184017,-0.027061519774383265,1.7032886433604992,1.6900374076596762,0.9221850526466551,3.026415311699026,2.2700206963165996,6.09043293371194,,0.6447042257417027,2.671396883454175,3.7874081754800595,inf,0.8818937012238169
110,1.947171730629821,-0.5340108578603288,-0.38413656704257737,0.5464581072350898,0.542022919052489,0.5194174085735823,3.2883145472484685,3.4335221319364377,1.3846740131693827,1.146724849807974,0.6153451465759925,1.273958231725639,1.0184565326143291,0.7763662135302354,0.9411637584140355
111,1.4275749561958546,-0.21597639111229494,-0.10348412998231599,0.8451977637471456,0.8107750400792376,0.6608081192347619,3.5155203742511154,3.7792819254997796,0.9147490919880935,0.8835872165471255,0.6380535849069913,1.3586359611261012,0.761349835869316,0.6212765383129065,0.9256384284512095
112,2.5782752877098467,-0.5996786048104796,-0.735003833806047,1.468328279922112,1.448251240243486,0.6994091651019049,2.7326115308620977,4.58668212121396,2.650832854125098,3.9765695715302716,0.6403206450210053,2.201835189893903,2.465210399812276,3.339321977944068,0.8889872203616315
113,3.376033833877229,-0.8654620428127966,-0.4172811351805614,1.313622667687249,1.320600227518407,0.755667980367223,2.9885673218653035,3.477251362183558,2.5854707089561026,1.570786138856934,0.5978297680564633,2.1690259229775406,2.445072893754852,1.1409769523113589,0.9304539751784213
114,0.1834017017978862,-0.00868557520348182,-0.018690200266381386,1.0998661720880476,1.0766540586873654,0.7497018899191696,2.329646931451597,2.516735276169663,1.9206782911348064,1.914507523999776,0.6068309995095971,1.664598323611376,1.7148375662692668,1.3298610053163464,0.9136074888828061
115,0.1675874387292143,-0.010933984102051274,-0.004582409476316017,1.4086836460399836,1.3974044834648571,0.8465888303946087,2.428267163001646,3.164814901659483,1.9829817290786689,,0.62595550513784,2.1080239318779173,1.7420681158197384,3.7288315051256515,0.8959120371028002
116,1.3475854691312024,0.1591575759763647,-0.15523566217678497,0.40426291563730116,0.40370486539259054,0.39047765501766757,1.9415232244285554,2.423032448967317,0.7688982083909509,0.7142323810111197,0.6380535849069913,0.8928455094175959,0.5669279618021538,0.43949697239408453,0.9490808157484888
117,2.2795813951414536,-0.3348577496289322,-0.14314675633150598,1.0774182332591329,1.0769513666628432,0.7353737451754941,1.6833122029907337,2.2446220571490247,1.2643198362719055,0.9415736039566418,0.6357360191111145,1.810534624554389,1.1616981598220961,0.9504018816462553,0.9344416099024335
118,0.5764387826704189,-0.07459029403564688,-0.029153140408914622,1.1497874650379585,1.1430278772468283,0.7324981640846523,1.4696954591042604,1.6492570995313849,1.2338358598197616,1.2714270970367942,0.6380535849069913,1.7749679065882182,1.1176062748631466,1.0522016104485892,0.9191675423982653
119,0.572507182800208,-0.07091436370128389,-0.03165541260591659,1.192081830434201,1.172266802634691,0.8000144758489766,1.247365733545311,1.4400482440231988,0.9860346942250656,1.175728011997293,0.5947193981915972,1.7307898089050369,0.81897541323146,0.8818913670103672,0.9015025338365958
120,0.38472383683576505,0.02575091425465109,-0.055447900281875864,1.4549682734155973,1.4314247063752708,0.9038516315899833,1.140083658932094,1.2597502345318106,1.3045134877429878,1.4289347092651765,0.5783247308855777,1.8980092690707653,1.2921171425114495,1.354680624678786,0.8794936574917681
121,0.40032033480890566,-0.03967160841733362,-0.01628397721238469,1.2811918742098105,1.2868965570015574,0.7990015227666325,0.9615108455399516,1.1925267882204356,1.5919407090172204,1.6373413045718155,0.6097226960127671,1.6238749602318698,1.2783669702347822,0.9657641895447197,0.9057447903176048
122,0.344114442795401,-0.02010249020438997,-0.030447141735321266,0.9571975275366938,0.9605982085501831,0.6952039722965889,1.053473975805836,1.2554673164522134,1.4117837735607668,1.785614696749191,0.6309483474627791,1.7998588474847046,1.3379491542947144,1.8628769614636687,0.9174782009393483
123,0.37556402485317,-0.016472902719142285,-0.0290187633679643,0.8738289976321811,0.8555707727847846,0.6234676515237655,1.0529864409192204,1.3068749676836144,1.66506172969218,2.2808218729123864,0.6357360191111145,1.7411931056573673,1.5012925848499674,1.7565504677455694,0.8799457182550576
124,0.18829526611565015,-0.01801014119951294,-0.016065592132267565,1.245088721978585,1.2397697301888748,0.8550122019317079,1.063060970279743,1.4138724742510111,1.6453062092559472,1.7964768065371044,0.6180765742263259,1.7219225096392754,1.5576473839011817,1.751268107873318,0.8483789626080277
125,2.0191108593601244,-0.2352625361634576,-0.3428461587303109,0.7307433752988011,0.719962472380348,0.5468572952625069,1.143568664940328,1.3235214633220194,1.1495646606851637,1.4775355629415168,0.6284777104787076,1.3240083750356133,0.9425662804353995,1.1423189328256131,0.9148153742263186
126,0.5570131123873996,-0.069159978919907,-0.030278241787144354,1.3422583828389707,1.2937235580334325,0.8783295914317549,0.8808147359795473,1.062148741169732,1.7193457796211504,1.523032604453794,0.62595550513784,1.854699269001929,1.5053561693290511,1.4752269682874144,0.865238388829694
127,0.8697619330408974,-0.010350392398981167,-0.0012938278394811764,0.576461882421219,0.5573695467271342,0.5229034433357794,1.7686190151843661,1.4965516308607951,0.41678570227245915,0.37497046068556183,0.6097226960127671,0.839355411233405,0.347796694621447,0.24075159669857976,0.9359151365825377
128,0.8809251835048623,0.09819742738959286,0.0277924640002436,0.9833271934478431,0.9750377046451961,0.6932534091362444,2.9311656420093373,2.3555203172133834,0.8065398845240325,0.8145129094013488,0.675384900321601,1.0992791776558133,0.6457239402304685,0.49096228776636797,0.9423938658905482
129,2.87971224935483,-0.17470710799966938,-0.9693704719607807,1.6858001659379485,1.6833892718555623,0.8079099536842353,2.3873526585299305,2.901485922540288,1.714062070033021,1.2085422228136027,0.6284777104787076,2.3623350973998196,1.6336735641014193,1.2419455553197072,0.8356905019570134
130,2.1684657151018474,-0.2197543501712232,-0.17800422887190084,0.6560463278605391,0.6627980453491775,0.5850764148656817,2.4516564978165194,2.8180701160457415,1.3701497791475714,0.8839587290773111,0.6153451465759925,1.8470607850131444,1.2257925424783405,1.0301956753607622,0.9302215542727791
131,2.252254710220945,-0.3169017258188802,-0.24321914330863206,0.8329128242591792,0.8340320690675246,0.611024100504446,2.1878131602767206,2.522261725371066,2.4277739515770924,1.4046055758429397,0.6008849035917525,1.838222343638396,1.7313936896487228,1.9828769938228565,0.8940493341869626
132,1.4612661738783157,-0.20357224429278167,-0.1682176957441704,0.718847039080633,0.7235666893166431,0.6026991413434736,1.974556905410187,2.6354149512405836,1.8092469336278596,2.4068652075571126,0.6284777104787076,1.7142430268002267,1.580194818290395,1.3320694782856008,0.9265849732135741
133,0.4226687821249091,-0.031490759498741264,-0.03539271952369759,1.1569110959652062,1.143487322686358,0.7239915225357325,2.491163974989467,2.5257061496922346,2.006214968359988,2.0156378252592186,0.6584896970785714,1.7813471988807452,1.639372849270274,1.3443580997941265,0.8947653104307938
134,0.3684383704777541,-0.04580406409620162,-0.003321051967498919,1.440521973393611,1.4338404838188041,0.872981814710443,2.1045832114221494,3.0109400835310876,3.0038425456389826,,0.6602640781246099,2.2026392100377183,2.693180409629956,inf,0.8648419816827165
135,0.9650480671839585,0.03650315077439481,-0.10541516011717,0.4025484572600011,0.40428402691998205,0.2329926866998164,1.109988901846499,0.9710207240913447,0.3389192499908363,0.27704523123498376,0.6509067234006624,0.47027033147428,0.2280457403729144,0.17629969605526744,0.9396709329812056
136,1.805435682602326,-0.5801515342457262,-0.1296947711554466,0.6389761047051082,0.6329666412223192,0.40415096211407203,0.4515557375831501,0.5248300725121593,1.0882254172928858,1.5606974698809268,0.6509067234006624,1.4057263904293213,0.9676388846257714,1.274585523560406,0.8964435908914471
137,0.7594834863439277,0.02484358364804007,-0.07943090805137742,0.26334616000293776,0.2449067567664884,0.4221997622896418,0.42897515040544776,0.5328078950454265,1.4400713194078036,1.4188533998000006,0.62595550513784,1.628507475154451,1.2997738558149337,1.2343420720060103,0.9191929509481949
138,0.7887574890426503,-0.1341305341057449,-0.06250704658589133,0.32036688462053936,0.30746998914037793,0.39535329932396546,0.4773056536594779,0.5801598335607923,1.1470901513511118,1.2175778967161177,0.6180765742263259,1.4341316460896074,0.9240836173387377,0.6876413973082146,0.9225564356433317
139,0.838223897102517,-0.07548903093628184,-0.023166586789510057,0.23293085381488063,0.23626211598693336,0.09379619262077644,0.9901585729492683,0.9934243634623114,0.5571305456994561,0.4690192809670376,0.6153451465759925,0.665748206371831,0.4136498633724745,0.35301004034160904,0.9219168065119395
140,1.8873082546085893,-0.2858671020412374,-0.28061468955222924,0.6643848722507553,0.6751931333805046,0.5876627958365972,1.7167494648976207,1.602237596031724,1.8551278518619085,1.3417654090786426,0.6447042257417027,1.562660354208572,1.5864821326449536,1.1650178365901103,0.9392986260507397
141,0.49207790059833667,-0.08923372186766151,-0.04456164821245112,0.44042845283144105,0.41896444574616004,0.470879148551521,1.3268868966153278,1.5266691055302006,1.3422966925477242,1.913836859095473,0.6333676938231112,1.3799589169398807,1.1110999523333178,1.4468519071070753,0.8973890368241442
142,0.8742368307372169,-0.08301269785457276,-0.046519994004556885,1.1191929476809257,1.0953153744700648,0.8136964162363016,1.3986810656216158,1.4725975606315571,1.5464105333355427,1.774298238501193,0.6584896970785714,1.995835957825039,1.358477837938266,1.3636518843701309,0.8491255954367127
143,0.7944981824696791,-0.06275356195167814,-0.11111163829028377,0.8757435734218707,0.8464208481717949,0.6554321619034402,1.6423959324383912,2.0258099322972853,1.61809992326749,1.3146081387932322,0.6425374456860184,1.6657731357765726,1.4756273769233377,1.1827765889871968,0.898443836411755
144,0.5774445033102693,-0.07341806230833621,-0.038289242242377425,0.685894961058833,0.646574247215004,0.5979248742426067,1.5370158878028344,1.9102819447472204,1.5894574267480819,2.061599987128568,0.6233814453054027,1.656354832221852,1.2193253769313228,1.1233541732646009,0.9265588495865728
145,0.8486523106605158,-0.04851096911007713,-0.11794165723277847,0.5849308765062281,0.5884644114394693,0.4000718177515049,1.7409689603691234,1.485069481404839,0.9895337712516513,0.8598971401959165,0.6447042257417027,1.0087411159064161,0.7703654071983235,0.47437099578227837,0.9349039969224174
146,1.5398951978277475,-0.18855423280616213,-0.16070961609189904,1.1363687859987845,1.127198857798656,0.7977297454659728,1.8089421566292498,1.7619702489430054,1.7838299901813521,1.3618820700428869,0.6180765742263259,1.6803970013745944,1.4815210470639477,1.1374027611423196,0.9275154245004814
147,0.6517767036714738,-0.16486836427447427,-0.01709434125391629,0.37034117318545484,0.3456739637110838,0.2562737116181796,1.8337366298463735,1.6418316608766026,1.4944794604922165,1.3341861478103316,0.6447042257417027,1.1846423291441444,1.3820529960768633,1.3419998901144636,0.9589954055113659
148,0.9460224375352171,-0.15907826538534445,-0.06895734501518079,1.005114600712211,1.0124728956648714,0.6252106870786561,1.3384672378130067,1.2564740456176176,1.5147142914293823,1.4524555356141986,0.6333676938231112,1.446941205405465,1.194385363653837,0.8310088404361932,0.9335768669148211
149,0.6118330561086052,-0.0704671681816118,-0.05275794834675665,0.32653121558277415,0.2932220280401462,0.12799898356994002,1.0405093177718878,1.041294711013664,0.8788540027115929,0.9722764778945882,0.6153451465759925,1.0677275050870891,0.74491517505739,0.6552102150776937,0.9558549180473851
150,1.3244563982146775,-0.08093174982599238,-0.21506963934099416,0.7025629003174756,0.7037119220583006,0.5445089276217392,1.9380480092702637,1.2141174035474411,0.5960094194294138,0.43895530873128635,0.6380535849069913,0.9688128511332652,0.4326628319822894,0.26412114282541077,0.9186410832323353
151,3.350827782087489,-0.6730513240210844,-0.560902703141654,0.8794700996304741,0.8576674761729984,0.6296727522178374,2.03613764779055,1.7462580475663758,1.2131651212430492,1.5749619204289775,0.6097226960127671,1.9833236073889422,1.1359582967157693,1.2090986505980226,0.9079360939303512
152,0.3626049568508284,-0.04158744165817234,-0.02126408419597126,1.1060188806870608,1.0827075728028994,0.7483962645177235,1.8532974609126711,1.8521265970021248,1.890897313971599,1.895660293060233,0.6068309995095971,1.9206540096391571,1.7095373370153835,1.3871329355925117,0.8297848098819419
153,0.3990629617409394,-0.05202486175754386,-0.029117940463113827,0.8048940038679475,0.7800593549927023,0.5513699047221601,2.0303091453540727,2.4793841339732317,2.24448224376961,,0.6380535849069913,1.779896776685543,1.881799942834591,inf,0.8781455151283619
154,0.47980717780047966,-0.052804215066994356,-0.0015739317503933356,1.3621780283370557,1.3099912193220051,0.8238660065821806,2.0848496794282405,2.756717587991812,2.8425958438969796,,0.581717464821069,2.480649059535359,2.7678205012851103,inf,0.8360959053748681
155,0.1914125858237969,-0.018506880866112803,-0.005670761637593653,1.3488809172366376,1.321435931107791,0.8862871594960718,1.7004063107528353,1.818932235964775,1.689556516698317,1.7820875250683335,0.6125606311107803,2.1024600008917966,1.4612563102681337,1.1655065234981399,0.8696123218670152
156,1.1878244779030047,-0.15282624575437087,-0.2665831492781765,0.3859449718024294,0.3921992489371692,0.2631035543498401,1.3175887053014195,1.0738683996777094,0.3642225168696903,0.23926869004392232,0.6619902821573977,0.5661034540709771,0.27505403776544807,0.19435480988846016,0.9342974348800763
157,0.6767540367889925,-0.21897928377613585,-0.17570389603688855,0.2520696153350063,0.2541360984362403,0.2219901557567682,0.7880107361304842,0.6212680308187437,0.13944825847340644,0.0906325325817856,0.6097226960127671,0.36475511986037756,0.11168696963677333,0.06891746976507271,0.9619920442238589
158,1.7999069068261841,-0.5918811928041435,-0.3484922713573312,0.6562245991402954,0.662012016561806,0.28359140616083856,1.5692134654867094,1.299755601803627,0.458685447158204,0.3928803068918014,0.62595550513784,0.8824799250564046,0.36467104243809106,0.2336494523772852,0.9482441951785916
159,2.2254448141044505,-0.6064229771787617,-0.3683878297135479,0.2984071630395868,0.2883256686801938,0.34255785019791474,0.743870180903272,0.9048756036676543,1.7886555536625388,2.1083442872673257,0.6602640781246099,1.414968221704498,1.4624873109251202,1.435045039395653,0.9662849148468267
160,0.6664080538293784,0.0007023510691727131,-0.03703531654625247,0.12463234025682716,0.08870343949422442,0.11869592016733417,0.7494480300123812,0.9676634571875016,0.9323818639132451,1.2783909488638145,0.6038851895711802,0.9475234343052537,0.74312453355439,0.8151418928447809,0.9568717949397917
161,0.9598474784841737,-0.05721216181366162,-0.14141156953887202,0.7233835617950328,0.7096589827578372,0.34954090645426394,0.6061271635597093,0.8397755971749948,1.7084070661801356,1.907778396778824,0.5915533975974677,1.575465992863927,1.4193777866289488,1.5190648152168909,0.9368914779950231
162,0.24006687271138769,0.07796818807516406,0.06106075446516912,0.29474661112781414,0.2861578307237787,0.08430394316947368,0.6793356568786504,0.8130549986422979,0.46140692306775694,0.5028358312461872,0.6468212168108125,0.517794293082084,0.36543783488964987,0.3163798283184136,0.9558151554688736
163,0.5887970345379849,-0.020221478463448517,-0.023864759735169716,0.335546419962534,0.2993166278540182,0.26230457051264044,0.7303080916585177,0.85267361649437,0.9453661585267306,1.1563581761395305,0.6425374456860184,0.9845100930735285,0.7666834144078647,0.7215211015412449,0.9553514617624396
164,0.9955507120040523,-0.34365126630125153,-0.08267876102681065,0.6845052171898364,0.6796655499870322,0.24728135075972077,1.1022313338997023,1.0082203958208689,0.3743855425687868,0.3285646860219261,0.6357360191111145,0.5373407294217456,0.304538504938599,0.261410643858876,0.9790400584773787
165,2.83103279137735,-0.7293913370662347,-0.2506823635812941,0.5108857144389347,0.5175671868328927,0.43140502605600356,1.7535422217440206,1.876180623978505,1.925071288152809,2.436571503365859,0.62595550513784,1.796102218662192,1.7551431592436224,1.3995499158344245,0.9569594975987874
166,0.5131752581255803,-0.07142091585771045,-0.03417767799325214,0.5693355355200428,0.5423898176444505,0.5367329127665503,1.5867626078034496,1.831493483477013,1.351028770171907,2.0807307579427508,0.6357360191111145,1.6327065393734548,1.153485399613046,1.4809199672247428,0.9312563931024386
167,0.5571487007552416,-0.07401628992840141,-0.017774761753949053,0.6100823055332052,0.5992434069528255,0.5482709980061848,1.8333738233842756,2.1642986790555305,1.7976655550999994,1.9068946483188225,0.6284777104787076,1.9825165048431113,1.5225610073064362,1.0057931055401426,0.8584897930384231
168,0.61511060836453,-0.06777515695125469,-0.021572742016037545,0.661260439286563,0.6346022459513672,0.4660927045619974,1.7392130890225097,1.6623827938034275,1.5617287132252085,1.587774865986824,0.6309483474627791,1.8378034077294618,1.4647560040356942,1.4586150226995167,0.8845499220714559
169,2.609039212878624,-0.28932505640738126,-0.6621050257308436,0.33713994354455146,0.34047522530004304,0.3982024898345794,2.0082137865865173,2.2981778363128678,1.333997294431184,2.1609058245726787,0.6309483474627791,1.4503944598600893,1.0609930671775085,1.257979177989025,0.9546652866732745
170,3.859567166569031,-1.2364837069339922,-0.24998986956101552,1.5298286285396965,1.5344140753994746,0.8219743242290177,2.46561656689685,2.615897811495083,2.997353273837657,6.075518736605883,0.6309483474627791,2.32131496256727,2.7095230388465055,5.278114659230518,0.8789889828101639
171,2.4097133992954665,-0.30585534514445456,-0.16961435653006635,0.820989867473376,0.8187479568352314,0.6447441036290847,2.7028853844061485,2.621576169120379,1.3935257186640448,2.2916655036807736,0.6333676938231112,2.0565065703973398,1.3483642166311243,1.5908758945740409,0.9115195863025031
172,2.370205884351794,-0.7978952081960718,-0.11359694907177054,0.8497656927323263,0.8547392401850548,0.5907315288554723,2.1831613585997967,1.9080130010718235,0.5533068329768932,0.454923053364445,0.6153451465759925,1.3621872857766575,0.4465827122848038,0.2150056009844019,0.9250626484766983
173,3.1209993496119792,-1.1249608091355738,-0.26833860015380206,1.3927656776138608,1.3978704066936771,0.44003199222880524,0.9827119912613073,1.387377936881336,2.2847919481597745,5.596893573630205,0.6566669596287297,1.9030635387867294,1.9309701477797225,2.6831821345241966,0.8898299693911776
174,1.2494210968483659,-0.1615640768343662,-0.0551231039107004,1.3788524015250267,1.3433590247304954,0.8419204596412,0.9732669736766408,1.159700301632894,2.361802331037985,2.597839650961981,0.6357360191111145,2.052518356336961,2.150897300939502,1.9158822613414042,0.9214046504771489
175,2.1143045649637275,-0.8087508953264037,-0.2716914935090724,0.17406567852275817,0.1760804052207062,0.2555008862961908,1.3649533597459143,1.4820729324136452,0.84845493117983,0.6454662947066947,0.6309483474627791,1.1518021171822288,0.6747558575885216,0.517891322321994,0.9699853072181388
176,3.4788255083264543,-0.9436491807639817,-0.034901027125806984,1.6231338005672447,1.6207866279004508,0.7262283637273197,1.5254766565736,1.930618171995132,2.288166267596675,2.9377388053958766,0.6207552362147116,2.4070817843246948,1.79856684745608,1.6297622853538625,0.9107683735776588
177,2.234901043401708,-0.6497209802914319,-0.1904907951869687,0.5688141866280298,0.5576007707511221,0.5319203755427033,2.0199981725144363,1.7151869536006439,0.9891042447372218,0.8675786618904561,0.6207552362147116,1.31763932447048,0.8151092336813747,0.7290357428923976,0.9194966275168812
178,4.048975558547876,-1.273557041595092,-0.2515570854579411,1.7023537509788707,1.7038062129255034,0.8691199720910171,3.2880752307500685,4.313251094691987,2.285293631708727,,0.6333676938231112,2.3786265570707905,2.1362967510695228,inf,0.8240069557832901
179,0.1930488589969325,-0.021235374489662576,0.0,1.3206407802135267,1.2967021514775328,0.8116307634339144,3.2368527632521364,3.5483124548995906,1.860231788563289,1.8258812899777463,0.6153451465759925,2.2613365228034636,1.654025383890197,1.795109556113337,0.8858890572423659
180,0.5292207354065237,-0.04907024978536049,-0.002324230920659835,1.675785301809071,1.678155944010948,0.9644944250445174,2.418603889710101,2.969751472154531,2.4147012295198076,,0.6380535849069913,2.3410949477559213,1.9525138919904461,1.7668485788485662,0.9122473753371475
181,0.4085645931586869,-0.021873201333393835,-0.025792667868452968,1.5543105743583026,1.5363724207180218,0.880444925950037,2.584956872184603,3.5770349011476887,7.689534836815378,,0.6509067234006624,2.325057948846104,5.991464547107982,inf,0.9366232634581215
182,0.49179372038847774,-0.0442156063566927,-0.002925811166475646,1.5133876536797342,1.4735176635632483,0.9099449382702859,2.5180495810109482,2.4570864236658276,2.059390191753213,1.4697294954100872,0.6547956803312163,2.255595490662549,1.7617880304234235,1.6863989535702288,0.9274200989871901
183,0.2536618166987141,-0.03715868891162791,-4.504420418350031e-05,1.5984390683345315,1.5722844119010257,0.952297502163127,2.7002406498250284,7.842087212211414,2.3298485238910493,,0.6153451465759925,2.0011644944317513,2.099198140115912,inf,0.9168674704848732
184,2.9078906485304654,-0.6199750921580709,-0.45339311149649425,0.8632196127556789,0.8470754327958542,0.6662522727626191,2.9300830701972114,3.7910855532038017,2.6024451239032986,4.965095287009428,0.6125606311107803,1.880736413042769,1.9574167438189216,1.550818577954477,0.92209750258021
185,3.335576854650666,-0.8573143424549959,-0.23854626137116072,1.3979595397781588,1.3845628520094928,0.8076844485053652,3.5816905507093377,2.8200101159282656,3.514152754075671,,0.62595550513784,2.16970669129948,3.498065345833688,5.0466457316192885,0.8946071633959974
186,0.5771198923925592,-0.07157937826531198,-0.009217406669646308,1.621962744181519,1.6306082097969272,0.9428906745699808,2.6890683762362944,4.454319769300657,2.855427835767766,,0.6713451011121618,2.1485296557974607,2.8341662696095535,inf,0.9198855919329426
187,2.036392831343232,-0.15673213746913955,-0.24274214443511255,1.4411901330003487,1.4443623263150258,0.8723124161722607,3.042155201217489,3.5960083080121903,1.9394369919767531,1.9396876442692317,0.6125606311107803,1.8146187633741377,1.6971378088550817,2.124367253953167,0.9157509031890834
188,1.9392727742315563,-0.36508250279069376,-0.035700537217161196,1.4244461199914,1.434044730735479,0.8550600096352252,3.5419884082288475,7.349016186878927,2.159263947083703,,0.6584896970785714,2.1325610640104973,1.8377975184306123,inf,0.8785906195285591
189,2.836240752743609,-0.4558476146081502,-0.24312996265754075,1.5504316629049355,1.5471298213004505,0.8884967249170741,2.8448375380146915,5.978008621050262,3.465248185486491,5.027000393256688,0.6447042257417027,2.2087912137076846,3.4622014381255255,4.637960008811082,0.8888255178936124
190,0.04994601493994452,-0.003560423568380368,-0.003764991956144828,1.4240697239212299,1.3838286306955425,0.8869470159051593,2.7530000678485878,2.4991628436388917,1.6756668807111588,2.071062106389552,0.6284777104787076,1.9503644994046936,1.4222454254055492,1.6447143574368095,0.9224274001839963
191,1.0095810311346056,-0.14240055958377576,-3.3623299486966463e-06,1.5776317619465425,1.5772850698486427,0.9500030527953067,3.2573140016015434,5.2898481358117,1.8550784283423238,1.778302512994611,0.6068309995095971,2.067073892871174,1.8510789729325086,1.7923185970033149,0.9048376952273524
192,0.8511025036563136,-0.06936105771902334,-0.07248935955702893,1.5576492442225593,1.5693622557107916,0.9300834665302278,3.137431300974112,5.892640940669468,2.237209944115798,,0.6097226960127671,2.0169050232129377,1.9074155100256145,inf,0.8871840599567078
193,0.9778626505214681,-0.1293388886684514,-0.00427974281272193,1.6105780159925016,1.6039546416465555,0.9096203693583452,3.1363708816901186,3.016613354679199,1.815204426152134,,0.6468212168108125,2.2552775087848365,1.6169907380834772,1.8449372481200281,0.8969990533357555
194,1.5178138568155943,-0.08002365158370969,-0.13861491306068746,1.4805634527603506,1.4787384792175746,0.906262809419225,2.994686357981037,5.044732301035332,2.273991135558989,5.477266539664102,0.6125606311107803,2.0334913853536176,1.88858195592803,5.182906515036709,0.8746282925608998
195,3.370408505818137,-0.8244037102671993,-0.2580426517557891,1.4570474694286517,1.4639070354360317,0.8113310630230753,3.0707282072256823,3.052958972754664,1.7931376780420092,1.0145254512821256,0.6668815377411301,2.251469592188615,1.4978678309624351,1.1920828019237324,0.9079836768375952
196,3.6652266001503975,-1.0290777482335545,-0.23463379844154975,1.6201058536745399,1.6394310386437385,0.8327075928560412,3.327766064951472,3.513849163779787,2.7187034065957643,,0.6284777104787076,2.445814149981904,2.2696670568238697,6.692083742506628,0.8536500673043251
197,2.129980482941063,-0.2315310757851653,-0.18504317613569346,0.7243207120938189,0.716317162423346,0.5956714667167206,2.344014490966282,3.3294459895041446,1.8547598824781342,1.8218998646785611,0.6425374456860184,2.007100208479244,1.4262760715471465,1.3343128354594758,0.9103424817610896
198,2.727540907528557,-0.46409218505346894,-0.09959960250243285,1.5974625757360585,1.6049672333275276,0.870651893909035,2.3995980678385296,2.4737522395843583,3.393144063095816,,0.6153451465759925,2.3344198165140644,3.3079540300134935,inf,0.9188778569029069
199,1.2131880332722798,-0.11550670071666935,-0.0381637834978194,1.6818099029692086,1.6657131364536177,0.9494566499788664,2.1601229155903026,2.4059857063808434,3.254920911714174,,0.648888643467878,2.455606780743138,3.2548646820638596,inf,0.9106158293384217
200,1.427905892131039,-0.25020115114061037,-0.16932013752649705,0.9607026106591121,0.9544292887280621,0.6504502909215444,3.15649022059843,2.7811787088493056,0.9979008567213886,0.7463519850750767,0.6097226960127671,1.294789391752505,0.9089564025739798,0.6772698686456547,0.9047264883799768
201,1.4818608599887442,-0.12559395698807652,-0.15042442699376124,0.5668749211042996,0.5631918234205575,0.5863622427667557,3.12034081772182,2.754486624644236,1.6490841815773098,1.886595714676914,0.6284777104787076,1.5970153924355432,1.3229911705903121,1.2137720684416524,0.9427745001101665
202,1.117171518765371,0.03856942824674836,-0.1321200206847144,0.5582844521090928,0.5378760881798159,0.4732613002117455,2.059580983168329,2.114643620927363,0.6044650777396279,0.6121369838191919,0.6584896970785714,0.903237409501514,0.46373374205676027,0.34788900683398993,0.9393779879185563
203,2.6922792945396425,-0.7558979072802198,-0.3579302003885749,0.8023385516286111,0.7894689219370804,0.5045218038648366,1.2768323159818016,1.2786695030318358,1.188000843278774,1.3915762757177739,0.5978297680564633,1.4920994200168671,1.0476154662661283,1.1350425326073859,0.9262651165310753
204,1.9898786654581397,-0.347499824709864,-0.26035264352147697,1.4739013052764478,1.4533734696168188,0.9022529783831188,1.1544750745953742,1.272465768117399,1.9143735193202434,1.7855882560622605,0.6309483474627791,1.941652558802672,1.6910566238442097,1.6972135233164862,0.9033133269461101
205,2.432135675180962,-0.5936968929239546,-0.22336012027303964,0.9245146008830788,0.9258352993810256,0.579062325712526,1.191453733212754,1.3072385878415638,2.0250546501824873,5.635797739134516,0.6357360191111145,1.9415751144657505,1.793231938204141,4.581715443284194,0.9433129150105198
206,0.289647545964243,-0.07237149665244716,-0.03577384237817269,0.795448274712534,0.7193682519850141,0.4107475493063974,1.490260553758282,1.3058654870316588,0.1386410833327427,0.16324898205754668,0.6008849035917525,0.40845290045106947,0.07657863987890376,0.0621315497357742,0.9409319426645125
207,1.6371659143635668,-0.30829844186120403,-0.2768414319324417,1.2699336232152714,1.265891677605356,0.823255971389813,4.296463030943383,4.728850580669206,2.007892752778495,1.8639945833057803,0.5677978065141052,1.8946785232358965,1.6860443279182122,1.4133831409909365,0.9186592504340634
208,1.4183355148342986,-0.2941397453624604,-0.14393181257486357,0.8772492352278826,0.8633799395461178,0.6813114315383794,3.2770005266857782,2.3934354499053856,1.098463467510778,0.6711487341534621,0.6425374456860184,1.6192077040299053,0.8435461411169616,0.4624164182919932,0.9532702780719041
209,1.292594380120759,-0.09241456617369093,-0.21431774957263938,1.2548966645258646,1.2452224522945594,0.8380377306506529,3.178494638701087,2.703984067032423,1.3629751884185521,1.0582550918940694,0.6284777104787076,1.6263015295216483,1.1812007505522217,0.7748173778067579,0.9387366870397593
210,1.6377072595582494,-0.27953578213649644,-0.2635976721150928,1.115942244355905,1.1086943972863486,0.7862379628986931,3.758481312493965,3.4350173850995085,1.560767840234626,1.2650131537258575,0.6584896970785714,1.885045033284051,1.3492264770621232,1.0202418040287478,0.9376968858767089
211,1.762396758067686,-0.2672094311327178,-0.37298941345551767,0.9197160703671545,0.9119904229303278,0.6437046397762706,3.3897219452663387,2.969383251898466,1.9190843813886473,1.5728564545237513,0.6447042257417027,1.8431229415166133,1.653117988832436,1.1672648326520054,0.9507069572568714
212,1.7328366973672074,-0.2723488992912926,-0.3069371596369294,0.6501172643769426,0.6389659856938633,0.592804895663734,3.4938116345118857,3.2577393582641467,1.6610009403642296,1.397612692852005,0.5915533975974677,1.8433335047741028,1.4466206980720706,1.059712809054372,0.9494163880731713
213,1.62108481671199,-0.31066121717822026,-0.2645819600436757,1.185710781742636,1.1691024713189397,0.697705258969403,3.716818948838198,3.5875062360776457,1.5281721661210654,1.2146913373423711,0.648888643467878,1.660146582426163,1.3501354721425594,1.0083367971252428,0.9059722042059162
214,1.8898973509054298,-0.31270550616908654,-0.5187092723881077,0.8435358955532534,0.8332962445259235,0.4518477677906705,3.3812135719431815,3.5628555200507717,1.8560194019272707,1.5996762886450466,0.6380535849069913,1.8116220983243068,1.6589253614726418,1.401776218501795,0.9489355580912775
215,1.9201000469006033,-0.332680258194175,-0.2839459352583104,1.2121397539025838,1.2082047038100359,0.7281432238891292,3.023909869361679,2.503183170960255,1.4098783781728075,1.5463030447755672,0.6403206450210053,1.7787116303787969,1.2288683284229087,1.260324654545777,0.9405816787169553
216,2.4158414270267876,-0.5882764962482634,-0.2755057443376483,0.8948241831838268,0.8858302300753989,0.6364461431941226,3.4236892802163563,3.1707990120535086,1.8561733442498585,1.9501790066553233,0.6547956803312163,1.98203255580963,1.6744872755309705,2.064069761631982,0.9425059559450104
217,1.8801370178789825,-0.4647504097625884,-0.29542794286046986,1.210144897414744,1.200690202615276,0.7567137890493614,3.185886657620284,2.113443418000831,1.1743054835702078,1.0108709048944198,0.6233814453054027,1.6061101223414258,1.049031423105382,0.6115249432577412,0.9515146123957279
218,0.9500645224972533,0.08183815883484147,0.05018391656880894,1.136451812654163,1.113665797204853,0.6931469372736949,0.676272340860494,0.37714557783649993,0.09263645417885259,0.09702253150711566,0.6584896970785714,0.9264813693764311,0.07751795218061673,0.06204897623779927,0.9535034707140192
219,0.35145678381679524,0.014821668033061897,0.015139778423877537,1.428719490275596,1.4028294175594898,0.456091168386077,0.32724072687325484,0.1280082783992152,0.017341185739828485,0.01870597393100931,0.6068309995095971,0.35145051980192615,0.02149899662955837,0.021839451679445402,0.9520036172979723
220,1.116254435343895,-0.3068135351352742,-0.09644975738063916,0.7245233027173302,0.6615448121177145,0.5848746204974266,2.4138471675945894,1.6912322466221412,0.2765219169371129,0.18489012802715743,0.6357360191111145,0.9332956098566844,0.23010411981586493,0.11266598439265434,0.9113515296982131
221,1.6754375127037218,-0.35959354915051955,-0.16831337496465465,1.1649724713277012,1.1542603500433923,0.8066491386081059,3.873947766944816,4.00851931747742,1.6454187685451935,1.6142939541390213,0.62595550513784,1.9218681545750753,1.4436403846785728,1.315823007700007,0.8875708178752936
222,1.5999280347490705,-0.059018636175523054,-0.2279607718327764,1.1204213248059114,1.1073330266264052,0.7804544809494034,3.679270019338885,3.2413786005120584,1.5921009531528911,1.3048242922854532,0.6509067234006624,1.6620771414251632,1.3717031997663578,0.9985288301111273,0.9240801652574985
223,1.6118793343419358,-0.2655487443113992,-0.23291961250977433,1.2478500391592813,1.2344732821104691,0.7906634886756451,4.199007391112715,3.8577104401868985,1.7424217899249883,1.6073602430424034,0.680118107274185,1.794429697783934,1.5466137610584743,1.2911553995336025,0.9297623039973549
224,1.209050186734772,-0.09452551713479507,-0.281148354280716,1.221364654773446,1.1803323226521698,0.8294191701772591,3.5821789994110986,3.0729419819988695,1.1611722223769743,0.8498236679534288,0.6528756675646988,1.6045609353545964,1.006362555016891,0.6438674061968409,0.8644367415133954
225,1.1879894194947882,-0.14194314707868255,-0.15625579687593646,1.1578204459163295,1.1609943792772999,0.7912544063536964,3.841644305958227,2.841961594225488,1.206828513261376,1.2544025863922168,0.6125606311107803,1.4615927851701187,1.0198531929889008,1.0053092918647824,0.9169277118577126
226,1.3003200148140241,0.10805014452827832,-0.2779559161785361,0.5044453672142684,0.49284426726277714,0.49053012633647614,2.3751046585770963,2.526222215632639,1.4897346961401492,2.1619093124804527,0.6468212168108125,1.3812404868172117,1.251547646451205,1.3808985259362296,0.9495534472340267
227,1.7209738607906515,-0.5521287306047761,-0.16127269051799,1.1077070979154255,1.1021081696854895,0.7208239946886981,3.3317045758370756,2.3919508155142246,1.069464728327214,1.0332780546270726,0.6153451465759925,1.430873404517858,0.8183815809127456,0.6815221871006,0.9295533127936766
228,2.3143145992105127,-0.5024784849792329,-0.4748585968848074,1.1787112533603656,1.1594894720093853,0.7449455762009844,4.125839208717738,4.852612901128682,1.9171984403554894,1.8213200049119083,0.6425374456860184,1.8445275347667107,1.6705853710253389,1.3971864875833444,0.9504577295040804
229,2.1722258609766656,-0.5915144535388271,-0.2896990441690617,1.086264571884125,1.0861078326865268,0.7804858572579731,3.345273807192428,3.8320197814424897,1.1494353540059228,1.0599081701845272,0.5641709578113449,1.4737421969802011,0.886236631657444,0.5510038831626438,0.9209477459004832
230,1.6051293193491394,-0.3380113840837454,-0.14585178267553306,0.7388698704766673,0.7223367388528787,0.51384443554623,3.1172100342012596,1.9656607077110868,1.3291461514847642,1.1976202752659828,0.6380535849069913,1.59641200797907,1.1121383181648221,0.7562970825947191,0.9330203079142623
231,1.7406183651155203,-0.2983517425563661,-0.29809086211233304,0.9874369322161638,0.964202609339041,0.7280112301654086,3.6449813785970724,2.341936776195221,1.3786380849295812,0.775371748992194,0.6668815377411301,1.705948812814944,1.2477888207030403,0.5580189387112349,0.8894973240296856
232,1.587541000753556,-0.17867905154242247,-0.24657731025674956,0.9684861981776923,0.9405788229119534,0.6078239859024627,2.0598304090456985,1.9748654595215034,1.4901492506035607,2.1581507360680274,0.6778444222523095,1.6682447429901865,1.2964196194878332,1.5451956437057468,0.951942325960394
233,3.071703660754511,-0.9096935883823059,-0.42216071246442555,1.1618387359098108,1.1671007864561238,0.7721728886086471,1.7548399685322633,1.7659169432576385,1.629508239353843,1.6904874428940637,0.5567373465730988,1.8222874075970135,1.4566923413408928,1.2859019181360738,0.9514239283275382
234,1.1962304037684153,-0.2201033892428674,-0.0751235334371258,1.1305120550999266,1.1239715265393602,0.7748558325158391,1.7981525843676265,1.8696525127245895,2.618034573427754,,0.6380535849069913,1.8821219093084463,2.2628144390297145,3.895332770987767,0.9173651778560977
235,1.7339303726533735,-0.34217374808707834,-0.20166403434264032,1.1375674540898086,1.138882157712886,0.7684850099546711,3.5123349991432486,1.9838219560247397,0.722598654103315,0.4233195944315348,0.6403206450210053,1.3119705392475223,0.5749057951380045,0.27324515499919017,0.9493874957030397
236,1.2418473396827305,-0.04996208262516877,-0.17491862520746737,1.0086347614133049,1.0014533039735396,0.7134361254529208,3.4579999101255847,2.9129758072919243,1.1832380123259567,1.0484683347874548,0.62595550513784,1.3348410795309749,0.9527459378856358,0.7664808331503438,0.9115713542241664
237,1.2253868187006318,-0.0857510710397128,-0.24545639594182095,1.2334057798778824,1.2333766420609378,0.7561384179448358,2.930192476128115,2.430055482418356,0.9707179080053042,0.6493378473105651,0.6668815377411301,1.374146227184243,0.8327247272037818,0.5271810492531862,0.9519855010331835
238,0.9028953911310886,-0.09064400527725591,-0.0717226300607286,1.150046417399579,1.126426686615213,0.769943747830286,2.797891677441576,2.1945870112777954,0.6108375392863521,0.37369771975745786,0.6333676938231112,1.1088309888624417,0.49534302445211775,0.24641585497734292,0.9055397851591949
239,1.4624562533002898,-0.21186264219225187,-0.09813583985061289,1.1466490250395116,1.1309862274266107,0.8132772375413226,4.506786173460322,4.830465663794556,1.514223520472418,2.128173939188334,0.5883313578629602,1.658219743304921,1.2638491013344981,1.5157054347713932,0.9570470020183143
240,0.5341468613634309,-0.059643250562746844,-0.020338709790923608,1.1912271578902671,1.170448131790513,0.8049159286484638,3.6431427763578665,4.897845202821161,1.0334034609529161,0.8476478920736726,0.6284777104787076,1.5591145327061826,0.8499428047983799,0.643833349889377,0.928382268851345
241,1.0893634085121144,-0.12499082209250617,-0.008926380404787937,1.4406854690771747,1.3969363932247327,0.8958956807320824,4.037720521165659,4.306625903298721,1.112537135207546,1.093543969045575,0.6509067234006624,1.566910705947843,0.9631327895116867,0.808179087041237,0.9105563390921178
242,0.9395828953094262,-0.027414232875642597,-0.02907848460996726,1.072990878028632,1.0533519625853134,0.7065977715643753,2.7245821928848004,2.504987361979349,0.916910852901342,0.7959073232000267,0.6699045166045591,1.271538123821702,0.7236439721083616,0.5918311101293126,0.9206724852983422
243,1.0290948108506155,-0.08803393929123815,-0.10537990575405709,0.6073365463824913,0.602435218954927,0.4779488249018278,2.0528516637673873,1.7048100153899135,0.6881155623759192,0.7947027953165983,0.6357360191111145,0.9370037734716967,0.5139594876550908,0.4311586481816588,0.939458906584635
244,1.0441995688859522,-0.1307378517345582,-0.14436750964352096,0.8677055995923038,0.863898736744212,0.6499901681738093,2.8230794364385203,2.3109724021314544,0.6930599595830066,0.5742157582939401,0.6778444222523095,1.0302996484860225,0.5246500786640083,0.40341544243197625,0.9418302148593872
245,1.17488274799597,-0.1624698517699249,-0.12430208646237911,0.37943480340877395,0.36931792155473225,0.41096640461984696,2.199179546335439,2.111904698203889,0.8247514154781481,0.7849433975591393,0.62595550513784,1.0234120561051745,0.6642276669011871,0.5027085503904255,0.9577728182133202
246,0.832165916090085,-0.10739771550444271,-0.08372010931225565,0.6792457360166189,0.6774948731244745,0.5325811742914213,1.9823545853069489,1.776054606691805,0.5145777697900157,0.4676952608703455,0.6528756675646988,0.7322576775650272,0.34449527675018893,0.26844211740086604,0.9520423692744245
247,1.4196066775932892,-0.22099300402543687,-0.23565008686206496,0.8437493593446974,0.8326105622757193,0.45785033736065056,2.1968862564625695,1.4868300209899243,0.6308468170490249,0.47460521018935736,0.6357360191111145,1.056926667181003,0.5437166975716023,0.4109318656969849,0.9542074328228721
248,1.4831332124361123,-0.32276973421984584,-0.20059430399734607,0.9980583443381048,1.0077350119634072,0.6650252288281654,2.56100642985572,1.8752211512163064,0.7151318284117435,0.5088625771542928,0.6153451465759925,1.3116817544108448,0.6098068214919942,0.3786550554412218,0.955116753593555
249,0.8874118839978359,-0.0490599090735212,-0.16780507373843956,0.4871757679046883,0.47826237946846695,0.44239801080070845,2.013473934512307,1.6895915324672703,0.53435023182444,0.4185887820180822,0.6309483474627791,0.7599044576132848,0.38492630485643897,0.2674425938315129,0.9490302144342363
250,0.9866812942098979,-0.1710983438065991,-0.1293721126400575,0.5217252209350177,0.5152681008370241,0.5238080849379778,2.2500083492598524,1.3037898562239438,0.30029922308107837,0.11962384889394105,0.6619902821573977,0.8861657469022354,0.27723398277031397,0.1100819522644753,0.9539449724991593
251,1.5554361995986448,-0.2489934236574729,-0.27847460500206594,0.9036756685679165,0.8822940236754023,0.669353265898793,2.763073926238799,2.3043762425908976,0.9926839691208327,0.7494205291385104,0.6447042257417027,1.4422299934501939,0.8778404138848712,0.5499106609133655,0.9198333401329989
252,1.400521176204589,-0.2788454948477351,-0.18809437400010304,0.8275444919621114,0.8296915712520385,0.6443773792563069,2.618059695706599,2.205437779184082,0.8105801559880159,0.766474997867749,0.6699045166045591,1.2555390404421223,0.7302907326144353,0.695903119728279,0.9435122259813582
253,1.3393718022333065,-0.4018278210856313,-0.28552577955558284,0.7348863215164955,0.7397409352691469,0.4968470812575974,1.3026783291062771,0.582084585037729,0.4264501583459207,0.284753401400719,0.6740851607140061,0.9073860520339583,0.3500656692809026,0.1652300372574192,0.956232367355073
254,0.3015408964218877,-0.1267924253607132,0.0044092805716881844,0.4236852223982557,0.42260871351105644,0.322925202602362,0.9525584134683225,0.7201791532307985,0.10368422867407696,0.08559009386853227,0.6547956803312163,0.2982413294035615,0.09084202862224043,0.06723654413401133,0.9591295104557199
255,0.9209935386199126,-0.16789891989393518,-0.09649677556167086,0.8498146793297175,0.8361223057779235,0.6324298810587059,2.1359297796764403,1.3356799540212192,0.41970140158874913,0.23827193625071136,0.6403206450210053,0.8495670998312469,0.37866044999988324,0.2197531075932739,0.947468888323185
256,0.8508304614051396,0.009282233708186372,-0.12392474821495347,0.9106856366707038,0.8613411622959476,0.5444441824673409,2.3893051276977113,1.6799699878480792,0.5693972773985431,0.33924645418987714,0.6602640781246099,0.8583363386135991,0.4411688924339006,0.2643221701345484,0.9257702457088224
257,1.0735866486801684,-0.13043805579348233,-0.1284667692336428,0.6564156180798842,0.624862515047346,0.5650956443152467,2.0173016673390136,1.2168181135368434,0.522148169358074,0.346098559723332,0.6547956803312163,1.043209118070398,0.44170310944486524,0.32081094873017824,0.9492928460371591
258,1.8537538092122303,-0.252005409344345,-0.44725189026817763,0.7700007192048114,0.7617381019778997,0.5785971634883361,1.7755919665468147,1.2754261498938502,0.8099106156814887,0.6777363267755125,0.6207552362147116,1.397782317958672,0.6706973034869852,0.5549231055962683,0.9406892347923771
259,1.4738837251822632,-0.22374271719694272,-0.33170741262939224,0.6892211167176668,0.6761236209619313,0.518213765658236,3.1576485010572894,1.8497080591244428,1.2402928028435023,0.6516394851871518,0.6528756675646988,1.5318597777887257,1.1665701799364938,0.6467022000039871,0.9341411342028526
260,1.6532026456617956,-0.14745682515747915,-0.4117303731093209,1.044115375135268,1.013912668354741,0.6840808982220253,3.431025402123012,2.565077095163169,1.562931164123808,0.9208308413030106,0.62595550513784,1.7197489332517828,1.4322473627768733,0.8543373888707314,0.909853548288168
261,1.4495101559929764,-0.04210552552767233,-0.1823225697962616,1.108676295510245,1.098382976961934,0.763197758023743,3.2940331970327565,2.569412991037042,1.2700912682509742,0.928370914408956,0.663668482632973,1.5873503159700957,1.0888782728091584,0.7424541072239209,0.8966944368509929
262,1.5807615836702649,-0.3213271945187187,-0.2345820798999258,1.0988916642539732,1.0724717644920712,0.7325315608608095,2.9986368141827704,1.8742357735246649,1.1183964413154674,0.8918041339851596,0.6284777104787076,1.6420184978894967,0.9960393313926783,0.7149845104929332,0.9103411987397992
263,1.148517254887972,-0.1676551835122969,-0.11932613204838985,1.1137713845966055,1.1050269657908622,0.7473165936540528,2.616723044618264,1.3705777081218953,0.8013622382630663,0.6430919359753318,0.6309483474627791,1.3430646009285707,0.6187716986770018,0.4585318290448566,0.9311807350271398
264,1.5163434407709377,-0.2970183014992023,-0.12512140068881183,1.0550168966221984,1.0420841326407098,0.7820900960035302,3.564771615504318,3.358452970581081,1.4214921155642926,1.5945361695501188,0.6584896970785714,1.6247207692986179,1.1503599442628123,1.0270918709360377,0.916700462159252
265,1.6783293507321204,-0.2923203432807082,-0.20752876141555707,1.1693718697958329,1.1550779118857086,0.8351577004652071,4.04995814132625,2.8761152519238244,1.7136153831155556,1.259792987536706,0.6403206450210053,1.8512971819442514,1.485361678580333,0.9717043452347257,0.9183292879594965
266,1.2032937679700608,-0.035798500850784454,-0.1636303486244305,1.1323584642323137,1.1175757140113214,0.8006133989859624,3.665210407818815,3.4434291358292892,1.4956177744748764,1.267845281201842,0.6380535849069913,1.7110400674866797,1.3262088862702448,1.089618800170736,0.8721970843653868
267,1.1146135847916752,0.2100746367712253,0.02364224038532514,0.6514270316087718,0.6478401400029453,0.5839611856410895,2.5376051078696245,2.623384948192445,1.2940557711554976,1.013713575565942,0.6447042257417027,1.4053186247530103,1.0671325837676444,0.8216871008480932,0.9445497998036088
268,1.2761123262251068,0.07262174973543534,-0.04284382952995647,0.3943472455130873,0.36952415764966584,0.3861548389146563,2.259119385865108,1.9340717365436455,0.796212473142272,0.7390435510827469,0.6509067234006624,0.8869746775401021,0.6289728918066595,0.46165966645180645,0.9591685381580988
269,2.245382156318498,-0.1056812441520294,-0.435368949164853,0.7941992266287686,0.7715021808683851,0.537204935906324,1.9908360596868362,1.4374636908149612,1.1770634333032406,0.989508060016026,0.6233814453054027,1.5831747181349767,0.9925322959795203,0.6863083034143216,0.9602751733880427
270,1.7122745937478776,-0.10293999072948279,-0.12054504228379237,0.9304690416049176,0.9198069482870059,0.5836035647939758,3.1898374858643845,4.101520310181922,1.4399488844182533,1.5005516926613696,0.648888643467878,1.2889660171593287,1.1748316694184364,1.0648543504375048,0.9489457587853732
271,2.6007851339609322,-0.7716158624275218,-0.32425115599602183,1.000496455402685,0.9518896561573197,0.6962997781236453,4.231226452919294,5.160487239995137,2.4481577321887853,4.253491108041986,0.6602640781246099,1.8593247887238211,2.2443969353108764,4.084967400409504,0.9159720129843584
272,1.6663374880509563,-0.34056703235635927,-0.18209040950153277,1.2346602957219206,1.1970671386787441,0.8169346239198891,3.696026827855223,3.2531258061365937,1.684561006225289,1.401346619149231,0.6068309995095971,1.8343886512840142,1.4540754603909019,0.9359891358942051,0.9175043419924501
273,1.710265400613752,-0.3478200412710496,-0.3496257744549834,1.1463407941580777,1.1112460764857892,0.8002702380386998,4.430264600733103,4.057760602580326,1.358166724418272,1.0194536214135537,0.6207552362147116,1.5823092450458478,1.1803731517094274,0.6255987596403338,0.8874647343549804
274,1.062633989824945,-0.22086518384426573,-0.10813111161404862,1.065047141975231,1.0573768427444534,0.7370580021686247,3.080330981913112,1.8385939349311697,0.5908159880622016,0.403961426759431,0.6468212168108125,1.2641160605359048,0.49015496428115846,0.25639100146794674,0.9320060907273674
275,1.0463394387499991,-0.15376518974304765,-0.12401107089766605,1.1786847061446466,1.1725686954631722,0.7806130104939145,3.0891748354031656,2.151063075157877,0.7175890719932317,0.5118130330008454,0.663668482632973,1.2128266994474681,0.5841463368334745,0.4189248063208981,0.9239524706490067
276,0.6079601008979539,0.01347818046771726,-0.0997209792155383,1.203597567226405,1.1790908532018685,0.8320410705457008,5.29814685237638,5.150348520224917,1.2515729042477945,1.3177927981448463,0.6380535849069913,1.459008433408696,0.9981533560707455,0.848725412378389,0.9285754169170718
277,0.8096714351658761,-0.05330549696998771,-0.03842574335215396,1.2769249551076793,1.2563908080431332,0.8503891601199194,3.924773660436649,5.249720598273384,1.0556535846404258,1.1877008065392156,0.6425374456860184,1.5370138970225389,0.8484698297743885,1.0227382698021925,0.9247509437340853
278,1.1178706878238966,-0.18713265893489242,-0.07140271256840172,1.0040715670058653,0.9918552712084077,0.7370501962788117,4.31545863796217,3.190181101946907,1.3342068576751396,0.7435388050345945,0.62595550513784,1.6739171760681728,1.0097656685857428,0.559371835911444,0.9270392629256027
279,0.6793569920448741,-0.049654957717788495,0.026502438652826976,0.7186586270189811,0.7043044440659075,0.5597096207913971,2.539853108122434,1.9007359619240565,0.4527914930297469,0.46715918263995887,0.62595550513784,0.8194665472386152,0.3698001096976254,0.30481090526170007,0.9402903826033204
280,1.498924297007316,-0.19483473764934983,-0.10264495215622566,0.9315774389748664,0.9267046527830006,0.5900310889084951,2.8519385923877483,2.8461865406957614,0.905061297289948,0.8108705122677281,0.6584896970785714,1.3035476203336507,0.8178276447191308,0.7022728608004749,0.9422993125100253
281,1.7797961676815075,-0.28741347128829553,-0.13197778013240297,1.0352945123950479,1.0438344057765223,0.7524609845970532,3.121133075450055,2.2032546070854706,1.0694998118442145,0.8822474697407501,0.6668815377411301,1.3774887996767,0.8555702306687354,0.7236662281007504,0.9490706659287305
282,1.392067214253812,-0.10719583677637623,-0.21330765321090062,1.0378737044744253,1.0176607594527538,0.7369926195438357,4.069429220456092,5.67271147203957,1.4824287973943455,1.5808715685062373,0.648888643467878,1.7121476235930064,1.320018139921045,1.2828254698236718,0.9272785251651083
283,1.2129243856119791,-0.05882793376612061,-0.26024946691974116,1.1598892815648318,1.1420088113483053,0.8386690011220028,3.647750616733325,3.176668886813409,1.0276312349430725,0.6987187540775134,0.6547956803312163,1.455811179366786,0.8559267847581941,0.47535544431768284,0.8254805716069672
284,1.3917443430762826,-0.10811573855221746,-0.19601839815108768,0.72851439343568,0.7206832903624018,0.6584195688166401,3.137152550999788,2.305431451613633,1.1012843692619574,0.6628682619664455,0.6425374456860184,1.636752013680815,0.963490668120517,0.4937151281935117,0.8646273533867656
285,1.567661130252213,-0.04963002707442987,-0.2384135639332562,1.0712790647223804,1.0434133672073682,0.7579430091609107,3.2829508411159423,3.0354857341244794,1.254283714139378,1.256193349514337,0.6528756675646988,1.6473705666027503,1.0543662724428675,0.9263611428084594,0.8785556115215101
286,1.1957400857187441,0.030690577895388094,-0.015450973038104276,0.8442224969665792,0.8287265968160037,0.6920692321078277,2.601440028076265,2.247801335962548,0.8767427395390773,0.6360317545302097,0.663668482632973,1.3696339202267835,0.7089191273919374,0.46596207377459087,0.9166060984501808
287,1.4342169317104,-0.16817415502026112,-0.20553921845371864,1.0859571480959689,1.0537528946001051,0.7865132094063202,3.4269315665501634,2.5505007105426265,1.6028289306594383,1.1822450253517347,0.6547956803312163,1.8235253719917064,1.3925765259937692,0.9558439102601768,0.8997704028319804
288,1.6394148370917845,-0.29105755521599375,-0.1717906700718097,1.2504297215405673,1.2364525773929411,0.7973122508307137,3.656348674116559,3.026505731585269,1.4491963941544561,1.1718881047540644,0.6566669596287297,1.7229799538332293,1.2747543223914348,0.9126234498844208,0.9453533248724589
289,1.7002222320715463,-0.25260059962077613,-0.2922881114732667,1.0608941561571703,1.037039231209579,0.7320261017717709,4.0181379428841755,3.3678662806156376,1.6207923252103162,1.6280063328384213,0.6180765742263259,1.9149068673835892,1.4096381627574837,1.2750849754714033,0.8816932489761063
290,1.0205686765028166,-0.015998776893649036,-0.20344777807892994,0.8098906961842129,0.8019004813125871,0.680826632673951,2.7882519409527,1.8392100404149074,0.9062465974661844,0.5456158570469687,0.6619902821573977,1.2845001973416728,0.7840673477862848,0.42585086503263825,0.9268187663471374
291,1.315265456548572,-0.15332852360079197,-0.20043939172491432,0.7755392401056306,0.754286901500207,0.6017260960105186,3.171457834260404,3.27009570045334,1.0622859667269646,0.9820384470457535,0.6068309995095971,1.251219715478673,0.8674709842034396,0.7560045788290446,0.9533041602764506
292,1.11610851966789,-0.16614138618698254,-0.0776027582459431,0.9320790787709939,0.9106214627091733,0.6439660030929275,2.288753888672003,1.4182564996946985,0.7588053343379787,0.5408829054782018,0.6528756675646988,1.2358457636461389,0.6394402525602092,0.39450925396470665,0.9539602314052427
293,1.051799952589672,-0.28212844411804566,-0.059580287026183565,0.6613642077274465,0.637133273197599,0.5816826369957174,1.8881506140187982,1.4100632841626133,0.6059118000777636,0.4728921432165398,0.581717464821069,0.8917878391764833,0.45948263735603234,0.3239511764475878,0.936399014473685
294,0.9080497260517814,0.03113147756266965,-0.09573126711899832,0.8079933399905707,0.7908474957383066,0.6045459202350962,2.3031882872413907,1.9181359935592064,0.8127910970571713,0.7251753486847945,0.6528756675646988,1.0910741056298212,0.672292289097016,0.487892071101868,0.944781965614241
295,1.514830513537553,-0.15639407843923347,-0.27262304890298267,1.0382794556291854,1.0156734950432194,0.669026327702616,2.6677176921796546,2.508148022886137,0.9364477572312447,0.7342294725268689,0.6699045166045591,1.4130947490644032,0.8545522925683618,0.6143597999317718,0.912567230606855
296,1.0112316172844418,-0.07783822724599965,-0.09095510098702608,0.8598187712191956,0.8374723022672349,0.7285974281502338,2.04804989999861,1.525053817503776,0.5902988703923396,0.49189911328331576,0.6380535849069913,1.0372663584297026,0.49171867405275627,0.2952287602992058,0.9272429309767106
297,1.6377733046671732,-0.39738379427502357,-0.334765868948907,0.9451073536348131,0.9366897522011772,0.6693172942628337,2.060261664160354,1.4632292286264126,0.6840092529753611,0.5612886027114561,0.6153451465759925,1.290378304290064,0.5776864211480655,0.34295456292027915,0.9453358821159031
298,1.0057143365500505,0.06154824326201125,-0.09697822591736394,0.8365283476457317,0.835330759635626,0.4211234857685995,1.6020884864385623,1.276421589310261,0.7771381623392188,0.6330484268107488,0.6509067234006624,1.0372350089932063,0.6298908692334372,0.44962531495969915,0.931563720300871
299,1.3318252022787402,-0.21666082446944201,-0.19301815445979048,0.8603857847260299,0.8446761955783642,0.7006471759220451,2.7554512984799087,1.9441555773026984,0.804546541101518,0.6679162061935318,0.6068309995095971,1.22822754983113,0.6355292999041752,0.5274166206358483,0.9265472223039133
300,1.2698414687659498,-0.18509432236247814,-0.17688778004744554,0.7883946731702891,0.7897493873652613,0.39795521320559346,1.7992158859353016,1.3009939020137724,0.8150245106672106,0.682363897958267,0.6207552362147116,1.155182640156504,0.7167028735508358,0.540390445045753,0.9452299393263369
301,0.7428915629133569,-0.25393587018921016,-0.0329685993792168,1.1085939746123161,1.099955976970252,0.7709888684452594,2.154893348648511,0.8684007043602513,0.3476193889291259,0.2147579340505377,0.6333676938231112,1.0307978890842533,0.3059869899178265,0.17130053917173302,0.9340329677292906
302,0.6277247501025761,0.025133276576942476,-0.015710925818449406,0.6726057033916558,0.6522601398109265,0.5607139844605921,2.058472171433967,1.4186983970208642,0.5488465952204314,0.5013582889896776,0.6468212168108125,0.7942451886860575,0.3947660264256692,0.2789271350486741,0.9305897885658042
303,0.6910697567862628,0.02063252943481142,-0.017650978902088665,0.5804463053828205,0.5679764629298456,0.4031113577698555,1.1368975184454162,0.6914908903227128,0.36009938780592143,0.2733797992397489,0.6619902821573977,0.6572224916221131,0.30029540943705924,0.2150280159870595,0.9431361337234309
304,0.7458542270246136,0.02843386888597188,-0.018523670152330918,0.6782149505884144,0.6628880900407254,0.5529852569060115,1.7225854437848314,0.9279176391032613,0.5080796930761151,0.37777892496680066,0.648888643467878,0.9469790606796048,0.441317303110959,0.303798782324546,0.9320895039035936
305,0.7690838843563071,0.031662711916562336,-0.09491438713998063,0.6323519848169267,0.6202993213193227,0.5727969657434989,1.3451270086139655,1.008606897334332,0.4432244578650892,0.319098540715504,0.6333676938231112,0.7621400520468967,0.35575699803308003,0.23483359420177327,0.9455333441065783
306,1.1335466043603195,-0.13586782552712984,-0.11876518125246482,0.6313805152619505,0.6120677486626785,0.5415832416767862,1.8134996486115231,1.0763947212664011,0.5981816545661206,0.3407392269278925,0.6068309995095971,1.1380463579135167,0.5289029718353988,0.3384985320225942,0.9512146661922356
307,1.3152426685156184,0.408190432994856,-0.424143486748763,0.763502437502483,0.7446231028449636,0.42848017200941513,0.7746437795343288,0.7173245432418854,1.0310593414118516,1.0521069711331243,0.6125606311107803,1.2855042739768257,0.858179536431364,0.7870933621230141,0.949185391543977
308,0.7037828533597292,0.033435924426677754,-0.00030435327861322303,0.3811021420357356,0.33334988861670123,0.37790185763185075,1.0232083398956595,0.9021538971076315,0.4463791263983855,0.5697926576231265,0.6309483474627791,0.6118949482460817,0.31725589935767806,0.24807184164626134,0.9494736144072645
309,0.9057475098406544,-0.1348563715551656,-0.14329238679158007,0.9040738930609632,0.8904462948108681,0.6494001165083155,2.032929270041031,0.8175059156950342,0.28196311445468786,0.17248612144477185,0.6309483474627791,0.8645683628856117,0.25271719104811935,0.16934448407321437,0.9429291576610901
310,0.5934731942263017,-0.02109779302140774,-0.11002233522396768,0.8425325694567669,0.825934669771026,0.524667194775842,2.229105703327046,1.3769232575741142,0.31628698247992726,0.29205930565341914,0.62595550513784,0.7375171282958859,0.2674226845095886,0.18326900967439136,0.9595534401825268
311,1.4710049431180305,-0.4430435139181663,-0.16130064494749366,0.7273601195887055,0.7152403179073028,0.609194285023392,3.0855789215912077,1.9129193267643676,0.7035411571813622,0.4701671169911781,0.6333676938231112,1.246493772148526,0.6179797693683342,0.38488679023988753,0.921500108887459
312,0.8885206586049289,-0.20232739459447352,-0.08361508171038945,0.6239897601579245,0.5995528411787617,0.5557788118416874,2.087012341462567,1.4529062750177015,0.4868323254857633,0.3940413744134157,0.648888643467878,0.7990510536862511,0.4052551395409224,0.3045325206508109,0.9078124516791374
313,0.8175637281444738,-0.13814806986889716,-0.08372305933572116,0.5141620526226561,0.49330803694971537,0.3378723994564144,1.9745676118775113,1.3935483058780895,0.5133734463755555,0.3772810796346539,0.6566669596287297,0.7708925291847982,0.4108115553497645,0.30266872896737596,0.9507774442838799
314,1.620537503608763,-0.30904549170425666,-0.23369816035469754,0.9019712214191803,0.853016494322926,0.6761677123836405,2.483956557886333,2.027892514349857,1.2805235125952827,0.9414720144668229,0.6207552362147116,1.6315699172915508,1.1300568847140517,0.8343696579616201,0.942083370044758
315,0.9610134154859433,0.02411533215833206,-0.1606981367098531,0.7311325636185414,0.6989955327810414,0.5044958206783129,1.6677189909527272,1.1198511218933098,0.5600723795182674,0.31626975634856025,0.6068309995095971,0.9317428364330768,0.47756998389877453,0.26383432756262976,0.8961041796932541
316,0.668828393012172,-0.16421660658076664,0.02275633501629809,0.6614449221839535,0.6397829693508225,0.5478663999880251,1.6546235593914105,0.9460836778776549,0.2983609832233675,0.24435392730745353,0.6233814453054027,0.684121369352633,0.2615123547183962,0.18805321788057142,0.9502420149088162
317,1.2401427509520715,-0.18054965612053497,-0.1413519967934122,0.8175210426085348,0.8166580918679541,0.695116930246947,2.7722777767025955,2.199204402949385,0.7981978660471432,0.7556858958678314,0.648888643467878,1.2426366355297203,0.6665559305904302,0.5267969434332355,0.929106236557808
318,0.8719975389784097,-0.048213740567602414,-0.049532606095902265,0.7932583489034931,0.7777943633828264,0.5443783027054803,2.32126353697692,1.7756244806333479,0.6556691589497481,0.5142871472187073,0.6547956803312163,0.9748619078986924,0.5396194225929745,0.40632436667148214,0.9358224036014334
319,0.9461873306742313,-0.10432366680963556,-0.052628086453362366,0.5964691037945618,0.5173720187606361,0.5799236683640707,1.9293024460654438,1.301151792524445,0.39061362006006967,0.3165253666026308,0.6180765742263259,0.8118055992522828,0.3394693419991328,0.2425141016307355,0.9027744889753851
320,1.5113506228258604,-0.27661344445041847,-0.2350713677619674,1.1090171924462595,1.0994719667068926,0.7297798277143475,2.6985350426201182,1.9010039943006736,0.9139566244032931,0.7291661286495377,0.6333676938231112,1.477727621453492,0.772475880673614,0.5663603286243388,0.9467217611849951
321,1.8264781440671831,-0.32853355405652374,-0.29486226050816194,1.040946339942424,1.0236774056289506,0.7024124225603171,3.407840786784212,3.2087913115905238,1.4231540556821487,1.8457139441479804,0.6153451465759925,1.6437418439042488,1.226239224344182,1.3939662783598499,0.9412507090952232
322,1.5034724196370783,-0.17986228164793117,-0.34885324571575704,0.7588329072988186,0.7270746903099141,0.6646303735974248,2.8815846139765617,1.3527275135181958,0.980126607961695,0.4397111447452272,0.6333676938231112,1.427208952519697,0.8730455251360663,0.4550620492475365,0.9123754391876918
323,1.738325296450622,-0.35036572501225544,-0.2714427209917475,1.023606293715192,1.0306088793771953,0.7765992426029873,3.391953435737233,2.684351913878034,1.201937689623448,0.9420203548900417,0.6684167106117298,1.496605381937573,0.9164148090503178,0.7060102989105939,0.9447559849891034
324,0.9260560840006558,-0.13338507380020914,-0.07538104429302561,0.9906759570097379,0.9752441257769577,0.7405247874698946,3.009577268543027,2.2659941709367892,0.5726583707361038,0.38390786170960345,0.6509067234006624,1.0676305510593813,0.4906918605692886,0.31161483866340917,0.9031988605092998
325,0.946728659047827,-0.20742499983909157,-0.04970236716736637,0.8470018195275204,0.8449257051780165,0.6796218125891694,2.447228074083336,1.246846192401188,0.4775935221282413,0.3207913325421389,0.62595550513784,0.9840046596536204,0.42176704833853046,0.26347518676051246,0.9399752807831797
326,0.9107448618663266,-0.20849423207612217,-0.0659639324613206,0.9637235011183569,0.9395173527262,0.5774886591206507,2.392570032453297,1.7106199034439213,0.48106968862897664,0.3444921812530335,0.6447042257417027,0.9677302357802058,0.42230444495540814,0.29550464242273283,0.9448876056703741
327,0.8898623733590266,-0.1597672928083842,-0.11704915957996437,1.1131587133497898,1.1041349577068074,0.7194926575905319,2.498982286775819,1.3804741123828372,0.42839063277794354,0.38016567206730173,0.6038851895711802,0.9149582866403764,0.337349230033365,0.23231044894631364,0.9514715195850953
328,0.7851272563482988,-0.20403137412233036,-0.002264145127538919,0.8584185688731106,0.8360140039698898,0.6624799466660307,2.312430805028923,1.8072826970185174,0.45195272973193706,0.3825550222472981,0.6403206450210053,0.90799192905946,0.3620415419343161,0.29959629402273386,0.9364807582328327
329,0.7658029657294364,-0.22673850862909123,0.023397768018125875,0.6499467429940351,0.6436669870527777,0.4262143592897321,1.5075004853662735,0.9895164131398602,0.2910258871031092,0.2571216765881432,0.6153451465759925,0.607866930736311,0.24453653368659292,0.19507220879782608,0.9460604039456844
330,0.786706109625875,-0.02378486393899243,-0.13424989434622525,0.6923215434196375,0.6795021030185462,0.575966596940448,2.3484855723832707,1.4232552135735967,0.5676231808168258,0.2922072993462158,0.6153451465759925,0.959720289801491,0.49570981015326177,0.24874593371815695,0.9542201008251909
331,0.8571541206291341,-0.10203355874867559,-0.08498663171040638,1.365599204570029,1.3521244210401482,0.8823002523278553,2.5987479394477146,1.490129960960593,0.9359966782587958,0.5702831920727637,0.6207552362147116,1.5259651965343033,0.8825978866663632,0.513299341786869,0.9434612022702442
332,1.2277470698054223,-0.10181803591752403,-0.08417512849413955,1.1447203806111321,1.1215179751682671,0.8133067733370674,2.822885859116108,2.0709328467207877,1.2687687334447202,0.8418674272840196,0.6547956803312163,1.7885645783315358,1.1110497609315615,0.7440793222290828,0.9448654333501308
333,0.7181944974181167,0.02542040470615381,0.025347961784102035,1.0410145709101872,1.017946784273539,0.6659096802896599,2.105088248508621,1.326051126820134,0.7241635209018343,0.4630679445886313,0.6584896970785714,1.0993125337825032,0.6289089146415643,0.3965894484031068,0.9188552187861359
334,0.7574599769506887,-0.05817277080247624,-0.04601017345888386,0.7361891780269278,0.7189597284909649,0.6197627040441968,2.0217726071978013,1.6627202202020266,0.5744602101253045,0.4473318224641096,0.6309483474627791,1.0269119745029187,0.4830828960373932,0.33798227868597197,0.9318390030744764
335,0.9002180188972007,-0.1953414973960122,-0.06771844608769803,1.1337523375504919,1.121031906771719,0.7881391739338017,2.7204186672625505,1.5864849478279468,0.6239737585211452,0.5227018355683621,0.6699045166045591,1.205826372975259,0.5236471101685188,0.3991583027268301,0.9294845176902307
336,0.36159733700715796,0.029077470080566853,-0.002867502322180998,0.8036232262932607,0.7740057182480583,0.5739195027773141,1.9639049611142612,1.2183880385388532,0.3473081611938664,0.28298145620240817,0.6207552362147116,0.7160064747060279,0.29337468023413915,0.240751941369185,0.922570087845145
337,0.5948207662894207,-0.06756337234314258,-0.051556315048947365,0.6733087595010653,0.6698760342673766,0.5080350196315706,1.5936699713351479,0.9935081230352114,0.23720050904977366,0.1511092071834523,0.6333676938231112,0.5837149655320654,0.19411902319507385,0.11751097863155344,0.948872874662825
338,0.642922031109565,-0.07507262906946999,-0.043953066189312384,0.7625902309657062,0.7546734435180292,0.5093849820061139,1.4319846055779826,0.7566815784950591,0.27499137300873555,0.23127373722588243,0.6284777104787076,0.6302975848543358,0.2531495622011702,0.1934362661490378,0.9515771942460848
339,0.634830058283038,-0.08773865475642745,-0.0031195227539558834,1.0728379154044092,1.0675500067349122,0.634730857060747,2.088786346508936,1.0607170949781946,0.3301565220021397,0.2722228531922956,0.6684167106117298,0.8027388571900397,0.2800985123627078,0.20851051425818956,0.9222978304447658
340,0.9744287126752295,-0.12601828978789853,-0.14759402365450452,0.4413124857490934,0.4274352930233193,0.4419660894468033,2.476126922386547,1.9599243154704444,0.5690700130997036,0.551620529646192,0.6584896970785714,0.9348507981358066,0.4424617978489702,0.37464940336921204,0.9513832719050992
341,1.4091258320686013,-0.2623880862725721,-0.12057996828464307,1.1491915200669376,1.1421807918709996,0.7727112369104385,3.256264347768764,2.195636459245569,0.879992547812111,0.7847561962122763,0.6380535849069913,1.3635331517839657,0.7193810793748429,0.588482652295366,0.9397579159964043
342,1.0083396959176776,-0.06088738677074945,-0.133410724244196,1.022063811725151,1.0180403358282697,0.7210386087424132,3.7436935383609677,1.891023812630388,1.1806362446403709,0.3235334151143866,0.6447042257417027,1.6318539517184325,1.075529804840617,0.28923780117982556,0.9418335246404481
343,1.5521476954202333,-0.3070435641005379,-0.17727241566044363,1.1052382469577229,1.0994941089203596,0.8061031249361573,3.7827698384814283,2.2865688342747847,1.114852099642939,0.7777071434968627,0.6357360191111145,1.5681893422435182,0.964927639848905,0.5433434191669401,0.9244595465014189
344,1.2395602414029685,-0.13796837170112852,-0.18281518604381292,0.8350285104796045,0.8207829861478284,0.6389144834189904,2.6873891755113704,2.4483389795514863,0.6755858620090346,0.5425480785093798,0.6153451465759925,1.2505986456659914,0.5690117517178399,0.37193036348409053,0.9057312758237543
345,1.096181117432853,-0.16885853225741793,-0.13003946819065731,0.993490889457318,0.976096595082382,0.7101159963708281,2.279740290487219,1.5805398480463229,0.5194526094839184,0.3710632931118149,0.6153451465759925,1.1373531169845403,0.4640615126806912,0.23576070309330618,0.9506275891083701
346,0.4677062635958753,-0.06724108115275634,0.013117111756000832,0.7086236294850681,0.703166753733917,0.5124189180845807,1.6660576317682378,1.2014153686492295,0.254777694630454,0.19099298710045987,0.6284777104787076,0.5716180837405354,0.2074743756270421,0.1461549305494696,0.9447771048935492
347,0.35533828713355514,-0.028021841403689407,0.03920692149240615,0.8908872985421138,0.8764942735756133,0.5590717752741252,2.5183365821951917,2.072778672475779,0.41301286923091557,0.4015734972192123,0.6447042257417027,0.6925473604879777,0.2948515738470704,0.20519441780395556,0.9505274300639517
348,0.8669607561248578,-0.16144977743305466,0.09434041841093183,0.9882980441314688,0.9950718550425214,0.7041852151622063,2.828983441061741,2.065450127285489,0.6317346133899945,0.7779335802734189,0.6097226960127671,0.9334086329417699,0.5047405837203978,0.5115124048190983,0.9471423611170733
349,0.7725258300479168,-0.0828314511774868,-0.09964615999926496,0.7657172060593542,0.7573010034928308,0.5330805525465395,1.9506385946425004,1.57522788253439,0.391009950402836,0.38948428243936206,0.6207552362147116,0.7215695177115325,0.32394443996156164,0.2029526976514685,0.9362130902045318
350,1.402624879028712,-0.158098601662996,-0.18059052408532694,1.2610971033489387,1.2414647556230693,0.8501884916138217,3.9745113089637925,2.4854934964744713,1.47281931860787,1.2437822920260786,0.6425374456860184,1.8999387687417437,1.3681856586960497,1.095407624599924,0.9229512070084511
351,1.6514100303723072,-0.2879300389467932,-0.21566396383485956,1.0742559064680581,1.047350341986313,0.7499443339847118,4.8300507905954895,4.272573516087526,2.10862550348133,2.555192012248423,0.6509067234006624,1.894087550329578,1.7837420675977733,1.718468156980889,0.9543510774229824
352,1.8156530322348456,-0.3836896481855389,-0.26022361517620074,1.3038093240780628,1.3194830030202076,0.8085621394246281,4.166389653546322,4.324111590111129,1.912342321006161,1.789901919933279,0.663668482632973,1.9586014551736233,1.6690783790682564,1.259263987511826,0.9438472533973647
353,1.5257929708010352,-0.29188660188879045,-0.10052886741398726,1.4616095335516277,1.4534590493868667,0.8988495981300549,3.7542716675370107,2.069491547522155,0.8530968366325216,0.6529112108406618,0.6097226960127671,1.5134713824181432,0.7892248278603103,0.5436586622009368,0.8338947814677435
354,0.9306635889723125,-0.10249256781230554,-0.01161022658991362,0.9238597757086072,0.9089569320172052,0.7087133785945307,3.1675621929345597,2.6135861146914494,0.8135308544648913,0.7560814980317159,0.6447042257417027,1.192446891005865,0.6757617503855962,0.5256392774495724,0.8165773224748071
355,1.2715722039961757,-0.15556776461042693,-0.14034898164903503,1.0369875040801937,1.0290138160503783,0.744750324245428,3.9051194043664372,4.039218657342795,0.8727570602357196,0.8085322390516905,0.6403206450210053,1.3516567840810478,0.7485318307435774,0.551953954339289,0.8630222575975085
356,1.6249558219620848,-0.24281740253929396,-0.2527345404538123,0.6273147493395654,0.6086331606562474,0.5824279925269195,3.0736029762245853,3.260098919746392,1.5342969836210705,1.475003284014111,0.6468212168108125,1.5616005830199404,1.258312711227663,1.065251423677674,0.9344643209960818
357,1.4797208331642682,-0.19736885351042538,-0.15774963268313402,1.1280669778784638,1.122734476134421,0.767852455199594,3.767386575180499,3.6993180067106013,1.429079417320985,1.2687623822409106,0.6528756675646988,1.492939652365818,1.1598335332465524,0.8896038095125643,0.9330813451080994
358,1.7882766172765603,-0.37231767034737906,-0.22984422234128776,1.071372968219287,1.0652370849325195,0.7927512327893216,3.513339409957186,2.698823807966239,1.3369954454461446,1.0954544494553837,0.62595550513784,1.7111015662106006,1.181873577555679,0.9217195177013044,0.9225491710758313
359,0.9228637139590898,-0.04961075606587295,-0.040926175244878904,0.7870256834762265,0.7573731313954217,0.6923700715472929,2.8234381428163218,2.004804063958338,0.6966379723298219,0.47709353301907526,0.6668815377411301,1.1792440586937003,0.6099852806807295,0.3816454626390074,0.8978755436685509
360,1.4681917434793015,-0.3242569882501779,-0.060985005607459286,1.2816840330348362,1.2961539043073942,0.8120427058561105,3.98440642646666,3.1392037875035417,0.9549274828421997,0.7471509666095548,0.676637947632344,1.474130320408322,0.7946976757875902,0.5306067667081504,0.9226821293246853
361,0.8011545857782397,-0.034786820297425525,-0.11294293659644983,1.140654642018921,1.0900029903458048,0.7747749629377382,3.65481947972813,2.6602735887011133,0.9565937241880533,0.7355404310066265,0.6380535849069913,1.4269311875996205,0.8768768751393825,0.7039967920492574,0.9517198123648487
362,1.152778979376335,-0.28706772936003333,-0.07404109556793494,0.9780272142891004,0.9685416553901073,0.7557245323575205,3.3313756273121684,2.7542890151591264,0.7389152378446766,0.4296380591908347,0.6425374456860184,1.2812138846693832,0.6157579630412031,0.3441001294059093,0.9521962877214932
363,0.9427304725420137,-0.030930411793495427,-0.1071392789390041,1.0124613376261073,0.9976042652419914,0.7500106716620885,3.608557166020512,3.894279504162106,0.9897244476253193,1.0931908874503227,0.6509067234006624,1.2637621269537451,0.8520668121784802,0.6283667086063381,0.9451696706467169
364,0.7714939929736778,-0.027737767082171072,-0.08087444175438932,1.1939044244702313,1.1996804242730539,0.8225914610564184,3.5788346141259613,2.99430668412163,0.9115418128663674,0.6787120460964853,0.6233814453054027,1.3271453372667577,0.8053219928541833,0.5817686300683552,0.950660852188232
365,1.1295046971963905,-0.13576599341294587,-0.07742783992073382,1.1980024004578784,1.1967946579903512,0.8061539440484676,3.550520261771395,4.80863573311988,1.194619514842797,0.8183328183945884,0.6207552362147116,1.3006876739489253,1.023348070253681,0.6191040792322139,0.9553183696580005
366,1.469536081783835,-0.1495480229692253,-0.09839514215742687,1.2730736066863448,1.249790056674499,0.8510322797863292,4.176596136661645,2.295136925135613,1.3304959698208176,1.6324887746619203,0.6333676938231112,1.7366401700069756,1.2094557366615508,1.225849901577126,0.9412943834041635
367,1.0230652677746734,-0.11741583047718857,-0.03388262081414062,0.9991466791909878,0.9817154359050042,0.7106729270611092,2.8744316778464616,2.1795353008155,0.7113554697392123,0.5810084606215862,0.6153451465759925,1.0488384814500344,0.5566074097145285,0.3136167871040348,0.954450988151704
368,0.5018835639881961,0.04181770820174302,0.034806443346731775,0.790635763975883,0.7835699341850019,0.5515880110162444,2.1833239412776386,2.1374081430013048,0.31306447763544365,0.24697954499145158,0.6509067234006624,0.6295883057858823,0.25154980547394284,0.16779551917773733,0.9474152925058514
369,0.8549799473764963,-0.09013051097616709,-0.004807667269968063,0.9038940917499217,0.8977005932914544,0.6854456056867047,3.4711768048306775,3.5660345699523557,0.6446446332038442,0.6373501647060223,0.62595550513784,1.1468576012961043,0.51938584607056,0.40461283115474833,0.9404717384559105
370,1.6325842044985264,-0.15171841432189104,-0.2637117361953406,1.2863069145896842,1.280817076555249,0.8668283380950839,3.7019342225280023,4.332446212179859,1.2686040294996885,1.608283216112254,0.6528756675646988,1.5674432723980938,1.0704591688020344,0.8708801511419646,0.9029733529396278
371,2.1393313810563224,-0.4249642661725913,-0.23847013562545938,1.3887783225423744,1.3807312340408433,0.8636988740955971,4.529946653467334,5.325627728279154,1.5198125691195348,2.3830259894886967,0.6380535849069913,1.9422723295073574,1.3521655155832644,1.4877347362138242,0.8650834625495277
372,1.1194632561026614,-0.14758852968205738,-0.06471651869666956,1.1170429265420283,1.1157970054232673,0.8000910528142693,4.076449256263536,4.607032828024296,1.204836399598661,1.2039377718692172,0.6180765742263259,1.4206557886372018,0.9968414649215444,0.821581278626974,0.8543555908609165
373,0.85924687197277,-0.05418627195219572,-0.0570125788244788,0.8241849009339074,0.8037693553294293,0.599846099966462,2.936491669136831,2.6072900974025317,0.6521054472903103,0.507871063257625,0.6468212168108125,1.128453130679131,0.5389670642933166,0.3353072496396838,0.9414403556736791
374,1.0299461859446724,-0.11864132402293759,-0.06795359453998406,1.076171638824013,1.0456606183398007,0.787396321063992,2.9276194215759785,1.8537773512759705,0.8009418395157611,0.6430855285361043,0.6008849035917525,1.2471509674944956,0.6593461792039826,0.40782320251398835,0.9365953048529545
375,0.8141868090427999,-0.11577832116828835,-0.09126534734755538,1.112288147241945,1.1159777699098403,0.7673184852329463,3.1185103603933553,2.0800902876179297,0.6516309307334457,0.39276022171582003,0.6207552362147116,1.2242511002900767,0.5561728592742328,0.2750406727340782,0.9208551076922553
376,2.121251758217101,-0.30097378740067887,-0.30343781225104094,1.2146783235179113,1.2171689059534574,0.812697940802721,4.178723066738383,4.507435327977052,1.3990703292653368,0.8149088187403059,0.6509067234006624,1.7312917224609654,1.2179811433553605,0.5532192339974108,0.956237945756806
377,1.1501035713562466,-0.10117658926627637,-0.12450726770676207,0.9484100424138864,0.9432216787369205,0.6506777898304383,2.3464945910097255,2.4556655386276462,0.7065253646321732,0.7326995020688385,0.6284777104787076,1.012893413265572,0.5870893403977729,0.5148326874321564,0.9363533528952367
378,1.2462887377089331,-0.11615918547841059,-0.08708162434808425,0.9563563566201336,0.9528495742976969,0.7112372840497312,2.987935092654429,2.4949631739948557,1.0856756008561703,0.9185179811176946,0.6509067234006624,1.4024689111881772,0.9186196533704283,0.6096886079725983,0.936496570833694
379,1.011484255583202,-0.007042173784062411,-0.12040584241188051,0.8720310430584951,0.8793395560345272,0.6540232874204933,2.763167449010441,2.4286952746618344,0.9475233670471529,0.8139365500135469,0.6357360191111145,1.1383931586799543,0.7451892445349526,0.5845326839332566,0.9221176968877437
380,2.2656271358728115,-0.560943909793576,-0.2829910914680848,0.9873574389104297,0.9691294673530141,0.738085246706847,3.075012774536436,2.431215694723186,1.0686907030489075,1.130877163126106,0.6509067234006624,1.4509158486620417,0.9639673497578177,0.7557317028310877,0.9562140636063674
381,2.5464206463092327,-0.6152022770099116,-0.41912532545242437,0.787432983239911,0.7871086846009488,0.6719534578515732,2.460538740003198,2.2698078183141273,1.256479992897294,1.3773461534314444,0.585052858160615,1.5629254725854795,1.130071925890438,1.2552286556161891,0.9674914173827873
382,1.3723352637292778,-0.11385473799128576,-0.16021991042238043,0.808964113705147,0.7827882365639713,0.6067148260495151,3.0371380901721903,2.54757883278375,1.1053608796730203,0.991518919769039,0.6468212168108125,1.1660706238726337,0.8827339483453124,0.646987731488762,0.9542756261502945
383,1.5713128440951032,-0.40453070086868237,-0.21584403617466769,1.1836304578250891,1.1537535667818335,0.8328326894797586,3.4510345296846867,2.509588974872867,0.8701780899905084,0.5410759306765934,0.675384900321601,1.4251737991808082,0.8015825807614492,0.4489879864080374,0.946421379375589
384,1.4190221309591815,-0.1764529760675887,-0.06480267976166898,1.0672558217585044,1.0187353738584282,0.6866907446388518,2.575067220539736,3.06884629083657,1.058748221953068,1.2119125757491453,0.6619902821573977,1.2851828597514792,0.8468159326670327,0.8482976730056399,0.9473688638070104
385,2.4748586333650957,-0.45882606304810614,-0.3367577542440687,0.7050263808255484,0.7099375707789612,0.603586610045145,3.117593982311967,3.8903476527656187,1.961327093508374,2.0255694192699996,0.6207552362147116,1.7941623538443654,1.6147312344522604,1.3852871426362168,0.9463205668790804
386,1.224576122795426,-0.1045777039334162,-0.11268771483290427,1.2070444059287766,1.1859898407381853,0.8035828291239306,3.2427514053966773,5.139034810313717,1.7329938903060371,1.5529029834217736,0.6284777104787076,1.6899251633467869,1.493476273327754,1.4453786149526842,0.949450516060155
387,1.301402594801386,-0.12953791420730998,-0.08911757020650968,0.8273867761193237,0.8158188161384782,0.6853841031838164,3.4928344156139253,3.495898555709496,0.9619937259292054,0.9369546581003474,0.6357360191111145,1.273759641714064,0.8651016923252405,0.7109444621101986,0.9480546844388182
388,1.22303751650068,-0.22714132543684712,-0.11765527938288692,1.069244327631294,1.060899861186761,0.7900649397880499,3.0728476630043207,2.3976030181237213,0.6221804246057088,0.49404391477125853,0.6547956803312163,1.453431812107382,0.5380802556443071,0.2580589899567395,0.948482748574525
389,1.1880049515942772,-0.20647746939096573,-0.125844983507309,0.8042121784379033,0.788899008207805,0.6349374368566517,2.664848524735591,1.924949181015032,0.5683923839332709,0.3847273182548024,0.648888643467878,1.0661450985306082,0.44788162909933404,0.2437178630108352,0.9487595541570548
390,2.0175110713961506,-0.5829795360079233,-0.22822625440797445,1.2531068719071619,1.2272899960378125,0.8522616134194242,4.1682849978854986,4.659348329676778,1.520683754795257,1.5608764230727643,0.6180765742263259,1.7306016562499613,1.3322205386448949,1.2414206918914337,0.8912529369478692
391,0.9549611457596041,0.0863013141306066,-0.048425943444304176,0.5789884849802324,0.5164308643098807,0.583405764450529,1.66002163438702,0.9408021872724726,0.47011606826973656,0.1985898778669972,0.6668815377411301,1.0888930076071994,0.4096994589385049,0.19767502122312997,0.8809762987373508
392,0.5997337311849863,0.09120481196199004,-0.005613650053261088,1.4929299348509246,1.4933874700196184,0.5579116882446417,0.6247622123116469,0.38679001762234666,0.2311737317267095,0.2007805833504667,0.6602640781246099,0.578945860236637,0.13356537713891545,0.09477562392597763,0.9434897176986852
393,0.07760173554492718,-0.05234375659163075,7.35605123707711e-05,0.10060391803536385,0.05228635019791794,0.0885705991688388,0.2800843567277221,0.24354689869598972,0.0005903565195080701,0.00498656542753327,0.6778444222523095,0.06786255815086885,0.006968752472134577,0.006933248957447173,0.9920396674345339
394,1.4090871982694133,-0.017228559959651224,-0.39953248651160567,1.131747947159,1.113789804223152,0.767000556841822,3.7388540864325552,3.2295698797834356,1.2645779963443218,0.8589056664523397,0.6403206450210053,1.51493614011115,1.1362612493982773,0.8118753958708156,0.9470995621462459
395,2.3678239789475146,-0.5492421719056381,-0.2605546481398501,1.5526741128955264,1.5780983249069365,0.8368476929742674,4.932556569151347,5.39186936015444,2.285968974325102,3.396347347179753,0.6528756675646988,2.128351713049844,2.2084891290022814,2.85121640208417,0.819034024896892
396,0.7033778919040199,-0.0751563423892441,-0.049107085180466074,1.0296303576640744,1.0019555655283339,0.6530839267656257,1.0988441512833993,1.449634521878501,2.928791733147672,,0.6284777104787076,2.05373047769749,2.5208027388287118,inf,0.925813719058973
397,1.4416680928562309,-0.1912266202872792,-0.04915587304930742,1.5716260690208892,1.5793491148804066,0.9243209151472673,0.9098120542093234,1.2720089777501862,3.2494020513346005,,0.6180765742263259,2.1112303841693585,3.0029152862965622,6.293419278846481,0.9005272069908072
398,0.9096188668904154,-0.12959437095848583,-0.022008773523250067,1.6358731157995061,1.6351298743262221,0.9388805769374657,1.06113880074947,1.5047554588797445,2.804400098241054,,0.6309483474627791,2.169998591082628,2.601619802543128,inf,0.8803950656603879
399,0.9648645559651792,-0.13382338117357537,-0.017338732594302703,1.5902551902520687,1.5778308934835688,0.92022205685149,1.052250920674767,1.4619457304623404,4.993319093360171,,0.6309483474627791,2.2644333270296695,4.007333185232471,inf,0.8690274030297178
400,1.9277441723717494,-0.35559689723821614,-0.0752519912838397,1.5360256017859997,1.5227347180197184,0.8769998645730633,0.9906898257554424,1.3113573605059337,3.040353259900912,,0.6357360191111145,2.24023646792951,2.715279526945666,5.75890177387728,0.9038829947228687
401,1.2344827262558233,-0.2483422589388215,-0.0190736516084264,1.561558277336634,1.5420637687182221,0.8992220703039676,1.021906982412355,1.5147732890538284,3.463703749464246,1.3217002089304242,0.6008849035917525,2.226756379942257,3.0238295837845897,1.7026316893320477,0.8842144085169898
402,1.573323210489424,-0.2451487843715267,-0.12143047297091514,1.5173944834889521,1.5169762906596158,0.896002802563616,0.9363165036080648,1.2779598386619941,2.94095606753193,6.4310514759658375,0.6309483474627791,2.022179429513041,2.8145025574597766,3.5751506887855933,0.9113648519024702
403,1.8833971493405,-0.3290275361526891,-0.0905465726210789,1.513452934832763,1.5040274479906675,0.9219581080095306,0.8186507611918683,1.0831596273642616,2.7453521926877156,4.784119359104157,0.6403206450210053,2.2552775087848365,2.2926725368733636,2.988413892746311,0.9108698237552224
404,1.5014191991033778,-0.24908730177169486,-0.1247202003480169,0.7515280648040473,0.7408983579612252,0.60689589067864,0.7960859711074111,0.9690479938385778,1.7855421778725602,1.106761575693432,0.5713653840954815,1.932401799030521,1.5317353824055084,0.885529830464516,0.921553525767013
405,1.6738598587878073,-0.2300044827249419,-0.16512886957795048,0.6385138476635862,0.6342525074856398,0.4035509895825929,0.9139254283243163,1.0344933008963872,1.453595814849522,1.1043113847595072,0.6309483474627791,1.5806884991481145,1.2859667321307342,1.015808971907753,0.9492638396649955
406,2.3903200651037166,-0.7339704733150917,-0.3339950305046475,0.8821211723555696,0.870870576838092,0.6100767628532336,1.8914580392430032,1.7057475474928585,1.0255836241129677,0.9445874001406873,0.6153451465759925,1.3268940178384432,0.7918891331912137,0.5239475839519107,0.8962631254114166
407,3.9107211832654207,-1.2990449863744413,-0.26611517200931134,1.4720042660140074,1.479756280152821,0.7821576489616798,2.9143577505862432,4.19873987141181,2.7650659682431877,6.376806461113442,0.6125606311107803,2.2523145436541796,2.604170070614818,5.857933154483459,0.8682646682578545
408,1.61071813116686,-0.20691160365177205,-0.043959075439724084,1.3164774700295938,1.3266951763496364,0.7876727650330689,3.1843689090925067,4.483207403582297,2.641969626956262,,0.6125606311107803,2.3737231208273855,1.8807901935475368,1.8955562629096985,0.8897510284813265
409,2.1967686488094276,-0.3413929519316829,-0.09063821566750452,1.680028994889687,1.679823309877808,0.9395498231936725,2.549306814700652,3.5355179087109545,2.296683042704502,,0.5978297680564633,2.2995895840142473,2.199220585982934,inf,0.863529209758523
410,0.04295389355936294,-0.0030067725491554056,0.0,1.586281151397707,1.5564351769042415,0.9007441648257216,2.8135628659688807,3.7849408185837117,3.0043219431537502,,0.6403206450210053,2.696121630236936,3.0109997456847797,inf,0.9039601297682982
411,0.2858226165884628,-0.016677755696818987,-0.015715474183206797,1.6737092901930044,1.6202781930854036,0.9281619546422063,2.6253278744812305,2.620291652305072,2.034926035441651,1.787594151060679,0.62595550513784,2.2884630577704907,1.9637055896451774,1.4583028153913298,0.9031258849370238
412,1.4552855616023277,-0.10475699576184308,-0.10159502422318008,1.3092519871214148,1.2823732447882605,0.7685072484922777,2.342198475105625,2.7637763959096313,1.761561612005907,7.319765440069758,0.6357360191111145,2.3128599209351437,1.674725104715423,6.72683274310189,0.8908415754301308
413,0.7909255320630914,0.005499408409587847,-0.02470662833027104,0.29874863549611025,0.30374290870745135,0.2120487059233248,0.7509336172241255,0.7153292618706528,0.3086553082517318,0.26258385566754405,0.6447042257417027,0.35366360954490117,0.17670356448973135,0.15821267490423577,0.943031796263017
