,acc+bvp_XAp0,acc+bvp_XAp1,acc+bvp_XAp2,acc+bvp_XCond1,acc+bvp_XCond2,acc+bvp_XDist,acc+bvp_XFuzz1,acc+bvp_XFuzz2,acc+bvp_XK2_1,acc+bvp_XK2_2,acc+bvp_XPermEn,acc+bvp_XSamp0,acc+bvp_XSamp1,acc+bvp_XSamp2,acc+bvp_XSpec
0,1.5730497833308152,-0.06977310667931114,-0.4962521100224919,1.0436876312934853,1.0288325182478484,0.6540562670260868,2.478315421199573,2.7762120665639367,1.471141714238219,1.3716984650281143,0.581717464821069,1.5957541853481783,1.178079756300035,0.9293698397538765,0.9547184888436989
1,1.6350572257951417,-0.28762999697832103,-0.34468040127265426,1.0244279831541099,1.0140105507807577,0.7316338243700663,2.8241427781930577,2.1453035783855823,0.8230358810854367,0.5638913341034437,0.6547956803312163,1.560489030702237,0.7138325970189494,0.4328955870771319,0.9225673454362758
2,1.648259719054127,-0.2293401565097738,-0.25527557409637597,1.0757232080418135,1.055680913965537,0.731705364868132,4.115879159920805,2.74984267607197,1.2961376528049797,1.330050966328152,0.6584896970785714,1.627545310776519,1.1684257716981614,1.0832621001304747,0.8916652024018652
3,1.9560487313692827,-0.2965118897355705,-0.16027649997350416,1.3616800683482726,1.3625431565139843,0.8501856529571964,5.075263185599075,9.771569647407478,1.5837922071962602,1.2708989458000473,0.5915533975974677,1.8536348729461425,1.3500787041823807,0.8482102692096253,0.9484190044202573
4,0.8201143895333148,-0.08221360957112306,-0.017806776319080925,1.175576667680438,1.1588955296803143,0.8134245555533853,4.036712497616683,10.32210192093223,1.6858001971155816,2.1753955219693553,0.6468212168108125,1.6194882482876019,1.4273034288798645,1.5001096006966492,0.933666378844195
5,1.6720083564236787,-0.21855049730882348,-0.12834661462976393,1.1483142857225483,1.150241520160081,0.7570283710309991,4.544060665616376,6.070861232746519,2.265030051898577,1.5405245541619639,0.6284777104787076,1.836059728124635,1.917061994717655,1.7221980390221014,0.9469290212040861
6,0.904139300977011,-0.12011845405760624,-0.11191340052528881,1.1975414705241136,1.1882051218515317,0.767177329991046,3.030847733710078,3.0222623902521777,0.9772909385530917,1.0112094388330215,0.6403206450210053,1.1996488328458814,0.7562779825960861,0.6021241683840359,0.9423731049962956
7,1.6278615936706873,-0.18417130166912143,-0.3113474897292193,0.9284887431326254,0.9185448106772421,0.6355538012156785,3.430339282734451,3.425982782152833,1.502524411302716,1.7456737901479435,0.6380535849069913,1.2676623032688243,1.2752972779677931,1.3261103686623192,0.9321454377633319
8,0.30757904903419714,-0.0376607912578813,0.00670640980132739,0.8126744829926016,0.7605822416431992,0.5888994272612573,2.5584810158561297,2.53366760456559,0.2846283517932793,0.20561802119291805,0.6528756675646988,0.742174039406019,0.21957906654489348,0.08965758123290318,0.9343807420961301
9,1.4352319567565426,-0.16519121920986513,-0.18916910892373018,0.8862514661520934,0.8804165613077426,0.6875499430358919,2.782188392927847,2.0179404075718588,0.8835661634074289,0.757772985226859,0.6447042257417027,1.3326061590367342,0.7053949127515076,0.4910664737855284,0.9058190141409405
10,2.5690574803081736,-0.4614552643369232,-0.4442876651964843,1.7425012526503978,1.7453503298565427,0.8500074928156718,3.8602777850719123,6.881351857793888,3.117751666860024,,0.6380535849069913,2.50239196412902,2.9943763411428552,5.910796644040527,0.8250355694810495
11,0.3880699243471867,6.851870292065229e-05,-0.027233413407223718,1.71084662025988,1.6920671053552383,0.9443881913326005,3.0987852854466196,23.67903202730654,2.2526785559121962,,0.585052858160615,2.754617836918545,2.215195462657456,inf,0.9046306461558786
12,0.037265219525518395,-0.0029812175620414715,0.0,1.7136404525783655,1.6809293734001594,0.929269136857427,3.023077891936807,10.112088357754542,2.503722696083191,,0.6468212168108125,2.5550430319770308,2.4589311633847397,inf,0.8806724577582701
13,0.18541692916636446,-2.6944530455000337e-05,-0.015424466233408705,1.7094713062253626,1.6933424240622532,0.9392863185745619,3.1597425422630265,8.180259651994326,2.482407708331938,,0.6547956803312163,2.5265623250568328,2.4874118703049373,inf,0.8809442188873526
14,0.07895999001226052,-0.0057903992675657715,0.0,1.724385630805265,1.7421977917532552,0.9061843749095063,2.662180092341568,5.614560714244606,2.3423056811889778,,0.6509067234006624,2.6649907116417633,2.348983483720007,inf,0.8989419983525335
15,3.5317147796105486,-0.9247300582011863,-0.17685452254815365,1.3957982673537006,1.4037893999261506,0.7114035130299271,3.1071430718350737,8.82827500842974,2.583463726882218,6.385216939622038,0.6284777104787076,2.4255063065065525,2.580141446078664,5.70877001616724,0.9548118826080818
16,4.167946978625733,-1.441107930557895,-0.10970100134692969,1.6675562104014163,1.6716136419761323,0.615441196331136,2.888102460912215,4.353558639087302,6.517373860124456,,0.6403206450210053,2.6862887093206975,6.524051662655485,2.1972245773362196,0.9114561824867364
17,3.961397845337752,-1.421726776238785,-0.05719508602064235,1.7621866301966214,1.773186809580236,0.6066344515654519,3.041881361228112,4.490110126385883,7.727589369078476,,0.5713653840954815,2.5746854890347866,7.734267171609506,inf,0.8956525063994676
18,0.532411260794466,-0.03371937985031618,0.0,1.7374199625790738,1.736984758300172,0.9336131862902394,2.864806916856563,9.728844826331192,,,0.6380535849069913,3.0195696963678467,inf,,0.8370796972438614
19,0.6164484436499055,-0.06169577221331302,-0.008168384733676268,1.7719045651148493,1.7503047606645756,0.8946020691816776,3.262790500452,3.4772186484356875,,,0.6180765742263259,2.5253120644230393,5.624156346867881,inf,0.8358910978332063
20,0.2624007339541232,-0.02711474250859273,0.0,1.7670882406111799,1.748280291373943,0.9171840567621979,3.1643038193892674,10.747840561449086,,,0.6468212168108125,2.417497253558746,inf,,0.8721837999010025
21,0.23182721485343094,-0.022409964102498323,0.0,1.7545302684250614,1.7117005924511053,0.8961275378642806,3.040971586786667,7.742309644418882,,,0.6528756675646988,2.4902542561145955,inf,,0.8844937812442101
22,4.141499475576867,-1.372758222321293,-0.3921482567999239,1.23741043171379,1.24353863574236,0.6763554231149594,2.774342018109307,7.960621452448924,5.7060043462212775,3.084342279587752,0.6584896970785714,2.6038403472017797,4.760673334276072,2.9444389791664407,0.9266373901432648
23,4.243728626847169,-1.2380503226957082,-0.4861921686728555,1.5267406776937642,1.5371233442180685,0.7564153334195655,2.900655638229278,6.686937067250133,3.0528089858483245,4.659878640346171,0.6468212168108125,2.582887058148204,3.034717720266945,3.9982007016691985,0.8909216952722773
24,0.38969387925021626,-0.03623480046413763,-0.0027345874608839986,1.7117449979695536,1.6811776776396499,0.9121726810572734,3.228434757049168,3.2539241102314507,4.879904842895248,,0.6584896970785714,2.4266377416640244,4.0981252850620065,inf,0.9036099237062487
25,0.4545380806782087,-0.0363630464542567,0.0,1.6585633862296743,1.6304297039822677,0.8879209663007825,3.562287620904813,13.708476507874689,,,0.6333676938231112,2.685147807884906,inf,,0.9010390060857033
26,1.841456012333269,-0.031238554693467147,-0.33632489511441943,1.0014542563765814,0.9873166565605178,0.6730976148007046,3.286618009780123,3.6699857790169768,1.9388731640197938,2.843754976720158,0.6380535849069913,1.8666267039076068,1.6788260337420469,2.301430580647221,0.9353311039007239
27,1.6395401329931132,0.04628384427850363,-0.2562741796503809,1.0897882720363512,1.055898910234637,0.6889035016498393,2.7218308433949736,2.8216244200102656,1.719341604615521,2.929193097430904,0.6309483474627791,1.6276584585476286,1.5397851926883015,2.0705105655850162,0.9464201062492105
28,0.809413145385614,-0.05789841943237528,-0.03171508045176044,1.1761643976496292,1.1661269080047612,0.8003277574859156,3.1012070470619078,2.142823775384531,0.6939633518263241,0.4998572854469013,0.6309483474627791,1.374365790254617,0.5443940641794313,0.3585907673814563,0.9343906847472628
29,1.3282635712837376,0.05557490218359029,-0.2747866886548527,1.1122005586101156,1.1141040248969003,0.7126556666611411,2.3085503554575926,2.2576845378578696,1.490115820651906,1.2990707223909324,0.6619902821573977,1.4685172213777231,1.2570182940655064,1.0116009116784799,0.9264577223702285
30,1.3578423994558697,-0.1286882486401082,-0.23000186728667033,0.8257527343887734,0.8127443925921536,0.5070564586163855,2.7341847892378732,2.3753293994088005,0.8640658540229215,0.6696192248611033,0.6284777104787076,1.071451180605737,0.7031889968149294,0.49644624851400815,0.9296685984049579
31,1.2691467597623418,-0.21434761147618558,-0.1023544293240978,1.1567252109971706,1.1505075206675333,0.8111054225526408,2.8314760720782157,2.757871541531056,0.8696218660704335,0.9611870009062647,0.6566669596287297,1.3489129452749256,0.6993745192869231,0.4996299850355558,0.9393792981470552
32,1.1558403472450087,-0.220029796008618,-0.10009419048180532,0.9335386897370945,0.920848476209211,0.712017926271218,3.566544121914725,3.8395421925813222,1.360660902196387,1.2878760333374566,0.6380535849069913,1.464952842092224,1.2205208048310812,1.1053154936907243,0.942578339495807
33,1.2578346639546503,-0.045651714713245695,-0.21238899221423058,0.9723743567104081,0.9541675363328577,0.7464610592255772,2.825446051930814,2.918139951651085,1.5371285269645305,1.7279831489040023,0.6447042257417027,1.5567927544482685,1.2111843952342902,1.3847029895525051,0.9409325140290721
34,1.8706350552763895,-0.23792298829556413,-0.2863002857130219,1.2023523719437639,1.190067803864371,0.7695157234371288,3.92598685556776,4.465094110377796,2.3756687776377428,1.8751611301546778,0.675384900321601,1.9785710912948744,2.027152279273698,1.1177074176730277,0.9412864925919372
35,1.2736405241188111,-0.10852788500923588,-0.08849692014250377,1.1341526615711757,1.1515785511865435,0.7753846952594476,3.425862458957358,3.494567397352491,1.3693182066188998,1.6498378567994696,0.6284777104787076,1.480360870158958,1.133895451656891,1.2526870988394003,0.9386735390125436
36,1.4868115468540033,-0.2525910473443834,-0.19495778948081946,0.8028005277442469,0.7801259524032423,0.6784161180910177,3.3846088553813116,3.5745964701196558,1.7379004871830495,1.9579266602242293,0.6380535849069913,1.6322517354997823,1.484268082730891,1.5133985374466123,0.9340941233450618
37,2.098525920514381,-0.450716295231875,-0.2921315616290725,1.220063576252181,1.2031516630281043,0.7520062856725002,3.326077624512793,2.817722509111164,1.405580709372772,1.0537461644354067,0.6068309995095971,1.8658366726243707,1.1936640482797654,0.8175842331627294,0.9434019484906294
38,1.3865537581236203,-0.22893986853476345,-0.16869049425856958,0.8667038001786047,0.827731752146137,0.634346244539123,3.519649591750631,2.882852467462057,1.5517397950892444,1.1623469477013986,0.6008849035917525,1.6972374787512234,1.2870054947550118,0.8721351085100173,0.8982981333759957
39,1.067638363740965,-0.03744834167883537,-0.11099294126950798,0.48500468024085885,0.4594696787140095,0.6123474430178543,1.9159583908081925,1.5236882279682773,0.6266212717227263,0.4800327233787919,0.6468212168108125,1.1716131815525999,0.5133867511039214,0.3489160270676741,0.90922999114228
40,0.9919323462274665,-0.16721511554430368,-0.1120663642713296,1.0311725892117276,1.0042451075601977,0.7765706395557155,2.7734027512853126,1.937988537222978,0.750188354995373,0.47863687698339946,0.5947193981915972,1.2824149417438626,0.6226625461814175,0.380759747767543,0.90993852453791
41,0.8840477953480379,-0.06831368626798673,-0.05019414112667192,0.9904833490556919,0.9861088860208168,0.5983426739221799,2.992070568596097,1.931397631638199,0.9311775137629489,0.6617915751400638,0.6380535849069913,1.2109601218345538,0.7790876977095348,0.44327891027073263,0.9411974927064591
42,0.7640663793649933,-0.05075875254531481,-0.03995445834509548,0.9254371307608927,0.9209772500833436,0.6890359934633626,2.597829083187722,2.230670785259753,0.6679645620456358,0.5420110413386582,0.6309483474627791,1.0268499224412189,0.5263126820255465,0.34255096248123135,0.9327839122939224
43,0.861477724995431,0.023072283123934667,-0.09237965962080097,0.7845930246371211,0.7671366883808595,0.5994267529631507,2.8602672298150194,3.052508867565016,0.9426225444632814,0.891024623981056,0.663668482632973,1.087507508936004,0.7659146206841579,0.622458708960526,0.9411459745280794
44,1.613639156739514,-0.28876922090472745,-0.30597368676175873,1.1142088373641403,1.1019017741631525,0.7268897208081696,2.9114933615525564,2.4492255105291267,1.2798880123246585,1.2215266706920278,0.6125606311107803,1.4084036467079917,1.0920905264217224,0.9555114450274363,0.9475211740144072
45,1.133922414850279,-0.31426687978657003,-0.18484414385993558,0.873219576910934,0.8661830419168951,0.5658175440076769,1.4688578279793012,0.9223922423699966,0.4110410132190076,0.2322657519460608,0.6447042257417027,0.8510493328131563,0.33246746294539736,0.17347769631647486,0.9568776879540616
46,0.824590229575234,0.09529551031689687,-0.05631219385685304,0.7413638976128711,0.7215047399612294,0.5750878728418958,2.181561681408034,1.9979578154162794,0.7860797589923517,0.6433393323281745,0.6547956803312163,0.9658895562544718,0.6671013406151407,0.5789413093388813,0.9476858861479609
47,1.0211822783613398,-0.14984363710085358,-0.1651313675686022,0.8050801798503802,0.7854074348866563,0.6727513692718875,2.8150850540979375,2.4042203441592966,0.9009702680301198,0.8865115904401282,0.6125606311107803,1.1781245814809274,0.7559667963249239,0.5949761677679188,0.9513934467202009
48,0.89916410608154,-0.09491509806300596,-0.15900203799862928,0.8008275431423094,0.7923754010914618,0.5709363837550823,2.352588843248541,1.8425291837997833,0.5580370586685386,0.2079611463666402,0.6125606311107803,0.9759227908885085,0.46724767098424413,0.16443579573237774,0.9492276343513127
49,1.6164833375041059,-0.33284033195965307,-0.2569156826823538,0.9156238213037908,0.8994443876290202,0.6492744512957119,2.8284190206254447,2.6579251535635424,1.2318157851799427,1.0298754338627631,0.5713653840954815,1.4986421942863346,0.9832024814658459,0.684017113830403,0.9521305253260719
50,1.7659815731964548,-0.14245483716721263,-0.5441618597321289,0.9955696131953656,0.979673015871471,0.6661644685214744,2.631527598710762,3.4144283418465555,1.903285360063617,1.970394292002991,0.6233814453054027,1.4090399814415224,1.5675434732737077,1.5936486799115808,0.9550963772512402
51,1.7316001961394614,-0.24748339029771693,-0.36407900568367424,0.7797025194734977,0.7717452831251154,0.45198413985184616,2.9606635943036155,2.6788389223919555,1.4464918162296025,1.3015796156435293,0.6468212168108125,1.3137463352086147,1.1821538560542515,0.951690229969,0.9506891778758141
52,1.3656153461872986,-0.24899260788090555,-0.19857761366298726,0.9626622561077547,0.9304489849542216,0.7608802974138047,3.445809996427127,3.2294001954842635,1.228751826641257,1.1039791463418744,0.5978297680564633,1.5003344104974397,1.0249776539255995,0.7416458420309132,0.8849731332786628
53,1.3688739903683858,-0.18824140794228272,-0.29920626952670676,1.0554598022039865,1.0646957650269961,0.7387664557167721,2.9384661869246833,2.829406813602428,1.009122590384769,0.7363292978856577,0.6357360191111145,1.4553348527882841,0.838731075997491,0.4844067366129811,0.9410459950321926
54,1.2312754419011818,-0.23265826281917523,-0.1068479475060855,0.6689434867384512,0.6664724864634787,0.6020549560064794,2.6399531462659502,2.6712631265363105,0.8409081911974113,0.8748230096697462,0.6153451465759925,1.0958494421791818,0.6734964322119732,0.6165000618875471,0.9473936976466414
55,1.7676976669031184,-0.34856462535809385,-0.23361765549281446,1.30126330593331,1.301121778174246,0.8408507379812427,3.5207306597034074,2.900328949936272,1.6418880445384891,2.052952254035299,0.6284777104787076,1.7858436687987507,1.484910416838115,1.6598385007858534,0.9325357132920076
56,2.0905506480915825,-0.39412191625704085,-0.2762920798717344,0.8611437762162493,0.8453834181529074,0.6560714257634824,3.6456536386694274,4.996230375482881,1.8843998678988894,2.4764867851379098,0.6309483474627791,1.7654421609106816,1.6367557210850572,1.8784978832024783,0.9434694274160784
57,1.7015539544005325,-0.3430796935811019,-0.31852415971155956,0.6119563475680718,0.5978826183747145,0.44158738071645415,3.032087335710264,2.8509204263476495,1.4977745373386326,1.5867144375769986,0.6528756675646988,1.572731040093322,1.2475551102361548,0.9611960409105446,0.9353100601419285
58,2.535985942014776,-0.5949477395194122,-0.4333293906856835,1.198073237307928,1.1928915049829578,0.7735842524490849,3.274950244479027,4.184262621015311,2.6882492170779115,3.801350241274604,0.6233814453054027,2.131998792418512,2.5070729452452607,3.4362887014734254,0.9413492042158741
59,1.50673815032213,-0.38481598665575306,-0.14106616031580005,0.6844686224527832,0.6786210104159919,0.5627852368410855,3.679757951610878,4.837092805552295,1.1733405752071453,1.6938834147916213,0.6403206450210053,1.2827354674086924,0.9804152600436938,1.16953732130114,0.9483678729982061
60,1.9049675521791187,-0.5247976969509832,-0.340820622195485,0.8021578692349142,0.7891042797135741,0.5482701432785148,3.8050159140069755,5.1850173122905865,2.0234886302422628,1.9126369265060146,0.6468212168108125,1.55816406268004,1.738973649057337,1.7968791912979296,0.9497520307347729
61,2.038321558345777,-0.45321903359091414,-0.31086165620981904,1.3398012703841085,1.326783394612385,0.8098621746580924,3.4805211178383195,3.653908997079859,1.7980784770999734,2.1539438802029176,0.6699045166045591,1.995427244041608,1.5833031776827047,1.6122284265032245,0.939466155114827
62,2.1844928156255636,-0.5109271214393412,-0.36994313518271954,1.3499427234228891,1.3161147610636612,0.8106452016803706,3.416165484097969,3.825931963737787,2.2918079907120754,2.0547228624065936,0.6403206450210053,2.1060136972828354,2.0249948493108567,1.8649103508636702,0.9453255490939154
63,2.653696601158775,-0.699028824432728,-0.5025657185481905,0.9055581871033613,0.8937875463007441,0.5415787698393333,3.634112384707917,3.643882571689419,2.4500579702902745,1.4046678249014428,0.6333676938231112,1.9942837333395291,2.268874035651734,1.5203896741338006,0.9463975064371434
64,2.299945377074689,-0.39978457646612053,-0.732413325768182,0.9133689215274906,0.9081847468832368,0.5558092225354708,3.481418790284682,5.853600097426639,2.2414010463251417,4.140959447219259,0.6447042257417027,1.967304041742986,2.13238812680571,3.5236831468454453,0.9506540586976625
65,1.7664715950631522,-0.3316116410236225,-0.3878331025622229,0.9781350195602061,0.9831696295171667,0.6162434068811183,3.2332350610499025,3.0184154284531552,1.8548536707339387,1.3201994699310975,0.6284777104787076,1.6524614025425317,1.5021363517690727,1.0525423020558407,0.9364166061315521
66,1.7186087971552628,-0.2679867903778541,-0.34824357489478686,0.6879610347528275,0.6691300267532021,0.5610114322078611,3.605832759955414,4.360769761650799,2.254157826489034,3.1469984283810484,0.6547956803312163,1.7303508410994115,2.0506439019223306,2.0281482472922856,0.9369551866001702
67,2.738992702849634,-0.49712296073774065,-0.6869263624912358,1.3790593681272736,1.3980075583987575,0.8138272487342619,3.1923651006348517,5.668137039335975,2.884990590190521,4.761863559125963,0.5978297680564633,2.3610384625744345,2.608774837001566,4.135166556742356,0.9248796822004061
68,1.6144365464496988,-0.2620003735178313,-0.31068502294937445,1.148932914846333,1.158458897508096,0.7612227948518077,3.8075551061079,4.699266474093427,1.3424644222187525,1.3542975525724608,0.6403206450210053,1.5982232546665034,1.2183405760849415,0.7641590204026639,0.9520169621427078
69,1.5847185955568053,-0.002841159239903912,-0.6274299646732837,0.901013660529772,0.8834750456282823,0.5953416924677918,3.813154498131139,5.432087643519859,2.952953885205924,4.519907689714425,0.62595550513784,1.72410082075424,2.5422190062076706,3.4035755040671227,0.9314906823880229
70,2.45256915284733,-0.49775652845358387,-0.5679469176903486,0.9714320672635358,0.9488710427971807,0.6576506014416974,3.827976148927338,5.153283956051505,2.736404128392924,4.798686058888032,0.6068309995095971,2.067337316501797,2.5333982724184283,3.045629244698614,0.9502175008663842
71,1.9574374227999942,-0.31682277601792896,-0.4261097421752076,1.082891602824296,1.0866003101512829,0.709665620395538,3.604361407111178,4.61610830689761,1.855029496079246,1.8035411393212906,0.6425374456860184,1.7170231231140378,1.680846468455443,1.3363973899752675,0.9447634713667771
72,1.755067053515278,-0.26832683943896696,-0.2972528486440857,0.8488842756693001,0.8523032221745788,0.63444778543144,2.802071268934963,2.268637237696262,1.3942692329662536,1.1720094927731022,0.6619902821573977,1.578693190157064,1.1829336118485385,0.8698226702080576,0.9347450749517593
73,2.9248151936218134,-0.7922846767217545,-0.3712709080758865,1.0887009984941576,1.0762229002482273,0.697943644457412,3.499545099572014,3.7267942873803857,2.770327497862241,4.355690486386458,0.6038851895711802,2.0709444114258897,2.677326618202875,3.886705197443856,0.9477418016393033
74,1.516403487452955,-0.24199017278233542,-0.23239543144680733,1.1053386039774353,1.0909392980838346,0.7341122200402852,3.427161326416218,2.9161952834466844,1.3393863629988372,0.8657024811845391,0.6333676938231112,1.5413120833865,1.2190845980879192,0.6889410755156711,0.9459142162017178
75,1.3572277545777622,-0.15556649978035741,-0.24498165419508017,1.2867090841769027,1.2939722362044384,0.8385472763227724,3.5691086866647184,4.304099639607512,1.5576074139282876,1.216055658805479,0.6619902821573977,1.6745099091778153,1.327016898084512,0.6341278856143113,0.954254377119976
76,1.9754729059996328,-0.4231107002682821,-0.28005441676221554,1.1684779569809598,1.1556811682817725,0.7764776481465117,4.104764287403213,5.003970796877496,1.4952815612978636,2.509266693335738,0.6068309995095971,1.754849115207958,1.1942116390368864,1.2454725352326887,0.9416518694164024
77,1.724509553307936,-0.2526246109892176,-0.4564452296549619,0.9161886426047954,0.9094919310029419,0.63468994612419,2.973994944888898,2.928154766880049,1.2937716916092132,1.015779745861873,0.6652988471865258,1.6247207692986179,1.120166321855566,0.6599836958742804,0.9292883591566934
78,2.0585835345393146,-0.4167382522482961,-0.4276373340251828,0.934032422400387,0.9280794286244497,0.6338062697210252,3.735085342244544,4.412387271921489,1.864736451691617,1.2850482414377578,0.6309483474627791,1.7612949284242354,1.7236464466708807,1.2556667817880796,0.9283120185370529
79,2.416923252322965,-0.23351031015329882,-0.6808817317198641,0.7542055282907367,0.751579269363335,0.530073900098209,3.1495019918967895,3.033721247317656,3.3338319974573034,2.8459312561427534,0.6547956803312163,2.169901281687329,2.942397666185427,2.4451183997295876,0.9496513520704873
80,1.9560071087952193,-0.18446977223924876,-0.33427342578347274,0.9271132311713671,0.9077411936032161,0.6774550496562888,3.6737950929263126,4.890551779552906,3.3827614311487793,2.1143177947550127,0.62595550513784,1.9268158335548955,2.882240087142991,2.076720451565475,0.9455461873065543
81,1.0729642009319962,-0.12600916471171114,-0.16107513448305733,1.1173638766374443,1.1175802548586322,0.8211197836372451,3.524315259320772,4.51183275789518,2.0219751240263593,1.5874260387343058,0.6233814453054027,1.596521687167554,1.6041868337451979,0.9365435423206254,0.9350383678020577
82,2.1528687854525796,-0.3760053321330108,-0.4354527922977117,1.184213997839757,1.1846364770439035,0.7519713033388887,3.864664773622792,8.52592302790775,2.8898213767565712,4.929211574129755,0.6380535849069913,1.965716109690382,2.6394540762977092,3.711352309965995,0.9348636148991278
83,2.1437356864995705,-0.4729842814500469,-0.406549931073805,1.0225511861985994,1.0051923053936478,0.7067534767468392,3.341998503196655,2.6374060954278127,1.7109153514861113,1.0649744591657373,0.6447042257417027,1.812574608941975,1.5281550259530907,0.806312716327484,0.9521555873738712
84,2.097395517267698,-0.15080914157276892,-0.631311934491726,0.8858083326567388,0.8767659313098758,0.6067049652732063,2.892981305007985,3.9908378541691683,2.1116087807848407,1.4548566718498734,0.6566669596287297,1.9115194577686596,1.8549612423688284,1.2643573012762872,0.9455576324803561
85,1.4099873628657624,-0.10560246426617947,-0.24377312753406585,0.8882357518164746,0.8677285396158664,0.6886633592714093,4.114343175356231,5.044564668590902,1.9037867090404093,2.693831194917619,0.585052858160615,1.6147855187606956,1.7584724942122183,2.2321885609624252,0.9485264025845388
86,1.3638404064793002,-0.20023027537355298,-0.16631226480966166,1.1193341762190685,1.1111609164044607,0.782984701381906,3.7077874634559618,4.483152222190608,1.4007925092977838,1.4455521551411243,0.6380535849069913,1.707295779283214,1.2475078387723395,1.1382084989327683,0.9466967049976953
87,2.191943813818686,-0.3833397861479449,-0.307777117957968,1.3635740344836582,1.362177124418037,0.8491081942981299,4.3708782844983105,3.1864122958966483,2.3957139504380454,1.556800643476511,0.6284777104787076,1.9404141685515255,2.1007056324332773,1.14585497822786,0.9478706530008956
88,1.7551218905891202,-0.3076873542806948,-0.339909459051477,0.8763826939837044,0.8742187607798727,0.7026938152862829,2.807959649878893,2.5749536986273043,1.7731754756114497,1.942766971759404,0.6357360191111145,1.5891996501931092,1.4471231631873598,1.1760548157532245,0.9546822402002625
89,1.5399479428076719,-0.24240453277650575,-0.34381288111246305,0.8420995711791773,0.8144774934157537,0.6405182630731228,3.0407695413321516,4.1326404787040865,2.035489476602142,2.9051974897041264,0.6509067234006624,1.6660082639224947,1.7605069257239507,1.9624565451697222,0.9468099094494191
90,1.4533156684544588,-0.2699890900336117,-0.28531183824079714,1.048297694408379,1.0241610836082218,0.6440648527389274,2.689202615852139,1.6629416410240951,0.7770474260433492,0.36123276622228273,0.6380535849069913,1.453384282460756,0.7150584934500114,0.3428078492168349,0.8828931022145361
91,1.7275338150370934,-0.30303048638887997,-0.30806306919038906,0.9607781996456107,0.9323577971690072,0.7581800808600249,3.5197121424775903,3.6167878544451657,1.8664258365298831,1.7528521807870507,0.585052858160615,2.054597179086463,1.646354856261742,1.42434616706819,0.9119683747592298
92,1.4574122190486112,-0.250347890125013,-0.17943791293522787,0.9746335069207317,0.9433969034794787,0.6516448804557361,3.2968063635016382,2.64452468437535,1.331890807385023,1.3319188234795334,0.6547956803312163,1.7920928581292928,1.1382679079832354,0.909341577735992,0.8977937929026224
93,1.9025569079312894,-0.35640264749862516,-0.41742570515910504,0.8335097825051029,0.8123222960875695,0.6329130887758654,3.098596061976195,3.105810602416901,1.957564234741812,2.7792602854351065,0.6425374456860184,1.7898280023783077,1.7369326022591933,2.2353574470316633,0.9294492791104124
94,1.2309480876191785,-0.18658446314976185,-0.21058467386886492,1.0940507489263245,1.0767796274153831,0.7224622133989764,3.471082387122182,3.4908784695185617,1.3337768123668794,1.3026082393027747,0.6668815377411301,1.3763000268344476,1.1627108819467533,1.0079832549925365,0.9420450037143275
95,0.9663339574944813,-0.044743149532051385,-0.11598304798891651,0.4457138599912522,0.42928450071209173,0.4795135857844513,3.3505835663487553,3.0115401058034443,1.1407313112225883,1.5242779998711635,0.6153451465759925,1.097745997340152,0.9453850446586674,0.9435313762156318,0.9414728691685615
96,1.7687334444825074,-0.41049475758365517,-0.21216188915110473,0.8962681376510774,0.8642964217377762,0.6802786571537139,3.456282398538985,3.278368781739542,1.5213053517475779,1.646132691472348,0.6468212168108125,1.6643048360971628,1.2964893860955475,1.2905940896390764,0.9402709970642975
97,1.7899536741596418,-0.3195571170752608,-0.31433635506105473,1.0774393421327328,1.0534098248640005,0.723528801861671,3.6472765093300814,3.2899017850958368,2.146091645225321,2.1648566568170775,0.6284777104787076,1.9415751144657505,1.9038282036209997,1.8617180578349655,0.9495835415192535
98,1.7914033190872598,-0.3623699737407279,-0.17370657542166706,1.1999068510427442,1.1934887288090632,0.8017707523845866,3.255250378217818,2.7413780960985314,1.761794338710331,1.3595123332557142,0.6619902821573977,1.8910642836386655,1.5097998202333696,0.982941890701924,0.9273004983057159
99,1.5079802664698705,-0.27753096978495306,-0.3193472026495166,1.0646325486147055,1.046358047462452,0.7259084932383785,3.387357585599992,2.419870401618015,1.5787299284591418,1.0712628425974011,0.6180765742263259,1.6897445438213252,1.3869567922663328,0.9932758696861481,0.9018624624226407
100,1.5664629547464213,-0.2444509746293133,-0.28752055730126125,1.0149854669094323,0.9922296172302688,0.6872262069829286,3.3886740885247675,3.585729177250659,1.496668140228403,2.214769630067535,0.6357360191111145,1.6617258533653445,1.3007865823085025,1.6316079141276594,0.9249847060533841
101,1.2844039274141512,-0.05919649495916157,-0.44773832859088164,0.30789799615619484,0.2953180342037416,0.3255381130623604,2.7932003158598464,3.1104972193513434,1.4749950117597725,1.5383869933222167,0.5783247308855777,1.3455363686477229,1.201529413048664,1.0049544897003524,0.9489332777016551
102,1.712491947410655,-0.14171167584847322,-0.540483209680569,0.4417278318797816,0.42469696310375016,0.4631338741579917,2.523370117264251,3.284401595185162,1.3238722468901583,0.9848128368294007,0.5978297680564633,1.246764329691968,1.0384175264033935,0.3514783489201758,0.9413678268176598
103,2.2361659208592677,-0.2996561284654865,-0.37995415435767943,1.1087849044978428,1.1086472654477686,0.7020843769196818,3.003828242843044,5.9372978909603775,2.5120910185377223,3.5955314736177,0.6233814453054027,2.0676886559871854,2.4381390866686425,3.0099169085459474,0.9402115478213229
104,1.6435702961732312,-0.20419571323195018,-0.403107548824412,0.9965410621489832,0.9858646510279973,0.6448566342507152,3.151229502609795,3.438450192176314,1.7889092962629158,1.1852670532408571,0.62595550513784,1.3742340466275242,1.524774904664304,0.7775028540134464,0.944572940317493
105,1.2530040004274625,-0.13788525911009414,-0.16607300977532652,1.1705154088406458,1.162939193345126,0.7836672778268536,3.693633868193214,4.92488003923984,1.1783601314477474,0.8702159869609303,0.6468212168108125,1.4431234174392766,0.9870425536912636,0.557598132774274,0.9373737142509275
106,1.0610134583358162,-0.20420100446677047,-0.12336477821152847,0.9964424095583229,0.9800181429540551,0.7203035105802669,3.643556089698095,2.5629688219872118,0.7441163401870728,0.30773905695314185,0.6333676938231112,1.2934518700210367,0.634280064063612,0.24851423686637886,0.9209731101503246
107,1.1631328565392305,-0.13688444922883025,-0.16968754557098137,1.0692390154361335,1.0254696934423413,0.7587971110368094,3.7882066411368265,3.029582849051479,0.8031632357990077,0.6803544392272112,0.6284777104787076,1.3569513318859803,0.6674129724457977,0.42684970448975273,0.9528629311690111
108,0.9430431223726357,-0.10540895446423537,-0.09538825084170616,0.8611329375762993,0.845971983243328,0.6508740326365974,2.7420116841512687,1.906674518832515,0.6870773177400226,0.5496825828510546,0.6207552362147116,1.006093881023581,0.5160965711796198,0.365419342681688,0.9306957075376979
109,0.5474428673547413,-0.051251686135231234,-0.054844517479581134,0.6763118200175103,0.6624781056514694,0.5278955266324532,1.8135561385737846,1.2913557910942735,0.2964670349977594,0.23992822666804642,0.6403206450210053,0.5919553417743387,0.2589899029802262,0.16467484411772687,0.9119762118823284
110,0.9321899502855384,0.029754366412491406,-0.15412397993171512,1.1463475687468776,1.1439296425766998,0.7436302519816195,3.073824064711651,3.434988229590749,0.7515651940062645,0.8028668586767588,0.6727386042041725,1.081656848018696,0.6181921532759368,0.400339613529992,0.9452372437953396
111,2.213276169471773,-0.70841552786758,-0.24954714715554535,1.091172142506845,1.095619359447117,0.7747606684688976,3.707894031412343,3.5905001519509834,1.084441551207182,0.6061403754021566,0.6153451465759925,1.6972374787512234,0.9972386023238686,0.5383859857678485,0.9164729274915171
112,3.2513797203694326,-0.6446689119513305,-0.8866883935449391,0.9604484318580498,0.9488436031558277,0.5711111906304382,3.917926340785459,5.375129155943601,5.066662436176579,4.0537428367758555,0.6403206450210053,2.2737817000583744,4.702966450410714,2.128231705849268,0.9376800526040433
113,1.6137427041821562,-0.20158266312494807,-0.10682486059283369,0.9948338202594085,0.9780984231088851,0.7011039389235069,4.442603260537029,11.012488655727909,2.7223859172141847,3.7441102380738625,0.6566669596287297,2.0373190598265967,2.683137281619291,1.5166246128283627,0.9190002050999329
114,2.5456318157799593,-0.5418681846617261,-0.243249182388343,0.9595168493053365,0.9313191995257066,0.5954774899320079,3.3938470748891634,3.2992431629473615,2.461114500947896,1.23493095435596,0.6403206450210053,2.096022696827252,2.137583932728356,1.5179665089369412,0.9488549687138625
115,2.154424026770981,-0.1640154503293625,-0.4611265403422898,0.7608770443879798,0.7587972594172471,0.6045585486707035,2.9906409921496917,3.317569897855824,2.6630448536758125,3.8965891516888274,0.6668815377411301,1.6990587517170193,2.4947378894767414,3.524888854004705,0.946888704405998
116,1.8454251663759933,-0.1912545603572502,-0.23546668459791872,1.1194366858590914,1.0927914263751393,0.750511594970128,3.6555003466798994,6.361508431771172,2.5043121279580176,4.440465763074279,0.5915533975974677,1.8844597245169754,2.247240624248894,1.6059836775660128,0.94977759300188
117,1.1601351131574758,-0.05235233832491376,-0.16055448873217235,1.1586113101439683,1.1690402995659477,0.7714181243649136,4.173439191055749,5.1516939492804585,2.493011557485654,2.3013387699059455,0.6207552362147116,1.7478063816995921,2.1455039147963997,1.611621319415044,0.9456943107620448
118,1.6528252355477104,-0.042017715469774064,-0.3606282546782017,1.11664375193442,1.109447631542921,0.6906922711662979,3.4458123656287616,6.112139753090195,2.311980628041696,2.1379218062615677,0.6468212168108125,1.5552128088910444,2.0653851378064862,1.3702347201025453,0.9251697637090821
119,1.5491128548507855,-0.2374738028149534,-0.024634728520176515,1.0007545180833195,0.9782920380696475,0.7040719653650727,4.191879800149475,14.27023570743053,4.111152244835416,,0.6180765742263259,2.246309785026711,3.6438022678209836,3.9080149840306073,0.9347144609792065
120,1.4878942861221403,-0.09923848783451039,-0.42354710949916363,0.9307796180405473,0.9176238420497674,0.6339859607181447,3.461037510420173,3.8858861103932307,1.0282621536038283,0.8599509766776698,0.62595550513784,1.4413373669550882,0.847016143792233,0.41338332829829666,0.931758839476434
121,1.902621730422562,-0.6109507317141589,-0.2651814370100617,1.0434382809908698,1.041267545177779,0.753802779244782,3.409979188907777,2.9568373202965694,1.1777763578402796,0.8191334479483398,0.6207552362147116,1.5096931355619099,1.0026532299848723,0.6079418279510211,0.9337588469380081
122,1.7527239458595565,-0.30595040997279765,-0.3955478290000242,1.0015165954207803,0.9682706350683647,0.7679912025900835,3.718333899233745,3.525299816134688,1.3971804780878372,1.2076354175909185,0.6380535849069913,1.7401162360762166,1.2021805946848676,0.8653661593428192,0.8963762124018224
123,1.7293372893813757,-0.057575383872485286,-0.38107011652184775,0.751033653941322,0.7223575667612594,0.641941595044804,3.6057335109884336,4.201665511139023,1.9533668574591887,1.9973632317336487,0.6309483474627791,1.7297240783086023,1.7347681537258668,1.7713721198670178,0.9207984491558607
124,3.0333624966414994,-0.6927721862653725,-0.6488799891655752,1.305855691636018,1.2972473963726474,0.7742140087076139,3.252334160922221,3.939023651543082,3.968990468057473,3.000081935970012,0.5748741956352443,2.2278899916471047,3.6267153727436803,2.2207550747464135,0.9335662177192128
125,2.7698213348579275,-0.7173742300542226,-0.002127029197023133,1.2525477761304515,1.2680141256230104,0.7452472214000814,3.975013089104451,9.193431706766239,2.4773263201198956,,0.6425374456860184,2.3182629057132753,2.1588072776475,6.930494765951626,0.9383240940508819
126,1.330064686711692,-0.20417123670742712,-0.020556192478848163,1.148317832404985,1.1511875518099237,0.7142518531572988,4.200421958724954,9.221259964701067,2.2369690339514183,,0.6425374456860184,2.1745828468553947,2.154640522899337,7.078341579557671,0.9065923948438261
127,1.6464439544375256,-0.28336972470213456,-0.282825194565229,0.9907897385443946,0.9775634169145716,0.7502794066209871,3.4144671372581246,2.146046236144315,1.1267430277068173,0.4563092772099909,0.6380535849069913,1.5584279915263555,1.0424134030604106,0.4412839185369353,0.9406867001281375
128,2.183323450615213,-0.07302696284030707,-0.7877108533390478,0.9817214091296722,0.9629016165841086,0.6586465817770085,3.6051047055465055,4.596477942225068,2.8916430614709094,2.7617131770587364,0.5978297680564633,1.934168244710843,2.5838053962470933,2.1360011172481013,0.9489381626551671
129,3.5945115072332583,-1.1716315273474005,-0.6906432213656821,1.711952227229637,1.718004302513823,0.7107295377942365,3.4873619401196234,5.010767771097511,4.435343003166103,4.018651516964585,0.6153451465759925,2.9401924528801207,4.204692619390966,2.4709204078132605,0.876638594917919
130,3.363928781376735,-1.0568470188490027,-0.5994385070243097,0.8862168353930346,0.8780138761822954,0.5031548106568452,3.2268212056775663,3.5893531595394097,5.219068871182172,3.2319782783938167,0.6038851895711802,2.2499926428748753,4.840084192901217,2.9311937524164198,0.9507435039703532
131,3.4298514543175,-0.9038201163916277,-0.7710699698230457,0.8406867247073112,0.8038864391473778,0.4997258854948813,3.183242225474538,5.411995382872486,3.4296960379318477,4.244648137261201,0.6207552362147116,2.1104048853836592,3.3596238588463168,3.8580946634025906,0.9408992406336972
132,2.701064094193078,-0.41266434802240737,-0.1883519608482179,1.7517831863372724,1.7834405106511826,0.858642292999145,2.81323145292664,4.6353816906327605,6.243000395318131,,0.6180765742263259,2.5929373940017055,5.679133339381547,2.4423470353692043,0.8294288842739903
133,0.2937121469367289,-0.023486973185907332,-0.0019680795486091748,1.7523188539062764,1.7033995437899219,0.9345218309035241,2.9233522221154025,6.650914708355168,7.4639735925081006,,0.6125606311107803,2.550619193153382,3.744957967802477,inf,0.8571292439402088
134,0.31316470588101597,-0.016702117646987518,0.0,1.779005955573686,1.7536598222755753,0.9486703853136111,2.934879564267286,4.556005336495772,,,0.6619902821573977,2.9952879278457245,inf,,0.8616321231183575
135,1.5223538635073781,-0.14208636059402197,0.0,1.5134526275407294,1.5051491308546154,0.7971249360958254,2.8477601790653195,6.68089867817558,,,0.6528756675646988,2.7815173529840824,inf,,0.9011588500816642
136,0.9064706844586307,-0.09366863739405851,0.0,1.779182076084203,1.7648088881582036,0.9281071321004052,3.190842662582509,8.31024175279976,,,0.6528756675646988,2.569593457955194,inf,,0.872351892911205
137,0.319170533761778,-0.023405839142530385,0.0,1.77714402404599,1.762099445666448,0.9128953561921644,3.05051638264137,10.181450293966172,,,0.6447042257417027,2.785471348070795,inf,,0.8892081250704686
138,0.3309580247101346,-0.017651094651207178,0.0,1.7782989315262356,1.7377979633467804,0.9585609763659856,3.2238232146467123,10.220750766238885,,,0.6207552362147116,3.1434591855834464,inf,,0.8543445228357552
139,0.510309985480368,-0.042525832123364,0.0,1.7490064745169995,1.7125705266832947,0.916368858786143,3.504449259663747,6.87335691724866,,,0.6652988471865258,2.720291487524564,inf,,0.894960637446783
140,0.2148245636061988,-0.017185965088495903,0.0,1.7641983898946867,1.714021005270524,0.9425291232701504,2.9674574785100543,8.475936639577025,,,0.6566669596287297,2.594423941027351,inf,,0.8865032118510282
141,2.1854866650343543,-0.25561257116616576,-0.08410835682576258,1.3132802257303742,1.311418258397206,0.760876664224527,2.808653808929122,3.294050430830678,3.360061699207438,5.036724943148683,0.6357360191111145,2.304253150094743,2.6496868003249676,4.844187086458591,0.9296055008795459
142,1.1945329652505783,-0.12343507307589308,0.0,1.7422063717456777,1.7601484184379423,0.9046694484402464,3.019592255981133,4.914798165987483,,,0.6284777104787076,2.6080540479435346,inf,,0.872876401387878
143,0.27394868674961986,-0.021002732650804188,0.0,1.7698369250514296,1.7527383904519278,0.9641891954968568,3.2663176547193133,8.904173470579465,,,0.6468212168108125,2.6749378496520078,inf,,0.8688557581779713
144,0.15196241333745755,-0.012156993066996604,0.0,1.7312714664658433,1.6922294995522231,0.9417775867341183,3.067261308640308,3.821492677889586,,,0.5604843169999094,2.6065471157716886,inf,,0.9004554357705438
145,0.005724033745626932,-0.00047700281213557767,0.0,1.7640965358502432,1.7343393772050266,0.887751112170592,3.2374880401730017,6.479055837334087,3.210189317276091,,0.5978297680564633,2.4902542561145955,3.2168671198071204,inf,0.882554802644733
146,2.690174682598022,-0.3768847055163794,-0.05354324369930414,1.6659645302391668,1.6673094807494064,0.8378899427868373,2.5819506987614287,2.4301856785194733,3.151173320499397,,0.6233814453054027,2.545931351625775,3.1512065803117575,inf,0.9236263362845996
147,3.9353227641399293,-0.6772962803967036,-0.038179538865215,1.7393192102672455,1.743467903133875,0.8775603066924563,2.3879171031945505,3.5745112181167276,7.094586222635627,1.3795941873493267,0.6180765742263259,2.9200065630258556,2.8073857772694795,5.680172609017068,0.8980664722807777
148,1.570456002860558,-0.24988713257915812,-0.11728704531684978,0.9080255322970326,0.9108867554874027,0.49017109447291424,2.5764903955698637,3.134192229841704,2.2207670758228355,7.320423118488729,0.6153451465759925,1.8529967786992445,1.870244102932003,6.585711779013045,0.942606705259214
149,0.2398740750660123,-0.022884378927126234,-0.0011030285794749956,1.5838434622405424,1.5349063978512505,0.8772550896094174,2.3523178088462604,3.288561017544717,2.5369783513291617,,0.6509067234006624,2.4213686289840126,2.285465210780579,inf,0.9058306648616893
150,0.29548052404267955,-0.027578182243983427,0.0,1.7275906232334743,1.6798239709826779,0.9035363384879126,2.3227793146366147,4.845085887263453,,,0.648888643467878,2.5026633713772592,inf,,0.8910845176182755
151,0.8216950144575688,-0.09038645159033255,0.0,1.6590940333044335,1.62882163728896,0.9154015109726298,2.262890648048097,3.5300502773352385,,,0.6008849035917525,2.546498405794641,inf,,0.9020416023016194
152,0.7861938546138383,-0.07075744691524545,0.0,1.7316048592855644,1.7216611518561378,0.9207224170195242,2.2542888985147416,2.5650338437090237,,,0.663668482632973,2.7004127739729986,inf,,0.891718687169382
153,0.39891956655637256,-0.031913565324509806,0.0,1.7231722869054416,1.6983884745002165,0.9199842777119835,2.2008446924284146,3.313695874324557,,,0.6309483474627791,2.692012823404586,inf,,0.8757085472488407
154,0.24714180770129526,-0.013361935058491984,-0.004761797506269669,1.3055824627204504,1.2496148239523377,0.6912917673621495,2.393177324028143,2.6022025013794923,6.275588944364977,,0.5677978065141052,2.727402929618025,4.403495900678322,inf,0.8837804494549738
155,0.9805293131638171,-0.09514282492583165,-0.0061785374344294495,1.5087357705183153,1.47600384986554,0.8119561630275631,2.13127068928079,3.2557244396032567,5.310369312062447,,0.6233814453054027,2.6247819319192,3.241519472234776,inf,0.8772673444772696
156,0.4505838327077032,-0.028536976071487866,0.0,1.7320221682346528,1.6809955063444946,0.923042330309814,1.9652602180770622,2.892367509736828,,,0.6619902821573977,2.9842429735062352,inf,,0.8835003238536492
157,0.2587869715005448,-0.025232291223401294,-0.0001781343845779896,0.7684886238396165,0.7591759411676587,0.454470874077222,1.965319637847195,2.7041246362881717,2.254007128722416,4.45920794488402,0.6403206450210053,2.3783868064103277,2.0860557200826464,1.8996973059001816,0.9118647690047963
158,0.4990235262915782,-0.03653865790557859,-5.640068913713982e-05,1.6857057362907628,1.643686103387942,0.885787922222247,2.122425702961023,2.4606884383388063,2.9192689890625423,,0.6207552362147116,2.8014455487017633,2.9225396332719575,inf,0.8917854816833112
159,0.6535781942726961,-0.05010766156090671,0.0,1.710849993780037,1.684330749370846,0.9196577120091716,2.150012121525953,2.616845614302819,,,0.6403206450210053,2.8227131094223497,inf,,0.8851198080670944
160,2.730873510194607,-0.04800563676239533,-0.60904354596047,0.9975819972201299,1.0044323837375064,0.600730232129944,2.510827815546987,2.917873379524667,2.64292076329684,1.0595973254271742,0.6333676938231112,1.974641182880573,2.178745919975311,1.4611642380723744,0.9464609995106513
161,2.5543667633803584,-0.46887179772704335,-0.3713056648109078,0.845016161695429,0.8245390783682651,0.4502040811990493,2.9395194030359826,3.191673729380987,2.7433307510333447,2.7826739651612313,0.6403206450210053,1.9969812459083423,2.4426745016021756,2.5490685940052864,0.9461031343648133
162,3.858769293136122,-1.3468704476404287,-0.49808660491261686,1.4756996102800959,1.4879897059492744,0.7571079753441284,2.193953559184069,2.3890472010481436,1.6415485775341696,1.1787192226596244,0.6233814453054027,2.562651998412853,1.4504198436805111,0.879780416346508,0.9029134053754554
163,0.0013039058336800516,7.636748321912187e-07,-0.00011376884708446235,1.5178955096006344,1.515757257958369,0.9092732088720065,1.8284674323456298,1.9745652849682458,1.6467160215690262,1.06413255079047,0.62595550513784,2.446968810447608,1.4739828257248393,1.0963726460746048,0.9254974631776102
164,0.02685116573392303,-0.0019690854871543552,0.0,1.4690151617230824,1.4631523215644104,0.8551514798852399,2.263297340983012,2.2768644883557876,3.239394542523651,,0.6380535849069913,2.636039665125938,3.0710817107957777,inf,0.921516365185176
165,0.018105433964711686,-0.0016294890568240516,0.0,1.3930081478035228,1.3490451774252947,0.8484999916833912,2.1773052902567107,1.8737420542901853,2.584926261509639,,0.6309483474627791,2.4223701313211023,2.591604064040668,inf,0.9169266671682849
166,0.42438302840983916,-0.037459755696720214,-0.0017776702288196384,1.483228489472201,1.4677516337841106,0.855658990132292,2.020115885954256,2.344720236321409,1.8689469842279607,,0.6097226960127671,2.4544421089841806,1.6090499897551553,1.184977462081133,0.8950086103803676
167,0.1343289723880858,-0.012537370756221342,0.0,1.4562514591338034,1.432296136141246,0.8267594191965795,1.8895080575250813,2.1651885155897252,1.9960860216752982,1.293802322705958,0.6584896970785714,2.4072051421241483,1.9136218726776768,1.3896444480051726,0.8882490141768016
168,0.0,0.0,0.0,1.4553081558749663,1.4631903440220797,0.8370900827465206,1.9924006279542112,2.3136952905847363,3.087703552092801,,0.6153451465759925,2.6127400212978853,3.0943813546238306,inf,0.9047454224720108
169,3.716036292084144,-0.6805461967900728,-0.7108065119011434,0.936669762348987,0.9399386490576727,0.6478375380846544,2.2992281068096085,2.1470165193422956,2.727395532667409,4.266487680869166,0.6068309995095971,2.3208622177943976,2.4008417844496455,3.6901286735143684,0.9352120701453218
170,4.2477074381582876,-1.5435952689535535,-0.3648000412253265,1.609855041917585,1.6296764387911815,0.7958450177488539,1.5967544935057207,1.8028162022784076,2.530235729314223,4.082073343402081,0.6207552362147116,2.5846533229582853,1.889488600623402,1.2669963376182827,0.8764346179742084
171,0.9558712655463053,-0.10861356478275933,-0.016566445569848588,1.5547805227990612,1.5253225940809385,0.8855472939816884,1.3845977071506128,1.5154819613578183,1.9027026724423333,1.196981042858307,0.6425374456860184,2.456772810544229,1.784526164634535,1.1141768052092214,0.9134229488011587
172,0.711149242019728,-0.031910301586076356,-0.018729888968725773,1.4697218659008973,1.4439077190905547,0.9268712037732362,1.4783934216027856,1.573883813034748,1.7972560869514163,3.403622115668592,0.6602640781246099,2.5044293162768643,1.5031261158728455,1.1754510878873325,0.9137971500623933
173,0.37778113311340206,-0.015048231191722276,-0.007257902502565271,1.3487994357144797,1.316030987075799,0.8582683117617259,1.3876104208119227,1.4929727275944997,2.129568438175671,5.656260306365382,0.6447042257417027,2.509745939801646,1.798617265957664,1.7101300137365913,0.9211132708519266
174,3.520996803221506,-0.8233954006753085,-0.25925848102981586,0.988214789637614,0.981898982493533,0.69118609538819,1.1256210874223902,1.2192135827396833,1.1237914388496013,1.1504278868773594,0.6528756675646988,2.244735560007271,1.0289485013559245,1.0785680446094548,0.930648453945318
175,1.6868585372607514,-0.150849045551331,-0.03203423182860017,1.3708102724030173,1.3599868483593665,0.8145756177235287,1.7793230251711436,1.6115221567507725,2.3916674140319625,4.454269663243437,0.6468212168108125,2.6023397466800957,2.3934069349224094,4.332376726030061,0.9273866908272526
176,1.9520356742248306,-0.17936480288078357,-0.14890274618799876,1.473509663375942,1.4074132532387096,0.8624725418347833,0.9625417387356214,0.9991573594512991,1.8104253721360288,1.0407569515966157,0.6509067234006624,2.3125232016996824,1.6006115325811543,0.9376518588735231,0.8949917640521194
177,1.7439862869986285,-0.22384700667481872,-0.02031107350498927,1.573038116453522,1.5626529781886698,0.8707492849820602,1.2017648267794727,1.4916292109746532,2.718559994179772,,0.6380535849069913,2.5232317641096684,2.6577965159152686,inf,0.8640321959492616
178,0.5440350338228231,-0.03898093711592037,-0.0011844211351182098,1.665888226299709,1.6258990635244621,0.9259990573077931,1.1462419535142967,1.350641005352247,1.3476315095286762,2.110059130916467,0.6509067234006624,2.3643423003879014,1.1876779710088377,1.0733526219088718,0.8693174454816796
179,1.8595380623062137,-0.25165469603019486,-0.2265878288116825,0.8316818786227608,0.829078267009897,0.6186134138019876,1.5994160626617617,1.5588753067242165,0.755693036500506,0.7494753891190727,0.6425374456860184,1.2416746715099476,0.6338287911510683,0.4374687232195169,0.9428653211195063
180,1.2381298605586917,0.18610885117463827,0.11542934432319718,0.6963811245745581,0.6652897993872017,0.32862324854137753,1.3947011532171534,1.5988002724761046,0.772431342551633,0.7916894517227064,0.6153451465759925,1.008923942404579,0.6174340890805278,0.5048915569275799,0.9491198981284179
181,2.7481313181973137,-0.30121509907200106,-0.9342985113011586,1.0255062713715637,1.011929996661661,0.6688230674605433,1.2683306680391986,1.585576934856192,1.835937445209663,4.493109496559701,0.6447042257417027,1.6978442012549706,1.5523503068706574,2.395319058406597,0.9122464197465894
182,2.8544869742199146,-0.4938540875060161,-0.6149005862986356,1.2009127491942688,1.1966311910907894,0.767915997173657,1.1798544014370385,1.3601580136598859,1.47928137129801,1.3802705485519793,0.6068309995095971,1.929337132212618,1.1747230182270012,1.0686063785579512,0.8615830134019591
183,2.7488917866968405,-0.3956294121639567,-0.2302980692909871,1.6152271691867648,1.6104669310570758,0.8633113352565126,1.6501684645772043,1.7989085224236248,3.186167709869586,5.656260306365382,0.648888643467878,2.5517589567758407,2.874391781282081,4.035504062199167,0.8634290694443836
184,3.363500222669641,-0.6186618667805943,-0.42698004573202397,1.350198280252318,1.3509346481483024,0.801788978137292,1.5097506283949569,1.3743796538170505,1.4207726496268114,1.4846817399919465,0.6528756675646988,2.361863399277866,1.3283502778492067,1.222085716248321,0.886965800780239
185,2.1038806609588048,-0.36771004655818695,-0.15455793274544527,0.7562550969291826,0.7366430769817403,0.5984036951855247,1.8728921451424858,1.8037279719839474,1.207621817219245,1.0587959378422764,0.6602640781246099,1.5394455406140655,1.0054942392894146,0.892230262217493,0.9490697341304464
186,1.9919815454062204,-0.006756006757101085,-0.19658682547540285,0.9703239859913977,0.9542474928744594,0.6448204243454018,2.347291686335958,2.1123475007613552,1.3262683516681755,1.6722724687386579,0.6207552362147116,1.6375516481762447,1.161700516352436,0.8040614012556088,0.9474871007613364
187,3.423988072683372,-0.9728399140778973,-0.518306602017184,1.5925100784996413,1.6089170730200346,0.8088877547080123,1.80913926421392,1.9014755836104411,1.9412725390099832,1.4197016409317127,0.6153451465759925,2.2161016331059087,1.6931474454395123,0.812454923698622,0.9045687851856703
188,0.02073063464356488,-0.0017966550024422897,0.0,1.4807939057708626,1.4528214490962024,0.8944952292658369,1.8050095580089187,1.873486286024429,2.1399899078655724,,0.62595550513784,2.4618413768570044,2.146667710396602,inf,0.9081759283007813
189,0.9945885888931856,0.0449887216350765,0.002928736678373456,0.7078708593209567,0.6524191315186401,0.5556759037643083,2.3087664408798596,2.190765599064501,0.6493798554992852,0.43015230705461527,0.6619902821573977,1.0450083325833182,0.5337387325299856,0.3488321272572862,0.9331098700506207
190,1.94657502816951,0.040244075174612925,-0.3877491731944651,1.0200831173773948,1.016297169099715,0.6610701698956912,3.196738396903136,2.3244260334028786,2.2642932467290375,2.5388310978338713,0.6403206450210053,1.7707810628428633,1.9823406599994267,2.1171089594515755,0.9445962313607326
191,2.942190428021296,-0.3274700828626267,-0.9529879966882828,1.5795818167102338,1.5933815715335706,0.7464019094943507,2.538676387200633,3.1737548080361253,2.6431202882063842,4.249700247785908,0.6233814453054027,2.304141859682297,2.509009629880327,3.375537634881578,0.9084527394627773
192,0.8136992762625667,-0.073232934863631,0.0,1.6816091270126132,1.6774290741313287,0.9027647707202867,2.2145962630212477,3.9251543597039915,2.334579324466864,,0.6333676938231112,2.6760671552491595,2.337907040112611,inf,0.8495419344953475
193,0.3552234107367731,-0.027233794823152604,0.0,1.6361721145553827,1.605414717669118,0.8868863516563954,2.398140390679657,3.3992928529405955,2.9706588801424703,,0.6333676938231112,2.729784693248216,2.9773366826734993,inf,0.8856477589296247
194,0.34149957077710785,-0.023003620585526855,-0.010008004589593566,1.7197347247029744,1.6900577186933214,0.9280901073775403,2.5650338443437986,3.5343681497873156,,,0.6333676938231112,2.4321877054557715,6.26732704275442,inf,0.8744993485028258
195,0.17516536708149688,-0.016921447847247213,-1.120430396415376e-05,1.6775034281470107,1.669607592661586,0.9199592608024671,2.9751680169455383,5.570203595907665,3.2600289538191434,,0.6447042257417027,2.4437647064568253,3.2667067563501724,inf,0.881639310093772
196,0.32996362997520534,-0.026397090398016427,0.0,1.7001398296335306,1.680873115654255,0.9431205950656598,2.841757203419413,5.7866414726761946,,,0.6180765742263259,2.6757443663502944,inf,,0.8830469579945986
197,0.18065806992616443,-0.016861419859775347,0.0,1.7483455425190153,1.746756813153757,0.9312972600887788,3.075861287492362,8.863890200976453,,,0.6284777104787076,2.409428188612095,inf,,0.8652995252783217
198,0.41696088581010377,-0.029187262006707262,0.0,1.7205302033183472,1.6941373669004651,0.9289648100753553,3.0801288895026735,7.227113559763115,,,0.6233814453054027,2.7772216599635087,inf,,0.891599480505085
199,2.571437257252807,-0.4990958126722854,-0.24662099193102857,0.8579104575514406,0.842490171829363,0.35943376453592674,3.1934229987771827,7.989136792038188,3.614274310297994,,0.6008849035917525,2.1956258559725224,2.907490290917899,inf,0.941456039180613
200,3.2825583363566895,-0.7716726117853339,-0.31346510889628587,1.5645070566052017,1.5656927677230121,0.8296005598501368,2.7059686731112724,3.08245682862905,1.9953178476673161,2.375291696827892,0.6584896970785714,2.2277868829188594,1.8772816426662169,1.6189166563886441,0.8962845468587475
201,2.6899987821153095,-0.3873254801459993,-0.5579986826388164,0.7299802210697744,0.7257097401734754,0.5277684194362826,2.8808805405175955,4.200323378615954,3.1857358594041747,4.2346265788001825,0.6380535849069913,1.8943829931266158,2.9507378624920664,3.5179216559702966,0.9593679238362438
202,3.368192040678151,-0.8740472715262579,-0.15091771623835215,1.7036485090691411,1.7038105376341797,0.8619185286218174,2.416127048196141,2.2853675839232177,2.6360878870968882,0.7380935956515482,0.6309483474627791,2.374558592619135,2.299604464855908,1.0498221244986778,0.9118268340210874
203,1.4061512152644517,-0.2352151406875922,-0.12100983384606895,0.9905630875924614,0.9757897562237068,0.6123058023552834,2.5637535836175704,4.7321698335646305,2.2740556904552127,,0.5978297680564633,1.7898945426185426,1.9823665204344447,inf,0.9450715318385579
204,3.0039818724429224,-0.48239388865579946,-0.18849539618978647,1.0117208548826926,1.0139212690482868,0.7072683099142373,2.4602751188237626,4.217721678985904,4.741286301694074,,0.6207552362147116,2.5164661186957664,3.231616614857015,inf,0.9202798311990381
205,2.804941209914065,-0.48646808333597436,-0.5665232923270463,0.625218526630679,0.6191868296004333,0.4938366148849835,2.5052136925108144,4.137618820791479,2.705669570707199,4.892382634419945,0.6468212168108125,2.0043752986556105,2.4746518324921265,2.7854030917731327,0.9486573401550177
206,2.1682513399741516,-0.1893296779582644,-0.38718266611610913,0.7708151044061713,0.767961405955012,0.5509684395920794,2.985554833852524,3.1076278915665725,1.941153576702178,3.443768256898374,0.6652988471865258,1.8196103973838313,1.737071887118719,1.4211631867707146,0.944401796602638
207,2.2523967466403385,0.12688315301603104,-0.5809179636644438,0.4450447167453035,0.424560927081557,0.4733342945468823,1.9208410498414077,2.164119570644946,1.5174002609519144,3.0158223331509957,0.6403206450210053,1.8436845420929744,1.4145675635840835,2.368569327843015,0.9501057339140211
208,3.8902863840326503,-0.9703094597904524,-0.3444563163006841,1.448281005925425,1.453974208535756,0.6714518610478322,1.306391811241643,1.6289510787807118,1.8237000966312393,1.9166949529171144,0.6403206450210053,2.616839321048826,1.7894800061941003,1.7385554331645905,0.889338657508829
209,0.46708021971979186,-0.03494388388835594,-0.02023656738546134,1.4555064371860065,1.446660416603859,0.8998363161867438,1.419610131577504,1.7013057539632004,1.6273392730634044,2.2504225451467246,0.6468212168108125,2.3234683039104698,1.3296150979315493,1.4853852637641216,0.9116858583486843
210,2.73015694607489,-0.5374542017588512,-0.2735848966502583,0.28588429402253124,0.2877624374641755,0.3745034478483148,1.784400192470173,1.9497827872136955,1.089379843816715,0.9053472702657247,0.6233814453054027,1.4500154386777435,0.7997663893971519,0.8106667601987868,0.9580540394659709
211,3.19236145372466,-0.3880497714774014,-0.7260657399012763,0.5933870240415499,0.592593253954264,0.4769504204297016,2.8654095124843164,3.908941326509753,4.338470201757486,1.8024510381693601,0.6333676938231112,2.3088267539175216,4.0947918894494215,1.4485982444560455,0.9517996550065851
212,3.50362596538022,-0.9637246370954681,-0.2986211863984766,1.735895549175579,1.7063477842188228,0.8125753667601132,3.1480745537946144,5.91062618345839,5.522598648179365,2.1527840755828085,0.6333676938231112,2.620191960580526,5.290865427265396,2.3978952727983707,0.93741040653617
213,0.5907056167680359,-0.03544233700608215,0.0,1.7438795185279719,1.7274130369146734,0.9261420846522876,3.3263243359454084,4.855168820879191,,,0.6207552362147116,3.03032371832361,inf,,0.8974685327049687
214,2.810944633777568,-0.5245009003392965,-0.373123916118163,0.7466014429733555,0.7381138875450634,0.5977476904243335,2.7445600980930807,3.029167459382322,2.269150094833488,3.4779113366270713,0.6547956803312163,1.9335534748459418,1.963033722452365,2.2227107213195603,0.9540434592785337
215,2.074596504725412,-0.42408910603468,-0.356475050306574,1.067168705713463,1.061199581570285,0.7204335258419721,3.571373556244988,3.2182003490426188,1.2985779057522586,1.104328071515174,0.6547956803312163,1.8571872745505102,1.0897548348340487,0.6799019538099246,0.9406335492360031
216,1.5422664907509946,-0.21287301941808173,-0.2633801114669264,0.9579424211598274,0.9466635540285074,0.6991065842217847,3.6365098617195204,2.644461729124211,1.537115479480939,1.465498518283488,0.6790044388599258,1.7425884252216055,1.303969415863888,1.1225102673325438,0.9478975280255212
217,1.4834289470613247,-0.22047973686702477,-0.18307097417082446,1.1359554260403009,1.1039931859772707,0.7799956566842482,4.138014952805922,5.702101453957627,2.0738447368604365,2.849646430694617,0.6180765742263259,1.9380963123024995,1.7633056668103273,2.2381028290644442,0.9501470591098554
218,1.3268728864366177,-0.22314743339324677,-0.1819804108508586,1.2019340508650078,1.207477720527626,0.7884258292102008,3.870155576368976,3.3695114042412264,1.5079788907035157,1.3166803619387575,0.6425374456860184,1.560118787659899,1.2678417101148687,1.0746623831414635,0.943720594823787
219,1.6768038821597262,-0.14811567566656147,-0.37459847566185484,1.0166857588703984,1.0016168996190857,0.7233687308351631,3.387729438136458,2.5698244896914737,1.519607207439316,1.5644617268187475,0.5567373465730988,1.4557635364977235,1.314871539796108,1.174714933250382,0.9484212816654826
220,2.0165582577862042,-0.22785997589310336,-0.3826916263741223,1.0434200250838983,1.0371562779528478,0.6897525979937374,3.5209798715294833,5.837841776940664,2.504044765270822,3.847491922836001,0.6207552362147116,1.9981278471805626,2.4054629654091597,3.569986932237534,0.9428803448050411
221,2.0264530454098275,-0.04231199054558621,-0.6832333811759056,0.7179185354672208,0.6891784545361949,0.534446442521242,3.3267636048215055,4.368100907014005,2.6497888628855333,2.4857536816528194,0.648888643467878,1.55816406268004,2.2794732313897104,2.068669444697925,0.9495760188695079
222,1.6985146929190997,-0.26885133282963475,-0.13451507319222938,1.2539441237188573,1.2533687065207826,0.8011998888067159,4.273287161582845,6.985247549036493,2.2448398571718524,4.145055295664876,0.6841113288387766,1.9132493668157649,2.1573786687890197,3.4249139082794713,0.9386240218499415
223,2.4561571308697863,-0.6117831344590834,-0.41945101770687654,0.8969467024935787,0.8817673825388315,0.6832008547342265,3.946593584570258,4.781430230041847,1.7144006048279403,1.233497958319909,0.663668482632973,1.7895618856845676,1.532208362346266,1.0709803500060238,0.9314509959962789
224,1.9035184672757521,-0.3110131679323038,-0.2514086424685773,1.2009013011636693,1.164636687799456,0.7711424335400496,4.407393501690151,6.375497999405487,2.332935113962568,3.3739986863432505,0.6652988471865258,1.8586117762158956,1.9702963225017438,1.528923395362805,0.9409129300955742
225,1.5179926659335858,-0.07282348844399955,-0.3767250412453965,1.022031468701152,1.0055326047601583,0.688155373553777,3.865514049160063,5.077098081150526,2.239609010803263,3.4716868465827213,0.6284777104787076,1.6939070690605504,2.0133626768317345,2.7304819038441166,0.9447865008795852
226,1.7693745118872857,-0.2711575576398554,-0.32953435293314415,1.050196413434358,1.0339880409230244,0.7061792716464442,4.039746477302578,4.775871434223492,1.7141982035846735,2.3485177415746366,0.6125606311107803,1.87188551370734,1.610883521648627,1.4934648320229564,0.9511736260512271
227,2.230035299069614,-0.44683527279214996,-0.1724822213706922,1.423894583447466,1.4229869725962616,0.8380751484457237,4.163361681054777,6.435507007107649,2.826030057007524,2.9257830694757274,0.6284777104787076,2.208386642042411,2.1970223528663695,2.0749022692464165,0.9521000202940068
228,2.1727730193639005,-0.4357162652584133,-0.3247542915189519,1.0490665985792582,1.0076092330387239,0.6821794598684263,3.6961777699623206,16.97075830739888,4.043013595942798,,0.6125606311107803,2.2952785178116075,3.799080452459007,inf,0.9469909530259242
229,3.1410403693782514,-1.037009803175661,-0.5661374740749275,0.9618831203400764,0.9568241105794077,0.6482484430164329,3.769171336304742,2.2023847936961176,1.957915289162434,1.5286297665098145,0.6153451465759925,1.8345973832381552,1.8587364212251614,0.8155166105190976,0.9544800193042042
230,3.7470236021409216,-1.2625915860204786,-0.3111583268787083,0.763502437502483,0.7652835368630535,0.3515740002154634,4.23673252749566,7.8542791276486295,5.742715183377224,,0.581717464821069,2.662439689850158,5.567071429114299,inf,0.9558219811961349
231,1.6333806493474545,-0.19883778742352287,-0.4808649567995459,0.751717673459953,0.7348139152282159,0.6545408452445078,3.5965051886724586,4.831238560586826,2.1033900876992986,1.5048638889906305,0.6284777104787076,1.7600670224955652,1.8938743802570905,1.6577989841275216,0.9224699633717723
232,1.8721491317222745,-0.3923411259854927,-0.367202090103509,1.2390036029158074,1.2160963941784273,0.8250930798347883,3.74028447709926,3.226724256914184,2.4148730583684492,2.6244985692321734,0.6528756675646988,2.064355904261795,2.038693098590452,1.840684141434545,0.934890642946001
233,1.036283794117716,0.05208117631083642,-0.16805563545550511,1.154378213916105,1.1518102941158097,0.7243648984815951,3.504939793443342,2.759218096545493,1.3834803851448498,1.3584834271922837,0.6333676938231112,1.3497267369463495,1.1237784901172083,1.0078181990778823,0.9490847071206869
234,2.0295365192848642,-0.29491315717162336,-0.32343889870123976,1.2591113907219276,1.236023735484687,0.7815018667134322,3.937274992168201,3.6902888848306015,1.878287690017487,1.462724508436823,0.5883313578629602,2.066722769272061,1.7750488976118266,1.3353118348500326,0.9329770425903481
235,1.9923358983418669,-0.30493428327114974,-0.1914100697839276,1.144546647534351,1.148903112452288,0.7994845423596267,3.740194877478508,5.9773339617762105,1.9463413812033903,2.2970746873590704,0.648888643467878,2.026806925045089,1.7372751171901122,1.6176169332518864,0.9418081357090977
236,1.7668079785169108,-0.36814669226637253,-0.23130751967278596,0.8425349945780368,0.81769948379176,0.582385780645148,3.5004999323687525,3.7422311339902437,1.8121338581583804,2.2636953303027494,0.6403206450210053,1.543806239005271,1.3631014875309932,1.087893205349575,0.9146071972936436
237,1.9079852306110996,-0.5216572958965954,-0.3544616207911902,1.4435224403278,1.4064984096125261,0.7242534891883274,1.660388848110895,1.392344748484365,1.7363763885681354,1.1379471644705572,0.6602640781246099,1.8997902134417601,1.5565675793976708,0.9851829693668583,0.9498141734899243
238,1.9474438632262983,-0.6067675506018796,-0.39425299798903657,1.4257520669278565,1.3860996384393462,0.755541126808029,1.7708823776127651,1.6281307506758322,1.6502864616316455,1.6392381408830632,0.6309483474627791,1.816803810334316,1.3934977675637503,1.3567168421256488,0.9270421202377297
239,0.647808501738878,-0.11123805580844548,-0.09629843100349916,0.29506657287888677,0.2621103346386388,0.3299306682735962,1.681905470477152,1.1900374033131633,0.25418112917771823,0.18178607848213885,0.6403206450210053,0.5934225165207485,0.19096314447346796,0.10710406308052917,0.8987003782769302
240,1.8114014357588055,-0.4443674276725452,-0.2612332860221214,1.010414486523646,1.001111991764696,0.778006900580493,3.8681401221608054,3.152660773081736,1.0842936286443352,0.7903065993007037,0.6566669596287297,1.7088286285364134,0.9233413622304786,0.5384449104840554,0.9364139890142403
241,1.5019675422055843,-0.21281765746813208,-0.2645428382368368,1.2965610895728112,1.2741523566841588,0.8558393409435715,3.9985001741735204,3.976033487394197,1.5739609651040274,1.3289754292436762,0.6509067234006624,1.831956658979468,1.3630398920987896,1.0556120336185082,0.9098264730813742
242,1.5270903580102002,-0.23039087161783078,-0.31965140526921887,1.0490922867964179,1.0150351220104012,0.7929994070620144,3.7409796792738,3.4265295099822635,1.7685639339324437,1.4002134745520625,0.6180765742263259,1.848682616627676,1.518113338317147,1.0250565738803499,0.9180346207029036
243,1.8695191300913565,-0.39470394519476926,-0.3108993325155467,1.250731498271187,1.2357148117570502,0.8144972944632306,3.728275742712969,3.727540830405048,1.8357723211800707,1.9930346252985294,0.6509067234006624,1.934168244710843,1.6232931594259772,1.4317386092393702,0.9448138831297364
244,1.741341784512852,-0.3029758679122254,-0.3743356103249975,1.014790292706084,0.9914071948498131,0.7025292929186135,4.191617343524394,4.541992695022898,1.7562194658175556,2.000115389802419,0.6357360191111145,1.6742727737723881,1.5365797683269435,1.505870129794507,0.951622445807407
245,1.6239068955982308,-0.21634566649098674,-0.4043582134274588,1.181994431606235,1.164389440693429,0.7821824803040862,3.696243439622745,2.910017835624689,1.6332687301675815,1.2219652431457435,0.6403206450210053,1.7102409280557995,1.4598447326429693,1.0650547114887883,0.8834164784524292
246,1.7922569196881895,-0.20790798288305867,-0.3572325358002799,1.25988523438507,1.2554854550819767,0.7782383530189523,3.6715534832571484,2.994711843204886,1.496938701026043,1.2930437035788986,0.6380535849069913,1.7105482138032317,1.2584339446748443,0.9575906279648012,0.903218340700114
247,1.6030796151621747,-0.34238550432179937,-0.3404434218901818,0.7134410788873033,0.6724840631873452,0.6350255520914152,2.941111460558041,3.2893142513230313,1.3995102520922162,2.181878526847434,0.6180765742263259,1.4938300803247246,1.2281500263109835,1.656497278527032,0.9284059342962379
248,1.015441611530808,-0.03850994098851701,-0.05906840993585638,0.9757708814638976,0.967400207744076,0.6413258001911409,2.9083486048487655,2.9805066055407936,0.7923853654949606,1.0183576541525776,0.6038851895711802,0.944033129222784,0.6235699684333683,0.6682583632949853,0.9477837173482008
249,1.311759221806107,-0.11723111770053452,-0.20174268627514153,0.56681965990552,0.5670095176771365,0.45497658249611,2.6986218966571287,2.83119781556337,1.1464833848146827,2.0298876898971057,0.648888643467878,1.142007034320634,0.9482483220183429,1.4711107774759997,0.9277252168498055
250,1.3194764687421494,-0.22367155207779227,-0.21804678075572645,0.7730373210794396,0.7764467805252775,0.5969368244008283,3.1613262914654707,3.2398418274071434,1.1163913483568848,1.1444403415968156,0.5883313578629602,1.2183722772087144,0.945224119147521,0.8191099727427253,0.9626704255153193
251,1.0217904618104323,-0.09822543499817088,-0.0875415704933511,1.1887589059414818,1.1535862035070268,0.7895521753391269,3.9369824421638326,5.36582784328713,1.7076688147430434,2.043745340305774,0.6180765742263259,1.572035089959501,1.5258529633651743,1.6962926776081673,0.9130396332073204
252,0.7534305337462632,-0.08570486331776256,-0.10026073014063008,1.222295262228156,1.185984235012608,0.8114042159281739,3.698935155681464,3.924761505292462,1.0317388697755945,0.8829239535012129,0.6619902821573977,1.3805774007906615,0.8570525911805967,0.827809694007553,0.922319591528582
253,1.6743151821796338,-0.2533044360347582,-0.22548977605030818,0.8557862672627958,0.8373986212084723,0.6573459245602084,3.2746557631479987,2.6025829127212776,1.8060316964197272,1.6004248349395795,0.6425374456860184,1.5808504555821878,1.563639657927617,1.233987271652935,0.9495364833629748
254,1.596526798579928,-0.32236457434965604,-0.18612273331063764,1.1377589775879977,1.1171403798729966,0.7669859385063442,3.4335803071168134,3.0612975447034314,1.067622931382238,0.889373468608466,0.62595550513784,1.4863357153001169,0.8607819516107195,0.6205671940879984,0.9283269956988295
255,1.2520182502199904,-0.2867605559113402,-0.14652089152896616,1.1445181407394285,1.1608553462925784,0.8129991279832045,3.364088670171631,2.6519151481204797,0.7758851245956144,0.9289625811771105,0.5978297680564633,1.275508588817,0.6333091787529818,0.4684908716200007,0.943919429888048
256,1.716613491626202,-0.29702550772452574,-0.33994872939123305,1.0387892111414343,1.0273763403226899,0.6956393647608327,3.1732888198270657,2.665161771646986,1.2565530404174587,1.1231411701633842,0.6180765742263259,1.431245238126604,1.0669493059883315,0.9160880770958751,0.948689467662925
257,2.126139977932487,-0.43414408836442897,-0.2342772474426269,1.1911620574967663,1.1792170290160013,0.8281025972867497,3.5890173135120316,5.445364831741264,1.3077643467981446,1.5449136021796646,0.5783247308855777,1.591652569032227,1.1869989392535296,1.2486576526001856,0.9406781883895702
258,0.721072464852324,-0.11657542457013279,-0.07485028861287005,1.3280461128848007,1.3158491662121483,0.8557485767810479,3.3082085435728086,2.865349136227733,0.7354927572951925,0.7198637707136167,0.6357360191111145,1.2193496841509297,0.6393333704427001,0.48183469256906586,0.9008956354127724
259,1.71879110077047,-0.382002070800979,-0.1839366089201371,0.9652861116849877,0.9570577072545191,0.7319747332910733,3.7354549390436174,3.865623868732259,1.460651771220835,1.2928796123207686,0.6509067234006624,1.529959466490378,1.3030872247865173,1.108290701820026,0.8645104872384535
260,0.7834435950022451,-0.09623087430948166,-0.006742791195480213,1.158413222084306,1.1225396240765706,0.7758701519242515,2.9026479233699147,2.362141865740731,0.7328858343293957,0.5649796427999301,0.6333676938231112,1.26944015175085,0.6046869479126338,0.3788216264450971,0.8500580442128156
261,1.304992012578811,-0.28513253825936324,-0.13681677609912501,0.8165233953798537,0.806380026729553,0.6192912105977064,2.7624852661004446,2.372037665744471,0.8884114508652533,0.946415165055709,0.6619902821573977,1.1404417349419498,0.7255385333173605,0.5497735228403736,0.9016647508951827
262,1.1438384755832682,-0.26484370969605026,-0.13121252544469375,1.0865449948567307,1.084307538820292,0.723894908909548,3.0027438891279927,2.6539877502946974,0.9772423233833861,1.0568144458597701,0.6468212168108125,1.130619084803196,0.8047028730687297,0.7412295761709132,0.9460681299801327
263,1.796018847427031,-0.28377995638876397,-0.3595615986425427,0.6201641137852522,0.6147386344394888,0.5475739954764747,2.889998147992117,2.9111860227244906,1.3624901863818057,1.6953501097633483,0.6602640781246099,1.2622298606682925,1.193635920335294,1.4084258216033698,0.9396567558093902
264,1.740429166374382,-0.35751136181681625,-0.16040828305732152,1.2393570681222852,1.2345759864210628,0.8508586194041492,3.8797295717164095,2.7791701753991433,1.0613630668046754,0.8738470460618482,0.62595550513784,1.5516932507179375,0.9415144241094494,0.6438321794299448,0.9251264599366247
265,2.0623274591099188,-0.41824434813979017,-0.42526720262245776,1.1817615944837858,1.1628569338690333,0.7242510141338809,3.557445839083945,2.7618234777045596,1.6274527224934425,1.7416599799229355,0.62595550513784,1.775099028334948,1.409107021498196,1.2573347123731455,0.9488246102721739
266,1.3159657242672582,-0.09409614694514845,-0.14570440225367842,0.8783432768243419,0.8371914083248971,0.6861715954141893,2.946027632953521,2.4153341007852274,0.9358551654034165,0.5639457448178009,0.6652988471865258,1.5275507529619163,0.7777045685880083,0.4375588719886254,0.9059358076118732
267,1.7686905563048494,-0.41656412002193255,-0.33045992929381607,0.7775633551154639,0.7631650627704465,0.6087243475244614,3.4839388182577964,2.6310039646513292,1.5650926921313315,0.782298971789134,0.6233814453054027,1.8448789915587165,1.4279251753350402,0.8050110933771337,0.9392564470410468
268,1.4722598771043955,-0.1449141843659919,-0.2909971870750382,0.9324485465925488,0.9105043556833984,0.6538329641239519,2.727466066195719,2.6226080091886756,1.1197838093532972,1.1007473269860737,0.6528756675646988,1.5046275480817553,0.9321240598191979,0.6941642159895886,0.946785404858744
269,1.4525557937319504,-0.1633859627350741,-0.3986062634483522,1.1576384213969988,1.1473777588436216,0.8239793531205414,2.750833628817348,2.1448603734579432,1.1266248480180454,0.8700375992866408,0.6038851895711802,1.5246883506803985,0.9890293809617215,0.6632700005238281,0.9500616293713304
270,1.5874489178767957,-0.3048817198151055,-0.11556084474146872,1.1330255068652484,1.1190773074037081,0.7625524295906027,3.347662947256105,3.6501161440012213,1.3021843991715585,1.2661524214440065,0.648888643467878,1.5709653423179057,1.11011841055449,0.9012359050082321,0.9440696462179294
271,1.5061792245383512,-0.13375949849611213,-0.35032957279786037,0.8727458301488089,0.8642688917306276,0.67272091618828,2.835773057974597,2.2029817710182797,1.1387738741176454,1.2628429457794395,0.6528756675646988,1.3338705948454248,0.9741738175960384,0.957166260021105,0.9427632939746651
272,0.9575385581610529,-0.013383570830605596,-0.11742502416246081,0.15530386776307525,0.15290490102397156,0.20570465794074752,2.156020247334527,2.305647720134284,0.9828049526913759,1.0560844333743757,0.5783247308855777,0.8099057411701409,0.7036665901679345,0.6795606280948904,0.964526219481427
273,1.202116441260948,-0.11543190580836837,-0.1781625337499418,0.8910897692193424,0.8840495223123891,0.6544086035757886,2.670586411161785,2.2032877514257683,0.8121691352186619,0.7448478497377452,0.6425374456860184,1.0676628680241746,0.6319429130333358,0.5034356816002739,0.95161221470342
274,0.8068635477170144,0.013269972608130565,0.110226459034095,0.5614445419594802,0.5520728224923533,0.46897409677349033,2.29408981021079,2.404672744757569,0.7152444982638364,0.9816079772450179,0.6180765742263259,0.8141102672229596,0.5024507558822557,0.4927516053704288,0.9598188254956949
275,1.0706319363377343,0.06287634686700605,-0.14991659241235922,1.0586193743548522,1.0581456716037732,0.5593051831187472,2.2336776474490128,2.147883411001362,0.906939562983537,0.9495450008370787,0.6284777104787076,0.9736256318751053,0.7149757452503235,0.6739696527987836,0.9559088733134425
276,1.5210962229140577,-0.21133883220642447,-0.2043999876828378,0.801026482392186,0.7989932149722464,0.5699759507509609,2.927079432410761,2.8063852087563217,1.134109160061681,1.0916567522812448,0.6468212168108125,1.3009324919687542,0.9001997101984821,0.7090341830571077,0.9470598495974368
277,0.7973016890103458,-0.049945026352558375,-0.029839547242012654,0.8041655117821026,0.7828729828328694,0.6138819062925445,2.7697437968073437,2.470336397211605,0.6025924667623713,0.5386293109902845,0.6447042257417027,0.8700169586756547,0.49099959525996734,0.3975660705978757,0.9290245805013156
278,1.155473727960534,-0.2610356752954241,-0.12506049376139722,0.8512402156058085,0.8403146043255011,0.621697485578904,2.510140985322927,2.1227702061632816,0.6416991936473091,0.5395780537015189,0.6153451465759925,0.9342567135037109,0.46744461665569675,0.36004636500067605,0.9473166818634654
279,1.321095693946326,-0.19104669564839988,-0.1903799194209827,1.282500285999684,1.2699154520499618,0.8215191288638711,4.11379285207359,2.4355189809695093,1.4629857912137025,1.0783900895655716,0.6668815377411301,1.8570449359266843,1.308026860198092,0.8684912938374652,0.9269895454631026
280,1.4030877225138823,-0.07339157557088105,-0.1305537904370943,1.0908637618299402,1.0796895776086073,0.8217537797502534,3.6450715449688085,3.246179508958801,1.53874103144136,1.5647793862922408,0.581717464821069,1.6826659299811213,1.3188608772812058,1.1582455602822288,0.8560219575503676
281,1.956232718238556,-0.455826355596359,-0.2691853565477277,1.192830035672139,1.1811004779327932,0.763585976850201,4.070020117539604,3.217498307599188,1.9229633938604316,2.319565442888552,0.6425374456860184,1.7717607827213657,1.6540708798991504,1.7126370029856244,0.9072952151446402
282,1.7465842874424435,-0.3389556201618099,-0.29201171692887,1.1859201945152795,1.1693889037662284,0.7807008298451663,3.9214338880413386,3.2321662223604974,2.2485669222889237,2.9076864603294745,0.6425374456860184,1.855906955718529,1.8654956901009674,1.709811394194972,0.9405530303670286
283,1.5858409934793716,-0.27932814292384917,-0.2634424528666598,1.1484171282135887,1.1354699956586711,0.8224240796418988,3.6730897919469543,3.2416443657831184,1.0355097864959715,0.7363964879834727,0.6528756675646988,1.5507498049747048,0.8922474417360859,0.5793071824461996,0.9479066063332608
284,0.6865056805075002,-0.06341238716893965,-0.06879117989454561,0.9365602216666564,0.9397206417294207,0.7041090277688178,3.2378687727504962,2.557633445250936,0.5618304764857832,0.3922647403930986,0.648888643467878,1.0701868144844058,0.40118140788216355,0.23549877984352302,0.9439867604441773
285,1.1144488824950656,-0.30240380501727837,-0.05395889790436598,0.9790253882852565,0.9697202984655479,0.6739543054947186,2.7176482763252117,2.478194491247671,0.5897126392916926,0.5756471631398403,0.5915533975974677,0.9966274642501997,0.46166427737694116,0.331270144057427,0.947482534139868
286,0.9698369254707745,-0.32557028040298064,-0.003115697672706641,0.8751994615754731,0.8561259295076614,0.6298407229971972,2.186953125475479,1.6762352605268296,0.286983194286596,0.29158036142712246,0.6180765742263259,0.8368892553864248,0.21853583805514892,0.15404427081218616,0.9441486950069435
287,1.8151263747298643,-0.29946350987266723,-0.07953427409375209,1.4019845194950133,1.3868068171319787,0.9016869431825801,4.287547502977764,5.480892654578408,2.814064159621685,5.725021669574878,0.5947193981915972,2.1619539632543003,2.4543895233319164,2.396772308053747,0.9294998829789167
288,1.1752628824002407,-0.21734157358885395,-0.12156074397320335,1.1283176104926118,1.113133746119171,0.7871906893117544,3.1850746459758796,2.1591706593724536,0.8015523515263395,0.8306749739693947,0.6357360191111145,1.4339917892095864,0.7092181998203948,0.5625095967339466,0.93267168227076
289,1.611133776171075,-0.19743341117232738,-0.2785557777681827,0.9546023249574869,0.9527458136788713,0.6683928739952931,4.178134204993628,6.519736336849557,2.0078761169429318,4.059949588618326,0.6602640781246099,1.7428423289934407,1.7685420117034703,2.6386852365877096,0.9517357784535582
290,0.9456777441793751,-0.12355115702222341,-0.04085695589781346,1.3262140325788356,1.3023246938403967,0.862014344338019,3.6764656759733314,2.445460962749835,0.9012378847402698,0.6689278090749298,0.6333676938231112,1.4335257408253295,0.7578161733527345,0.5272638008636628,0.8988557242374512
291,1.8950072781394574,-0.5424255946353023,-0.17552053953987573,1.200860028152098,1.196178203253203,0.7609399081936641,3.171275219986159,1.6318768355783893,0.7499244457994709,0.3950964875648476,0.6333676938231112,1.5948230100830192,0.6862180533463107,0.3089298496072791,0.9167974468727752
292,1.9668267603649243,-0.544173570532106,-0.21334818280813742,1.0798689351584976,1.0777418140761876,0.7242059633229648,4.209931776998165,3.8521573556338664,1.7551943846908453,1.6546471454017666,0.6357360191111145,1.7637552728184576,1.4060658726030115,1.1181081658732968,0.9389837593919625
293,1.501633057728828,-0.22202172428843703,-0.24370946096923624,0.92080310014999,0.9017546843036677,0.6486724831786267,3.152147982065931,2.6251475873167247,1.169038176265228,0.8725909734123221,0.6425374456860184,1.6281111776997217,1.0079284874262162,0.6447115634603503,0.8882465558995983
294,1.2831505778073216,-0.1379255360176742,-0.13142412482370364,0.9027916709304582,0.8689527994303208,0.7558234963042423,3.038980064415236,2.32750986884327,1.2108981184790821,0.9725043835141605,0.6425374456860184,1.6088825111424003,0.9883719718120442,0.7119716201689007,0.835687746823108
295,1.3468321906078682,-0.14380250561683983,-0.3399929837805861,0.6160797653431743,0.5976361452547977,0.5722033343677665,2.964251589101223,2.2119088599649985,1.031442086053871,0.5387024491807461,0.6097226960127671,1.4595343340256024,0.9165777033702893,0.42496761302151104,0.9337397825223612
296,1.518697305782902,-0.21938777824232691,-0.19681649833395182,0.9326620112361361,0.9152059251131089,0.6568743015522017,3.404727228299573,3.111115829174613,1.6144310260370691,1.2618511636965497,0.6233814453054027,1.8573296334375042,1.4213551737492591,0.9626141679920005,0.9441226592569566
297,1.522177154077492,-0.18636742983262045,-0.2677464422422958,1.2151103620527273,1.2184807747837376,0.8147773332470845,3.1649028439918077,2.694190176538408,1.4057930257790354,0.9433389448969774,0.6333676938231112,1.7452576355766352,1.2800178847843309,0.8263843353400893,0.9034029227784356
298,1.4193221340486364,-0.28287130391918813,-0.1036009303158294,0.8447357876925613,0.8392526678660844,0.6545874930855226,2.8388613104868803,1.977388592646721,0.8872917689496483,0.44155975632816186,0.5883313578629602,1.4437822409925185,0.78050525589339,0.40464349976370234,0.9191794371355346
299,0.9139931028498254,-0.05060407319387139,-0.08501315476005461,1.055452312821344,1.0167567492340006,0.6847488133021276,2.484636536480894,1.4734655053052101,0.739798349404591,0.4396110046484456,0.6068309995095971,1.1899238071187008,0.6301665518774161,0.3694637120358828,0.9214179429281866
300,1.397421600534009,-0.10255452099807594,-0.26518802384131734,1.0083878614150767,0.9719878110371637,0.7949484990080052,3.4074393460545607,2.830347031905865,1.5165359157657217,1.077368703329851,0.6468212168108125,1.8323731521133522,1.3326986440114243,0.8659850268614057,0.8897490543830431
301,1.721913536244022,-0.04816750384091728,-0.8239230819530604,0.9916944368217576,0.9673810287487677,0.7323488389193313,3.2863635571447354,3.663618953245727,1.8945342596762818,1.1063677099318772,0.62595550513784,1.9302555464819802,1.5190822105081103,0.6510248775575734,0.9312197458708856
302,1.9821997961972317,-0.3769255099838694,-0.241419068662787,1.3121888522654035,1.296161539717841,0.8280517966492575,3.6148331540681333,4.9514549772713945,1.814815231510355,3.2510434438308087,0.6207552362147116,1.6369804154405014,1.4626319886008816,2.309015983324336,0.9368958907049809
303,1.7449706447735551,-0.2711757233531815,-0.2695889742355916,1.2550311936425116,1.2365395519684759,0.7811390393990799,3.9936975737946443,4.212330010077267,1.335883663422779,1.0603492482465608,0.6602640781246099,1.6077726331150393,1.1471944877749225,0.9058649206688185,0.9482507616984136
304,1.9744534023742917,-0.1801918021004425,-0.6134882207564145,1.0252825037178346,1.0087580454801806,0.6603241811772208,3.9684270715848644,4.686526612582259,2.1163088494973015,1.8834148138303168,0.6180765742263259,1.6643635267096162,1.9155618762363633,1.7708555331377978,0.9504093174607169
305,1.3004752365705323,0.015917881770247555,-0.3212034310271293,0.8874595802994564,0.8737942435533909,0.5359466274280739,2.9168828938943068,3.0701321158130837,1.6988455169308536,1.9241579507471676,0.6233814453054027,1.3544512228204617,1.2942300464749152,1.0504730127596578,0.9482212789532652
306,2.1435031104415634,-0.49105911570808813,-0.2674643559026599,1.224563039719425,1.227561579475032,0.790314854665382,3.584817374066667,5.071814387724247,1.4757766060611146,2.190812214763498,0.6403206450210053,1.7717607827213657,1.1946284615987146,1.6081439722061208,0.9330324237899361
307,1.5282438817687958,-0.4053768060852791,-0.19674619758793357,1.0981805007905552,1.0906016110288153,0.7056195855335167,3.7013532321753844,3.595143753986302,0.8336996150116004,0.7881954925985079,0.6153451465759925,1.3137876703331426,0.7084757046154146,0.5307793706064129,0.9311375474320893
308,1.8819469112479854,-0.36441421418524256,-0.4820705366674305,0.9765934690496241,0.9538387183432037,0.6718172124092562,3.6289138423365235,4.746270916821269,2.1542924673097485,2.1294014014747633,0.6380535849069913,1.703321332766178,1.6859474780307036,1.4672158034721159,0.9366242890050147
309,1.5652809239620942,-0.16380349105481873,-0.3651769529397232,1.0081546030359225,0.9778110053445354,0.7514871945731604,3.73787423907463,4.417455424444693,1.3924697512784405,2.104819362490081,0.5604843169999094,1.6624871335239157,1.2280846443749158,1.365507707508835,0.9132967717333668
310,1.1565321412975098,-0.2881722351889942,-0.12228975129902309,0.8389315517705693,0.8360030147009784,0.6869388133500961,2.9936964661282612,2.6387365872784114,0.5992928240731051,0.4742759342835237,0.6008849035917525,1.056926667181003,0.5080160053665462,0.3249442746784481,0.9308505408160554
311,1.8517005866214633,-0.41234735720792237,-0.2889894176944319,0.8499164044318226,0.8399853518151871,0.6914749607117514,3.5613142141980547,3.1010311621877227,1.1624599911390086,1.0362940961897031,0.6125606311107803,1.510648942159313,0.9403072682591399,0.8354254968151211,0.9276743121037694
312,1.357617769759243,-0.30189663215483753,-0.1886721922597655,1.0831983572257575,1.0751458154339528,0.8031977392993732,3.4082261262367344,3.032660305030471,0.8942775284681186,0.6190210425487475,0.6153451465759925,1.4569075922998842,0.798793914795311,0.5015389381977866,0.9195144042979718
313,1.6248368004977234,-0.2501877969804215,-0.3147743652467075,1.1968264134845423,1.1916989488590397,0.7823117238592472,3.5033528030301864,2.894711623233178,1.2320162088070927,0.8151068083653895,0.5915533975974677,1.730288147139954,1.1206706083993758,0.7401892100812715,0.8982194431559377
314,1.649501161257539,-0.21908469871895886,-0.39786151804601266,1.0159555228313168,1.0016945530018182,0.7013141447048965,3.864823206263368,3.6359983785130296,1.8646550009754157,1.2474715763618862,0.6180765742263259,1.87188551370734,1.6704914814175948,1.1036151853834117,0.9479212301444997
315,1.7800918740466751,-0.153747927286483,-0.37455957982618676,1.0070802627773252,0.9960012136803058,0.6789958907361566,4.111558732221432,3.8032492888144915,1.5958350141535724,1.5617147593169591,0.6309483474627791,1.803697106801098,1.362428152681574,1.2906249213871461,0.9524973587708333
316,1.912612567335703,-0.531058968734673,-0.28656879944365354,1.3097511591610993,1.2690056469759763,0.8150341856091202,4.114091132694056,2.952629443201384,1.5731085921711416,1.3166580472344822,0.6528756675646988,1.732484777765583,1.3870486037703547,0.9701553691499691,0.9353118117687435
317,1.3023743462623116,-0.1221135136768699,-0.19192728924477664,0.9186022972086729,0.8903060615570406,0.6464667677924182,3.2168533939826007,3.0224820510146992,1.348607080275579,1.1677256736302053,0.6468212168108125,1.4975984306785648,1.1913029515848843,0.8681703861778125,0.9468405183614951
318,1.5396322352778538,-0.0781066328375788,-0.27265365312348083,1.1459354957725842,1.1546765813825517,0.8045615584802439,3.233930486820688,4.428776409004358,1.3959042437775966,1.179191470373935,0.6233814453054027,1.5390830059750893,1.18103977636139,0.8134637873714217,0.9467028013056318
319,2.3168668500050402,-0.3415896748145141,-0.44219604550631453,1.1723345251055437,1.1302493613064521,0.736270582198123,3.3284272647670625,3.5353395757576536,1.9805292475825869,1.4326235258071824,0.6038851895711802,1.8030900855704395,1.7206516488498096,1.1107428392366174,0.9518282507764816
320,2.63803619985851,-0.44849830678318026,-0.593784780015083,0.8467049444282702,0.836779367833316,0.6021349664965483,3.777791649542152,5.239685528737393,2.174463290660946,1.8089054328303247,0.6425374456860184,2.0126555480017854,2.0102990181336424,1.875222046548997,0.9550410830485476
321,1.7275416148149856,-0.2614417894629063,-0.32041177068868787,1.0178942469952732,1.0020026610707018,0.684575366017897,3.135024404111141,2.8470109284621623,1.1594605613639821,1.1590070924764184,0.6547956803312163,1.316105168473505,0.9559507194857177,0.7578078487555409,0.9505016161369686
322,1.3382252955711453,-0.27014747509216996,-0.11143238392700733,1.0139316830345186,1.0024360191689956,0.7043667804158914,3.5157083262579483,3.076403615443325,0.9628628616990834,0.5773551435186969,0.663668482632973,1.531088946023124,0.8247797247526933,0.49759273310025026,0.9505977856426613
323,1.0118239046644808,-0.22137555980852835,-0.12921855067852778,1.0126657076213565,0.997432359839818,0.7560385217631326,2.2989332351502534,1.7203377128466188,0.4632146325510498,0.2406265083585843,0.6207552362147116,1.0224540388184964,0.4046160215969936,0.1850380805744893,0.9483671984536339
324,1.5814871976743028,-0.15904772394076083,-0.32952768313762726,1.0503564153612845,1.0080893217767828,0.7251856604621928,3.747994514869988,4.206687262684831,1.6856208731663875,1.5735811543720808,0.6584896970785714,1.8773173575897015,1.5212169066529702,1.0942997923511681,0.9103748578751054
325,1.4011855604853811,-0.22663784729516928,-0.1557212968649762,1.2059795236959205,1.1886164620544024,0.8673512022801884,3.4579457608950745,2.909383482262999,1.1363646772918885,0.9043946395160266,0.6068309995095971,1.8085665875444363,0.9722335339224376,0.6556790743399215,0.8798068305122143
326,1.5724147353600595,-0.3311848163638581,-0.25759939020637623,1.1578013173740354,1.1271515896271855,0.7678464380282636,3.599250583417474,2.8715230586266522,1.168412520180817,1.3279080428290473,0.6468212168108125,1.6021313372516623,0.9981113445496698,0.9784877399229809,0.8803941437957316
327,0.8241063935167269,0.03767286499742406,-0.09021153966186102,0.6331391030015108,0.6057675093549151,0.5608593194894007,2.6913437019383593,2.0718034477892786,0.8431873752034442,1.0144770277700799,0.6566669596287297,1.0066106062132727,0.675935778041466,0.6923704814917732,0.8773819066564782
328,1.0809285044926444,-0.055049817177841076,-0.21005470449781355,1.1296879003833664,1.1130726114527132,0.6869678193956821,2.7161798568960003,2.260951693908406,1.166120082975491,1.0000800519351298,0.6233814453054027,1.1766459048072102,0.9615553320795482,0.76829990293929,0.9402238023153737
329,1.3572557003204138,-0.1592543189220279,-0.15066415408205808,0.8213670838107473,0.8055564586688212,0.6349393465008908,2.5523414485135265,2.090173312739862,1.245547964769577,1.7551668436074963,0.6333676938231112,1.2396383630548926,1.0370624157831234,1.1938466809589325,0.9474327855597041
330,0.7403789056848012,-0.12964850307192805,0.025315108957391808,0.9086444305240053,0.9018686252981339,0.6469913557741436,2.522175481860848,2.1039508632041337,0.4375728997418924,0.4668535717828465,0.6097226960127671,0.8276441185384728,0.3150593916426037,0.24519213230578793,0.9229166346348864
331,1.4385061082762103,-0.19739903743489273,-0.07285298516541128,1.1576808127825078,1.1293163863977358,0.767666955434136,2.709242008099574,2.2002034530505683,1.1724853431309545,1.1514302213338052,0.6125606311107803,1.358722428916903,0.9086027760988055,0.6753930332526654,0.9491969935832361
332,1.8039523406236082,-0.31756864040081767,-0.37059215467210227,0.9582664823267385,0.9293233345433002,0.6561139398148013,2.3474490391967535,2.021895277961261,1.7373938359113104,1.6380445524956815,0.6125606311107803,1.7804239595643094,1.506552278007823,1.2422622434489448,0.9451452960247438
333,0.7332383280380654,-0.1285371107493063,-0.07764784753947711,0.9042776707899043,0.8855249359831062,0.7134640805790776,3.4526500075772932,3.071825728790525,0.7769258455503628,0.6488798875278796,0.6447042257417027,1.1811609113032688,0.6842450980930846,0.5125014680653119,0.8818985434376653
334,0.8745014176257399,-0.10438598827545187,-0.05408013285902663,0.8663554088251975,0.8460666102301986,0.6902717901055778,2.579088731347136,2.808385070462513,0.9925101459064769,1.1706197527193496,0.6380535849069913,1.065693441911,0.828467960935136,0.8538431137631065,0.9232043976239639
335,1.580347038117484,-0.26962424266103774,-0.12545143882273657,1.2867570217707753,1.2796920510883976,0.8482547351087786,3.914482561251335,1.8178552069709348,1.3876093668122378,0.910880048933463,0.6309483474627791,1.6543771675474912,1.1269608293245512,0.6475732233576289,0.9497249230740477
336,1.4693381959500016,-0.20772452683442522,-0.11566399915123758,1.167764375710883,1.1775583783816035,0.7617743389109844,3.8363342266880114,2.1731247227194306,1.560745203252587,1.4709282187740123,0.6333676938231112,1.9167937315986312,1.1720289650213718,1.217890343748349,0.9406532306253647
337,1.3311014054756873,-0.1430445246035073,-0.14624713528917738,0.9801633365867589,0.9389825792241706,0.7169701364664017,4.04083223450746,4.239328547273255,1.3897080787430363,1.2590556150072898,0.6528756675646988,1.7005181621311123,1.2129175353636044,0.9529767966813774,0.874440394559468
338,1.2402430043567347,-0.1418111164362693,-0.10794033108512635,1.1663492836474032,1.1525196045707156,0.7484236524479432,4.106946907326197,4.867014807477001,1.758686382630071,2.4878219347168784,0.6509067234006624,1.8149598623984906,1.5932621342006292,1.569623474674145,0.8760710613227004
339,1.9753754959772176,-0.39808302426481557,-0.18348511183394786,1.2212229233221077,1.2190812727108296,0.7784679954163518,4.325350620193029,8.453063420939106,2.350160209306759,5.3036869168648035,0.6447042257417027,1.794429697783934,2.030906057252007,4.181031812614306,0.9387147887957527
340,1.2755579781903195,-0.16567537784707703,-0.09177402403281923,0.9659218507232933,0.9536305794172615,0.6557670118256932,3.5595243418263176,3.586626225207866,1.099212152786164,1.038096970397439,0.6652988471865258,1.463703502638001,0.891579379356494,0.7399014705311563,0.9486695454599375
341,1.3067660667391345,-0.16858697116674637,-0.1571918125865357,0.9417374288028028,0.9397233420978022,0.6007150443411516,2.8218395475500393,1.969337079988522,1.0970871109600309,1.0915181814672001,0.6602640781246099,1.3660560988788994,0.8663812342130646,0.676098395431872,0.8912485641059286
342,1.9095729548705596,-0.40894559263567204,-0.16379896249447345,1.209407161915998,1.1983737053196852,0.7868669764954513,4.387299489890718,5.379642637899052,2.303083694433459,4.132977929753058,0.6584896970785714,1.8226311328951421,1.9089238843883722,3.281560777356449,0.9394754458144047
343,1.744440513377118,-0.3355990038430534,-0.20863209840776495,1.0241278272094485,1.01483716364549,0.708865288499349,4.307400788204516,4.023839436566796,1.8533520288463128,1.8639251170354387,0.6357360191111145,1.886949656231804,1.597267081150444,1.388106940916496,0.9455954609290496
344,1.5994195471546293,-0.18019271622529842,-0.17892895472148523,1.1972301049345124,1.1655446277593968,0.7734024672661359,3.724030831252282,3.071886195687377,1.7004789620883076,1.5510425957674638,0.6425374456860184,1.881173730833995,1.4601836504721433,1.2505675779319323,0.9150448429102869
345,1.5050603760164052,-0.2310900337366425,-0.1269405499953924,1.0829336734081638,1.0607513631085141,0.795759331321709,3.8747919693053916,3.392516671177529,1.448703111278748,1.5649557735070145,0.6233814453054027,1.7752301672768445,1.2710938923932067,1.2327449439623146,0.9245763428046377
346,1.4589247587045764,-0.18493416272873997,-0.33742743116765367,0.7458863364590217,0.7305486087994387,0.5182137273513305,2.795003529133806,2.300585203868617,1.2595115362062832,1.195983744091866,0.6207552362147116,1.4956133183641447,1.0578577232927397,0.826291059285206,0.9497309068498481
347,0.7921625079358635,-0.034704206445534236,-0.1525547268029761,1.079793626208812,1.072043270852087,0.5862207135660732,1.68784348292429,0.9847479809026529,0.45678531111233445,0.32410778038707394,0.6153451465759925,0.7057147110720188,0.3632093338942661,0.2036052181519691,0.948614296781308
348,0.6923136044844602,-0.08267937183824042,-0.08863109431292585,0.9050301522674532,0.9034454960134556,0.6312958968665581,2.1717138970932814,1.5803396904834663,0.26049405344023285,0.1693878685133671,0.6584896970785714,0.7204955387451206,0.21596955617705463,0.11615458989546155,0.9483273853609814
349,0.9347995641038733,-0.021754770906688314,-0.08349041526262163,1.036288829479683,1.025836331489188,0.7490610070548089,3.02356547318122,4.114054367421865,1.190941627099998,1.379890176695871,0.6097226960127671,1.3914632524071398,0.959262215914841,1.1802010200149589,0.9527736501772025
350,1.986371984210331,-0.5335792351979607,-0.30116434983384244,1.0554519448248099,1.0441134639494436,0.7518848429991483,3.968886927220143,3.584069345883605,1.211672129068257,1.2902459296455218,0.6468212168108125,1.5924715475388693,1.033077432051597,0.8178602508809985,0.8911466940088616
351,1.7585821782289124,-0.301043664515357,-0.3801078428339508,1.1590071602107233,1.1463807799453798,0.7642706196454533,3.9608515283738366,3.9828979331029397,1.862378648924733,2.6616847709392144,0.5748741956352443,1.9003102535708607,1.5382429146350636,1.378710732909792,0.9543393434133434
352,1.4463568512908478,-0.1518170292093317,-0.3053231872835508,0.928600745128804,0.9004913448691808,0.6864018950907937,3.4641380852109966,3.0996512379981978,1.2312106627184949,1.0453920992626529,0.6447042257417027,1.5267320873410803,1.0663538619606088,0.7351708079587513,0.9466865483929059
353,1.82596459073344,-0.23840591602970196,-0.26520061967174136,1.1294282005253207,1.0950514302406558,0.8063703638137321,3.6569617641748446,4.098181888571876,1.883680241440937,1.3614031639474886,0.6357360191111145,1.881903019081021,1.566735437181271,1.0816304215526817,0.9420331258276962
354,2.090353712593524,-0.3478993531307052,-0.20465799698303186,1.2776340771556296,1.2750970621414512,0.8171889507219393,4.431121801916704,5.035597865882993,1.992405679066343,3.766341072665083,0.6468212168108125,1.9218681545750753,1.733791461658717,1.4828090493723483,0.9498315042180567
355,1.2172703182803197,-0.22630786251545407,-0.06563894457801117,1.3133866003811001,1.3320713072737305,0.8382094267159234,3.5892910927057673,2.4503287470133515,0.6942129195184158,0.6132830543413751,0.6068309995095971,1.5123616163639717,0.6077167517955941,0.3769008628627039,0.9432218022261218
356,0.8369607598550354,-0.051269808731702005,-0.06476919352723765,1.099603306727445,1.1004165149704017,0.6480202278703671,2.1256690521269723,1.6477757199028984,0.49503189557921634,0.4358557033723262,0.648888643467878,0.8273645226797536,0.4032565089087217,0.28118616324974005,0.9559785730205282
357,1.466045181353301,-0.30172465957867356,-0.22191202269446364,0.5908602591964015,0.589978704177348,0.43903627036894766,2.160558465445661,1.7466678937540152,0.9795939705529505,0.8999159004088234,0.585052858160615,1.0874086181607845,0.8084528996677899,0.7485881018640409,0.943273666185683
358,0.730205487769258,-0.10294853327553832,-0.03406045105221339,0.8627192811323325,0.8460023534504657,0.6264778082746137,2.46380767065972,1.4760161686149682,0.4264005381298353,0.3900503673751788,0.6284777104787076,0.8289159949818053,0.38566846993872517,0.30227426622047676,0.930154805846072
359,1.2790934468031472,-0.08552969363544449,-0.24044198443408904,0.710388074128614,0.6976800485862672,0.6686840252899133,2.291673537838878,1.5667067385958853,0.9854597803584184,0.8042056382140698,0.6425374456860184,1.1809799191035386,0.8126509661631864,0.6078095807772267,0.9564667850637968
360,1.8819053337769291,-0.4839025373688126,-0.2893656097434954,1.1600767648024604,1.1617998319396963,0.7491283608858925,3.46549156163151,1.9700677773031794,1.4286932967679922,1.0572656415474437,0.6841113288387766,1.8148234088266066,1.2432571934956673,0.7914893884593224,0.9420907424184917
361,1.3992444180293502,-0.2072788479858867,-0.27069280314453614,1.022128616573972,0.9776871532798167,0.7290209702333325,3.299962680565511,2.1021780975661546,1.127506876508996,0.8206524810032976,0.6097226960127671,1.4510580928006378,0.9944996469234513,0.7140015079876922,0.9297992852475533
362,1.8763114583661142,-0.4648098900838935,-0.2747539353343079,1.0375983451592967,1.017159687634196,0.6685421891506392,3.7086147681930766,3.6566737453805955,1.5472351292237876,1.025859718056397,0.62595550513784,1.8712356707298516,1.3738130284423724,0.8075143290349217,0.9323406554871936
363,1.7605348591635204,-0.1519754065370244,-0.2478378586658545,1.0976225919016749,1.084255610445674,0.7067261532653838,4.578350368273652,6.78830681377761,2.2156802582724806,,0.6566669596287297,2.0415892858047706,2.1813465107903167,3.0102418828216777,0.9331266058674306
364,0.6449994112521347,-0.07013316858903489,-0.037025474584344395,1.1236786138746742,1.11588339287289,0.7750182972887057,4.335826769661974,4.145808006267557,1.2998143327546396,1.2512362027295694,0.6566669596287297,1.449873342762762,1.1366969608017383,1.1765538841913359,0.9507157752232066
365,1.2296251926285258,-0.18444377889427885,0.0,1.2338911999970645,1.225417929881066,0.7325399863149827,7.277198964715416,148.09690766661876,,,0.6125606311107803,2.300143631344061,inf,,0.9158633216328991
366,1.880693753864239,-0.4380160956307612,-0.215935606438573,1.0854339913591402,1.0571598419982116,0.7372126273889449,3.8306725145237985,5.517251491904949,1.6907092369131538,1.804512796468741,0.6284777104787076,1.601855619694979,1.2045427044250072,0.9873479403837874,0.9270978751605916
367,1.7866007388983836,-0.16103056590969922,-0.5534828133630594,1.0958499140270643,1.081939859757286,0.6950205096939678,3.6664728054071327,5.499704221008345,2.0015120781555287,2.264786172185438,0.6602640781246099,1.5749291377482253,1.6789983251788942,1.6644325550599655,0.9060557419200588
368,2.192661352161256,-0.4419536034638617,-0.09953768976706703,1.271623969434118,1.2656124196299976,0.7174060127494913,4.52282683528745,6.167836900799526,4.807701461536447,,0.6380535849069913,2.2891205920407565,3.947960362233494,4.071871706370042,0.949461363565473
369,2.072115815203845,-0.30227699970329125,-0.2611236624264515,0.7051632943856732,0.6936737394853479,0.5112685680343407,4.189260260042862,10.53726612075945,5.854946012071836,,0.6233814453054027,2.0195806100933757,5.581321849448707,3.1135153092103742,0.9398172185922489
370,1.1402412297323896,-0.01724285910207246,-0.35476230847869084,0.7659632515930657,0.7727484024066944,0.4356499656875495,2.8831004758765464,4.43394094582165,1.1753516026570037,1.100346643403146,0.5783247308855777,1.0391805348986978,0.8235738084869819,0.747262117445165,0.9405375406700945
371,1.1346090066990433,-0.16759768641918688,-0.11184725987865107,0.6525791578404966,0.6400836201914368,0.5551621358872953,2.921578182041009,4.070275814486094,1.1872446659414053,1.6289096308417583,0.6528756675646988,1.141415410993419,0.8655194398996688,0.8800426739350613,0.9319494768104984
372,3.093481734880651,-0.8746065853918332,-0.49683698373858887,1.4602183348169777,1.4884785833259946,0.7530623616229898,2.95032038771572,5.590363905126325,3.6636153574242964,,0.6380535849069913,2.4142618102186684,3.4718422212314874,inf,0.8880180496647115
373,1.8446851058738167,-0.4940875024949001,-0.3135622646955205,0.49399387022136393,0.4283177450047381,0.41049354858072346,3.2426555100991172,5.3402415197852315,1.2631523319754685,1.3972032762649145,0.6008849035917525,1.2693215301338983,0.9364393782246074,0.7986758058256316,0.9378921134977483
374,1.3889696277509858,-0.37161170876722677,-0.14706687562615933,0.7315695908299221,0.7192723327992698,0.5415153805051193,2.7120968641882364,1.5728793855040566,0.5563420508723553,0.4268318969815624,0.6528756675646988,1.0691182134404071,0.4432938201259246,0.2810822729554399,0.9257779643025998
375,0.663501256146529,-0.02218521458159195,-0.06492642788388536,0.6800531490338352,0.6560205630822485,0.5143309755139218,2.8287507854689973,1.9385120213708515,0.6456939253596388,0.6222737353685052,0.6357360191111145,0.9876972280969545,0.4756701804315327,0.40902383072515835,0.95112735958744
376,0.8530364837297095,-0.13417663578670602,-0.07285657992634878,1.11051421086992,1.1022120234282138,0.7200472049642056,3.0999108257191748,2.658759808849851,0.6916718689692047,0.7388627708634824,0.6357360191111145,1.058750755242979,0.5307211445502436,0.4215221042523268,0.9390451807127335
377,0.7797590762182034,-0.12031530341000801,-0.18679532175870223,0.6976654924574224,0.6826890880080254,0.46268778380050807,2.415807389247429,1.9683251894422473,0.5945252883545872,0.5495495240348628,0.6778444222523095,0.786603524225271,0.3545335968578398,0.1843339451466895,0.952946937534826
378,1.6509587516794535,-0.3465190673070339,-0.2356923810386989,0.9262043753279076,0.9231109327168794,0.7037522095667027,4.024532204835717,2.489887565598205,1.1680496028378808,0.8091989457559264,0.6447042257417027,1.516301811398997,1.0041629337897173,0.44786855417716226,0.9113653723664885
379,1.4647925037431717,-0.23148834750921565,-0.1595113277141691,1.2544058110657703,1.2424874820940486,0.8269267668714202,4.0329181357964945,3.728481944815724,1.489473702034719,1.5376672099185502,0.6566669596287297,1.7781195835240202,1.2806708259971078,1.1840541610194166,0.9459375359090653
380,1.6901371260396438,-0.4142102054581555,-0.20837712065961445,1.0785312255026183,1.0494609381253182,0.8035950656791108,3.9931343396385346,3.4371502002514442,1.695305947933246,1.5020464921893937,0.6380535849069913,1.733805075967499,1.4073384003603495,1.1315306214186693,0.9184647153961926
381,1.1931974903762386,-0.056315206755117586,-0.19337343470814589,0.6716735128572616,0.665539782874173,0.6297911669288535,3.3917035820194594,3.0135468469351876,1.25691325831708,1.0984706472089019,0.6566669596287297,1.4761218207629425,1.0981261910501383,0.873342409418785,0.934980526193661
382,2.0538999830143387,-0.671720637857682,-0.15057845671532297,1.1565777575216036,1.1694716978951927,0.7951863618389949,3.79607684487126,2.8181596144929677,1.383986645462302,1.3315699694753511,0.6684167106117298,1.6819488698966174,1.1600137487918598,1.0829205024692736,0.9512252407993221
383,1.9488830389567477,-0.45039260392559677,-0.34500133208670714,1.0206380926306011,1.0037288039702785,0.7448183929350131,3.9351640711118683,4.373451479163144,1.8433972957878224,2.3222297420203515,0.5641709578113449,1.7647281301770246,1.7004745814610431,2.0959234626166103,0.9363301309693004
384,1.2089184218337725,-0.24361886750730133,-0.18317777000368862,0.9809053271166186,0.9815964305137777,0.6881111650645221,3.156339073103933,2.6666924157182397,0.7636280864137561,0.5639140809496793,0.6207552362147116,1.1415893815232503,0.6384391648291061,0.39690332771610065,0.9367834365459687
385,1.7296412265982348,-0.3313566927038325,-0.25629682193295583,0.9072147862544906,0.8953748097717994,0.7277004271866777,3.69008985143066,2.69688348518298,1.4569606843126355,1.0142743120402993,0.5748741956352443,1.6652442994978316,1.326938724545018,0.9159586346773242,0.9425599122347021
386,1.6106958687698294,-0.23393623698351862,-0.3100682204356082,1.3214572902407833,1.3093060329741406,0.8117243846302725,4.391953545339092,6.2907650188181075,1.8274354782988895,2.551554927544043,0.6357360191111145,1.7370819079373592,1.5591550380883095,2.2252239718365776,0.9406524873520119
387,1.3360177073589152,-0.29860635459643414,-0.1621703163951529,0.7990379925675888,0.7868311208048314,0.6567735407564195,2.873390464118568,1.6166658540079633,0.7915574942040506,0.6476454005034553,0.6357360191111145,1.3536335788803424,0.6277540756574403,0.41319090242635353,0.9487070955103583
388,1.7293335931923361,-0.3878966572782102,-0.22933942068050367,1.1272086090960396,1.1284269481560718,0.8181962139460567,4.0660991847989205,4.047141935313152,1.4057047252202417,1.5435026834964038,0.6309483474627791,1.7056429369369897,1.2466042246772624,1.171182981502945,0.9384626665016651
389,1.6204517260072977,-0.3650424078510165,-0.2929722581678877,0.9212448386736836,0.9074171234705398,0.5616154685328447,3.1999442001670655,2.8727927494906282,1.0366935423538848,1.092812610230796,0.5978297680564633,1.2717362731080222,0.8453840599865358,0.7388499980842743,0.9588236250849039
390,1.8861534113325304,-0.40568900317739665,-0.23418806833074146,1.1712864902254692,1.15732010357621,0.7538175484883504,3.6151537769931714,4.356872869478233,1.2017923859057633,1.680032725369641,0.6425374456860184,1.6066085854239407,1.0025016678233658,1.0444020570293386,0.9403195909631338
391,2.5619536107771985,-0.6388508023164392,-0.37079094053107114,1.3406987956027752,1.3327705587653789,0.7929518728035803,3.8238150234437964,3.8983516140914176,1.838905980853787,2.332064575800984,0.6447042257417027,1.8808821643912268,1.6797018027823873,2.1736577149672955,0.9225891561919386
392,1.156142545749702,-0.19720580250409345,-0.13270797772982174,1.029318965319693,1.0062713309134992,0.6933892110048953,3.954286125524997,5.054409232733661,1.5028817059425932,1.5100176595943504,0.6668815377411301,1.6290172313321232,1.2393973592119993,0.8961467232075618,0.9485952066241463
393,2.295861759347437,-0.45530832786051606,-0.21571266073025624,0.8605773701243218,0.8511565187837853,0.567316125665289,4.162782307930866,5.074103347134378,3.026895620702723,3.414662877486186,0.6584896970785714,2.062256716925735,2.3605919122684016,1.4513268313907453,0.9387087561814124
394,1.5624520943344593,-0.2375299274661854,-0.13177467976700824,0.7954858891459214,0.780506017160212,0.6461200211213338,4.068458905899461,4.010370629818526,1.5772865119856117,0.9193586455397983,0.6207552362147116,1.7243500729988008,1.4294665329850993,0.7961390536128959,0.9437284487100057
395,1.8294543021594658,-0.21488005075326932,-0.2843475714810444,1.1859100873909658,1.1734438935656626,0.7322995645552666,3.786096224312042,3.2392541823376835,4.41232237124644,,0.6447042257417027,1.9712849387200084,3.363235476491989,6.073044534100405,0.9363018801057078
396,1.154628527107503,-0.09705173975231263,-0.17926856985316117,0.7631533366277921,0.7442770751575483,0.5967051939383062,4.838108525793329,12.439210274964939,2.458449261169995,5.77866228787806,0.6602640781246099,1.7707810628428633,2.1631467779733327,1.988840175005551,0.9229522836364029
397,1.7186145089171538,-0.17823090857351537,-0.10820484291267697,1.255246184340551,1.2602605340596977,0.7522185540429726,5.097847860160237,54.30960630482234,2.60680268529458,,0.6668815377411301,2.4072051421241483,2.5869008500208968,inf,0.9471283896311002
398,2.189586354690951,-0.3675511013425735,-0.24528275178296077,1.2289720369974124,1.2130741948055654,0.7974747908130985,4.81177189377323,6.726618133561926,2.6967640954849865,6.761793037878065,0.6425374456860184,1.935629839647757,2.313421112335325,5.079072455649484,0.947719711228925
399,2.341704931546838,-0.3873788278836849,-0.2529153628225429,1.018126162363267,1.0120832761648972,0.719439790031807,4.380108221937408,6.993602164292635,1.5813715000642032,3.9727826136695703,0.6528756675646988,1.9898852575669768,1.3997129882518267,3.0006868666786746,0.9312978029856794
400,0.9674288604784768,-0.1285016293723697,-0.03990770778899401,1.0503991695018624,1.0198286524069733,0.7374520193150653,3.646713060885686,5.838094545128246,1.1718331027448141,1.3075397567871865,0.6602640781246099,1.7516417226321659,0.8558092799139284,1.0048790177641354,0.9335153931768961
401,1.2471853042639653,-0.14803632103248704,-0.009467324706351185,1.3357916792960778,1.3675915159665362,0.866369137687124,4.572422397676441,5.631530149987919,1.6743651323923405,0.6600707576387641,0.6602640781246099,2.1341558858692364,1.0939288780842742,0.4778278227166662,0.9493071880066992
402,1.0688972601633404,-0.10289474826564479,-0.09376546814766687,1.0582990710170344,1.0629256854360067,0.7319010401837894,4.031127900402923,7.1699552293699655,1.3337456828664094,1.400190517974428,0.6068309995095971,1.870153536656067,1.2242947098370818,1.0317310392489705,0.9460394410281792
403,1.4262975512166518,-0.1773549273040254,-0.18688043039451183,0.8402318061407654,0.8249707895893851,0.6411177894563964,4.3774335435992215,4.171639400789562,1.1877579065042998,1.1718387930994663,0.6425374456860184,1.844668102661235,1.0861090698699685,0.8654400593775775,0.9264818362536833
404,2.3371405808166696,-0.6351408804097914,-0.19800232955832353,0.8983237897699498,0.8898649341628804,0.6725306464653232,4.332169253616579,5.31191764735211,1.215294384023221,1.0536721616232663,0.6727386042041725,1.736892567787215,0.9842428728636506,0.7006048422426192,0.9457848833917928
405,2.306946654455157,-0.3682769003562112,-0.330101165529706,1.02775109988821,1.0224736274805823,0.6350201086188975,4.2597038441007165,6.657092465905523,2.4265333204742343,0.802798402974327,0.6380535849069913,2.020669615436602,1.856415338630264,1.3218899691489079,0.9538915213803337
406,2.5429064960686785,-0.48248647061457395,-0.11305695724197257,1.4617227423683294,1.4489323685319433,0.8393615247012299,4.158033961492697,2.7810610458340532,2.2017189301634192,0.8871177022515325,0.6333676938231112,2.2163054651490115,2.1095508980578157,0.8240409982229363,0.9399111428640183
407,1.7049211443724108,-0.34480593140956284,-0.3365343186379935,1.0826845422829214,1.0767871122271169,0.7324177836995989,4.045151585647098,3.8542645908282243,1.669077041610733,2.373202022318152,0.5915533975974677,1.7912262780663963,1.4760231310860203,1.6094379124341003,0.9368952643958762
408,2.7807673870614233,-0.7820080950794234,-0.7076685152140444,1.2641285936532554,1.2807068765032885,0.6524936516423815,3.6567152802441845,6.048293405434963,2.7311828121506063,5.210045539083661,0.6547956803312163,2.354346333108432,2.409428883056298,4.564348191467836,0.9193108596841932
409,2.3640259319685155,-0.41307355422268444,-0.09693937931715457,1.2336447558474792,1.2244464538507591,0.7717189947996598,4.226623268956949,7.032831016078465,6.553055463879435,2.4782064760174363,0.6233814453054027,2.362925033113938,5.8665860858505186,2.0794415416798357,0.9268988489029867
410,1.999598218162923,-0.4355670312696196,-0.04754075714377744,1.4727976537653737,1.4606826164657247,0.8144888528645023,3.6349866716853656,8.02099574141409,3.9778040082846666,,0.62595550513784,2.1148154410955016,3.53384773433962,5.065754593317335,0.9026000777996549
411,2.522175307251091,-0.45977353401548965,-0.15768788100930553,1.2591252188727935,1.2541218351100787,0.7509624529362517,3.1867069895150015,4.818899146124297,3.2361614653072164,4.23606439356981,0.6207552362147116,2.3125232016996824,3.144399195024993,3.38569319512619,0.941921556364667
412,2.7941130029297168,-0.363130301031822,-0.4147350481328034,1.0311163716996357,0.9886602843927356,0.699246682769241,3.2364604753161657,2.501356909950466,2.1964197228122413,2.789457294841913,0.6309483474627791,2.0775766150703237,1.8569192462098811,2.5102244577722903,0.9495118983447737
413,1.6576932278529872,-0.15563537021378337,-0.3412798233939661,1.039675925926594,1.0238323959420197,0.6967081748651653,3.642394164391198,4.930167926420643,2.067318699517751,2.5217472843007247,0.6180765742263259,1.5528475611457033,1.6429629907915013,1.8181636434245658,0.9512842416065096
414,2.063882755006878,0.32225216023849756,-0.5052513687048552,0.8831403436058858,0.8756206319633155,0.3702428248674229,2.8288204289521497,4.172321744982439,2.1254353714665,1.8435740095189177,0.6403206450210053,1.6983298444381936,1.5895388519169584,1.3084518743559568,0.9436827619417003
415,3.6812601402565077,-1.012121568070755,-0.4820783715952153,0.6738463811997029,0.6546418711674127,0.5212211485486313,3.122281452554385,4.690701223487595,3.543739230764096,5.602771621414395,0.6180765742263259,2.2476761208323177,3.416885640670602,4.356708826689592,0.9292884520752058
416,2.399309723436387,-0.29664138420347685,-0.0072711807651321915,1.5321638147917969,1.512595109455379,0.800797519912782,3.293600747115058,4.9702496773131815,6.070582104739939,,0.585052858160615,2.8453983922534336,5.035806032442808,inf,0.849966569953379
417,2.5662435576255143,-0.4362614047963374,0.0,1.774869401301701,1.791982708459297,0.8427437528088259,3.5275445943040533,7.498377506438475,,,0.5915533975974677,2.6889013822634493,inf,,0.8317362857300228
418,0.15444908703589127,-0.009781775512273114,0.0,1.7319636175740314,1.7279670494397654,0.911535263313368,3.3534954839672166,25.86818200153652,,,0.5604843169999094,2.8106367898773112,inf,,0.8615533202253052
419,0.10436196407316187,-0.0055659714172352995,0.0,1.6886919546733528,1.6804680191083192,0.8458164875778348,3.0585375305171603,17.906816382170092,,,0.62595550513784,3.0125393918703725,inf,,0.8761262978416171
420,0.0,0.0,0.0,1.7454025957642147,1.7213992284977944,0.9101964261763357,3.6416537239121594,21.873554510821844,,,0.6425374456860184,2.7593434954897607,inf,,0.8582788746189673
421,0.0002675595260318661,-2.2296627169322174e-05,0.0,1.7736243499992241,1.7589495865621863,0.9229346722579355,3.649926555882465,20.12612406353637,,,0.6309483474627791,2.485173352016545,inf,,0.8631550140723057
422,0.0,0.0,0.0,1.7774318375302764,1.7415025135769722,0.9162868002617315,3.6674005770584825,17.63370865133688,,,0.648888643467878,2.7593434954897607,inf,,0.8324293447605959
423,3.851199965492979,-0.9228985657978702,-0.7721823648187605,0.880172851625633,0.8901837576910536,0.5270348592972407,3.1682406056811216,8.530167573417476,5.425018505997131,3.706871892933744,0.6447042257417027,2.2622965740799343,5.253448077121841,2.505525936990736,0.9576948824766717
424,3.857669306422202,-1.1781523634687163,-0.13345520071483213,1.6686992307877677,1.6697169382120036,0.8054069275645024,3.4994207204527625,4.31838122064817,7.227210735277142,,0.5883313578629602,2.564238499070131,6.897416301186958,inf,0.9465652208130143
425,4.176209470493853,-1.3436511052737203,-0.07626011469418979,1.7572468205460123,1.763532796471225,0.7720713509986326,3.7619393747706873,3.8036040283922103,7.51986024172219,,0.6380535849069913,2.7824146163910726,7.238855971801439,inf,0.9517666088833832
426,3.5525240144249737,-1.0175304198455082,-0.10743551805573338,1.7019095746933544,1.710790432805157,0.767832514305506,3.7587653901998226,4.254518220865386,6.9765824315532825,,0.6309483474627791,2.4783945661727773,6.731945805803406,inf,0.9489294339923502
427,3.556513415139065,-1.0051138777603643,-0.038130057347094896,1.7237514825363847,1.724567107214308,0.7634665611807109,3.6208332657938676,8.482504144538904,8.859903850772968,,0.663668482632973,2.5409832960084056,8.17343447274405,inf,0.9556807010881124
