,acc+bvp_XAp0,acc+bvp_XAp1,acc+bvp_XAp2,acc+bvp_XCond1,acc+bvp_XCond2,acc+bvp_XDist,acc+bvp_XFuzz1,acc+bvp_XFuzz2,acc+bvp_XK2_1,acc+bvp_XK2_2,acc+bvp_XPermEn,acc+bvp_XSamp0,acc+bvp_XSamp1,acc+bvp_XSamp2,acc+bvp_XSpec
0,1.3862487443278462,-0.12615535525451527,-0.18030637419377643,0.929922273408805,0.9183429201111568,0.7222032946711826,3.2978210217973603,3.1590432502578145,1.401909330355018,1.4960276250847966,0.6097226960127671,1.5199019471232456,1.2300124580776635,1.086691960942483,0.9094048843413547
1,1.9184308202046352,-0.4978537293815306,-0.25745302519895336,0.8477269743109409,0.8387938184608787,0.5918431349705234,3.3347911929349907,3.1514079967338455,2.124431680541973,2.408309036400058,0.6153451465759925,1.7988512230418112,1.874154881915835,2.151062535573057,0.9487022910748819
2,1.488241874884676,-0.2118567202524162,-0.19321179466302796,1.0613363503982736,1.052911960207807,0.7349666948859084,2.9833391314322846,2.0640238410767306,1.0434294031529252,0.8597887850197523,0.62595550513784,1.406406369602828,0.8067443582836507,0.5294909179853505,0.9539450203428614
3,1.3009855122282432,-0.32662512486882744,-0.10113804395762604,1.095921483204284,1.0900124921569911,0.7866016086750567,2.729674779676052,1.29298571442893,0.671650816640483,0.43054618420570645,0.676637947632344,1.2655724383493652,0.5467299321100194,0.33242463791908106,0.9416051921095184
4,1.1344930499221122,-0.14384913202438288,-0.12258294761613248,0.935574531298578,0.8988855729438201,0.692823461186037,2.863447890732656,2.2149502182139895,0.6840179672407908,0.7832553351905994,0.6727386042041725,1.1492040747841699,0.5935112942649626,0.5765638542943927,0.939225141324879
5,1.3158677040571918,-0.2588750231020399,-0.21788595635533198,0.7127730034629697,0.6900999374898699,0.6455315887879679,2.487320558294419,1.8008903874543978,0.7716348155600329,0.7499542841407202,0.6447042257417027,1.1281097594571328,0.6529076132390201,0.5821437321846984,0.941464706472353
6,1.552011662923804,-0.2115686203609798,-0.2499835624859118,0.8866996015941306,0.8707782110701063,0.6777695564379845,3.226792738185697,2.0961889206566116,1.2338973246652245,1.1577840503789956,0.6468212168108125,1.3715590170761296,1.0044334388547467,0.7463113593125774,0.9196878476373139
7,1.3151954824844645,-0.05248991294437677,-0.2522853689348173,1.039588284786677,1.0057823731031879,0.7356174712096201,3.301159517997089,2.397198103227086,1.1113278772825532,0.7694099721275652,0.6602640781246099,1.5524276577173208,0.8643220254103974,0.535923100965826,0.9177925072497398
8,0.8900790960423242,-0.09599761944533403,-0.030905349717460284,0.9390021061110243,0.9187539227073528,0.7323265969028294,2.1521352195827443,1.2926501741912642,0.39467013415695706,0.21032383024209605,0.6309483474627791,1.0927296255099543,0.3427082955496318,0.17538984566356866,0.8249169650834347
9,0.974711757075129,-0.1336894817026762,-0.099348215131348,0.7857020549161492,0.7636856458891678,0.6203664803216213,2.6248341463723537,1.8794233619975307,0.5150905597846743,0.4400815235377796,0.6619902821573977,1.0290862260194995,0.45034733984401465,0.333617638832163,0.9557418410914047
10,0.38077576116774875,-0.05111301644076682,0.015836902103953887,0.5547771167219964,0.5340140640526887,0.3950035382568858,1.076858134376018,0.9013540970572025,0.14317760129322796,0.12165877731434821,0.6284777104787076,0.37911533278538234,0.1215949572395153,0.09249100757872022,0.9351842193244887
11,1.043986320523349,-0.1343737024506717,-0.11463489720473224,0.569024550103949,0.5580736955129035,0.4704496584094449,2.0987489910137174,1.654112023955796,0.5553056419296317,0.5626303160824768,0.6097226960127671,0.877524181666313,0.40497088186270586,0.3098126346416695,0.958119179534534
12,0.7581968931369911,-0.15464041073078577,-0.03099627323341833,0.49300759824685664,0.4647837533073672,0.4960447566751443,2.3430744610251417,1.6948681132849939,0.635379251631946,0.5713682206280412,0.6008849035917525,0.9458912016504458,0.5020894557739581,0.39317916209877807,0.9264104470928102
13,0.9320634460843078,-0.008193124221537396,-0.013337877915224339,0.7705899849284407,0.7277742092719962,0.6268657631025422,2.03854882384352,1.8531101350502523,0.7154864609274915,0.6797174654936827,0.6008849035917525,0.977988846344371,0.5585600905788658,0.4457255641273006,0.9442672110459187
14,0.5415108285433401,0.10101177487416169,-0.019235096007759023,0.7219030260783426,0.7187178591322303,0.45543439997104246,1.4440639857055915,1.0796111606142327,0.37426948809632876,0.2848332544750141,0.6509067234006624,0.5502596930113978,0.24130916972631114,0.18088078264331126,0.9363097490255716
15,0.48384584517169776,0.0449145841914661,0.02066975985621705,0.7849496346915067,0.7747252927100808,0.4324256043880619,1.6432502593037102,1.3940571070277028,0.3672519667181802,0.3591725198582006,0.6357360191111145,0.56702371455004,0.2798964393994439,0.2509923796043524,0.956614287448093
16,0.8014475902063931,0.2237790469719142,0.03107736783592785,0.29332241239967155,0.2862476766098071,0.28695215251810596,1.1371580349987256,1.1255917297612774,0.6094512171933809,0.6840639040186474,0.6602640781246099,0.5636210204033387,0.39714420157264574,0.3645803868568923,0.9518084958523804
17,0.9457638660274618,-0.09290851327654492,-0.13711757382705808,0.7434101488011869,0.7355372006911074,0.5126696748055397,1.8974549836217338,1.4879077194724615,0.4848972382905181,0.413705040580797,0.6125606311107803,0.7399593023457496,0.35821974685080094,0.26770284882832407,0.9532997866030188
18,0.9986099826112312,-0.1422210495850219,-0.04611035348418302,0.8055979406027415,0.8061376975477689,0.5677488606974084,1.7157290182451408,1.3156718907002012,0.4723804933885806,0.47406989352929774,0.6468212168108125,0.8326647083623349,0.3653628411039802,0.30505034697687544,0.9540851750566259
19,1.7730752792398787,-0.3864583792498924,-0.10110514969212309,1.1324717829065505,1.1382587996660525,0.6764152844419641,2.825281609905748,1.4094899085471293,1.0775724645297573,0.7499017519457225,0.6841113288387766,1.5994325775931293,0.8734137577025046,0.49268009620129133,0.9500317382279679
20,1.3254145608823222,-0.07893159463196653,-0.16124394312046925,0.8748464992715558,0.8665713333822577,0.6074211835205477,2.6750077070649736,2.4365944694316446,0.8340577067122211,0.7421002140461385,0.6333676938231112,1.146228142609773,0.724069610948765,0.5209971276061842,0.9512938893146328
21,0.8318966699966285,-0.05033955677048485,-0.08129942214380553,0.4088979922561592,0.39292875951075684,0.3494694197975308,2.471906202499078,2.0310712780331537,0.646735988852164,0.5557439854525491,0.663668482632973,0.8285597064861546,0.5086905544548135,0.4535097079540033,0.8924846602511537
22,0.9649963887121615,0.06879317330838108,-0.0661603326735436,0.5739530449389365,0.5582867783924559,0.44445311586933345,2.1840372310823426,1.9240039823403214,0.7581666688527784,0.733965142327941,0.6699045166045591,0.9364650949221753,0.59241742077307,0.4760701739938514,0.9442923397619543
23,2.3589242826655945,-0.6802334580918737,-0.2656851645450483,1.407341314590492,1.4204873777406413,0.8286639779208248,4.509156855800176,4.406736006647146,2.6139821619445134,3.8038762153208925,0.6333676938231112,2.1431152516891876,2.2909066781030747,3.3099813733904937,0.9519325622191229
24,1.3923243119925615,-0.12091288314232074,-0.20001848088649388,0.760488339071883,0.7330588836807795,0.6813865838823604,3.1183903229135685,2.638668214473444,0.9073400097687621,0.8048083050456609,0.6333676938231112,1.333027460020384,0.7881624310398377,0.5680385558014005,0.9484891207604292
25,1.054860456447852,-0.18462872777688344,-0.0813995073215979,0.8284792944444486,0.8070808920914648,0.6100002538162964,2.6336929197987513,2.2815265729030627,0.5654397916132938,0.5111847887760496,0.6403206450210053,1.0475390184841091,0.4570385033338474,0.32842069542669616,0.951203650241415
26,1.328236336366398,-0.2589484272252345,-0.1739248700616718,0.9152207862316832,0.9027329633238449,0.6923493340081792,2.7551806127338683,2.3978886140459013,0.7843907875985778,0.6886618471189342,0.6153451465759925,1.3247603490026183,0.6694417550156134,0.47759090662438564,0.9512604672759061
27,1.2839706181946315,-0.27384479545286533,-0.14191768440624383,1.0244235078497277,1.0224488938608,0.7602467655628072,3.741579923907239,2.7396745856901443,1.2112536815133985,0.8650381398326837,0.6403206450210053,1.4823159049947614,1.035665052522668,0.6939744245061974,0.9288532582794218
28,0.7423761749538084,-0.05651549575770054,-0.02078162594878724,0.7565723164813883,0.750425488274174,0.577020765591872,2.254378034239368,1.8903926403064126,0.6472804692996328,0.745568650506708,0.585052858160615,0.9085430450833293,0.5036846980630658,0.45031190814270705,0.9483172386376372
29,0.9825095262045868,0.13035566737863546,-0.04448709889901181,0.8691843242863148,0.867458808417935,0.45563657034827654,2.0953396335765606,2.1489395420050004,1.4215375434098894,1.4022309306111018,0.6619902821573977,1.17592539177078,1.138170137296855,0.9761569586427936,0.9352004947274878
30,1.4041859779714034,-0.10657973868002524,-0.12072982654993247,0.8996351290531199,0.8862340084784607,0.5530334909177229,2.8711289438025975,3.1593372142682257,1.3157679719348847,1.1468048831395454,0.6357360191111145,1.2804939422336792,1.066856093680178,0.9458902042432059,0.9536269170037537
31,1.2666021570817219,-0.1234584714371379,-0.09916889322678646,1.3217473809983384,1.2916953360850099,0.8390482169089842,3.8006583610832907,3.234073740026161,1.4797120390497527,1.0793680467494096,0.6309483474627791,1.6369233101097034,1.2863849480327263,0.9446978618689422,0.9185726386582862
32,1.1499086660479838,-0.18311123259256717,-0.05831662509196148,1.339964372086478,1.2996840487709769,0.8792682675956492,4.2458480621765196,2.3333595440009613,1.4352447168756226,0.9112917951820954,0.6447042257417027,1.7165901557344583,1.2589038555785415,0.7785760283381494,0.9256995175358248
33,1.7447291593985685,-0.37040604821586154,-0.24078747189102884,1.1689028107561994,1.154023077274924,0.8079809623455796,4.410355080121644,4.3362443103344575,1.6629969884822977,1.9196318125904244,0.6528756675646988,1.7713034606606728,1.4573421558033333,1.5804103042338808,0.924771283824234
34,1.8856833927081078,-0.43717275589161797,-0.18581596267675884,1.2702835924359934,1.2478014893382885,0.8081518295597284,4.8083235060732,4.821061868783794,1.985776160067342,1.8278465706626998,0.6447042257417027,1.8602524656733552,1.7406161111178675,1.5981063464245504,0.9236893461170347
35,1.403781420829272,-0.1480367963636927,-0.18538683575827852,1.1569207394857606,1.1345365287489544,0.7886910776876136,3.984858310308688,3.8103522188690486,1.4508896841628478,1.3133517980196776,0.648888643467878,1.743413848297773,1.2247032582232444,1.0431125489905764,0.8118262920270413
36,1.2847284388992157,-0.16846967007250963,-0.14615457825118355,1.1282196424812507,1.1221042361080067,0.7560892423608098,3.644625106882567,3.249693212195504,1.2961653712388408,1.0478823860866968,0.6284777104787076,1.619432133139303,1.1072913332285286,1.00297798226636,0.8409275566022004
37,1.3951119902820917,-0.2752597420834436,-0.20987807588193347,1.1136342557215821,1.119387925306685,0.8080098284616694,3.563825793865022,2.1000571642845407,1.0430441628686884,0.6269287703799503,0.6566669596287297,1.5798251742145488,0.9395349036428308,0.5234638032304618,0.9410387621656963
38,1.3929750629181696,-0.18855807765867955,-0.11592581297869031,1.3150730849063366,1.3314395590965546,0.8475484302822865,3.548044762642957,2.7413587290028554,1.1611120377338333,0.8406652610329912,0.6403206450210053,1.736072507813801,0.9998628967779445,0.6373226083811683,0.9292471542856713
39,1.2762607060472944,-0.17222689604456043,-0.1590963855741152,1.0495329639464417,1.025183196099835,0.7213950747778826,4.617466673225246,6.391267958178279,2.0562884794809273,2.7487423896342467,0.6619902821573977,1.7608423665933335,1.9647010718921942,1.7082118989576132,0.9364009502319866
40,2.3277051573082526,-0.5266679567015238,-0.12410481388799122,0.9579522015346723,0.9579327483298775,0.6945990137417988,2.4680705509910488,2.8456986608183645,1.3306755824337038,1.5722785311788279,0.6309483474627791,1.6453529841342278,1.0428945896718027,1.0844966977608286,0.9390841857901313
41,2.5259956321109764,-0.5186354036835692,-0.22390992301896875,0.7057633803016583,0.7048053963308558,0.5952091877281471,3.5562962188373355,5.205476135292375,2.5831006441627062,6.818759862484743,0.6425374456860184,1.99232646636336,2.4759845369075344,5.840641657373398,0.9448413636379053
42,1.4000755487567096,-0.2230021849783827,-0.12357076402245845,1.1174355937404026,1.1279631977520488,0.7775909169488565,4.0529548591874445,5.773065710678818,1.7374917192961357,1.3991156590943465,0.6284777104787076,1.5277555241308511,1.67349869938753,1.079419916895213,0.9432836767846552
43,1.4822726070608931,-0.3100749196476482,-0.12800839337405978,1.0252365243950563,1.0003752906326127,0.6733786365354216,3.518131845240252,2.0980661393697164,0.8868142875295605,0.6784443686444063,0.6584896970785714,1.3860277300024597,0.7771819687464819,0.4787407006487447,0.9402112977332883
44,2.089416911187535,-0.3115523604031757,-0.5160609048771965,0.9791711892464791,0.9451721173876356,0.6456885347045881,2.7896105811629055,2.03244956791125,1.2394309841400701,0.8151808736325163,0.6153451465759925,1.7396731560297236,1.0041769492036738,0.53808385560194,0.9450943237485513
45,3.3900528717702123,-1.1328970919258505,-0.18140594092623158,1.0361454135293793,1.0428342072937735,0.6209400961573184,3.1919670274165233,5.208897248407386,3.401974713626143,5.676879593568118,0.5883313578629602,2.3153326658165483,3.093295721549171,5.998936561946683,0.9296865720610351
46,2.9565232184019146,-0.7213918620924852,-0.5291466240193996,0.8522555664328572,0.8369027256783461,0.41602242411485746,3.030371255988754,2.775898800123991,3.6190777672348005,4.898574604667865,0.6380535849069913,1.7779223124400334,2.7731806522777824,4.659237407258367,0.9468104604685519
47,2.1515120300543242,-0.25292019046430203,-0.4498280238628719,0.7931884317956575,0.7766226127054194,0.5851137783874679,2.839891766925508,4.410718670650477,1.7233349657749113,1.761049632786907,0.6284777104787076,1.590834260702556,1.5209325779737015,1.5767849562508849,0.9479666024362942
48,3.090318613623493,-0.33735016989271416,-0.7641443145417172,0.744076963818376,0.7387563040803831,0.5286759737700372,2.6841963328375034,2.882652117962511,2.2661091503719275,1.4336614086196025,0.648888643467878,2.031455933883333,2.0121955140232495,1.6634699280151333,0.952329227871089
49,2.162508446045888,-0.3736005492893285,-0.2820359279840423,0.9691375410429519,0.9767817281981326,0.6789023169046824,3.584337257296877,4.3761963288387715,2.0805124449186256,1.396369976854164,0.675384900321601,1.9283431343481559,1.8309587840623263,1.1029133705675003,0.9450727120039857
50,1.8447299963171828,-0.35009870495958106,-0.29679491957506465,0.950510171350225,0.9312772758810972,0.6625380485572555,2.970270384366989,1.5151724828411774,0.8705395258441071,0.43077397370042236,0.6333676938231112,1.3539777685322365,0.7520359287505988,0.3590903252089853,0.9466643463044799
51,1.7934300502565206,-0.30410039668710875,-0.31724527704274075,1.2426976968635735,1.2539495252462638,0.78384736862958,4.0140790758065705,4.298324041263109,1.8785459761110663,3.1214444454557695,0.6425374456860184,1.840319659843432,1.5430378036903922,1.5139491452554281,0.877127169957865
52,1.6787437787537816,-0.2461610005031556,-0.24929141680418582,1.284139810253959,1.2522271316368139,0.8215609340902411,4.162179133096331,3.8364761711333584,2.194873444615922,1.8154825827568477,0.6447042257417027,1.937093573971729,1.942677387619229,1.3987437776608989,0.913688981577294
53,1.381792121344435,-0.14177823639882348,-0.17365126502324413,1.1852729065893806,1.1596981784407054,0.8286917377495536,3.5646010539037816,3.469012216507738,1.2491397693321893,1.000607862247729,0.6403206450210053,1.589580820390215,1.0603577176547792,0.6770794454429095,0.9093572781997029
54,3.1630519589547195,-0.8992304092715998,-0.581430079054573,0.48464858515010584,0.48620700899513014,0.35956661432172543,3.633998809799908,5.294890518539946,2.8513623275814086,6.537211671794228,0.6357360191111145,2.005612973635172,2.733723727259827,1.3550222693756158,0.9512600739958949
55,0.27351018807723243,-0.03099782131541968,0.0,1.7501256449048317,1.7235113951239502,0.934238348566988,3.581321399454581,6.6719556794095345,,,0.6357360191111145,2.2770256475397743,inf,,0.9026890802609903
56,0.41088849945501743,-0.030578171971791992,-0.01735881963129338,1.7396205610976745,1.7425871199192478,0.9365084114794078,3.8226715094552888,7.95021962622069,5.701691836132078,,0.6425374456860184,2.331899480662821,4.587029098917442,inf,0.9087261196326506
57,0.08844798334637503,-0.009117178676267048,-2.244626952503948e-05,1.5847806715426789,1.5642795776498184,0.9132461366052745,2.813853299500329,3.6422690048338633,3.3656795820324055,,0.6602640781246099,2.334763991358281,2.6825602908887713,inf,0.9201284261870435
58,0.10452553275706399,0.008593381087261744,-0.011146800541383508,1.6623869724397626,1.6572061542674132,0.9195150774853171,2.766176602969389,2.9551383493503565,1.8230151397113974,1.5892240194968135,0.6584896970785714,2.2848543272971935,1.5328691098325513,1.1617362394980613,0.899921820786072
59,0.540353383668454,-0.06428375060237937,-0.016746659524461395,1.6227284700346623,1.6303410227377853,0.9099919429104074,2.7300218485864716,2.238000081086647,1.543834485385513,1.3812006133976005,0.6333676938231112,2.036211781488516,1.3683245014391539,1.2095625338047227,0.912877492229112
60,2.062489173999346,-0.3933877619221382,-0.01911007287773095,1.7259995691944152,1.7338318442762806,0.9360019755846843,3.147741851841819,4.456372937723825,3.469385939987321,,0.6357360191111145,2.2445258504542323,3.472679644534109,inf,0.9025081589792255
61,0.04405017901208848,-0.003377180390926783,0.0,1.6981818798487816,1.639582941723333,0.8831169135439961,2.8399880562701476,3.220533787541939,3.094799528119866,,0.6097226960127671,2.6056440452708203,3.1014773306508956,inf,0.8781785170628527
62,0.23631799048506513,-0.02274755479248509,-0.001220713238284864,1.6868172537027064,1.6598791671168984,0.9229392612642976,3.184104400408373,3.8157121189294365,6.885061005942334,,0.585052858160615,2.318601563502819,3.0630974119842684,0.6979898050357334,0.8848592697567328
63,0.3956435181252205,-0.02876900797564072,-0.0160705907452176,1.6087184017196396,1.5959400745911358,0.9210397722303296,2.4759909320086058,2.38811185972871,2.8184418738053783,,0.6403206450210053,2.2908761334176746,2.3773521885375537,inf,0.9053033030628124
64,2.9504044801307914,-0.7005138889491775,-0.1651810492424392,1.5245393746653244,1.5275077259684826,0.7942789679736331,2.840700261185264,3.5832293697684316,2.326524667256482,5.204605815787843,0.6509067234006624,2.0712970207384287,2.133606732050736,2.0668627594729756,0.929553929513525
65,2.9054020775022487,-0.7070733530108156,-0.038425434002175185,1.684071612617945,1.6873551101527209,0.7021929279269626,2.696691243083269,2.7598971785101734,2.2610345164488876,1.1814860246247314,0.6380535849069913,2.434213535472482,2.22342022005135,1.1187194119672044,0.896202223286082
66,0.644584357486937,-0.06633306125939555,-0.00013606392806149009,1.678449250145687,1.674349843735961,0.9391927147642257,2.325869488532182,2.181477382645972,2.1310114946673093,1.0599182112222483,0.6097226960127671,2.476409519534054,1.8646884596413902,0.6965659873087309,0.9070995973267338
67,0.34948906985871686,-0.024304216051067258,-0.016469508765783042,1.5496760457846086,1.5249253543969779,0.91834882976592,2.2154059903241348,1.7380452975721936,2.3394911288319005,,0.5677978065141052,2.302140747285779,2.2521251088405445,inf,0.9109126206881215
68,0.3873547764104324,-0.03720786560691592,-0.0010309299684712614,1.4916607848139813,1.4570395812377115,0.9049079766910674,2.144246206139981,2.3602596315592983,1.8895687318340408,,0.6357360191111145,2.205458382263323,1.5251694212309992,2.5649493574615367,0.8947681515009195
69,0.5631171315391097,-0.05052525275311309,8.175750052066486e-06,1.546708466088844,1.5546794801980506,0.9070585393173969,2.0043773772314446,2.8070771195950797,1.58387890165732,,0.6528756675646988,2.5057898607044247,1.5570560344583053,3.374427140597551,0.9123859431487714
70,0.20254233042641934,-0.021502607576238994,-0.0001019076692457387,1.636764461319907,1.6019050336350633,0.9292704981294111,2.0515651525528757,1.8913517522162873,2.302331058260819,,0.6547956803312163,2.296161325196243,1.8075603988384548,inf,0.9101911289891143
71,0.2333602166117621,-0.017979837232884027,-0.007689786594409802,1.6725512047970643,1.6485573791638486,0.9594597261738654,2.1270707614350406,2.4487080395181176,2.529809658992893,2.6073210776833697,0.6097226960127671,2.3058125177531186,2.2697988659934283,1.1348600790604508,0.9102154923505545
72,0.7303772539212072,-0.04750740259824807,-0.02636276813645867,1.356459931334176,1.3327823217047918,0.8025494880366766,1.794796267105508,1.7037529034563348,1.5175397017943628,1.7794413031532679,0.6008849035917525,2.219470186283539,1.3240591039564125,1.4505767019050937,0.9396292578177459
73,2.747998932894062,-0.7079915904927314,-0.463615822886549,0.7465703657088044,0.7448361422977847,0.4763698463566012,2.0643621631704248,1.6869841980771696,1.4927840489643014,0.6610910607070337,0.648888643467878,1.630945325385262,1.106362056784066,0.4888168714237009,0.9685584166635993
74,3.3731387175130503,-0.7700564259475186,-0.37544730546215294,1.5355604764465456,1.5466101652332873,0.839165585008203,2.3580341949725665,3.695665887002827,1.8592870145750564,1.0095125831304788,0.62595550513784,2.2506253540633345,1.8311320926532946,0.9645050250227776,0.9590929597149014
75,1.4163630684887065,-0.2119412942720505,-0.07605252965398653,1.1891344741425833,1.1840693639160258,0.8148494430739031,1.7129097477014656,1.8725609434542165,1.8427068250028573,,0.6008849035917525,1.9458434846107702,1.8058574470855753,inf,0.9308734926711115
76,2.20893405419977,-0.34971416881395573,-0.1341857840106585,1.0807137483161198,1.0813514955636567,0.7506167039777422,1.8436404323471578,2.0256222186644934,2.281233578915724,7.013490534541361,0.5677978065141052,2.0994628595537237,2.218025253982587,6.396929655216146,0.9423751390444871
77,1.0692296516638626,-0.08170184844128725,-0.14191603394764307,0.9138427287681906,0.9204921864538191,0.6764456225372198,1.6437049603407765,2.09027844662977,1.432425419755541,1.746292508775917,0.6447042257417027,1.4344114185431713,1.3548488379845818,1.3151346415478489,0.9409390994768253
78,3.030413576042538,-0.6920066613200501,-0.46245963664462375,1.0396518269018045,1.049653524033129,0.6506951503843783,2.593426878265912,1.816816222263519,1.3060973173310786,0.9432827590842373,0.6652988471865258,1.8551963751443252,1.0029018222015438,0.47326222472750673,0.9346484687536373
79,3.923950873842597,-1.0234171811026487,-0.401266952512216,1.6205608462865353,1.603842230059102,0.8121618191067892,2.751851435005054,4.384369389757767,5.9303785560930535,3.084342279587752,0.6309483474627791,2.3794661373300032,5.290429193699031,1.3397743454849977,0.8926736550146256
80,0.8418457716357338,-0.10382764516840717,0.0,1.6519468955262284,1.6192836294434791,0.9512574470846508,2.494897750174463,3.1075316393854613,1.7549786807399077,1.4143033537213419,0.6403206450210053,2.3360269802166784,1.7616564832709372,0.919640818759437,0.9066985622686862
81,0.8456046822453905,-0.03881425198398217,-0.05332594084240703,1.4702030255807936,1.4678524717369763,0.8761605396306712,2.06336436566784,2.5791545576268544,2.3668316287997153,0.7780142003148719,0.6233814453054027,2.3494437903137304,2.0062655360427777,0.6499384262287086,0.9360548051034427
82,1.304275191816159,-0.1384084422359662,-0.019482671026059214,1.5529358388136982,1.5494087192001091,0.891695949917252,2.1909808297111475,2.578113175111397,2.6933078387344502,1.9412200262127737,0.6602640781246099,2.49697923102227,2.58981742403955,1.5085839388781648,0.915072255174835
83,1.778999989277267,-0.15056001675682798,-0.07385300974269327,1.6041684264369396,1.5947426328971277,0.9009985406596381,2.0042807347350986,2.228357937370367,2.6947997864703246,2.353383411284698,0.648888643467878,2.45418347714516,2.0719701685247074,1.1578262016901544,0.9136611772851082
84,0.2809053243037625,-0.028059722780158974,0.0008491732237033249,1.4072645562152937,1.394528351333009,0.8500937089074501,2.1423215956364783,2.4642266849551167,1.3357602460966256,1.3792516629411138,0.6425374456860184,2.0861305298306325,1.1537987042354005,1.084247867621074,0.9367848502062164
85,0.955814649464553,-0.06551210361478844,-0.00458097067927878,1.5516348307636694,1.5321478364035226,0.8960996894136218,2.400943824818464,3.0220802003039964,2.724513927132875,,0.6509067234006624,2.9759296462578115,2.50470927708418,inf,0.9005181043352142
86,3.495281369736965,-0.6177552158242726,-0.2694635467906268,0.7127232752503773,0.7154976763536602,0.5968065977654016,2.936924544315938,2.730269548169001,2.908219268338233,4.205427424107921,0.62595550513784,2.488780811336601,2.674617237312065,3.759260250875736,0.9380293382698857
87,3.776508797685835,-1.016226049379825,-0.15706962520877688,1.5702192378255027,1.563651421573482,0.8522018493278736,2.708638339386237,3.4566660134217946,1.6385959295983576,1.7115616376345841,0.6153451465759925,2.3604496384391855,1.4592980908797897,1.5499463000712892,0.887115572652919
88,3.3772331865499465,-0.82482274960378,-0.2814316280666811,1.6108431898231972,1.6130431167711037,0.8701172829322104,1.9288271134694617,1.8186975994455943,1.2023465986497845,0.8246079424757154,0.6380535849069913,2.0394518934636774,1.125093586859476,0.76541522579166,0.8780657476301721
89,0.7082495075273965,-0.03365991709554725,-0.022502975970715787,1.3015311478964895,1.2908136672104558,0.8357223423282305,1.9835018916765919,2.2611126607596823,1.734753939569003,2.0015876076529815,0.6602640781246099,2.048373630603865,1.492469033571809,1.1696880374702439,0.9048372344270222
90,0.5829812842778079,-0.03454203348293218,-0.021203352020396957,1.2851330404440624,1.262895415501905,0.7938787273921716,1.899354918189386,1.8303398414764225,1.872321676084862,5.449841197992367,0.6357360191111145,2.1261139498782664,1.5962073914583024,1.681356540869294,0.8944411683610943
91,0.24091708557468713,-0.017667252942143722,0.0,1.6586395820279163,1.6706286784184572,0.9066320238544765,2.150717525613766,2.333223506005665,1.9050506758785974,,0.6699045166045591,2.696780608843979,1.911728478409627,inf,0.8824544310526422
92,2.7947719940023275,-0.5828625685084413,-0.11383593635672898,1.0890176579840356,1.0912005828162006,0.7122267529245565,2.675058678442412,3.663206156595908,1.9652206107656625,1.5740824829031603,0.6403206450210053,1.9855869662082117,1.4942929374884124,0.9012582369161424,0.9637302160846871
93,2.0269309264504103,-0.20326513010358743,-0.1669154638606612,0.9228991500119049,0.9327179586824885,0.5675849920416505,2.1282020494689924,2.17727533687365,1.6590177268778146,6.659832440497458,0.6602640781246099,1.9767245169674272,1.4375581042433836,2.3234014051210714,0.9444299873900959
94,2.849661954377317,-0.7265605862932265,-0.48179745874992785,0.6401386559067269,0.6314611559459891,0.51167234312154,2.2487479720939016,1.8991392504250473,1.0461372083259144,0.7426855809258969,0.6008849035917525,1.4697242804046116,0.9820055246888315,0.5241998411643681,0.9503728853367251
95,3.1159662127074808,-0.9066812001876572,-0.16912929889761763,1.2172690093066525,1.228399769645363,0.7626652104581957,3.250402254063707,3.6868708652846203,1.4213505021031783,4.115643782951895,0.6125606311107803,1.8682086413914611,1.0045196813321082,0.828223712624636,0.9409718300436876
96,1.3414573660570226,-0.14992177995678027,-0.0423537758447263,1.625627026906664,1.6152447003865755,0.9151576066781855,3.449111022275992,3.0824451398660764,2.72441029861502,,0.6566669596287297,2.287915442620723,2.5960872005421667,inf,0.9007412684772851
97,3.5275032754026046,-0.6412715061830174,-0.2215424239763556,1.4919691267062722,1.496165068041913,0.9016368521755203,3.205827139628226,4.6898174079772,1.7235769660357805,1.0766141777177825,0.6125606311107803,2.3694373999818863,1.7255740512279183,0.922312831037248,0.9155368315694837
98,3.042673180634667,-0.567669305065982,-0.24011522790325696,1.5464665227029157,1.5549903720519094,0.907469788733344,2.4997864051787317,2.169169082873133,1.4932793524391998,0.295951815293066,0.6008849035917525,2.133592717091446,1.3028864787153491,0.4912216223405807,0.9041277588819158
99,3.3082804888491784,-0.6174729742987678,-0.323376726131491,1.3914365571784924,1.4062326638031006,0.790332825022629,2.1201027660017453,2.509354467549079,1.3214540277853413,1.1910030175417767,0.6180765742263259,2.258993603733851,1.1941990730466845,0.888758908934149,0.9117064210851203
100,2.5147303744177734,-0.36611802041493835,-0.30637675110847157,0.5937273377652599,0.5559710229665846,0.5519283845161963,1.8202387577954295,1.6397146440497148,1.3103969554378618,1.0372127031856886,0.6309483474627791,1.6986334912385712,0.9266085986763241,0.576012133603486,0.9382998301398411
101,3.5616431529589767,-0.7692160591755729,-0.45038399530609385,1.1707078194115412,1.1607411045373113,0.7315220463953148,2.487968378148354,2.5893669802887356,2.8469005074833347,5.711970913379388,0.6447042257417027,2.142168371588141,2.837291305039665,4.482195123629283,0.9260908856509941
102,2.791264514799129,-0.41648261966901634,-0.09533198162687867,1.3233466648697594,1.3232650835239361,0.8450412743751717,3.393926570630881,3.2543864188990406,1.4197634096154843,1.5086895608344377,0.6207552362147116,2.0924142129838743,1.3171514183487978,1.594425120044915,0.9479483252474222
103,2.5991993843760874,-0.5536727274412917,-0.1491709194124429,1.60957377327475,1.6148553890513053,0.8196264394182936,1.834195386095054,2.1265907377621343,1.3137920703877195,1.0552433112604584,0.648888643467878,1.9793750144831193,1.1553639311788817,0.9900648240448081,0.9215359807909216
104,2.930004571760027,-0.5076492616493147,-0.13351339052964634,1.5396064686784325,1.537392670182497,0.7608663107364075,1.8262945887756763,2.4752958329841794,1.5999959417905179,6.674154505019651,0.6284777104787076,2.4268893456406944,1.405090952113915,1.8072636557640203,0.9351677343775167
105,0.5105046788379831,-0.033751407850339345,-0.03497082010109956,1.322848723236643,1.3371871872979926,0.8033557336613619,1.838401426692153,2.175759850224363,1.7639577248601854,,0.6619902821573977,2.135847297661316,1.283853555565399,1.9357749271612703,0.9044852521743507
106,0.391723778980071,-0.03889994583421607,-0.006629220822256743,1.5684762229601166,1.5361981463524688,0.9128260904185163,1.6874507433997534,1.9203624718134968,2.2327370584471478,1.4835156149190858,0.648888643467878,2.2573993003722896,1.8503682821819518,1.349154814170434,0.908909716954212
107,1.6969932159690664,-0.16763484400538753,-0.0621397309592073,1.396702573566876,1.3838335766871126,0.8566537090568951,1.4291574679636039,2.1502468512059845,1.5818314589862317,,0.6619902821573977,2.4394235351855884,1.4854595859721622,7.482681828154651,0.9133280555001903
108,1.9825256565510068,-0.21287701174036394,-0.0911102555974571,1.643501065384924,1.646471487361349,0.9312412864260438,1.4803925857311226,2.3769610288388705,1.9145944902833814,,0.6547956803312163,2.41812065610995,1.738808781303772,inf,0.8958915513975669
109,0.5629720599382749,-0.02764374839826087,-0.0417894723274597,1.5447585394629773,1.5479564742679466,0.8816983990825571,1.3969158569644013,1.5365947722008961,2.6295314585581147,,0.6447042257417027,2.289778558946827,2.202062941734261,inf,0.905248896203997
110,0.7283546408220828,-0.05876071708495249,-0.031062318787640698,1.5563904381416975,1.5195274586171708,0.9252186076720936,1.3896109443213913,1.8887991997186129,2.3940511934468405,,0.6309483474627791,2.207780091275736,1.9823414263401335,2.193562910850256,0.9271538854916918
111,0.3816518068963519,-0.022573016339323036,-0.02028297405554505,1.2972436312162805,1.267690973672955,0.8220179422211432,1.4999554235869672,1.849790257293731,1.56585065015365,1.8813014417784795,0.6425374456860184,2.1632096987489415,1.4894449785420305,1.7634457249134479,0.9366275967307957
112,0.665553227938443,-0.058404851953938776,-0.01438407157738713,1.2532697586829642,1.2409431583054014,0.7635199243262223,1.1348885059231668,1.268351894749073,1.7846646525125005,1.627430351253908,0.6357360191111145,2.2390887814349183,1.459167834491615,0.9091382650836694,0.9121975043546764
113,1.8979369262309682,-0.7280060644014611,-0.3129298228401867,0.6986076094174025,0.7093728754455653,0.08685859291990526,1.3818447453542866,1.3717359564950318,0.8835717221241328,0.9605628646009581,0.675384900321601,0.9751564847411914,0.7130240549114679,0.5988593420059242,0.9657245638672041
114,0.5743472231105695,-0.11642632702989836,-0.03536431823906397,0.9122975897221038,0.9013045117251718,0.48014434983561444,1.348914519732648,1.0680795900823443,0.21736550358815224,0.20342534975856252,0.6333676938231112,0.5542745223696707,0.16640373986963147,0.11942333127730644,0.9561792802774047
115,2.618673829803477,-0.48575884790299206,-0.26809224427957934,1.5111032370596043,1.4930934148505441,0.8033671842149809,3.407036202087237,5.01518437185066,2.0884786516364526,4.571441339829608,0.62595550513784,2.0262167804425384,1.7986096799554527,1.8957631325745914,0.913585298875582
116,4.151675966374205,-0.9283155572902837,-0.22887486980487293,1.6028411672891685,1.6062327796987463,0.8454957101343304,2.9359200744157508,3.134637539032408,2.4119562434290467,6.373422363129201,0.6207552362147116,2.608808366452561,2.4051658289092095,6.393590753950631,0.908862106196147
117,0.00039380109173576617,-1.0904639672218334e-05,-3.372615072450183e-05,1.5151879952583729,1.5178724654755948,0.8900960150041797,3.12720900088146,5.844399574089763,2.4251325499900465,,0.6180765742263259,2.177814183816396,2.14552434339809,inf,0.9133751203503911
118,3.2224171360599145,-0.44933791427379105,-0.16936933740441795,0.8968981681272772,0.9004160037535084,0.5591690394629649,3.075305809794895,3.813121709598784,1.9429360544617684,6.128864717311175,0.6153451465759925,2.6292390206779204,1.9292596460010245,3.111396664350089,0.9018041571933038
119,3.1879636806971523,-0.8481110643133531,-0.22280702813541198,1.5488381844279253,1.5513683102956135,0.8261320676963444,1.9299738988034445,1.6894145303902692,1.551787409074336,0.9141702193626158,0.6425374456860184,2.109305279298336,1.449325943649995,0.7406895866325305,0.8892417297299411
120,2.1876869836107424,-0.20825736060215855,-0.21131757112303687,1.4839258295226114,1.4825904558970833,0.9097795008021538,2.673271013729048,2.0997482116000805,2.2521871250299847,0.7815993458546837,0.6509067234006624,2.0042928414302494,2.1014497657442206,0.9149430227752872,0.8907959719291997
121,1.8120815056466204,0.022367008368225805,-0.4081304691080945,0.7928916256571424,0.7837015200930747,0.6388626715566438,2.4265404190817743,1.9400585651040143,1.0544997082559142,0.8330172922402023,0.6097226960127671,1.3681052352530596,0.9280560899431833,0.6669962024255744,0.9404390497347899
122,3.480751376579568,-0.8393396955332627,-0.800259981784927,0.9274481972848386,0.9319905088695064,0.6059034177021523,2.067071494171846,2.211892266727466,2.7528174429617325,4.805484181601853,0.648888643467878,2.226447436013123,2.453685788448424,3.2309241633843753,0.9285668564181768
123,3.8594545944213405,-0.8832531010761521,-0.17166448806568088,1.6532407322885012,1.659691482636176,0.7759746043908575,2.462999362844439,2.175703497808034,3.118368227703281,,0.6068309995095971,2.588786780275392,3.111667904288134,inf,0.9157463435443282
124,1.1029935439050191,-0.13137102622557292,-0.025967579998267886,1.433392443377152,1.3688171810298913,0.8453534489730589,2.6712394564352593,3.164424407338452,2.4866907511675236,1.1152076775010678,0.6602640781246099,2.0985564055395183,1.9772935740464184,0.9431535641808361,0.9397040844383956
125,0.7716809710772656,-0.05822646557661862,-0.0014721411558449027,1.5318469259593777,1.5274357598088217,0.9277318353386698,2.901524729283567,3.022414492877825,2.0498766140797837,6.229669416433141,0.6125606311107803,2.4214937619379393,1.7122848695295685,1.4016685283694785,0.9288671545091141
126,0.24664544847671052,-0.01767616471139526,-0.0069883801362757925,1.6578039978820722,1.6332685282936785,0.9220591118378209,2.9330976455374165,3.779671900739356,3.286678595873829,,0.6180765742263259,2.4137649775168573,3.176688811832341,inf,0.9090008702992569
127,0.0016469877196994365,-0.000181168649166938,0.0,1.6659193932512715,1.6561418509036951,0.9553849418973778,2.6025286083603483,2.652673478619799,1.4495927427616895,2.021969042535849,0.6602640781246099,2.2088923822039015,1.4187874520379784,1.3896444480051726,0.8928831510663547
128,0.2514865876734258,-0.017403670728592124,-0.005230122162016199,1.6650327023027656,1.6346987338463443,0.9289693853296894,3.224756488994247,4.7323803219392895,2.4423359241963642,,0.6619902821573977,2.5649604686343768,2.05138301795184,inf,0.9047502117694929
129,2.8489999654637894,-0.43431268253860267,-0.3348708210059872,0.6235345983093438,0.6309291472781512,0.5259975977099749,2.4225078227290067,2.6158038379719137,1.7561801254380502,1.5586129337545984,0.6008849035917525,2.046307692019359,1.4121657574625266,1.0863335867791153,0.936533365988796
130,3.4138843404215016,-0.9695588446863759,-0.46745882605701666,0.8241106190812963,0.7883824967472429,0.45527790812278895,2.573372264438867,3.1211061426755675,2.6454092671675067,5.765778832171872,0.6153451465759925,1.8843865850033206,2.432268542229098,5.704615460960093,0.9487566359097165
131,1.957296541779969,-0.25625260904737146,-0.2596826650187194,1.0563218673203667,1.0173551985133924,0.7530795379584587,3.067215448024491,2.909263885983355,1.6695158659038238,2.4467146348733353,0.585052858160615,1.5977838632165824,1.3111592802650178,1.4060480898561232,0.9571693855404217
132,1.6723146611863118,-0.3126639118760305,-0.24545149407271422,1.1667255808296815,1.157775251855304,0.7495839546371134,3.948523710915837,4.097447089209049,1.2837413656381815,1.1292099916936402,0.6380535849069913,1.6449499556576896,1.0721409900966694,0.9368504569982968,0.9309553272181301
133,1.7269711338100824,-0.3359316794041427,-0.3225756545284827,1.120742976755541,1.1081731061534352,0.7208497078337358,3.584248732580623,2.8552213486027194,1.3832924794474584,1.1283065913798918,0.6284777104787076,1.6889020837883473,1.2070854128934532,0.9859374775890661,0.9445906572495285
134,1.4115824580474268,-0.29882465419775817,-0.16052718924162734,1.077855108044014,1.0751964955028404,0.7436068323534637,4.100424958752167,3.875528123573914,1.6304000603906115,1.7248883270379232,0.6333676938231112,1.769802301876013,1.4538069301314354,1.4783166224449509,0.9236611410396446
135,0.9612940882758492,-0.0373889931422699,-0.13832518950828754,1.1512855195586693,1.1271180654476227,0.7492713884647753,3.7620112065864673,2.560747686626468,1.081357534755846,0.8219127365708009,0.6068309995095971,1.4838826894907549,0.9551587044252956,0.6772277034909451,0.8660674614482354
136,1.9452872252148314,-0.22287416409878724,-0.4169782296615873,1.138967120825624,1.1154412586572193,0.7708255671116298,4.106066081880956,3.3960990125674195,1.466348254413194,0.9375530279253363,0.6602640781246099,1.7950983704935697,1.330236515522147,0.8473821880846858,0.9092004456091645
137,1.8337647109235837,-0.32014850972172426,-0.33959494322856276,1.2539021320964363,1.2410218914254718,0.8279705872444711,4.853360083998764,4.645121355416584,2.6365971630284326,2.820613448158464,0.6309483474627791,2.0249533563957662,2.4053302512858887,2.2410828932362516,0.9091216049877776
138,1.2204709113181405,-0.07908638966749737,-0.06734950547476448,1.0687095291264945,1.061289037932251,0.8163442304070734,3.047368500279405,1.977405171456919,0.9259781342380183,0.4670106522822336,0.6547956803312163,1.680993588911678,0.8254772387921628,0.40165765178158286,0.9466437406396168
139,1.1131380658709766,-0.15353393404541715,-0.12794915048220135,0.7242743071375553,0.7143561038253522,0.5900456373456223,2.4898722246056466,2.3462705645569146,0.7693831028412388,0.6278106552798277,0.6403206450210053,1.136210319083428,0.605997371315379,0.46972451580968644,0.89953365688559
140,2.2190937006031324,-0.4094557386282206,-0.7277848545671844,0.9333746019497305,0.917792859078795,0.6504888680743999,2.6347211220097804,2.920016292171444,1.7647717140230108,3.143639818009866,0.6333676938231112,1.657461703675631,1.4267375512006903,1.3948278762714152,0.9526864218227774
141,1.0292267099426917,-0.0984746936885793,-0.0912729619744031,0.8324988858029716,0.8133089001150918,0.577610072152508,2.2875451864705556,2.157312236884612,0.8873855445512621,0.8198112387657029,0.6447042257417027,1.1979907326483885,0.6783829889695746,0.6420207723310264,0.9550367764777753
142,1.61944446511294,-0.2851399338063327,-0.14868704182140527,1.0451661752525339,1.039498193003017,0.7208909705469698,3.2005934061729073,2.8633987439582786,1.7470274341671195,2.1857140335127583,0.6284777104787076,1.7543352405820558,1.4955726935338736,1.734410051662953,0.9541430046588074
143,1.5168865961769562,-0.2695437545660436,-0.21173859237351705,0.9871267992692003,0.9785541125654704,0.6862355895739991,2.4801396833176628,1.5801579996329327,1.3657178930943195,0.6772562828062132,0.648888643467878,1.4583872708591585,1.2870187167868206,0.7127145414157974,0.9544184058886356
144,1.5960156082726071,-0.375507931500887,-0.21708484960778401,1.2800567703005175,1.2440310556442655,0.8622901763547911,2.9800134298282095,0.9315075802608797,0.7795176302198966,0.36363984158183305,0.6284777104787076,1.6133901567169748,0.7420098555851209,0.3831093962848228,0.9278173590861082
145,1.6813510939992016,-0.23787559435336064,-0.3224811500779249,1.3321031293531278,1.3151816454194964,0.8197507017794038,4.266074144174137,5.263040896392742,1.9138776692621833,2.512536857301184,0.6125606311107803,2.0551175607113894,1.7283168029397231,2.1560704445261583,0.9438269536103518
146,1.5731987154362563,-0.2056139411321254,-0.22067875702403117,1.1383760786048231,1.1195087824312995,0.721915110624224,4.657512486540225,4.305780883580336,2.3587781743813623,2.38417752636916,0.6619902821573977,2.1403717657434367,2.0750111248557204,1.8498478067484343,0.8759026457604169
147,1.3703528787183712,-0.14759145179361932,-0.1505817726876707,1.18710646407685,1.1712353807595326,0.8102207118957782,2.8187986027117384,1.6809519391442724,1.0064877706549293,0.4505152422585295,0.6403206450210053,1.5046775768483065,0.882981377392418,0.4491720367274104,0.9134241116690508
148,1.062961913808233,-0.0852027185130918,-0.15627670767364887,0.9573092114652918,0.9559553754626804,0.7173552266481922,2.619030828759217,1.31102114728695,0.6962408061774538,0.40073073013478816,0.6284777104787076,1.2529296490524668,0.6296301845020846,0.34739456840458666,0.942786968904271
149,1.7413792875899927,-0.40635904708436027,-0.3164160742934457,1.2044957752308791,1.1806384176839761,0.8224404741807664,3.8834369082165345,3.3359451997264378,1.8032046176769463,1.359800270816602,0.6068309995095971,1.8785526881976944,1.5919947715992542,1.1525604268778102,0.9082246513907783
150,2.072551672899565,-0.42343780243131324,-0.3334876976569746,1.3294722441402875,1.317399255076512,0.7999669090914054,4.770974498906691,5.636407575547167,2.5651511889440446,3.803464946550958,0.6233814453054027,2.081131858349366,2.2728473637693596,2.5427262206768266,0.9366350925864012
151,1.7198674182603475,-0.3802314301299688,-0.2875928430066862,1.1533268856868086,1.136232873472791,0.7572248467457559,4.096798321971828,4.181292583803763,1.8053269806910177,2.0111898342709775,0.6357360191111145,1.8346669702393315,1.633739161116274,1.6738576052190868,0.8806289341304528
152,1.6327320186547267,-0.41689337550066896,-0.23173031761459256,0.8002212404994804,0.7983190678851388,0.5346521647021047,2.645832290043334,2.7352283566613806,0.8310142652418231,0.7701895497780992,0.6233814453054027,1.0598724603521792,0.6821449169810618,0.5929761297478744,0.9365763652590127
153,1.8044656248673858,-0.26391392952784887,-0.3237698459876276,0.9584052182358253,0.9431065688976743,0.7403242812281718,3.7289126577557794,3.47804987027381,1.471398802140066,1.2117320474409308,0.6713451011121618,1.4421359952360908,1.3324101971544835,1.1503369287671765,0.9461137951937317
154,2.2664750363523316,-0.5249189958393135,-0.1887937581423646,1.0234303336937207,1.0172065485003543,0.731632203322161,3.122592353161885,2.563857780229215,1.0593716227469954,0.8172073881333746,0.6403206450210053,1.6466783653752963,0.8539512448779403,0.5191676950833861,0.9502845358970086
155,1.2602058501467175,-0.17053637125059812,-0.12258536193313879,1.0518928006462247,1.0402248849112155,0.661668880494224,3.0567125595463307,2.784127878376674,0.8476095192823558,0.7661986642547027,0.6153451465759925,1.3127960986108476,0.7366121040311532,0.5587966634904933,0.926886623064035
156,1.3421875067136593,0.07949536761090958,-0.20450021149151387,0.39547152767488114,0.38364486596623754,0.3939505497242913,1.9422028552829742,1.9027728408460898,1.1930148874176316,1.3634668699377033,0.648888643467878,1.2524241370163485,1.010192659086923,1.0980786422495539,0.9420699014039043
157,1.408874760645934,-0.2105527042551641,-0.13954314727037617,0.7779944860752595,0.761627279778756,0.5193863656699481,3.5101624204798343,4.687854875527789,1.287781603548026,1.423542671196747,0.6468212168108125,1.3905255220921586,1.0762792923318594,0.9508607599454447,0.9444005272627574
158,1.8420294368524686,-0.32359790845684633,-0.1917864336145172,0.9126507276258716,0.9087839806792751,0.6207484932185181,3.092006609109906,3.4848770234312663,1.1903646495912406,1.105126900710592,0.6357360191111145,1.6433969370256858,1.0911683697322792,0.9262667348008151,0.9295435864129972
159,1.2727566909806698,-0.08395890429364572,-0.15566260389938524,0.8912687624848048,0.8393955831186318,0.7068245008061632,3.719204479198818,4.2746387619811195,1.2879462332952571,1.6601914208307207,0.6207552362147116,1.3526446930160647,1.0911200134407604,0.9972135452171749,0.9418503138940311
160,1.609393466307096,-0.3287863998227495,-0.22983286776303236,0.996640502212225,0.9812500438920136,0.7006965237743268,2.9953662551732605,2.1681920862023465,1.1405225688670049,0.8379609019643364,0.6309483474627791,1.3967488190237496,1.0200008641039686,0.6323833671533882,0.9404104463561692
161,1.3060092264648726,-0.062270017259559274,-0.17653764210120332,0.8535444767509494,0.8367496132919201,0.687055892568531,3.0324614959157152,2.4406514476663173,1.111685516894877,1.4456447584517587,0.6207552362147116,1.3204233947485409,0.8795048341619933,0.7960262915606957,0.9292738661638308
162,1.1470757643357339,-0.09153626389068159,-0.08915561562103258,1.1154770119349262,1.094766699878547,0.7681825038824445,3.136412306789035,2.0217635665718747,1.1705766518627179,0.7985817604203562,0.6447042257417027,1.5602245573992752,1.0259030397461304,0.6896125671598012,0.9274145346123995
163,1.2241027633173718,-0.20620360035996385,-0.11653101595069254,0.6713217392150508,0.6505884810489776,0.6034376943507305,3.5089273910120635,3.1935153542156858,1.3347603639954453,1.1104885004704812,0.6425374456860184,1.57117920031701,1.20390151324442,0.7344445449863536,0.9378943696032209
164,2.2702645338034553,-0.7049181946148598,-0.2962424470049694,1.1547115461806128,1.1588074718017833,0.783868410147292,3.3626004057201393,2.387979760931644,0.9493836562606164,0.5820752763074816,0.6468212168108125,1.5038274280210668,0.8417811550814104,0.43680603328859535,0.9361207019592437
165,2.441254386161196,-0.8048674059069714,-0.30261388586806803,1.2578939327450958,1.2357402559046962,0.8037726355717681,3.6356346805908712,3.681105089644532,0.9079753400119961,0.651811510126625,0.6333676938231112,1.7357572791127702,0.7976395798356641,0.495317848569475,0.9313719736942934
166,1.2929978984492985,-0.12923183174539177,-0.11331322097088148,0.9321305396876411,0.9241152074957656,0.6964411019132599,3.0266875344053545,1.7560939150013901,0.820107465772238,0.4032564401238974,0.6468212168108125,1.4352978813814483,0.696513557406539,0.390727852473568,0.9535891404669762
167,1.4951850655155368,-0.15001237734056372,-0.3636563260444635,1.282035437757919,1.250127995349725,0.8499798108029161,4.1831970891175345,4.384053663416925,1.998366975009943,2.2068735415671847,0.6153451465759925,1.9849397693568855,1.7781844183989508,1.3236724673059834,0.9002488596215136
168,1.3249041346508148,0.02898796127751513,0.026980779704770974,0.8666313889593508,0.8428207778066679,0.7336426987232034,2.8152392303821263,2.653956706266497,1.0775046336450935,1.0654566564107186,0.5947193981915972,1.4625996173299651,0.8655312298540532,0.7172586329787558,0.8870149188469083
169,1.1435977194877687,-0.11576818058279753,-0.1247799170484401,1.165127249478088,1.1630007495837287,0.8269734506321959,3.4218416317341926,3.3621521848960843,1.1821777303761583,1.2671862653177701,0.6684167106117298,1.3671891447141524,1.0039127426333587,0.9540608080386467,0.9422763405415329
170,2.1957181445006997,-0.4895149324357797,-0.40347783931002434,0.9872527345437262,0.9895868639571328,0.6343715535200273,2.8475093035026173,2.5853256619952845,1.838523409401902,1.8745690423492496,0.6468212168108125,1.7622006669865107,1.6097615894073098,1.6123557293850619,0.943671117142381
171,0.8904680447643875,-0.08284396891502344,-0.0871814025285027,0.780062988525565,0.7640067015308527,0.5282391811404326,3.248406502443602,3.459401997867453,0.8884840508943317,0.9090114548065642,0.6509067234006624,1.186860794222175,0.7123354186081192,0.6269491849743037,0.9085654829410464
172,1.7745261997413717,-0.47267284626350053,-0.13230959802482123,0.831271414694705,0.8167257593289703,0.6439321961370544,3.006342412461613,2.2811570380850723,1.182844842844581,1.1880545354401952,0.6652988471865258,1.4585305818203038,1.0482127625768711,0.806748456845875,0.940913791408465
173,1.4130999595214853,-0.14414618160547055,-0.11016804049232432,0.8882018615146561,0.8820110085499109,0.6562738099268622,3.066198365708447,2.505986452481898,0.9258239496487706,0.8423864303472411,0.6652988471865258,1.18609650470123,0.7320579770317723,0.6046617411282181,0.918117702150883
174,0.7888989703540614,0.06208855085974524,-0.07064629613082857,0.906449009142692,0.87183854684213,0.6681022891628768,2.587557029473937,2.041877545726296,0.8066347852707063,0.8248458356921716,0.6180765742263259,1.0900490580076219,0.5684623920757162,0.4907804734975785,0.8489777050947
175,1.3994506051532447,-0.2507971708700658,-0.16885357272136098,0.8337731458254619,0.8154697386130612,0.5869831822071838,3.1241362697548603,3.0429067487056245,1.2069306273749643,1.289758899386077,0.648888643467878,1.2812138846693832,1.0192623224773107,1.0163800260817106,0.9387824912918651
176,1.2374407952976794,-0.2552870446709381,-0.18708508069210894,1.1943351676417922,1.1783895932039803,0.7892040210907608,3.3489895053664327,2.621983469411548,0.9803331123659348,0.886404525710118,0.6068309995095971,1.2452192716380706,0.8466547900903229,0.6589096819607178,0.9235037412356486
177,1.7247559580103937,-0.3186388833694384,-0.18986810237723536,1.200412692498293,1.166801829887083,0.767214589486458,3.600368302950212,3.2134596992575633,1.5758253512353444,1.2658458335742488,0.648888643467878,1.7979116887132531,1.3852216873779912,1.0180542817489056,0.9140594632595908
178,1.53732457654623,-0.11352706220189901,-0.3662357008691878,1.2083618829853586,1.231634487001309,0.7801582210017073,3.3077895403892748,2.515368278856117,1.557254474008878,1.2369363508483135,0.6357360191111145,1.6106608821790576,1.2775132921736199,0.7619120083755456,0.8952355810045574
179,1.3866719626616726,-0.2840211304648518,-0.15451968723368342,0.7303147842745186,0.7196116303803438,0.5654407081982898,2.7051773659905667,2.5423160415609907,1.0921906664894485,1.1208770449819783,0.6233814453054027,1.1918978527241058,0.8827551722239331,0.7803515891108347,0.9320351154814178
180,1.8112365718118344,-0.05273848891485122,-0.3249812504176116,0.4548892887295086,0.43887135869902777,0.467349072459131,2.3960598167392733,1.960634327746567,1.5152409804114877,1.2662363895370448,0.6566669596287297,1.3872281302799818,1.273302554854252,0.9584081985531367,0.8910572582419619
181,1.4289339776010077,-0.25425537625787986,-0.16030388397965417,1.1532358549871857,1.1585739231415297,0.7841556754132346,4.310449125360631,4.908197188033144,1.469251665953837,1.953501711058644,0.6008849035917525,1.7061323832606181,1.3064070086097543,1.2043495231098222,0.9289121421326973
182,1.5239708228197848,-0.2564316001078242,-0.12519086874655744,1.389247239974286,1.3626947534617442,0.8744587468343152,4.3776204816817685,4.861118856529634,1.806020335012858,2.1732825971311494,0.6584896970785714,1.8542024098512737,1.5968857414243465,1.5934486944963167,0.9190157202495702
183,1.6590435926183795,-0.23453908078731867,-0.3458173844549695,1.3242022456156348,1.3177031749076713,0.8343134508237058,3.9779897898788006,3.9789980185477836,1.7320363138372434,1.120565237881954,0.68318204999448,1.7582602206876514,1.540380572649412,0.9319053900654388,0.904474491645387
184,1.6213303695909678,-0.3912708968863019,-0.25509913685585284,1.0665787839854979,1.069082158649246,0.8127340239033876,3.699472470305723,3.4279424779815404,1.2048562888632164,1.0518198098972085,0.663668482632973,1.482120229424232,1.0030531225923127,0.6181441322173836,0.9218352398874493
185,1.3839016467649266,-0.18507681514914764,-0.2523669449357093,1.1069858352177973,1.0835975177686945,0.749580643683015,3.1027226624500557,2.8067356992681765,0.8801755984125108,0.6275795783556265,0.6233814453054027,1.3565198324186596,0.754710551750699,0.42132707909464767,0.9320263742970749
186,1.0966464228223192,0.08589120701820252,0.009695865839680073,0.9793988723386062,0.9608817693692562,0.672835521822247,2.3912716086630326,1.9135295582264744,1.2241486469446594,1.2884980155621484,0.6284777104787076,1.142181107814903,0.8415462952589123,1.014229565502287,0.9331472051699771
187,2.292732980757046,0.03978857814577075,-0.7998405717992646,0.2961992331241894,0.2937805090122041,0.42193528453673307,1.7645181650285198,2.062092740629287,2.0409592294766004,4.520292231153504,0.6528756675646988,1.6140596875125042,1.8876949491409662,3.6153508715105405,0.9519784904352662
188,1.513772002530349,0.04034376058817368,-0.30663737623447673,0.8055910677869998,0.7968681445200195,0.2134197350163837,1.5184397087093235,1.5620066090156774,1.361772405802168,1.2654295972156542,0.6068309995095971,1.0482994747945207,1.0762324171482582,0.9117909214376902,0.9665665067183109
189,1.4123362518525944,0.3025834723466413,-0.2951905119711655,0.6062058831807746,0.5895793530115053,0.3531236882114942,2.0698506440823716,2.3103943393317383,1.2328719353100261,1.3621396364849385,0.6153451465759925,0.9695450120656514,0.9797263350477838,0.8832089323669519,0.9633081278873378
190,2.0376820992272737,-0.37639779506878557,-0.21509948762069075,1.099393453458796,1.0948001875868187,0.7406619197758129,3.4786714492177415,5.429760842025512,1.5989325087988753,1.8270926771640432,0.6207552362147116,1.5812824676852455,1.3120937992312178,2.006910970010927,0.9363078522027644
191,1.8683510853205545,-0.39694090337474897,-0.3124512864464473,1.1761079772429477,1.1608044486275506,0.7705270706465226,4.632661981732969,5.417898103558975,1.848024106150654,2.13865934130028,0.5978297680564633,1.8240072167781756,1.6008000305231134,1.3666925168782957,0.9419924413163587
192,1.2567661699504442,-0.2173055239137126,-0.09036675912087289,0.7948028739544877,0.7305000467413818,0.6152448023128247,2.5237995983047528,1.985831445310073,0.7290651827653585,0.46673154302052555,0.6309483474627791,1.3205898533423501,0.598170001091698,0.37200646731053555,0.9391815371475322
193,0.952212695364469,0.04081177539645142,-0.2122377016413397,0.5545396944329517,0.5526699236598709,0.4980932704498817,2.2774145437747224,1.6664077898387437,0.5993733258391906,0.4311046877026219,0.6357360191111145,0.9323072023829284,0.4993565138843003,0.31767503707687417,0.9370459618008015
194,2.5462834589915952,-0.5625767128563076,-0.37103152256232264,0.8298313003951295,0.819756735502508,0.6774864317786974,3.095295029395799,2.4011808056107498,1.3845162353237341,1.5344809732090872,0.6619902821573977,1.597893692980559,1.1855987032885098,1.0598340778728426,0.9494081567973301
195,1.1511937084387924,-0.17211594712126532,-0.11711477420242217,0.746257252520377,0.7450296043045078,0.5596791776391181,3.605315249734783,3.24944212125156,1.0216288478058717,1.0007549759150545,0.6068309995095971,1.2580770633191367,0.8042670318232644,0.5604462620089854,0.9369973475184105
196,1.2253096571154725,-0.12724057001151223,-0.19193960456166537,0.796290935101134,0.7700128728460108,0.6410258316932208,3.39982588227655,3.0782218852527357,1.06713963950819,0.8609801530574186,0.6125606311107803,1.4220827492236467,0.8855148855939433,0.5761958077184522,0.9467882808269222
197,1.65266237118862,0.24910275344260369,-0.609352431846036,0.6264810691138881,0.6185707052260605,0.40767850876646117,3.4391553241669417,4.0874701022942155,1.6920639815988419,3.3380305962238204,0.6153451465759925,1.4514375094520948,1.4387342684414037,1.2436068535740092,0.9412281719661689
198,3.76686658974529,-1.0769851349560928,-0.2684579883166094,0.8299806332888096,0.8156996790591186,0.5558349984949279,3.0802820569481635,5.400254521710045,2.1976376796797594,4.299614639167621,0.6008849035917525,2.412028004375428,2.186497638893995,4.036450583803198,0.9390490351822725
199,1.4976386557721109,-0.06200370005479716,-0.10179343096992888,0.6866200010368804,0.6804264662195653,0.5586779454833388,2.6679737524119553,2.5381441472304647,0.8537423279813708,1.0827548260117583,0.6097226960127671,1.0878372155001512,0.6964833246309053,0.7730134435925299,0.9500555565769567
200,1.2166829972619022,0.2583540232836904,-0.16477406161585162,0.6187769693460927,0.6248000595641642,0.25298875487537664,1.9842792889719933,1.9389158187711906,0.889968548674645,1.057878689293149,0.6233814453054027,0.8841731779840463,0.7329609410845245,0.857558208312458,0.9504768353160178
201,1.989432324293397,-0.18645365471188047,-0.3681217603112916,0.7430107810821137,0.7442250703116309,0.43522826930562947,2.10234076769439,2.785048325138319,1.0038802339513733,1.2332573916780771,0.62595550513784,1.0687946202589276,0.8945443092311799,1.0013254329879122,0.9631780319508861
202,0.9884955662699604,-0.015687068350853872,-0.05485041818846603,0.8353506432784834,0.8429995197536064,0.27563109978312766,1.707446748178118,1.6414029687221732,0.7871887237879074,0.9301439627728934,0.6380535849069913,0.6526025578370241,0.5214159812809149,0.4619915289191605,0.9510233149703884
203,1.2792833895568587,0.07440361165859422,-0.3570641638003147,0.5621322373217318,0.5553761015573963,0.4779447431375409,2.4265446759644167,2.0644462143996085,0.5844451858628691,0.3145663586847538,0.6403206450210053,0.9072208765346151,0.5336470068437746,0.25388587457459266,0.9525925785473986
204,0.8167270229392609,-0.13440390181203882,-0.14439447411286815,0.9461884162463678,0.9198532546176634,0.7148825580662488,2.205688053359163,1.5432761291977348,0.3303642810609931,0.17228020172301756,0.6425374456860184,0.9616077676758219,0.30266563689313525,0.15725673123975153,0.8869186099772297
205,0.9226656916336965,0.009074317770917883,-0.09256387435776092,1.2116335421847093,1.2103036923975592,0.7718708466005869,2.9804589153291583,2.8108285091132297,0.8809307243298083,0.669077641199144,0.6528756675646988,1.2338594380761354,0.7989530030096972,0.5021251423077328,0.9304511938437766
206,1.08000298807555,-0.1808060054494504,-0.07251083453563345,1.3445025635645,1.33581681411542,0.8641289807330363,3.9459293272486535,3.0328423540394365,1.3375638507833782,0.9257554949569465,0.6713451011121618,1.586535519216796,1.2112570573862755,0.7442006150245402,0.9010761972572894
207,1.323040218628679,0.250672052863283,-0.3312208681337625,0.9096145276368797,0.9032483271213451,0.5065936112579745,2.6157595991417693,4.688774660296978,1.6735191989333051,2.194348500004059,0.5915533975974677,1.2145844649205304,1.3608305783889727,1.5879223903995492,0.9533183481368089
208,1.8947560272277886,0.057139818259694164,-0.44838582283017653,0.7147713653764854,0.7031273285210511,0.5775604829232215,2.9384670112195175,3.4494763792790724,1.520356811455495,1.2450400383073466,0.6068309995095971,1.609493469532923,1.428682483131636,1.118044013275629,0.9549704510580369
209,1.976765446272134,-0.29987154165422064,-0.2644136105009221,0.9507798194989745,0.9348362612882952,0.6078014817374484,4.068628960392796,5.53799410996046,2.1181728976759677,1.2732489350289609,0.6333676938231112,1.7722836927273982,1.8528909209975442,1.4455646044410186,0.9410829283213874
210,1.2689554713927655,-0.19166975134024805,-0.10512825749270427,1.0972398985775063,1.0538419428267325,0.7861828773773678,3.75807811270448,4.28534749606813,1.426298043069733,1.8117709056593259,0.6357360191111145,1.59367393058803,1.2121728722384466,1.247995816086294,0.9396708608632217
211,1.353307781533496,-0.19504463641382191,-0.13310252874664885,1.131512084616173,1.1222807733157496,0.7776669263160412,3.924189343751213,4.1481314283447315,1.4009971508858843,1.200722245014945,0.6602640781246099,1.5354648700179068,1.1158899874077581,0.8163385155248548,0.9384705215682443
212,1.5509351743596074,-0.3031484781114959,-0.12846601657329065,1.0105827358625081,1.0059129973566237,0.7738716299931776,3.41439125595218,2.302781957309577,1.278311251575443,1.1220511090120286,0.6380535849069913,1.588328949223865,1.10171762743877,0.8807535893857001,0.9386716191491669
213,1.3201230425111166,-0.15671281366387946,-0.1862195404935636,1.2559242956985055,1.2582312968694032,0.8089220465579685,3.7504186596619946,3.5008534977269976,1.225138400682572,1.6337321469178392,0.6602640781246099,1.5683492867964144,1.0745375883993824,1.115938285160363,0.9011043930725622
214,1.1615859097956716,-0.04174768017202668,-0.11500711521297668,1.0482833374383038,1.0366992665565944,0.7324437463114225,3.875790940748239,3.184877938000909,1.2689759149632531,1.4880492250994413,0.663668482632973,1.3509701182457325,1.0259793900371754,0.8533805555193015,0.9188295993126593
215,1.7629275365812105,-0.1735372149955694,-0.3131963494208009,0.8310529878385459,0.804684999833924,0.6659357222911494,3.2874478691644207,3.4389875999018718,1.2486403951183482,1.328496288149163,0.6207552362147116,1.429341050662257,1.0891913267754036,1.1028961340916696,0.9056545912708238
216,1.443062479698432,-0.2375270950879067,-0.2877549809958766,0.8371820844012322,0.8139942377438876,0.6599873900594424,3.0978323412224094,2.5783811841302002,0.7845318343051487,0.6250241941629752,0.6207552362147116,1.3061696055303251,0.6707955756715475,0.4431529786933491,0.9422670175968566
217,1.1890186723668685,-0.08303317242614883,0.017435567956912812,0.8410342391074341,0.8198519523805742,0.5715908720318592,2.4828218111056475,2.2709884237866964,0.8192606489161971,0.7869761753945994,0.5947193981915972,1.1278694697352274,0.6340723310836454,0.49641377652157775,0.9455842151568944
218,1.3434283991524165,-0.07707331029930486,-0.22618396789458584,1.1453618752225707,1.1416049165343336,0.7589760697461568,3.798772185823103,2.4787240842024008,1.3663051235446444,0.9921371174306429,0.6380535849069913,1.5938380039838973,1.2046841002823885,0.6508156527238046,0.9050927919649998
219,1.869846482327565,-0.1161837658973579,-0.3468806822234755,0.8947742036752564,0.848986273938052,0.6652055456075631,3.947324481959013,4.26589808898815,1.8472714863900348,2.598803583882631,0.648888643467878,1.7331761451291576,1.5733173010637003,1.0202036064287623,0.9431803160911442
220,3.4180364066260562,-0.891940813642278,-0.3271588380543489,1.744545415247808,1.7549643355952111,0.8154117750391743,4.092794778465148,2.22200697361329,5.803384764842382,,0.6125606311107803,2.3786265570707905,5.733101526237283,inf,0.8896230197915885
221,3.1900787166122893,-0.7637762950500017,-0.20817977178882016,1.5297274445078748,1.529986598355409,0.719448963334598,3.7839675293136774,8.302868063942391,1.9828145034444473,7.2876771255182575,0.6207552362147116,2.123695344048104,1.8262603155486923,6.7644621091556605,0.9453732803069308
222,3.0563265035195166,-0.8162254304281059,-0.13580960330547603,1.034760829613307,1.0467243624979772,0.6552408944351458,4.340975100591257,7.440681870362893,2.3824277957679736,1.12765078867219,0.6684167106117298,2.2351341504094395,1.8882959927077578,0.9437755024674528,0.9477805247553097
223,2.5761018287811948,-0.6027168222056649,-0.26271168290470565,0.7810972927203487,0.784287385164738,0.602419205193625,3.513388937630038,3.041845895110521,1.7288516143658081,2.0762563100167166,0.6333676938231112,1.9401048104670784,1.7164150208735218,2.024197370384605,0.9526983778845565
224,3.189690299667052,-0.788666854599265,-0.33498076953693806,1.6457744719921497,1.649477496219189,0.8226808896094066,3.3851504563706016,2.7955035934218198,2.099436892219954,4.6295213520495775,0.6425374456860184,2.1002793712797403,1.7144152901878438,1.3332888237798952,0.9164436371749314
225,0.0600598869544305,-0.006136253373533745,-0.0015633604686392097,1.5412888918814456,1.5256966903853024,0.955492402913761,2.844330478967809,1.8268389764265227,1.5008579559151836,1.1614517830808877,0.6699045166045591,1.7315427737395073,1.3516858428659948,0.8084472474917743,0.9185186579182915
226,0.5596375324297477,-0.032601433370738814,-0.043197418009573135,1.3447663842729864,1.3091362494525423,0.8665904417928398,2.021263372817604,1.8758835814591497,1.819018918290189,0.8099308882236674,0.6309483474627791,1.9695313913234382,1.6882801517145267,0.6961676790807604,0.9221704998873835
227,0.43597847004733076,-0.028579842854839457,-0.023169448917366164,1.3047729728300754,1.2936467341086346,0.8639818807783282,1.7922628190803471,1.9354308813311698,1.1493705113521115,1.4175925269744831,0.6180765742263259,1.7206177969569119,1.0280808026231072,1.0120349583019008,0.9076410797290392
228,2.7137160797843713,-0.4088023257765353,-0.36765838244856336,0.7845527686878976,0.7811371809714913,0.6193521099561149,2.350224430391262,2.3900477703157885,1.7836857389371954,1.1162227043981618,0.6447042257417027,1.6985727545019376,1.2933888591558604,1.1445947973736121,0.9623601184047482
229,2.9062365190379,-0.35576231963468286,-0.3176444319093056,1.5048710985636633,1.5107441903399836,0.9149219026387903,2.5823337142577096,1.6225366616091028,2.753421908137977,5.229741789059386,0.6468212168108125,2.312410987145337,2.6044304276645582,4.544813385447194,0.9487467907069655
230,1.2219066558196392,-0.16873754545775577,-0.19279756374066187,1.106188625114928,1.0845635089188213,0.7919805335831714,3.6556294823628352,4.428937134158559,0.9702295424781499,0.6784464217039711,0.6566669596287297,1.5288825156952452,0.848426123494737,0.48447566185427,0.9183451817247407
231,2.18549653435215,-0.5011922052681509,-0.3834261016359283,1.2129328080181594,1.2026387380269945,0.8001587077882462,3.9208770682839713,3.3197278873566196,2.179013226247137,1.7090543188850835,0.6180765742263259,2.0680401189553934,1.839548289404887,1.5160402602649314,0.9032352713151414
232,2.253695657361288,-0.4247140511607259,-0.6790752500757559,0.8704189690849498,0.818898447923811,0.5377116004757815,3.8047001876297,3.698910675558155,4.09757915499673,3.36059565621591,0.6068309995095971,2.1442526925701135,3.8516662048872488,3.109060958860994,0.937588031998331
233,3.189330771676672,-1.35609203661573,-0.24131983529877135,1.0627734403233757,1.0392256699079814,0.6854435630148259,3.193466177523895,2.672886211299626,1.876674069649835,1.3005200027539208,0.6403206450210053,1.890843427451954,1.7665373596026113,1.0768861944901829,0.9475668804237728
234,2.71187302278759,-0.6777136564623669,-0.2745620711999851,1.3963476490856612,1.4020692617148658,0.8237369089811069,4.376174753362898,7.855059824325537,2.548556121429549,4.857532127289259,0.648888643467878,2.042188575236687,2.153081905575374,4.321922710604176,0.9342423038471835
235,2.768366963238625,-0.7056071615274625,-0.2698936598549144,1.3616662048905412,1.3606649555264982,0.6833879632289078,3.3638807279901424,8.45208500428349,1.7846112776766396,1.1345698791912795,0.6509067234006624,2.136411737939707,1.396414086200885,0.7854959701442961,0.9473306417501942
236,2.7319111170999113,-0.5137612420189664,-0.16011016686567836,1.0229210080530953,1.0265366226263681,0.6867640684124494,4.118087423836026,6.798904433868868,3.3965942686719863,,0.6380535849069913,2.2328517549793707,2.6992804776289416,inf,0.9192708089750844
237,2.448106231759188,-0.4922406939404703,-0.2973730421733488,1.2279190003009128,1.230114340627976,0.8319732830697555,2.8835822936252162,3.2505359810372223,1.4079859740077627,1.2547761099612014,0.6180765742263259,1.6761120457020933,1.1531646128342607,0.7630812285869606,0.9460161086277012
238,2.387380379665315,-0.42266935845987097,-0.187590026335044,1.0641192691700254,1.0540928025755854,0.7290525222187919,4.071745811495835,7.0784424985445735,2.4723254589769885,4.3840384015053395,0.5978297680564633,2.2352380195344357,2.338218190964128,3.8383764652598473,0.9560564610844454
239,2.8811161338103104,-0.611037709199536,-0.27268392686469345,1.6450814865193533,1.6416629529450577,0.8964345210890519,3.727606874632754,8.488983167110025,2.3944620086327433,,0.6357360191111145,2.037574759806682,1.8432726281530145,6.833570380792761,0.9336711967697315
240,0.0214532074325399,1.8708975181576642e-05,-0.0023070511013191662,1.4722476623246963,1.4411926653410938,0.9031654166299945,4.78219133875698,71.41059745664634,3.443415557807826,,0.6509067234006624,2.253689114317346,2.536472857020579,inf,0.8535535535124692
241,0.044793986730701375,-0.005972531564093516,0.0,1.5690578631347532,1.5292921814546045,0.9521876153024869,3.907197351819704,7.930304710807798,1.874959818206475,1.7861772385588324,0.6153451465759925,2.035956429740097,1.7252547971263053,0.8506479472724855,0.8739475640802283
242,0.03687376461444041,-0.0047823850959131,-1.120430396415376e-05,1.492449103594047,1.439846607087518,0.927123259949638,4.442014236701898,13.760418820771633,1.5699533449628236,0.9644345881414348,0.6684167106117298,2.0640932647330366,1.564004717121041,0.9837611922848105,0.8730101966109295
243,0.022540390588410557,2.3915180114495154e-05,-0.0029541659566078675,1.3719122995064232,1.3377750952764307,0.8447835162345244,4.297963734224088,3.815860655509895,2.034064629067423,,0.6619902821573977,2.0569410318891634,1.5277786271434657,2.1257518037743686,0.8904626981397421
244,0.040075349199921964,-0.0050513549200700315,-0.0002920249732528972,1.4638771958357297,1.443342931472617,0.8980924694320147,5.040530531379662,76.58573071746116,3.1881802344123105,,0.6180765742263259,2.0451904214807213,3.011488811116941,inf,0.874961175649813
245,2.509846592782459,-0.3359424178167213,-0.35597825038219266,1.2516770610675758,1.254317727725435,0.7910178566010687,3.9021880021314423,7.2576504569832885,2.9855562960452366,4.829581733180914,0.6425374456860184,1.969611031350558,2.555516446963997,4.3975308212098465,0.9334409703930615
246,3.0348739959543356,-0.6888796071646239,-0.2013500983153146,1.6503481209838,1.6674406561392174,0.8467278079000085,4.206503351383142,7.217981451289813,2.2853971473476435,,0.6125606311107803,2.4147588898859187,2.264177446341782,inf,0.9442957809008432
247,3.5976128576436284,-0.9601051912815277,-0.13117070887037288,0.9012091282759919,0.910505832298804,0.5435442506164524,4.023524740129178,5.197200862834342,5.066533303534949,,0.648888643467878,2.402528210522098,3.2880090373840822,inf,0.9622305099619262
248,3.553476584032817,-0.9214771668873595,-0.16098281078527887,1.7287353865092303,1.729741690903724,0.8309016494267868,4.158805776486587,7.937267069372648,3.2115442138797525,5.716884928181817,0.6778444222523095,2.4657578309492396,3.2149593707759654,5.726847747587197,0.943266170419402
249,1.9286379374869835,-0.34564238581203643,-0.02983406321223634,1.5932502104979296,1.5957490235795229,0.8910934063935224,4.165026377262928,10.6983779051859,2.5119082771683425,1.1055177669533243,0.6309483474627791,2.10000712662086,2.5140916901115324,1.1031066782559489,0.9444524363415618
250,2.262486552293438,-0.4070779108892623,-0.00012432047266154155,1.7340780577607395,1.7318231472641532,0.9173032821578642,3.5956170489262735,7.938171676494678,2.760015456564646,0.9607828372882679,0.5641709578113449,2.3851216484633597,2.240251244842251,1.0986122886681098,0.9044748530686447
251,2.933682340755437,-0.6661982332440877,-0.09515230160201972,0.9923688292421063,1.002799371067968,0.6739709177772424,3.5047615133626233,2.869067168507488,1.8461982773060401,1.091354545883937,0.6125606311107803,2.0630433958701997,1.5459984998169962,0.9473381261314634,0.9501952457903569
252,2.8829924272316774,-0.43189742001144926,-0.18833775141788361,1.223916945897986,1.2309500956927135,0.7511061847409041,3.4335758951165154,2.0680250368161994,1.8531994982693356,0.9274271406804471,0.581717464821069,2.2351341504094395,1.8525658690939926,0.9212699952737624,0.9121179436080286
253,1.99454736967854,-0.23818212377080072,-0.2632538309966433,0.4017164427223622,0.3761507456381343,0.4557779164771223,2.848203886010326,2.549344138640504,1.3768036172122466,1.1483590019743999,0.62595550513784,1.584203441255559,1.1032274726439155,1.0647433905867756,0.9301906096913553
254,2.3860759328604764,-0.2855028977883518,-0.3097921292188013,1.4357641334119433,1.4464131459889333,0.8625969453580444,2.9927889440667332,2.785228119937976,1.480004844250639,1.29247996673334,0.6180765742263259,1.8372450993891865,1.3601954447589493,0.5982820055838496,0.9543696430241728
255,0.15080601356106532,-3.7066377520825894e-05,-0.019065028673547448,1.6817530155699123,1.6694333946217907,0.9289968963832964,3.606508332560962,11.539709973199606,3.6069481818169438,,0.6357360191111145,2.0934953915737426,2.51389948943646,1.1030765817967951,0.9287192184593778
256,0.7423163398661119,-0.05006165990958639,4.4955448970068757e-05,1.3690301637633182,1.3808205300059841,0.7773099562212212,3.6226110782217877,2.28770072177731,1.747019702224963,1.3829442742346088,0.5883313578629602,2.567129510045833,1.7520266605911745,1.3846263040191935,0.9242570180348196
257,2.8319317368281216,-0.4574573075984074,-0.23268561999356274,0.4702349979183709,0.4687512965059332,0.5033882716200052,3.663070526736773,3.8316329942175242,2.2670241274337735,1.357752445434278,0.581717464821069,1.988666884350428,2.211038193529499,1.2862814517886596,0.953996194370077
258,3.419632064858219,-0.8187870627349871,-0.11015995336348522,1.3203645726417303,1.319756245139411,0.7906341441496597,2.9229583281316645,2.262394993706415,3.5462546452988524,5.4094002284338565,0.6357360191111145,2.4385320992781003,2.824847215908656,4.534747721691546,0.9437130733672526
259,2.4065838763730607,-0.3813026421333324,-0.4492235118904238,1.052615060962488,1.049069549902014,0.6574279325290382,3.2494536169487747,2.40170242893176,1.5719820801660729,0.739118291140591,0.62595550513784,1.841720318381827,1.544588450786578,0.6823680463051182,0.9419507699147095
260,3.346731584559364,-0.6403611821770799,-0.7081725023362352,1.4242529438270752,1.4424951153393362,0.8198896836182684,3.5958412716501162,5.7744179746882445,2.7349146264385347,0.837269896523965,0.6309483474627791,2.269042865126692,2.677053907831993,0.819561105415604,0.9305491826689217
261,2.56703750373725,-0.3569843807284723,-0.19065028673547446,1.7275919893935956,1.7253572314849648,0.8654374485647474,4.003920833899551,4.509880736205459,6.982247753307716,,0.62595550513784,2.221414816137437,6.88356504018092,inf,0.8922119916371781
262,0.0,0.0,0.0,1.7272453452353687,1.6962365623007498,0.9507621341511586,3.856496996878123,52.70144649926835,,,0.6727386042041725,2.371577964480997,inf,,0.896170498358943
263,0.07133730269199752,-0.004755820179466502,0.0,1.6584441934033873,1.6395763825131415,0.9106809827628682,4.187954459330446,18.897608782011638,2.9526125022766316,,0.62595550513784,2.747831071114055,2.959290304807661,inf,0.903313117149713
264,0.7024954883653495,-0.060882942324996955,0.0,1.6325953965855275,1.5945433674572258,0.9125311765722116,3.70615164882034,8.225344086811377,,,0.6684167106117298,2.7602210734311194,inf,,0.9269185566456988
265,0.37031274745287984,-0.016674192479566495,-0.01171645149182096,1.6867357017211515,1.6624990717505042,0.9468444490728564,3.1981102741406007,18.442634937470366,3.042928045662524,,0.6509067234006624,2.6575155277281626,3.0199496386106652,inf,0.9250684830357834
266,0.11375416355763908,-0.010385510811970549,-0.00023154445340909947,1.6524796515820221,1.6244386743326167,0.9205993119299448,3.601557511637241,5.921466265490835,2.1928272775039153,1.6038799432423136,0.6509067234006624,2.4326937783410663,2.198364178599153,1.0794135058667786,0.9150524220673515
267,0.6672784534637815,-0.0521855539493212,-0.0001782582585795698,1.4724217722319637,1.460724178905967,0.878792573878949,3.187812045169693,3.5135019375727032,2.057107555725082,,0.6447042257417027,2.58568508662856,2.0340348803742625,4.708403440629744,0.9082229370039553
268,0.16461818526015595,-0.014815636673414036,0.0,1.671417097309005,1.649157989692876,0.9238398095655903,3.3052945893923305,5.5727514530963145,2.6392266567357034,,0.6403206450210053,2.449925680892755,2.5640485144690155,inf,0.9186770681240459
269,0.0012285760176326936,-9.009557462639753e-05,0.0,1.633703980358134,1.6076638136632133,0.8913233354181171,3.068823943924288,5.288450377001087,2.3933435151076465,,0.648888643467878,2.6139528777230945,2.400021317638676,inf,0.9261447926158622
270,0.015463317611368101,-0.0015978761531747039,0.0,1.6700204860208339,1.653950710753506,0.9065203649536522,3.014720097745544,9.118409277846311,2.4315405872516824,,0.585052858160615,2.282237951663176,2.3262711355904298,inf,0.9240423134100512
271,3.6936260293476475,-0.9207394744195145,-0.419436831640854,1.1572533946705086,1.1542366373169513,0.7290994086148924,3.0648855552990937,2.820769086063565,3.446912995058127,3.9729814801313967,0.6528756675646988,2.18253302859323,2.2742171522765884,1.8388269800860408,0.9521428541508784
272,0.35581515868618857,-0.03802488639705466,-0.007184122163775442,1.652051333640165,1.6243323249199082,0.9554253263910483,2.1931065026685888,1.8057670593468473,1.4786045132437962,0.7735292429464455,0.5883313578629602,2.072179088361995,1.2321941086646204,0.803394385527626,0.9071465308797355
273,3.00319351192205,-0.7046834145631808,-0.1971875039904875,0.6922164699253324,0.69877365589633,0.5765304023208222,2.709269553976005,3.115685149325684,1.7862044513205524,1.9382475113028488,0.62595550513784,1.9760028715847082,1.6163550155386062,1.6927142526747017,0.9501909102997937
274,3.2764111789616277,-0.6064286252391373,-0.5134994132732615,1.1328911693212727,1.1184236055565153,0.712039191433601,2.4801065155588486,3.9541121693232895,2.4646083697340044,4.6247873205349,0.6207552362147116,2.107566705405684,2.2594618536907625,4.332486189113745,0.9094429420328163
275,2.1718956634273456,0.003393738842902838,-0.354723183325265,0.9348794203587929,0.9351372667930211,0.49157728993409844,3.11785422803711,2.6082056474542545,1.2122185937610337,2.1777931939520525,0.5883313578629602,1.4125014532890647,1.0672186698116355,0.8210287872646495,0.9417563711502211
276,2.314619338580315,-0.25710584955276733,-0.048787771815694596,1.6516017904334839,1.6588947084827534,0.8694964252019151,6.964186894309945,10.435976311319369,3.093562164114585,4.614999314168738,0.5677978065141052,2.587013206059376,3.080758831073792,3.793882763123921,0.9080159188125354
277,0.26512586554347034,-0.029141398940256698,-2.244626952503948e-05,1.7290784762955158,1.7147711024618792,0.9435320567244374,5.098954273983935,98.90994748617818,8.029895607176282,,0.6468212168108125,2.27237925093698,3.4414535595727225,inf,0.8903963118414313
278,0.029918216682197612,-0.0024931847235164675,0.0,1.7501800439756536,1.7259676382846791,0.9298702382502596,4.953089446305556,278.5499958096335,,,0.6547956803312163,2.5061983852556224,inf,,0.885155150974473
279,0.0,0.0,0.0,1.7225280040079722,1.6722688159645738,0.9228332566310541,5.016520860015246,11.335340685920809,,,0.6547956803312163,2.7593434954897607,inf,,0.899352787627107
280,0.02875790699200013,-0.0020130534894400092,0.0,1.7426030993778951,1.69406724323313,0.9668175567467125,4.544671934511977,40.55369321674327,,,0.6509067234006624,2.6810837528723956,inf,,0.9041503669262423
281,0.0,0.0,0.0,1.7562615232613714,1.7368229221528464,0.9455015349272927,4.1775396858147475,63.18762473884218,,,0.6309483474627791,3.0647251450409425,inf,,0.8970876981825266
282,0.10546068500067529,-0.007030712333378352,0.0,1.758094173795709,1.7280665529235415,0.9637541097497998,4.7449221083173185,52.41659171353264,,,0.6619902821573977,2.7738339416482134,inf,,0.9117489782536321
283,4.130432086080497,-1.1300363755028102,-0.09532514336773723,1.4678122797817312,1.4527636395595245,0.7064382787727241,4.250339872913563,11.960926051351347,7.154323371581762,,0.6566669596287297,2.637125862765511,7.161001174112791,inf,0.9016658534997805
284,3.2507900423256726,-0.8420222428268123,-0.229650259689248,1.0456924358318642,1.0512765310362508,0.638709238144033,4.23967517115733,6.081258472711496,2.6077789573859107,0.9672797373955874,0.5915533975974677,2.1389556692122436,2.4673262456285383,0.439980556898625,0.9567391969152163
285,3.305923167760642,-0.8565763503781485,-0.2534227341350376,1.5132651324497706,1.5058176005554864,0.7812255680191966,3.362286830399401,6.4625282889234,2.5488882224136034,1.1428569165127942,0.6038851895711802,2.0429596183247902,1.6015840219690944,1.3948341226680252,0.9268682294008035
286,0.12130015376646754,-0.018542277086862846,-0.00046141366988373543,1.5529759904507776,1.5630772589044475,0.9080083084194155,3.913684721474859,4.8520446795784355,1.8481217935062857,1.2565540688253392,0.6284777104787076,1.8992704436138341,1.7448481169712056,1.3732057216620128,0.9376921764050413
287,2.123863403985839,-0.33986901440235995,-0.08935053430733252,1.096289756471951,1.0998181866359162,0.6050948681135921,4.773356104498391,8.043695185222514,2.807886095213999,6.429450194598863,0.6652988471865258,2.156850683197946,2.247648807327994,6.309918278226516,0.9732779387761429
288,2.0305809518725426,-0.24002186231793796,-0.13786761403045528,1.1591248159736116,1.1625130096008163,0.7376386260245041,3.551244379244337,6.047154404769572,2.2442195101074756,4.686314375511049,0.6284777104787076,2.0657578145939137,2.2262250085340347,4.476524796569195,0.9545089916659529
289,1.8425272291595647,-0.22158098856905042,-0.039663711687636966,1.5504177843319966,1.5567701683611639,0.9108663593097498,3.5995440782753367,2.80106016720383,1.1865717681062153,1.1285805923789534,0.6309483474627791,1.999850217915972,1.0499863146312196,0.8102267339502432,0.939534559422666
290,1.8998960110386274,-0.344334840363436,-0.2005453885911214,1.0383567990371823,1.0168873132119773,0.7555303769159223,3.5602989853613622,5.05546825156242,1.1595140638504304,0.9146796276110625,0.6284777104787076,1.7392935293247531,1.0409690058913816,0.7594309236999458,0.9534411695265087
291,2.2312883897359796,-0.576691618395508,-0.3126928559752207,1.3042967262876162,1.306548020045518,0.8342607036767781,3.992766711457204,4.637351608404717,1.790410214649764,2.4254986953932987,0.6233814453054027,1.8264199294916799,1.6169893009797849,1.800840914806296,0.9265004036708714
292,1.700083065290071,-0.2959479492509924,-0.19504696720476922,1.149852178248464,1.137524896344716,0.7602791437019925,4.16327981412014,3.1943163545746796,1.6802469497810941,1.50525571057779,0.6584896970785714,1.8285617757521597,1.4136395410862599,1.174186745352773,0.9006957986119758
293,1.362572414819402,-0.08246494851143038,-0.24636133647002378,0.8797747045910095,0.8564538740876567,0.7249111731973249,3.2742340540273256,2.9011197479061046,1.388496831632549,1.3006529260011122,0.5915533975974677,1.4751984372258973,1.2097864909453167,0.9884587178128831,0.9343421351256438
294,1.9313878861828393,-0.28462832387926307,-0.25528612549601676,0.7299988785126992,0.7364897492048802,0.5615481371589258,4.041013477516384,6.1276720154054605,3.816702401814704,4.564568460541846,0.6668815377411301,1.914303821986149,3.69114275194919,3.499533282383017,0.9462294911564791
295,2.373118100222758,-0.5324302492083296,-0.02129730751031385,0.9442527968151363,0.9376125789629826,0.5214376065612532,4.209291290589858,137.68730014816694,3.331233834195213,,0.6097226960127671,2.3266501247766773,3.2757798556192363,inf,0.9418431845457258
296,0.20452571323909435,-0.025157029304670342,0.0006845048243071805,0.21764228072993302,0.21671038745789734,0.20684461052185654,0.24032593476358735,0.14954491382113339,0.07050769942041363,0.12501392611924617,0.648888643467878,0.16773512459903425,0.04464709368008436,0.03898935449164556,0.9557049077551353
297,0.14633600555676926,-0.01970619272131617,-0.003153844142652712,0.1804308202057063,0.1265842023716455,0.180076278177328,0.2269953119436889,0.10513075567863786,0.03025172065780807,0.021058406096986292,0.6153451465759925,0.1430880232100349,0.03239033510192525,0.025373835101429223,0.9677442034296085
298,1.6627189527364954,-0.22024523022525255,-0.4143821319240814,0.9983883091514081,0.9902044786744248,0.6838131482842525,4.284359759651701,4.432655313833124,1.918793295051398,1.4242943662672336,0.6668815377411301,1.7877010491005536,1.7111091614286025,1.2900157552660267,0.9301773106636133
299,1.3041464730465575,-0.15537284985143424,-0.26909964853816376,1.0229907414581092,0.978226493834072,0.7400533475504877,3.4173478591319237,2.3549154268790202,0.9869747467249156,0.3781165843796555,0.6547956803312163,1.5571090433280796,0.8385664727319778,0.3526759818156782,0.9416749476789829
300,1.39197349575668,-0.27589415981818105,-0.15865709800716532,1.0030969614619536,0.96795472589805,0.7325262561892848,3.252157490341873,2.880574501559415,1.1680007090242885,1.0898756138412369,0.6284777104787076,1.4724333914418126,0.9926706310500081,0.7948831906188112,0.941504341553592
301,1.8748900364521413,-0.40376602322477545,-0.28275826024737416,1.1572097619372264,1.1360408368007617,0.7604891539175044,3.8197409027566183,2.7833895426228232,1.29534437329434,0.7593690288232867,0.676637947632344,1.7143664226542825,1.135055348912928,0.6519643373503772,0.9142484171706431
302,0.9025333101464673,-0.1654961369059001,-0.09581882816336532,1.1359129876987957,1.1100948501525292,0.8191481925385682,1.989090693476026,0.49945943814379845,0.47235347533030264,0.25127621329446076,0.6468212168108125,1.1098417706196584,0.39909742557352307,0.1632018856303475,0.8919467605565604
303,0.3415488028694293,0.011170971058438839,0.00868613383088479,0.584157957005197,0.5753753118712263,0.4415022573479847,0.2344454895865105,0.10598732042612835,0.034849167558893404,0.014271570741040237,0.6357360191111145,0.33950572187765665,0.03231508986435838,0.02018527668199312,0.9608425696060735
304,0.7984371083994429,-0.13620562552515725,-0.1411071165059855,0.45124352103909277,0.4449492555561853,0.45122361273861844,1.3056216855572413,0.2821818363917761,0.3987342103933868,0.25466748639208553,0.6425374456860184,0.6478764297800308,0.25978497539606976,0.1774754200905857,0.9536816897873873
305,1.0220521071142556,-0.061648333434645375,-0.17325344560853295,0.8892937859530319,0.890351780479782,0.7087751328584362,3.229477782720604,1.917916762758476,0.7047312718881233,0.44245362933993165,0.6333676938231112,1.1669982015345746,0.6077075131276529,0.31178282107932626,0.9414228232640102
306,1.0964194669002123,-0.0615556778886297,-0.025129455931471645,0.9127283262765362,0.890987100982182,0.665837358579961,2.404415975180087,2.430975986826961,0.8912188301117584,0.9972563982793728,0.6547956803312163,1.1567005464436757,0.6076383272083872,0.5610600424076647,0.9383097841098244
307,1.6667593633444522,-0.23488239755926044,-0.34189033195530816,0.8113733444971478,0.809822281535252,0.6265641016143504,2.407760451584774,2.239785961364364,1.259080721532581,0.9935415721413626,0.6357360191111145,1.468806782694355,0.9548166386767469,0.5079870845416605,0.9231535080653778
308,2.0885754427934176,-0.5459935289371705,-0.26248287779315294,1.3621381587067674,1.36065550240492,0.840604255809969,4.6415762042596835,2.531593329707013,1.6972848107810248,1.6019869878775237,0.6233814453054027,1.8163937501864158,1.4720703614885,1.0917863235977099,0.9251130613254941
309,1.422010966537953,-0.2454067966792548,-0.2502822006039596,0.9097862854339651,0.8982678594504927,0.6908574793441546,2.922560291357777,2.2043111434017826,0.8154034564917453,0.5153912318661603,0.663668482632973,1.3547526286657108,0.6685186415470704,0.3602828853149315,0.9287554711393018
310,1.8916651176710069,-0.376798266700426,-0.27107638657283695,1.4401996716228627,1.4329585218140881,0.8741478227897069,4.16177709396315,4.264890045196316,1.3738108618217253,1.0765930498349774,0.62595550513784,1.6365807465893678,1.2174590820594064,1.0070788469176042,0.9382731613457733
311,2.0738922061097336,-0.5539905611453926,-0.23414254724248934,1.1694970210355564,1.1587567323561705,0.7656988042365959,4.476573897227573,3.9902489409623403,1.8676625829010165,1.7471638685987998,0.6584896970785714,1.8604666672378458,1.5555060000064638,1.2908611725202817,0.9483996413076389
312,0.8360339850490008,-0.04987905437166218,-0.11818578255617651,0.6751467911731805,0.6369328849630209,0.5352585028832362,1.4057640486971146,0.8032132672671544,0.29890490256242336,0.20955116494495926,0.6097226960127671,0.8160935231732088,0.24853610599743667,0.16519293846787808,0.9519585800793011
313,1.600065352695176,-0.48519602226515113,-0.19446943867701633,1.11420075888931,1.1096926935640579,0.7264230372494376,2.3697287330700725,0.8934893082152398,0.3846759029392654,0.19195362077488987,0.6333676938231112,1.2430601930339829,0.336495344918248,0.18536727732226452,0.9296372208610935
314,2.0006081192375853,-0.6111897165149149,-0.3158356332264891,1.2520754849268818,1.2438279266657613,0.7507882289060706,3.5920224695103293,2.6664928829983188,1.3061654861355831,0.61974882825047,0.6333676938231112,1.6307182977436714,1.109338699493625,0.5679536696987414,0.939484897827538
315,2.0359040730610105,-0.4767576358578909,-0.33101592278641584,1.244630093533931,1.2531221689020642,0.8196778885434431,3.871011029366318,3.4199925295728053,1.6575470844571074,1.4237789424995824,0.6357360191111145,1.9672245852255232,1.5004687877249963,1.2017190817659253,0.885281463767117
316,1.7181842184858855,-0.28332194845856096,-0.2963706346459433,1.2079598479587745,1.1922594050796458,0.7856036464241011,3.9069445885401057,3.4396936137400966,1.859401162669118,1.7696302920094673,0.5883313578629602,1.8223561432055224,1.6304854716089714,1.4655184031725912,0.9302534814686002
317,1.5746937021792735,-0.3322110415432145,-0.21199760927999056,1.1390831402856574,1.1218040735210069,0.7922533000210509,4.173772623473204,4.0217387633529285,2.3306025858811013,2.6246746596726784,0.6180765742263259,2.0080929286137157,2.1215334477530248,2.308125273369661,0.9019850012320055
318,1.4926504105107967,-0.3783528707162881,-0.1902904588824828,0.9644946048060562,0.8827978376186197,0.7600242325320434,3.2034349204828683,2.007751617406339,1.0318245704735811,0.5511399404221808,0.6619902821573977,1.6849999326565215,0.9009801392249152,0.4475694556910561,0.9115168023848367
319,1.7077841075877378,-0.36859477971772675,-0.27163302910468257,1.216355645749017,1.1809853093710476,0.7559119176421242,3.5773175447156698,1.8800764333329045,1.1193164940626075,0.5350802181229116,0.6403206450210053,1.809584054140607,1.0518115955190406,0.475888406258855,0.9341293185901386
320,1.2441872067352397,-0.14245374190538374,-0.2886972361277202,0.7102619537592716,0.6738951596751543,0.5795955307053099,2.7397658305436257,2.2073587076648864,0.8579010699833519,0.6447202229377129,0.6068309995095971,1.351828524238612,0.745641219960615,0.58005125186816,0.9595693788442488
321,2.1789823243505353,-0.21013225181100115,-0.7254702525515907,0.7809362195959675,0.7792537860262309,0.6264256352043048,2.2993694872604156,2.653330549644812,1.4499393286978424,1.607050155504792,0.663668482632973,1.612163846641332,1.2894711035335433,1.0931659817109638,0.9384451499650888
322,1.4536747906260634,-0.20911354989547049,-0.10921804154777967,0.9399591719573752,0.9092946507938269,0.7126467899065552,2.276409480462076,2.6171057981572563,1.6470867473486166,1.9019434546488574,0.6207552362147116,1.9289547084058998,1.5545379159830857,1.4943528468842793,0.955007679804137
323,2.614777189768225,-0.5716988226872745,-0.5350660237316652,0.6163433675378912,0.6204613091521051,0.5004277391941562,2.19393864653808,2.5863784786691206,1.864089231169596,5.218374231009755,0.6380535849069913,1.5391347885916766,1.5841783630988089,3.3642708717937917,0.9575745090637776
324,1.8849503957233356,-0.31704219371345643,-0.31830778162425444,0.6378451797132209,0.641974051702262,0.5687773218935342,3.047548170824032,3.833008730323653,1.4542973231210126,1.7966440340371455,0.6309483474627791,1.4573846687842917,1.1990222991660797,1.0324724861635648,0.94541240939526
325,1.7141739978059745,-0.34867190354753697,-0.1741509730742627,1.018595795041547,0.9914045830387508,0.7005387631652853,3.4818755836179394,2.7400872851226357,0.8458252204446285,0.7281782808786256,0.6509067234006624,1.401927028131341,0.7831713694070379,0.5608267559927578,0.9239913754611315
326,1.5693059586444433,-0.25028495461786643,-0.2861351649410535,1.2989767075779568,1.255599817863255,0.8199151895950354,3.8580850644354623,2.69433458532546,1.4243046478742325,0.7995633252672848,0.6357360191111145,1.693846618705386,1.3081273157720807,0.770770337089392,0.9418394725100098
327,1.2137824649764797,-0.14533231280445014,-0.1150522400751754,1.000181291231832,0.9691738613987538,0.6838409152209708,3.05532690361981,2.318295672937304,0.9636596354783601,0.9289060745980713,0.648888643467878,1.2523075166737414,0.7348992765671961,0.5243176544513548,0.9374053644056181
328,1.7110092338873533,-0.20247340302337358,-0.17210637789137723,0.8569875137571411,0.8493112738016325,0.6576162060887342,3.366572859215765,2.8475856244710758,1.3865064852522277,1.1576312737165322,0.5915533975974677,1.4157918319089138,1.1868478547854284,0.8943346503615821,0.9557139103317092
329,1.283050505690572,0.06416675046018994,-0.2698747810279215,0.7331683219237964,0.7079210775616027,0.5891445023104622,2.733089680296052,2.4064357055866887,1.0774824341823661,0.677708099196817,0.6233814453054027,1.2973478207303193,0.8839049870962016,0.5473402945070187,0.9343430264676686
330,1.44024015327608,-0.1254914899352309,-0.29788787183440496,1.4252543166759242,1.39322615702116,0.8715287711337214,3.898409142597007,2.0706230026059855,1.5570758045797026,0.9879648110938124,0.6309483474627791,1.9728817454465277,1.4546596115552297,0.932506370953349,0.9290769220726735
331,2.092428301709773,-0.5016226659432892,-0.4347326014953887,1.027436781809971,1.0136856462463473,0.7296278460676688,3.603948146305667,3.594519876985606,2.2527821641735977,2.4152171418666946,0.6447042257417027,2.271840370717009,2.0250284556165656,1.7216243931623265,0.9408730689379653
332,2.4345284143382497,-0.7101699155457446,-0.2555263554750945,1.1559687880350502,1.1096907500304913,0.8177955642892089,3.625093952554563,3.4557188754517054,2.4765423769454085,,0.6333676938231112,2.6253955229800217,2.2719110858092306,inf,0.7712909478644365
333,3.676792055286999,-1.3609722945979361,-0.3058401037988365,1.1313198844316072,1.1019587138615303,0.7374981314308336,4.088751898776353,6.313436338707514,2.6224261950260774,,0.5883313578629602,3.306190278083821,2.4246208689602997,inf,0.8493496137211598
334,3.792374819059541,-0.5266206042303377,-0.054876868025458575,1.368470036274763,1.3523291736817105,0.7846586201576827,4.0610390231455,4.154681995759635,5.9374330481934825,,0.6380535849069913,4.0771597374679995,5.9441108507245115,inf,0.9045606501931224
335,1.6184295910464448,-0.4795446869861504,-0.3481751904863699,0.9688121131579384,0.9544734937868615,0.7481169610760449,1.7672153553147467,0.254331497079088,0.43623698802001865,0.11903725278045763,0.6403206450210053,1.1993907255086693,0.40599983296809405,0.12659170671543074,0.8640762157632084
336,1.6189588630243381,-0.3532268203222031,-0.26501212534844193,1.1869374052816735,1.1887058134980437,0.7490034385522858,3.5987967195552875,3.5129716967454527,1.3793547442137568,0.9878351451455296,0.6180765742263259,1.7735267009669953,1.2329295359499712,0.9556911556937481,0.9436194400685526
337,2.494438189888071,-0.7872839748630667,-0.6262309994068405,1.2889227086997477,1.3069769949968388,0.7220765017372044,3.9848143181136972,5.562975733251096,3.864406160328504,,0.6547956803312163,2.3546974361607833,3.619145509597379,inf,0.9434462210850741
338,2.2277874935369915,-0.35863329540530064,-0.042368453431357804,1.541349357671818,1.539096126814775,0.8579344360529351,3.7524112311626716,12.826129841025796,6.639279718155357,,0.5915533975974677,2.564382851289797,4.436462850758352,inf,0.9288964266740452
339,1.6640794048564134,-0.28647765124246316,-0.04075734492236662,0.9124795825824913,0.9136866278790654,0.6069279073808888,3.547482263367743,2.3854924368908845,2.776082775956129,1.8132301724241875,0.6468212168108125,2.150913674472969,1.940103097656457,0.9313537781852506,0.9292617443280274
340,3.088278732085942,-0.7217789223148153,-0.5916861955161654,1.0237075616633744,1.0281252453824499,0.6426186236589461,3.8385506166690457,6.349742945402898,2.093629868826157,4.253965603899051,0.6207552362147116,2.002069062562178,1.847500928219418,1.2645756796843242,0.9515544555617776
341,2.7811942899367277,-0.7997496284689714,-0.41284888730653607,1.0256646827669234,1.0294290873960703,0.664793557429221,3.0209661529538874,3.068413203224928,1.519211559271229,1.3873024970851573,0.6619902821573977,1.7542710248170634,1.3159453599981634,0.9766086614388975,0.9429443447058277
342,0.705650223343021,-0.08896559021053896,-0.016836595240019143,1.3608679880497458,1.3337779373123813,0.8067061766074244,3.835729293466944,4.560790575202532,2.4597503711980284,1.0930452594947144,0.5748741956352443,2.1578115749793843,2.4619083920234384,1.1042652149708978,0.9242514419267982
343,1.7951876922873216,-0.127138514532951,-0.4451479813917543,0.9184609438338185,0.9079931061769292,0.607053861576515,3.7504144510383606,4.950853801821463,1.5654353157816574,1.8075584183667215,0.6357360191111145,1.686138987364371,1.3766832075304851,1.5291027643432145,0.9129053085023732
344,1.569475466186784,-0.25441869434076037,-0.1385710748308397,1.1710140976156747,1.1796455337988738,0.7847543822078197,3.7233809019848305,4.111671284331411,1.7519779460451999,1.5752645462845094,0.6233814453054027,1.8054527963600575,1.5574858731850074,1.375128189909458,0.949542741537546
345,2.28223919915681,-0.6803734342415189,-0.26566806698277706,1.2145387474293596,1.2081196328489996,0.790453575905683,4.072921673482855,2.9871235401566247,1.5559836751904446,1.5997874005129478,0.6547956803312163,1.823318938135821,1.3338870596992867,1.2555089656442238,0.932657749838848
346,1.3733881594312454,-0.10680379618412172,-0.14837284304226372,1.2768616105157502,1.2699331088608246,0.7816482491030333,2.849466817032087,1.9835203157205878,1.0445974044342445,0.6341475073865324,0.6333676938231112,1.4811424254937782,0.8541954539720755,0.5173528114626225,0.935705011221131
347,1.1859397711627924,0.008524722438592147,-0.15183805257102867,0.48391426316314307,0.4699924072270163,0.5104208856893714,1.9396004639190674,1.909902720059908,0.9095274336819785,0.9673979159232118,0.6153451465759925,1.1242720354486873,0.7137408182968298,0.6139749492853737,0.9295642635816166
348,0.8714804438656301,0.03307850307245752,-0.038509986859221246,0.6213003411922651,0.5851040747333803,0.5038293456673698,2.252116743218844,2.1658808166069026,0.8500959097273626,1.029118677765491,0.6727386042041725,0.8512575414389507,0.657731899698344,0.6783838201485506,0.9507503857205619
349,1.1767864646042232,-0.23991767465462527,-0.11196604577906671,1.1026663251664892,1.1113798466907625,0.7460073296490928,2.7687874096992893,2.7462823489379615,0.863176971259686,0.975328446991106,0.585052858160615,1.1255724702508927,0.6827229676172617,0.5862831190959814,0.9118714640807305
350,1.0601509921169014,-0.054449633276662635,-0.1889745018591611,0.9014826665494307,0.8723400636433213,0.7410886470419087,2.9926319820194633,2.0016839408333498,1.0500157872752471,0.7421146061953346,0.6509067234006624,1.30575946689772,0.8830010320263699,0.561849316596916,0.9263092378432568
351,1.1966243327214887,-0.16682642447051077,-0.14046200764021455,1.1572140679336669,1.1372951291182403,0.7731715455202788,2.843564431264711,2.4225796989225077,0.8443269443532645,0.7529430701498151,0.6233814453054027,1.3576853085612037,0.7273719719042679,0.46812821007582306,0.9381931253668012
352,1.4343566878564857,-0.2787326002269696,-0.2095172886403457,0.9567064885544068,0.9363073699116097,0.6752516911414125,3.580415865137903,2.408016533101881,1.4255593480016573,0.8212547237735085,0.6357360191111145,1.7910930246848944,1.251730856402947,0.7648391090160618,0.9490519950288365
353,1.295890234747131,-0.11466786184849298,-0.11087906890791721,0.8913407100118457,0.8734149674012124,0.7528097377721269,2.6624348414141648,2.039240351014686,0.9298450144740161,0.6749895317512565,0.6180765742263259,1.4968039128097756,0.768485395440573,0.486712780381044,0.9074918617179841
354,2.2599794398344963,-0.12074214779226788,-0.6842635248646682,0.9620061914375455,0.9359074701812038,0.6733635115997305,2.7617978709968094,2.974268897908424,2.0369466324059755,2.1281926724454863,0.6097226960127671,2.087384111656687,1.8948229506285634,1.1734540038612629,0.9485727993625704
355,3.4185143969760037,-0.7108465594136557,-0.35623756885351576,1.0636708594513062,1.063936075463682,0.6506243249211134,2.8954578911026716,3.790406883662125,2.5652402242466006,6.53432982541934,0.6357360191111145,2.294616923344869,2.30170364736624,6.118097198041348,0.9545666269160815
356,1.8217999034294983,-0.2628084444768485,-0.29941973878355116,1.2573039313598182,1.2330679012055563,0.7874849063066484,4.09732064826127,4.750071661585641,1.5683710139367824,2.0044504971531505,0.6602640781246099,1.723291179754636,1.1801658176901841,1.0030258276077104,0.9280444555297732
357,1.572408680927956,-0.22549519400014828,-0.35461856967836813,1.2121329685749018,1.1592029804316997,0.8228955437718214,4.266680349248129,4.4874274653818675,2.1440993225015537,2.5897478507503435,0.6566669596287297,1.83202606245661,1.8262164221954365,1.5987196962140762,0.94437266155382
358,1.6575330549890206,-0.2849625115689724,-0.2749554076998122,1.1887046095238047,1.1702562814298747,0.7629995239394072,4.325945950960343,3.9709492767823553,1.9071907705302844,1.9492940943513752,0.6699045166045591,1.8473426538050888,1.6767759413695738,1.5378099933091438,0.8459041922514954
359,1.343045963167412,-0.16057544053995898,-0.1821813394711694,1.2479261394981092,1.2433504085483604,0.8268307047698106,4.127490805388488,3.756206598170567,1.7584059308012796,1.7677535483598985,0.648888643467878,1.856760319445469,1.53152083695014,1.3651312727335745,0.8853802526409501
360,1.9643576889887957,-0.4468396076542033,-0.21852128662348536,1.286727435007509,1.2886563394013002,0.8023608738077408,4.403069058209563,4.5204303137445425,2.061321801010692,2.2708551711576463,0.6566669596287297,1.8802264505503854,1.7897222159041124,1.7461517357499226,0.9071622778856141
361,1.7317839342023509,-0.25370679051141753,-0.3760009317201164,1.1021528003834882,1.0594403433747197,0.7900963875270803,4.575852742650858,4.770841283546658,2.1669748055595504,2.6264958560947034,0.6380535849069913,1.9002359455641389,1.9291835313287973,2.118559958275307,0.8900306465910075
362,1.7013197529315474,-0.2534508538843766,-0.39622094564507243,1.3481509044866464,1.2901510631103383,0.7959448831041583,3.6272339882339053,3.4072794963400876,1.6219471142587765,1.815556776392086,0.6425374456860184,1.7849824849490312,1.4361180349412808,1.3774251233791108,0.950178500738413
363,2.086025509898154,-0.4441460919107686,-0.3552200541037601,1.0647724510596677,1.0602481163624682,0.6937642927118816,3.630075723903491,2.9594103690003832,1.506616249350169,1.1857031788725543,0.6068309995095971,1.7190047933191432,1.3140832667786166,1.0453831529680506,0.9456253189981089
364,1.4329914711010245,-0.14743935318419832,-0.25093643275371447,1.1875879838504648,1.1858956819642836,0.7406024475573927,3.8510189664115564,4.188167553374145,1.4916887081482189,1.1725509477750247,0.6068309995095971,1.5675498197318476,1.256285414364073,0.9440874273584687,0.9457673534189308
365,1.7136098146672052,-0.30486493293508354,-0.29377033063661867,1.0275626516052363,1.0276705988452735,0.7432929501776934,3.88492228912119,3.972265480882216,1.5255377813245548,1.6599480722355908,0.6584896970785714,1.744112815760702,1.2887445904322181,1.2015158006328839,0.9386544454661307
366,1.644226763884884,-0.34127524551655064,-0.2302707328145818,1.0429092381840177,1.0301331187521952,0.7033278757320072,4.291360592542707,4.322930836437784,1.731366044266341,1.830315887045612,0.6380535849069913,1.7640794534547457,1.5797928615881403,1.5805852828123175,0.9366577444558749
367,1.0908184618778871,-0.1123441260277439,-0.13510652230877762,1.1778328234531759,1.1818972966605696,0.8116077251305854,4.22893881071867,4.7236620328448335,1.3344961233083916,1.2975737985678522,0.6425374456860184,1.6880002349372025,1.122821244200953,0.9323968380756293,0.9236811422780455
368,1.601815588926432,-0.24398865978038475,-0.3065862209723975,1.3291021383299728,1.3192890453949224,0.8173007811196545,4.274145835222547,4.49159173423826,1.7456848266865002,1.5456029959838309,0.5947193981915972,1.894309124243849,1.5816118036142426,1.5067749975489224,0.9492554406444147
369,1.8509774752264683,-0.3261650361418529,-0.2530302284971269,1.2227132901323654,1.2070809098629525,0.7864508345904081,3.8836937152744353,3.573101273408267,1.8111575043296733,2.302757798511244,0.6528756675646988,1.9670656911281046,1.615653567157441,2.059654588242012,0.9230262682050032
370,1.5549795331409053,-0.20036304059896326,-0.2522657858380387,1.2399013014772158,1.2410728739670904,0.8077062319870347,3.988597220819742,3.8282682655519675,1.8495328935217659,1.760619766103653,0.6153451465759925,1.7249111178035932,1.5758377925617564,1.4322546471326265,0.8757870231669269
371,1.6687767549801404,-0.3124884480230407,-0.22586280329677033,1.0561901853709277,1.0600381476154057,0.7312110374125277,4.445740008050887,4.086892925683615,1.8968231645991904,1.6813808659826497,0.6097226960127671,1.891727145014437,1.6089223156193784,1.3745811964562376,0.8858173250939684
372,1.6914565303934699,-0.44824503192210136,-0.1444232669362014,1.0416748775797635,1.0344956845149706,0.7238860537498406,3.8420508834978038,4.242975780995376,1.4924034104014672,1.4518889223788676,0.6425374456860184,1.6508387781716778,1.2389331596525193,1.0178164705360833,0.8786044605110174
373,1.589828542036356,-0.24802478656745824,-0.20975936208163343,1.3674060119035925,1.3776113051035883,0.8491131291706943,4.211082884142094,5.404177017571388,1.5107253172547483,2.4265117709527066,0.6425374456860184,1.7333647828509733,1.2985705393669782,1.990435228096725,0.9288946249291593
374,1.4756348439276712,-0.19875579824827028,-0.20627724657005148,1.1216173244222631,1.1111303738613667,0.8038012184538124,3.7204679481117124,3.2584646857248334,1.0951681555228345,0.8007122191830924,0.6333676938231112,1.4091309194673205,0.9240279351097319,0.6928035576254606,0.9087950769188027
375,1.4290984627488876,0.23832542904640397,-0.26080410540857424,0.367688189427652,0.3555929985841495,0.3564366768823502,2.059909045462501,2.085543905878392,1.158710781055572,1.0880314406119513,0.6699045166045591,1.2266350720546855,0.9521603698131667,0.7666662823462725,0.9262149704426056
376,0.32731249983410204,-0.016015809576527373,-0.06622269264784766,0.619843971305248,0.6042105208292804,0.49205737745371864,1.6484832569215282,1.4708086844011294,0.8672910987799264,0.8255997411903341,0.62595550513784,1.0264156657887171,0.7126881042135399,0.5214866829557823,0.9530095121979969
377,0.6918141857677321,-0.10141772787486991,-0.05847150900841056,0.5500465643075256,0.5480985943968666,0.5056379546633875,1.1530750713083608,1.182412216053738,1.5348790702734505,1.6297041868933508,0.6097226960127671,1.427208952519697,1.1938993184487048,0.7864425846659289,0.9515392206232147
378,0.950776735894212,-0.08843001992933985,-0.2690756312387273,0.5001506855816177,0.501042029190931,0.4029382961801338,1.5020782438123934,1.1398000750860429,0.48639585371713573,0.41067791265521025,0.6068309995095971,0.7085315826036926,0.3389124194900176,0.2558990648814838,0.970227992045297
379,1.7141583349246203,-0.11008290645126428,-0.4221055044250099,0.6508022100934976,0.6496425449313313,0.47796378757896857,1.9221846406437337,1.4560763062899456,0.9780545868117286,0.9488823785756232,0.6403206450210053,1.0946202673985723,0.8545730431156584,0.6798916862896847,0.9591036704991239
380,1.29199347968721,-0.28523190537477916,-0.204113680887901,0.8693545955376183,0.8751758600950454,0.491678670259715,2.4322220557765,1.832373149865508,0.5140872170779327,0.46398270603425384,0.6309483474627791,0.7825371417151109,0.3631667544868494,0.30293879368621324,0.9569348731581525
381,0.8757969881830708,-0.15733599166721962,-0.11937493535575172,0.634243182258769,0.6297648776678237,0.5359692797068641,2.10288175695669,1.6249233544797823,0.3994319321764905,0.41985068377831075,0.6468212168108125,0.728198818618864,0.3055937384550416,0.249664468932597,0.9550924817689809
382,1.0540146364604286,-0.22163379033421116,-0.18907497797420883,0.9675198528164659,0.9591534204620581,0.6717217756153468,2.903264113525432,2.0176017481196147,0.5808174446216866,0.3210918960193825,0.6602640781246099,1.069733329117733,0.5319017712533465,0.2659980014361494,0.920114867479017
383,1.725430750751558,-0.32447263190745934,-0.33240329808410607,1.1720202618500768,1.1717718795172516,0.7691446316802253,4.108651344581064,4.19453535640385,1.549667694413487,1.0463646290050892,0.6207552362147116,1.801473161415694,1.3643886281668895,0.9924881026154294,0.9373848496781213
384,1.8440077464909415,-0.2708592977438681,-0.2629953397197405,1.2712779802357626,1.2637318512154065,0.8507032787905737,4.053407000656998,4.142677149021822,2.0439111095270235,2.0361116348887776,0.6447042257417027,1.9575779539229954,1.7429243400189338,1.4904565542856083,0.9412488130326868
385,1.4941622756611401,-0.24762124885063025,-0.22173961637702266,1.0698577287972584,1.0623902309853082,0.7790937908548288,4.316968975589958,4.54992325968722,1.6308360696849398,1.4911325248810758,0.6097226960127671,1.8937921947932066,1.4563952659612038,1.206192561064249,0.9502863022258211
386,1.6274434180808417,-0.18876438386496874,-0.25591778134869153,1.292267751660473,1.247918167207945,0.8098655454883845,4.18641680986423,3.787189240612962,1.8384815692978846,1.4151851324520293,0.6380535849069913,1.8269722249837996,1.575893213779053,1.106994567420914,0.9047511672319983
387,1.3357983497826706,-0.2555392847028224,-0.20662353704383962,0.9268452162680898,0.8636876928066328,0.6937170261612947,2.470953004739374,1.5015117607821349,0.7452527580426948,0.4081620839384282,0.6333676938231112,1.1083933005232152,0.4979383302918155,0.2924193129912093,0.8971551270439492
388,0.896411902369642,-0.13041244059196683,-0.07974242062784981,0.6130533921095942,0.6128725586478082,0.5019328570257353,1.9948931839553927,1.711828915585194,0.3317563303466203,0.27098166336484036,0.6468212168108125,0.6729306955595609,0.27875695837303016,0.1876771872224832,0.95916833577553
389,3.257616460483421,-0.6823413388849119,-0.5959950481117724,0.8699329980908257,0.8729147131117544,0.5936735267887493,2.716852199399651,3.9894040626698968,1.800568701898188,3.8374454092544963,0.648888643467878,2.290436959058398,1.4213699996992428,0.523333413429916,0.9678450796629998
390,0.8385219292659546,-0.07846325687881966,-0.04247168082679914,0.7819217834428611,0.7448452252624781,0.5012235725732013,1.9976047136116208,2.426792342639498,1.598443342258933,1.8049361921287281,0.6602640781246099,1.9040327117108409,1.576929638420177,1.7717445051649665,0.8581441424081212
391,1.541177618570834,-0.10791367210314229,-0.16550136141846428,0.536374488267365,0.5337643258691349,0.5109805047182014,2.6291405956494565,2.0140510678935097,1.0719200519702266,1.2424522102315243,0.6447042257417027,1.165927995952977,0.9008825426613096,0.8053284510208186,0.9600898260494259
392,1.9484505751425876,-0.3788317867372428,-0.21135346841281497,1.0819890795282705,1.083913017935845,0.7418674132857884,2.8829584033744284,2.9956786957817347,1.1799930170128656,1.3250264957991273,0.648888643467878,1.5051780022203072,1.0657223607346693,1.0727932985372037,0.9664396530815433
393,1.5578540514276704,-0.25957925992782876,-0.16518556205377904,1.2382211898606152,1.209448692024107,0.8251932008832955,4.821751735489913,4.41933752773901,1.253734407210238,1.2347726028105868,0.6425374456860184,1.6707815426751524,0.9797862230136954,0.9249830031180855,0.9218695136057636
394,1.87240076327946,-0.5173569173405228,-0.18107016321804678,1.1608360563499969,1.1442559123657996,0.7698689813917844,4.247417055247615,4.002318698041283,2.109451047821315,2.2584853316241005,0.6357360191111145,1.963655560538427,1.8042671009159623,1.903069990378821,0.8947927806144008
395,1.9786290425038287,-0.4508852284492906,-0.27628597994202597,1.0496943626997408,1.0062286566212422,0.7289136625214045,3.8898271495720964,3.9395920886744555,1.97820286211172,2.2582885545508056,0.6668815377411301,1.926586939493697,1.7451076898661386,1.8442261081267957,0.9095984524867202
396,1.7985887751952223,-0.3066032009736538,-0.3122498848492534,1.2463347882275269,1.2440560335473578,0.8317348244613719,4.166796022177166,3.9780261283512486,1.9699653142350437,2.254070368790475,0.6207552362147116,1.8230437592678215,1.677237580618233,1.6010083224783322,0.9384353594106247
397,1.170666562003937,-0.17736419214519344,-0.0893151999338331,1.3113372208228926,1.302547096318198,0.854459504571678,4.432138542704544,3.791907605580171,2.0940679309688606,2.1137468318365182,0.6566669596287297,1.8018771474163406,1.8154054211925785,1.5776762849519643,0.9411210790690738
398,1.5893319911962476,-0.3913390466311357,-0.19160402174772093,1.0750691162045536,1.066366195930258,0.7590206152438891,4.132012260040565,3.79079195550134,1.5917723152222734,1.6491291010829936,0.6403206450210053,1.69808699336542,1.4010324355612223,1.3499971270881048,0.8947331259592668
399,1.7900608107114881,-0.3612699604148885,-0.28178622849249746,1.361836782764866,1.3522404271147526,0.8308488200490419,4.537699683333441,3.7721087285584494,2.0972270014547614,1.5339687561286004,0.6509067234006624,1.9978001126426026,1.8234685295170796,1.2655280129021378,0.9436811521576759
400,1.1279448479919378,-0.14211806278640848,-0.19032708636045642,1.049971481646368,1.029090453228979,0.7475109129557711,3.5978305533945742,2.951492935029692,1.0893415130022384,0.7971676743711115,0.648888643467878,1.4108603150651402,0.9342843923477013,0.6817342951379862,0.9432416235548506
401,0.8213021851629927,-0.206717723943043,0.028371884638153044,0.8318266434526318,0.8116662487637176,0.5988016903098349,2.458399723200982,1.9616899947606834,0.4054125886105889,0.39631674954253937,0.6566669596287297,0.9067530273936664,0.31064279726441035,0.24218633223164615,0.9337189312330979
402,1.322451731664155,-0.20281766106151694,-0.17011563326603552,1.0599022023410523,1.0584228089655598,0.715917331097476,4.14322923290321,4.191482578361398,1.2116211511607144,1.3195371561261262,0.6153451465759925,1.676884361201643,1.0014452384514856,0.8073369386354766,0.9322960940211538
403,1.9674731174568088,-0.45276953401370984,-0.2635183689639813,1.2687796312175097,1.2568498108426598,0.8404454575303275,4.466727369470013,4.403155814263318,2.089411901999314,1.8528818917962522,0.6509067234006624,1.9425048425872655,1.8463177290547232,1.5690089224384556,0.9164601697234622
404,1.802042894856017,-0.30607899823055273,-0.23579890377297696,1.308786937881984,1.2866692744301278,0.8702611405602062,4.000079047594343,3.7603590109021874,1.8421688163821013,1.6387823823471024,0.6447042257417027,1.9836466308917107,1.6369513158058202,1.4378280112350734,0.9019362654038096
405,1.729401829719096,-0.31194598866765155,-0.16677635680979858,1.0426938017674245,1.004993511782462,0.7392909487426397,3.6070364562660213,2.8547056933505175,1.4966795339909145,0.8589231957308068,0.6068309995095971,1.7738540653592205,1.3471895102719456,0.8010297656504815,0.9352397108111539
406,1.558490657881944,-0.2681120402753766,-0.2063734225240537,1.5173376780627057,1.4676140594533078,0.9039272266051207,4.421261323857472,3.5033833103882026,1.7402152894425662,1.212175604777988,0.6284777104787076,1.9109184510643695,1.5610591126588331,1.102555652802999,0.8868727104241007
407,1.9171704840723578,-0.45505245733938404,-0.26145138005918667,1.110235163241063,1.0878255940574273,0.7581212069597381,3.900819890628387,2.473731859814174,1.6109933195919022,0.9865515992397195,0.6357360191111145,1.775558089890047,1.447214205257277,0.8796044387720411,0.9089661494547207
408,2.2292645244926823,-0.5871120837577453,-0.21404567883117592,1.3259886374798229,1.32898860903882,0.8265893050385056,4.586138813852274,4.377063936148869,2.4582350081699738,2.4496494241086944,0.6284777104787076,2.182237447527971,2.266879108486776,1.8895441910774238,0.9236516882799352
409,1.9937202624115666,-0.3914362197113893,-0.48968050819895054,1.2456712056683925,1.2294093990156734,0.8188928199589397,3.8242844772584648,3.4378888858894943,2.1642060289540854,1.6288885329517182,0.6403206450210053,2.145771295747304,1.8997831023053648,1.0251848201132925,0.9256570736229836
410,1.7134773966134316,-0.299585570526954,-0.22604760188042347,1.14981334737481,1.1236176741992525,0.7605298954963816,3.9577696681533423,3.723995306446376,1.835579513314437,1.576953621507822,0.6207552362147116,2.028410503900766,1.6702948443644616,1.247391424693457,0.9135136493372905
411,1.8331225577574803,-0.22429841981251541,-0.40358223485786143,1.1395685490090681,1.0843392476613913,0.7764804694076256,3.8332870775410526,4.278762150523518,2.532225419616977,2.7148637464983687,0.6284777104787076,2.2552775087848365,2.243532661212345,2.18136696060288,0.8733276190099669
412,1.3477971823989106,-0.12410954808235064,-0.24927395601075003,0.9656927685675206,0.8795891966103397,0.7299679492014326,3.4133755493218834,2.371098670870204,1.4518201538502846,0.8260691379095062,0.6333676938231112,1.7670668566376835,1.2627968800770801,0.701227566208482,0.8632246418406935
413,0.8670287032379039,-0.10018463700520863,-0.018622383758089223,0.6270177772912681,0.5904767458382905,0.6162252480823363,1.96947014812672,1.8912394227874945,0.4239100201598405,0.4568058752756728,0.62595550513784,0.8662315320014181,0.3211026867274961,0.24256377987310837,0.9424826333505743
414,1.9590034789112463,-0.19152644493092952,-0.44735464949299075,0.5052561751803726,0.4994828314133209,0.5063136313696701,1.6698331541743452,1.3960313581512198,1.4332599032965825,1.3170056180808345,0.6547956803312163,1.306333708094796,1.1266132027624933,1.0205969511770754,0.941832747360724
415,0.6165777066552716,-0.03877221075944892,-0.07956258084064477,0.3855730994658358,0.38036274789707786,0.28345537859471337,1.4601957715385,1.228871708840357,0.358075774095122,0.39032165184018697,0.6357360191111145,0.44665175243841426,0.2404691780516281,0.18896132836302265,0.945124326672229
416,1.2257489534004535,-0.06673724329749098,-0.1952386109012495,0.4799733903014044,0.45454545689084935,0.329284592777912,1.528631436545718,1.5583148590578786,0.6181145827394647,0.7157599301291586,0.62595550513784,0.789535719362172,0.5063087388356465,0.3989092997551638,0.9584356457806702
417,1.0542674788874775,-0.22351937559056817,-0.043415841849725634,1.0858220459554182,1.0819336274575684,0.7205707652891932,3.5173370709237446,2.3597673155732157,0.657345604118359,0.6236795749263006,0.663668482632973,1.1060398044969064,0.4812561710303012,0.31882738131157523,0.9493007591754299
418,1.0986999199381045,-0.15094638918325853,-0.1606034395032332,1.0525268425043446,1.0560019791834376,0.7466116549864785,2.50457522820349,1.4093289588807578,0.3813190181112074,0.2907295483859163,0.6468212168108125,1.0102351780506968,0.35138825093064385,0.23802918271796286,0.9521154931175647
419,0.7338506497898357,-0.042385929579659254,-0.04769453362169973,1.2446114881121828,1.2292723298422208,0.7682731918507787,2.8688650113387935,2.038162490418354,0.5481391743674374,0.4653974285913139,0.6357360191111145,1.0143324166215222,0.47004039688041643,0.40279684053077447,0.9501394691836716
