,bvp+temp_XAp0,bvp+temp_XAp1,bvp+temp_XAp2,bvp+temp_XCond1,bvp+temp_XCond2,bvp+temp_XDist,bvp+temp_XFuzz1,bvp+temp_XFuzz2,bvp+temp_XK2_1,bvp+temp_XK2_2,bvp+temp_XPermEn,bvp+temp_XSamp0,bvp+temp_XSamp1,bvp+temp_XSamp2,bvp+temp_XSpec
0,,0.0,0.0,0.4922323820208352,0.4746940189980308,0.6063778438582883,0.033626064610557435,0.03344154504618424,,,0.23718601089358102,inf,,,0.9349553122483678
1,2.886386479884428,2.8140570935062588,-5.700443573390687,1.5971230838774362,1.5883986785272306,0.7968661345148798,4.669765489998494,2.532304815405209,2.8158550602502492,,0.585052858160615,2.884588513140437,2.8225328627812782,inf,0.8610758472379871
2,3.3249492378186964,-3.3249492378186964,0.0,1.478248665329726,1.4274615033119717,0.7746830296447307,3.373281217386406,6.237168839688499,,,0.5287703885177266,3.3242363405260273,inf,,0.6347973296708952
3,2.995732273553991,-2.995732273553991,0.0,1.749408290216238,1.7095030692156419,0.6104746817989648,3.658284997655349,6.792079003160607,,,0.5068466436745385,2.995732273553991,inf,,0.8425974492230381
4,5.010635294096255,-5.010635294096255,0.0,1.7747126749875026,1.7413987785665603,0.8185602223487722,3.496576958265842,3.3234998478862487,,,0.49759852643134905,5.0106352940962555,inf,,0.5474084168140076
5,4.897105063825969,-4.897105063825969,0.0,1.7586564501622302,1.6737672832541852,0.7761132614451152,2.7369421802656504,3.0545661359551883,,,0.49759852643134905,4.879607031689852,inf,,0.8004837249388035
6,,0.0,0.0,1.724822869139497,1.6842205264484316,0.7702374083567867,2.8244180589186803,2.4308009430021102,,,0.541134803179459,inf,,,0.6252437787991375
7,4.759246927069194,-4.759246927069194,0.0,1.7164047365833293,1.741486810511799,0.656996036683729,3.05888274089979,5.915937646470372,,,0.5490601803369085,4.740608156883195,inf,,0.751924991998266
8,4.31748811353631,-4.31748811353631,0.0,1.432241635589326,1.4039540109035173,0.773343866138052,3.5987263959743525,26.20759028377345,,,0.48319206230712763,4.31748811353631,inf,,0.6764009544599292
9,3.89660793744542,-3.89660793744542,0.0,1.6055013979429402,1.603935925446094,0.747157778531445,3.6162523334510834,3.0033024284870184,,,0.5641709578113449,3.8954937034769355,inf,,0.7062931157427313
10,3.013875024167269,-3.013875024167269,0.0,1.7259862782550124,1.7340243963733943,0.6962394328191737,3.4855400908183447,4.347831996834067,,,0.4576907132971797,3.0132175878950105,inf,,0.7359542001051613
11,3.310599906547242,-3.310599906547242,0.0,1.6643987163790919,1.6443102632038464,0.7677968264728855,3.8921569210704456,21.560783257876654,,,0.5490601803369085,3.3086182003690623,inf,,0.538555133492531
12,2.9311937524164198,-2.9311937524164198,0.0,1.6597267933654585,1.6234209735381693,0.7287994086208375,2.0046236772030483,1.0552504072869802,,,0.49759852643134905,2.9311937524164198,inf,,0.6276082093034168
13,3.4605504721493974,-3.4605504721493974,0.0,1.743872135904881,1.6134362756129759,0.732426275329528,2.06825266475232,1.487802184416608,,,0.5370774965580548,3.4591796642005024,inf,,0.5786057704695877
14,3.624340932976365,-3.624340932976365,0.0,1.6912685579968583,1.6610602737016875,0.5312917392485228,4.247405803333618,13.04099476625011,,,0.4732203808476458,3.624340932976365,inf,,0.7809414083659345
15,4.605170185988091,-4.605170185988091,0.0,1.6449050956923212,1.5880576137062565,0.5036792478372398,2.1353771540818216,1.5991960669952543,,,0.5329562494928909,4.605170185988091,inf,,0.6135388659043073
16,3.5065578973199822,-3.5065578973199822,0.0,1.6490720657160916,1.579160596515159,0.7936243176357308,3.110173661258232,1.5460057825817737,,,0.48319206230712763,3.506557897319982,inf,,0.7925607001504493
17,3.624340932976365,-3.624340932976365,0.0,1.554232913546573,1.5058395494740577,0.7347292207445036,2.9921466313342457,3.084252381590221,,,0.5329562494928909,3.624340932976365,inf,,0.6034186877121339
18,2.926276223103066,2.774167350287621,-5.700443573390687,1.4437624220155303,1.430019376736206,0.752741132518832,3.8835207097204765,2.902888638551274,3.713957027225621,,0.48319206230712763,2.9247561847579955,2.7823651911637204,inf,0.6604489247139523
19,3.501992274974809,-3.501992274974809,0.0,1.1089943981105486,1.0464772821510855,0.8092926800707179,2.9486429116567314,1.7439024478094627,,,0.48319206230712763,3.5017546366534704,inf,,0.6126964317026811
20,3.09591034884633,-3.09591034884633,0.0,1.4789247649841877,1.4319131323788539,0.7529797262666015,3.0965885069829353,2.832387089887399,,,0.4732203808476458,3.094693554969787,inf,,0.531354745611967
21,3.2852945093036183,-3.2852945093036183,0.0,1.593003446839033,1.5430092895941792,0.7325300879682862,3.1557508270556136,3.9413036509202444,,,0.5287703885177266,3.2846002340783413,inf,,0.7773443834522901
22,3.1892600230289916,-3.1892600230289916,0.0,1.6977861736108633,1.6660330219292128,0.727216210048893,3.7652834961392383,6.859145002670944,,,0.5748741956352443,3.1885082882518048,inf,,0.8617111016439111
23,4.006222476438355,-4.006222476438355,0.0,1.6365486246273349,1.655756582528075,0.655420264248898,2.6678360075686367,6.259435208687719,,,0.4576907132971797,4.0020692861129294,inf,,0.5237932345242741
24,4.0943445622220995,-4.0943445622220995,0.0,1.5430133103030887,1.4426857513764668,0.7586103614376493,1.989962415726056,1.6081517474712432,,,0.5158180382284114,4.0943445622221,inf,,0.6131828733844198
25,4.633552743555662,-4.633552743555662,0.0,1.7162392593010145,1.7172354656114224,0.6347490580522095,2.0258703821491975,2.6543389151077683,,,0.5158180382284114,4.628780051627225,inf,,0.8101054053484101
26,3.2188758248681997,-3.2188758248681997,0.0,1.332167676013819,1.3266104062327901,0.8324259800170845,4.36116654523614,2.040596090755641,,,0.47824363442641393,3.2188758248682006,inf,,0.569294175456083
27,3.315970992461742,2.3844725809289447,-5.700443573390687,1.672780252754026,1.6227066238963272,0.7477918896125823,3.3179854969650395,3.5748002230847242,3.00800948671666,,0.5022576003740722,3.305281324832329,2.401840051089387,inf,0.8362779977364189
28,3.1711740547753404,2.5292695186153464,-5.700443573390687,1.5932439512713583,1.5609209247251545,0.7727081485447949,3.5638488937915223,2.4546560870189555,2.532208051980079,,0.5068466436745385,3.1682355214106073,2.5388858545111086,inf,0.5955273303427927
29,2.4900771039754948,-2.4900771039754948,0.0,1.6979118436322538,1.6783224831015962,0.844234260675379,4.422641038697718,13.45479896730342,,,0.5677978065141052,2.4897182067852226,inf,,0.5688914079313239
30,2.5682316772025175,3.1322118961881693,-5.700443573390687,1.5310571619949638,1.4862376087550386,0.8826785135745732,4.67815500362516,3.370321597388471,,,0.4576907132971797,2.5677087165491383,3.1394126593725775,inf,0.7579466806103629
31,3.1689825370850286,-3.1689825370850286,0.0,1.7443502697504347,1.7063847008822857,0.7956266364074107,3.084397469484807,3.159171671153662,,,0.5022576003740722,3.1682355214106073,inf,,0.6060917031200407
32,3.469330515120883,-3.469330515120883,0.0,1.509369404866149,1.4838531316900043,0.7958969738605064,3.308510696408734,2.1173211939397856,,,0.5490601803369085,3.468049688649996,inf,,0.5280995287353165
33,3.4718901474778705,-3.4718901474778705,0.0,0.5928953892184299,0.5619435726962618,0.7296729272172598,2.6389798952309693,1.5200508291684889,,,0.5567373465730988,3.4673371841667002,inf,,0.8382609093503821
34,4.31748811353631,-4.31748811353631,0.0,1.275575619683265,1.2181322609206726,0.5504661141710842,1.9557633366524154,1.1612230748351355,,,0.41861278947482794,4.31748811353631,inf,,0.7432645284261067
35,,0.0,0.0,1.599566614901935,1.5757965038388964,0.54889541497429,2.4051133269020517,2.672692849412779,,,0.5287703885177266,inf,,,0.8360125954501465
36,,0.0,0.0,1.635851491382438,1.6188782541893207,0.4752422113758068,2.142783857080255,2.2047870882150997,,,0.4880666971167561,inf,,,0.8580340643538817
37,,0.0,0.0,1.6337470935731937,1.5798316401712085,0.5996424190046609,2.312135841945898,1.6390572465575843,,,0.468121228110369,inf,,,0.6451562161227344
38,3.8359310157300524,-3.8359310157300524,0.0,1.667279888650623,1.642486150248891,0.5871955518203437,2.5640411926335434,1.3122173026664465,,,0.552929491858785,3.832493249804841,inf,,0.8229828472793913
39,2.9220956929513475,2.1930441233922195,-5.115139816343567,0.8398459064907142,0.7881297070332427,0.7100949511862864,3.440095075357207,2.3693575150555075,4.336715248182791,,0.5202020156036558,2.92103717220705,2.581165929050782,inf,0.6939921421623064
40,3.624340932976365,-3.624340932976365,0.0,1.552365457584547,1.5297947831877956,0.7757932664436196,3.4530901380108747,1.576113549951018,,,0.4066654671944331,3.624340932976365,inf,,0.5995596445519324
41,3.061505477704885,-3.061505477704885,0.0,1.7124633337356494,1.6838328951487431,0.851237928240166,4.420253718417832,6.190398070146065,,,0.5641709578113449,3.0613973549482676,inf,,0.5486093489552014
42,4.1828581709100705,-4.1828581709100705,0.0,1.6249442434028745,1.6149012925169994,0.6760226666127123,2.7353367407114124,1.0100165971887436,,,0.4880666971167561,4.17700179590311,inf,,0.8759788526891823
43,3.298056177928764,-3.298056177928764,0.0,1.7213164091511444,1.6904730000852515,0.8469198132170336,3.7426266553523515,2.910003471846368,,,0.5677978065141052,3.2977386732939253,inf,,0.7058250125973305
44,3.7071303964035693,-1.5337171276191603,-2.173413268784409,1.5183637012454088,1.55656881893193,0.8098423506437797,3.848210202830702,9.147117809984302,4.1405302492481395,,0.468121228110369,3.70500883604382,2.966357664874087,inf,0.582345391644438
45,2.4273189770164003,3.2731245963742865,-5.700443573390687,1.6024309951374567,1.5889887025150042,0.7673050383842557,4.671067867954937,19.63651358492636,3.2733025604528287,,0.5370774965580548,2.4271410129378577,3.2799803629838578,inf,0.4852294580421689
46,3.0617354539431743,2.610889503505308,-5.462329560295598,1.5716916036401112,1.5391505821322893,0.8148826984217608,3.1709679810872116,1.7396882173717518,2.599459547268753,,0.4928685327679205,3.0616346873333855,2.6061373497997824,3.3418976393808637,0.5926005517803572
47,2.4069758048073155,-2.4069758048073155,0.0,1.668715440855928,1.6622930717715052,0.8314286979965325,4.662133671033753,48.65596172492601,,,0.3685265678147087,2.4069584417405117,inf,,0.5387064848539657
48,3.195129821591718,-3.195129821591718,0.0,1.6815598031774717,1.6204651736653393,0.7237706469288512,3.1660063131980793,1.4031368528182258,,,0.5329562494928909,3.1944542517157264,inf,,0.6660876118578949
49,3.5065594366821817,-3.5065594366821817,0.0,1.4015200862431865,1.3873026500513672,0.7161892891950113,3.086255866422556,2.459873081187759,,,0.5202020156036558,3.505817430792258,inf,,0.5920499717306439
50,3.3815538795362685,-3.3815538795362685,0.0,1.7409860392401497,1.744125903555793,0.7087980681202122,3.5165035319086746,1.319318968182471,,,0.47824363442641393,3.3745554507157345,inf,,0.43274891189760734
51,3.569768126455574,-3.569768126455574,0.0,1.664548292730686,1.6475431739873339,0.5012115445439782,1.2550635933912075,0.6587625058804909,,,0.5022576003740722,3.5680393676077236,inf,,0.5251897365675284
52,3.6160961204804183,-0.4703663893450889,-3.1457297311353294,1.7377825723203817,1.689036087630551,0.6726389760491833,2.279244143444973,1.4727630562720382,3.023084219609273,,0.4732203808476458,3.6156289923743437,2.685990483037478,inf,0.5053997298912891
53,3.9120230054281455,-3.9120230054281455,0.0,1.4208388359632738,1.381728785991807,0.6342852741338759,2.3830500390303464,1.3054842386668999,,,0.4576907132971797,3.912023005428146,inf,,0.6174410278607898
54,3.2127392172798954,-3.2127392172798954,0.0,1.6992509005488947,1.6421477343303108,0.7513160493206258,2.656564668896516,1.492973461649143,,,0.4576907132971797,3.212507258417325,inf,,0.6384709754163238
55,3.0302287092974667,2.67021486409322,-5.700443573390687,1.4324143085945233,1.3861987952936414,0.7500844809456474,2.3394324413414025,0.7947638600445548,2.6708097481610142,,0.44144624493110796,3.029633825229672,2.6774875506920432,inf,0.7869735334990563
56,3.757872325600888,-3.757872325600888,0.0,1.5925841421620281,1.5677163774835543,0.7565466685690337,2.9452462311103775,1.38473435993894,,,0.5287703885177266,3.757872325600888,inf,,0.4567951533525283
57,2.6127400212978853,-2.6127400212978853,0.0,1.7123076968834972,1.7089155328418437,0.8378052281113936,6.988685216177436,14.958602422898952,,,0.4576907132971797,2.6127400212978853,inf,,0.8654228763694194
58,3.943625408605764,-3.943625408605764,0.0,1.2433053823792584,1.1716323752118085,0.6433127155885137,2.1591756348425,0.8908895170339406,,,0.49759852643134905,3.941337393096921,inf,,0.8037571876367375
59,3.2004660021032865,-3.2004660021032865,0.0,1.2275192707349387,1.2136762213362184,0.6981255961659217,2.2250071169583694,1.3917138927481179,,,0.541134803179459,3.19989052495712,inf,,0.6893488254860269
60,3.9120230054281455,-3.9120230054281455,0.0,1.5768473381461878,1.545743788372198,0.5957058651723905,2.4532721545669967,1.4906953968916299,,,0.4928685327679205,3.912023005428146,inf,,0.8107883943599046
61,3.305887201857831,-3.305887201857831,0.0,1.6398872954351558,1.6181662614441652,0.6055517632902904,3.3863304830247927,0.9831708066465246,,,0.4732203808476458,3.3058872018578307,inf,,0.8185514049456035
62,4.0943445622220995,-4.0943445622220995,0.0,1.592282913616525,1.551052927310774,0.5813868722608455,2.456450027429702,1.6841720089441408,,,0.4576907132971797,4.0943445622221,inf,,0.677118453975789
63,4.913323668150295,-4.913323668150295,0.0,1.6154344832308873,1.5974594200078982,0.5955746383567385,2.3970342631998878,1.5166541413850165,,,0.6008849035917525,4.897306608789252,inf,,0.6365860681502417
64,5.7037824746562,-5.7037824746562,0.0,1.484525718846442,1.4259685193847833,0.6548351070053245,1.5453020886118263,0.5557311662366795,,,0.4629450596409901,5.703782474656201,inf,,0.7383613461456718
65,5.010635294096255,-5.010635294096255,0.0,1.5557823907456925,1.5294688396714013,0.6223277708690952,2.1771521902428193,0.8264946420732295,,,0.4880666971167561,5.0106352940962555,inf,,0.5729357935832272
66,4.31748811353631,-4.31748811353631,0.0,1.4704052590485512,1.4626927402059104,0.7114037506423754,2.9514975836747612,1.8667674325120274,,,0.5287703885177266,4.31748811353631,inf,,0.9223137761483484
67,3.22351643164098,2.476927141749707,-5.700443573390687,1.2424098857386852,1.2184939770548429,0.7882723882088526,3.88394900356404,11.538860795411152,2.4771133981731053,,0.468121228110369,3.223330175217581,2.4837912007041347,inf,0.6390801243054189
68,4.453657627830153,-4.453657627830153,0.0,1.6220132186740073,1.6090402553283645,0.6054664428517949,2.595861402224731,1.1713170166991116,,,0.5068466436745385,4.443429336894157,inf,,0.5867096992002659
69,,0.0,0.0,1.5776167435259683,1.5528760839708864,0.7712684273879816,3.0754812377236784,3.3957164460136613,,,0.5329562494928909,inf,,,0.9280274172286327
70,4.188064853774069,-4.188064853774069,0.0,1.5818916287508882,1.528219018982029,0.7625395918074908,3.1927429719551332,4.46883338184504,,,0.5641709578113449,4.182083476530107,inf,,0.7781555722720244
71,5.1196016630925785,-3.9079626028273347,0.0,1.7230843676767527,1.7080876873497024,0.7796436442255507,3.3979645853396363,2.1465313976325757,,,0.5748741956352443,5.362559635276391,inf,,0.6418891983075795
72,3.9120230054281455,1.7884205679625413,-5.700443573390687,1.392333778836944,1.395701111286097,0.7632018155360699,3.5483401381755257,7.147111669170357,1.7884205679625405,,0.5329562494928909,3.912023005428146,1.7950983704935697,inf,0.7925943747337494
73,2.5257286443082556,3.1747149290824312,-5.700443573390687,1.5863835724696431,1.5388672786108493,0.8024464019533731,4.3661183330701485,21.088779320332428,3.1747149290824312,,0.5329562494928909,2.5257286443082556,3.1813927316134603,inf,0.6719716334183862
74,4.0943445622220995,-4.0943445622220995,0.0,1.7385539762310174,1.6559043432743112,0.7283261172904627,2.4663425926515896,0.9591184586615769,,,0.5451288209179292,4.0943445622221,inf,,0.7510432714994532
75,4.446945046139612,-4.446945046139612,0.0,1.5451253343806464,1.386422198379874,0.6618089851360969,2.4881980770329455,2.138578238783909,,,0.524519217297268,4.436834871168877,inf,,0.6958836146406744
76,,0.0,0.0,1.6643118143599178,1.6673482469304626,0.6871644383083908,1.8072879647908664,1.9031446778800656,,,0.47824363442641393,inf,,,0.9109257072340707
77,3.179921707133746,-3.179921707133746,0.0,1.7369147108967962,1.674053786502114,0.7909271356739465,3.7526012844557886,3.093982667554169,,,0.5287703885177266,3.1791210663083684,inf,,0.5575202493998127
78,4.0943445622220995,-4.0943445622220995,0.0,1.604072197611588,1.6044274483762089,0.7431930335785255,3.1472413238159276,3.778872200374239,,,0.4928685327679205,4.0943445622221,inf,,0.675677849851573
79,3.3900834610451156,2.3103601123455713,-5.700443573390687,1.5677809482710352,1.543555588427086,0.7932773673338994,3.4307789050169695,3.7813328221171827,3.7804718730157085,,0.5202020156036558,3.3863087691684046,2.320812606753311,inf,0.5005071556887987
80,5.002421730829074,-5.002421730829074,0.0,1.6686545109247133,1.664406058422966,0.6861057241839235,2.8639929458109465,2.1269330807196565,,,0.5158180382284114,4.915325114291931,inf,,0.6747714597016298
81,4.669259383047688,-4.669259383047688,0.0,1.7743399320013191,1.7576887479677807,0.7409675494521627,3.100594947621583,3.056182496089549,,,0.5068466436745385,4.6576337555238325,inf,,0.9474617366166312
82,5.428834093034088,-5.428834093034088,0.0,1.5916692231279734,1.5616375266679041,0.6355890384777572,2.3905916757018226,1.5491109491742248,,,0.5113665138247345,5.369694029390264,inf,,0.8044622004349948
83,,0.0,0.0,1.6288579125772211,1.6307835019511925,0.5643686405402731,2.559801279598852,3.093338033990736,,,0.4732203808476458,inf,,,0.7082847995721832
84,4.77681708175388,0.9236264916368064,-5.700443573390687,1.7560904094722556,1.7193408363697247,0.5824415356850933,2.55747545128376,1.8127321688588132,0.9431576726657063,,0.5068466436745385,4.75728590072498,0.9498354751967356,inf,0.5816678189004054
85,3.371651225922814,-3.371651225922814,0.0,1.623926403289914,1.625415028073283,0.827466275837117,4.032101503213141,1.44288302113398,,,0.49759852643134905,3.3706681766273325,inf,,0.7254504764956675
86,3.5055042921634034,-3.5055042921634034,0.0,1.4265081292570732,1.4123565476385702,0.877239571220334,3.325487004504934,4.3590049441608905,,,0.44144624493110796,3.5054474030359546,inf,,0.8381272407678222
87,3.9387635004245922,-3.9387635004245922,0.0,1.6504433404784935,1.6320284806431027,0.7204474325507026,3.3448189862158975,3.5367481447734908,,,0.5158180382284114,3.93677117511734,inf,,0.6927703948123447
88,3.757872325600888,-3.757872325600888,0.0,1.7040894362037213,1.6602133035134452,0.6761730673085351,2.46141431527028,1.6574845700726164,,,0.5202020156036558,3.757872325600888,inf,,0.6078785191686173
89,2.2376362830742513,2.76966010975649,0.6897970936746631,1.241993448961646,1.2203872422627635,0.8579449909819424,4.483394958524322,23.993173049766085,3.4968304666976824,,0.48319206230712763,2.237629991971258,2.776344203390512,0.6964972674452273,0.5487849221521831
90,2.995934098119523,2.704509475271164,-5.700443573390687,1.4934309610403016,1.4359450570652639,0.811569379167998,3.529723105058611,6.635117193515349,2.708260549347837,,0.5490601803369085,2.9921830240428493,2.714938351878866,inf,0.6035903774402952
91,2.4671265931585125,2.1347046915640653,-4.601831284722578,1.7098083690705712,1.6793395499825703,0.8277803831766323,4.400006266917788,1.7309312350642587,3.230168907658408,,0.47824363442641393,2.466935764466764,2.141573322786842,inf,0.6749458818084695
92,2.858946919785862,2.8414966536048247,-5.700443573390687,1.7182619553215648,1.6341381443226486,0.8579469654496459,3.149150581136654,1.9180290119447845,2.8417642622270116,,0.4732203808476458,2.858679311163675,2.8484420647580406,inf,0.8205374350407544
93,2.927139880984144,-2.927139880984144,0.0,1.6562371621898937,1.578627679315062,0.8520141108603531,2.899788596927225,1.1127706984165426,,,0.47824363442641393,2.925791703127425,inf,,0.5523787814691196
94,3.2188758248681997,-3.2188758248681997,0.0,1.6928663107763267,1.69486376508629,0.6617087964873863,2.4109305625321307,1.3394997399807727,,,0.5113665138247345,3.2188758248682006,inf,,0.6974850694885046
95,3.01320005333979,-1.3926726160882563,-1.6205274372515335,1.6608025503880532,1.6280365196051632,0.7467837351562101,2.6489470866775195,1.9103375763641512,,,0.5677978065141052,3.0096058458198627,3.955307847002223,inf,0.6602746406408965
96,2.9065139190000036,2.7939296543906833,-5.700443573390687,1.718142394927158,1.6914157180438525,0.8207799773367747,3.6952179095777344,4.626416232063967,2.7947551113826283,,0.4576907132971797,2.905688462008058,2.801432913913658,inf,0.5716210768626752
97,3.826212460324306,-3.826212460324306,0.0,1.573857495461496,1.4970628451609327,0.7129290181053304,2.706875335490561,2.4780632339198787,,,0.5068466436745385,3.823300130923343,inf,,0.8038946937354885
98,2.8149763480213568,2.88546722536933,-5.700443573390687,1.7138686596558301,1.6834686232885685,0.8566773400308891,3.4728584251455574,2.891169802854712,2.8859211277779595,,0.47824363442641393,2.814522445612727,2.892598930308989,inf,0.4824044475182429
99,2.638171067700336,3.062272505690351,-5.700443573390687,1.257342398054676,1.2423422118733032,0.8088635244501279,4.167750406507947,11.877914785612866,3.062851835937038,,0.524519217297268,2.6375917374536484,3.069529638468067,inf,0.6865880789033603
100,3.543662634147365,-3.543662634147365,0.0,1.704242956450361,1.6818926107426948,0.7951154488138994,3.3555202634601797,8.215004242884342,,,0.5915533975974677,3.5267606046375013,inf,,0.8515288090525928
101,3.5065578973199822,-3.5065578973199822,0.0,1.6533548336568462,1.5830686534097411,0.7054523012841767,3.844114724411014,2.6652617535866834,,,0.5567373465730988,3.506557897319982,inf,,0.7053810455646959
102,5.7037824746562,-5.7037824746562,0.0,1.4096212653925781,1.3476540646128412,0.7189068884646239,2.002439148750652,1.023641086432147,,,0.468121228110369,5.703782474656201,inf,,0.7278207460624432
103,4.31748811353631,-4.31748811353631,0.0,1.5732257423911848,1.547070745726132,0.7184667778934751,2.6171402561413983,1.3252052404522798,,,0.47824363442641393,4.31748811353631,inf,,0.6522803794809299
104,3.401197381662155,-3.401197381662155,0.0,1.6629117624360208,1.6432105236513024,0.809937749474136,3.383267272060028,3.1152602320328873,,,0.6038851895711802,3.4011973816621555,inf,,0.5184173889363073
105,2.445685936634719,-2.445685936634719,0.0,1.631201019143248,1.614880082069662,0.7764555174046701,4.035939554545127,20.461068537206767,,,0.468121228110369,2.445685936634719,inf,,0.7166935824400242
106,2.4742420634500073,3.2262015099406796,-5.700443573390687,1.7252062032330275,1.7207122655428106,0.8782391333118312,4.680859108901085,5.321461553191228,3.22654280277922,,0.4302020962658841,2.4739007706114666,3.2332206053102492,inf,0.7923431413570446
107,5.008324803494388,-5.008324803494388,0.0,0.6894372499251537,0.6694804186206058,0.35558653248898753,1.922474296857429,1.657069815950927,,,0.07119540247167302,5.007307504003581,inf,,0.7723130919917266
108,,0.0,0.0,0.6894372499251537,0.6880170205883909,0.5955900140906693,3.540991323933367,10.650787893551174,,,0.1687963801566332,inf,,,0.8717580247193463
109,,0.0,0.0,0.6894372499251537,0.6826675827432122,0.9192033724866407,3.0251836615236973,2.256836219785098,,,0.08522179521623931,inf,,,0.8879466907268337
110,5.006580643015172,-5.006580643015172,0.0,0.46172196171422,0.3878872601378454,0.5319401674558573,3.288837052988548,3.4778270811745986,,,0.31914402280573173,5.005647752585217,inf,,0.7834279671319918
111,3.142813609396728,-3.142813609396728,0.0,1.1028651967590821,1.0821319662330295,0.6500316686023108,3.4243921288324684,4.128750545404408,,,0.5451288209179292,3.1337180165278937,inf,,0.6332264406321099
112,,0.0,0.0,1.770048623312463,1.7421329472532872,0.8686765847708939,2.6972495944329595,8.063966303368119,,,0.4576907132971797,inf,,,0.7907717863551349
113,,0.0,0.0,1.7778373500798352,1.7527463079042036,0.7755683369763442,3.001072034837736,3.4926895015396986,,,0.3751344627501719,inf,,,0.8036139976921047
114,,0.0,0.0,1.743039775313126,1.7144184272430478,0.8021452077760203,2.3297267809673046,2.5159167971288943,,,0.4629450596409901,inf,,,0.8062355648976349
115,,0.0,0.0,1.7692131786062677,1.7394992194106742,0.940319453309018,2.428372827675501,3.160514762923039,,,0.44694259446804574,inf,,,0.8179036265294684
116,,0.0,0.0,1.6346658691817515,1.6306624272864003,0.5428364428492674,1.928795906430081,2.429665698058613,,,0.5022576003740722,inf,,,0.6703426879062547
117,,0.0,0.0,1.6392666872184893,1.6237193882076812,0.7630253553397396,1.681440111004597,2.2484745488100084,,,0.5287703885177266,inf,,,0.797819933866093
118,,0.0,0.0,1.6194797751579884,1.6071914923958879,0.7355972032960124,1.4695704712024615,1.649750227858475,,,0.4576907132971797,inf,,,0.8152015246497917
119,,0.0,0.0,1.6276908280050102,1.611486320999038,0.8358659995640503,1.2471588327021126,1.440319597251944,,,0.4880666971167561,inf,,,0.8402067983355999
120,,0.0,0.0,1.6028878124307173,1.5744722568007157,0.9131623572602309,1.1401111222785814,1.259906594712213,,,0.5068466436745385,inf,,,0.7302637911918379
121,,0.0,0.0,1.6505221781181776,1.6171491346720193,0.8608495888311795,0.9614591090000727,1.1925732588366977,,,0.4732203808476458,inf,,,0.7680605603162415
122,,0.0,0.0,1.6229241757332238,1.5988107483020626,0.7257165926201261,1.0535587132379751,1.2558441742552304,,,0.468121228110369,inf,,,0.7976984919542425
123,,0.0,0.0,1.7401234150419245,1.729052365232537,0.6279869586981252,1.0530016660510986,1.306940733283396,,,0.5022576003740722,inf,,,0.7764332689105953
124,,0.0,0.0,1.5413421790756798,1.5133937078822424,0.8551193813097862,1.0629611100467233,1.4141149230290868,,,0.4302020962658841,inf,,,0.695576011308162
125,,0.0,0.0,1.686387732524818,1.6856806328072702,0.5455953754899092,1.1424018194527905,1.3250510311699737,,,0.524519217297268,inf,,,0.7879900782449917
126,,0.0,0.0,1.7045126907243024,1.6914798121972576,0.8336930707833522,0.8805781925185282,1.061161169682522,,,0.5022576003740722,inf,,,0.7007121065985441
127,5.010635294096255,-5.010635294096255,0.0,1.6172736009383415,1.564502916728609,0.5382420680387366,1.6488305497546893,1.4210471324882017,,,0.41268473150466,5.0106352940962555,inf,,0.6375107429159463
128,4.0943445622220995,-4.0943445622220995,0.0,1.5045815758279093,1.3863473555954446,0.6858377813352783,2.844661197434701,2.1563967180428247,,,0.5158180382284114,4.0943445622221,inf,,0.7962729133934455
129,,0.0,0.0,1.7508289946381894,1.7175715197838946,0.9400334724777492,2.338916009968314,2.88869823934835,,,0.4880666971167561,inf,,,0.7269370593321838
130,4.605170185988091,-4.605170185988091,0.0,1.234312433008104,1.2604477590964909,0.6700738950428906,2.4480005804928506,2.8438763005374907,,,0.5068466436745385,4.605170185988091,inf,,0.6629742754801563
131,,0.0,0.0,1.6830056791145251,1.6540943888916677,0.6811241382715584,2.18604442446841,2.5202852840109142,,,0.5370774965580548,inf,,,0.666267936623424
132,,0.0,0.0,1.6399779402995975,1.608243056333902,0.6851287906123731,1.9731336223052274,2.642757204004083,,,0.468121228110369,inf,,,0.8270690807260963
133,,0.0,0.0,1.7053641238094734,1.6578280330744244,0.8677367063470701,2.4922326328122084,2.5206774452026246,,,0.552929491858785,inf,,,0.7829280942189176
134,,0.0,0.0,1.590386038609546,1.564541329407055,0.8286907737682182,2.104582601234225,3.0194406170210373,,,0.524519217297268,inf,,,0.6778156863627854
135,,0.0,0.0,1.3339665311654225,1.2839777714440461,0.5021039891483671,1.100500856867777,0.9638321312644302,,,0.4880666971167561,inf,,,0.6759206091678245
136,,0.0,0.0,1.4192258887722997,1.3938919771164793,0.5754767834871346,0.4381374310623653,0.5192749347158934,,,0.4629450596409901,inf,,,0.7982855807713178
137,,0.0,0.0,1.635668793612082,1.6337339235203343,0.5684367352732905,0.4282542552437612,0.5313272331744774,,,0.4629450596409901,inf,,,0.798434190420918
138,,0.0,0.0,1.4329741047359976,1.419980107375848,0.45808618461279427,0.47643427958542145,0.5794193991692478,,,0.47824363442641393,inf,,,0.8102919391394356
139,,0.0,0.0,1.6244730652860684,1.5884840391453623,0.3891191379901411,0.9869740215122645,0.9893148067828254,,,0.4880666971167561,inf,,,0.5572636481758559
140,,0.0,0.0,1.5769727832954088,1.600914051199636,0.6231971268102214,1.7165438124340224,1.5992190443859642,,,0.5677978065141052,inf,,,0.7766108110530162
141,,0.0,0.0,1.6174373357393481,1.5989681266488192,0.5085961899416802,1.3263755444814505,1.5259471414781203,,,0.4928685327679205,inf,,,0.7506922674201935
142,,0.0,0.0,1.2063850217182697,1.1761561302538033,0.7970858676650813,1.3982717221131653,1.4727374521107202,,,0.5022576003740722,inf,,,0.7209496134159721
143,,0.0,0.0,1.482681165573032,1.4700675607960985,0.6672261657293913,1.6423102566704773,2.026844038734123,,,0.4629450596409901,inf,,,0.8081594637873214
144,,0.0,0.0,1.6181656953024581,1.6261557855703934,0.7235678316772635,1.536594993924339,1.9104957833752108,,,0.4576907132971797,inf,,,0.8466813185093734
145,,0.0,0.0,1.6398425370518495,1.6320009766180268,0.6268216330513263,1.7405722197367057,1.4814942393904567,,,0.48319206230712763,inf,,,0.6920109151065148
146,,0.0,0.0,1.6038914212690965,1.5909436740082366,0.7708583096126531,1.8088478519545774,1.7632642838263426,,,0.49759852643134905,inf,,,0.7572167574854611
147,,0.0,0.0,1.6211306006634383,1.6282660327047107,0.5072685538328404,1.833742021813006,1.6408279164017396,,,0.44694259446804574,inf,,,0.9171103551940039
148,,0.0,0.0,1.6437471290922965,1.6753245979420255,0.6197237598646866,1.337866857681226,1.2570475027840182,,,0.4302020962658841,inf,,,0.869108335130579
149,,0.0,0.0,1.6273168703820327,1.610314535073638,0.4027069186260018,1.0393543220429107,1.040046314171677,,,0.48319206230712763,inf,,,0.9255697949907317
150,5.010635294096255,-5.010635294096255,0.0,1.5794066432689309,1.5336086113821745,0.6898853435508675,1.926482097355576,1.1985531187706846,,,0.3685265678147087,5.0106352940962555,inf,,0.607688360357403
151,,0.0,0.0,1.561340156800159,1.5068611956409708,0.8506232336345284,2.024773650653771,1.7288457378074513,,,0.4629450596409901,inf,,,0.850184047291007
152,,0.0,0.0,1.5506240459868796,1.5304663961782219,0.8179875848732792,1.8528265203489795,1.8487869104548953,,,0.44694259446804574,inf,,,0.7242816388605186
153,,0.0,0.0,1.4295670524492525,1.4481576182176976,0.605415821824257,2.0301906133827714,2.479597404095205,,,0.5158180382284114,inf,,,0.7711046915627835
154,,0.0,0.0,1.4818886940201654,1.454293759644995,0.7885363732529003,2.084799759616831,2.747087088495424,,,0.42445136339222655,inf,,,0.7149008144207698
155,,0.0,0.0,1.3896800299525705,1.357332967404309,0.8396073823732861,1.7001276012160889,1.8187446633381787,,,0.48319206230712763,inf,,,0.7212599999208384
156,,0.0,0.0,1.488448209809791,1.4682183600947418,0.44723776188835246,1.3031197948230617,1.0653808408401673,,,0.4576907132971797,inf,,,0.6239888804738818
157,5.7037824746562,-5.7037824746562,0.0,0.9503923442327056,0.8795146087770548,0.2534385502666153,0.7486818926830724,0.6062049409480593,,,0.45235697871908603,5.703782474656201,inf,,0.8631156597906681
158,,0.0,0.0,1.6237630573989101,1.6133112644423895,0.3913804420555408,1.5440265660134151,1.284176239277673,,,0.49759852643134905,inf,,,0.6620266090672672
159,,0.0,0.0,1.4384189341346478,1.445659682869607,0.58152530944111,0.7315050713853268,0.897843630165141,,,0.5068466436745385,inf,,,0.8214484372253869
160,,0.0,0.0,1.569111800557925,1.5777692110842252,0.3457908238279588,0.7482961813459057,0.9678640458298069,,,0.5113665138247345,inf,,,0.9063607870390488
161,,0.0,0.0,1.5100166928156946,1.5083460384270868,0.5968511350377788,0.6043396725744703,0.8388006997953775,,,0.44694259446804574,inf,,,0.8550875276713499
162,,0.0,0.0,1.4038841434828673,1.3966463862948526,0.19470811563516016,0.6781905506453685,0.8117179797379521,,,0.5451288209179292,inf,,,0.9389713488523515
163,,0.0,0.0,1.5249224464188615,1.5385717479472223,0.39637081533846946,0.7292016990618129,0.8517291600995927,,,0.541134803179459,inf,,,0.8999424370374367
164,5.7037824746562,-5.7037824746562,0.0,1.2622627453323003,1.2317020188802998,0.32355686150091956,1.0897190497545877,1.0016435464380742,,,0.5113665138247345,5.703782474656201,inf,,0.8045399359337345
165,,0.0,0.0,1.5320850440066902,1.511465548635553,0.581665285304411,1.745855915064483,1.8664239287445998,,,0.48319206230712763,inf,,,0.833091469387266
166,,0.0,0.0,1.6341146444825991,1.6176942030433714,0.6713642850443313,1.5863635803969882,1.8323813268763167,,,0.4302020962658841,inf,,,0.8362009130396808
167,,0.0,0.0,1.5071860599219096,1.4957071334966103,0.716389311739366,1.8336137553862153,2.169484897129432,,,0.4629450596409901,inf,,,0.6851545077734319
168,,0.0,0.0,1.611680250727201,1.6027463823369215,0.5339536418631159,1.7385062827333222,1.6592672133605446,,,0.41268473150466,inf,,,0.717282273466965
169,,0.0,0.0,1.5199360382452614,1.484245667535129,0.5190974569794671,1.9984946733960587,2.292670887078298,,,0.524519217297268,inf,,,0.7431887793784774
170,,0.0,0.0,1.2454299228994916,1.201925508577862,0.8929654481207274,2.461223295422726,2.6057942183669223,,,0.4880666971167561,inf,,,0.7797670569897187
171,5.010635294096255,-5.010635294096255,0.0,1.5352122617908317,1.525265776755065,0.7651486507762603,2.7011229360802633,2.60938304840193,,,0.5068466436745385,5.0106352940962555,inf,,0.8451694117984451
172,,0.0,0.0,1.4929789619686034,1.4093685098721251,0.6558843547947861,2.1707957426057987,1.8988866323783493,,,0.5113665138247345,inf,,,0.790871841659373
173,,0.0,0.0,1.6453458977805009,1.6030277973615754,0.8461092523810984,0.9651437621246711,1.3853392429284415,,,0.5022576003740722,inf,,,0.7284834217011185
174,,0.0,0.0,1.6010073692182738,1.5799795322379973,0.8454933397804641,0.9721814039691449,1.1558520897398874,,,0.5202020156036558,inf,,,0.7972537541451156
175,,0.0,0.0,1.6842629029119984,1.6624009881892055,0.44308418921029347,1.3508686743285585,1.4699190705425491,,,0.4576907132971797,inf,,,0.9326389600545486
176,,0.0,0.0,1.7303594881457889,1.7050640669417407,0.9423421108905946,1.5142069123012816,1.9261550583274127,,,0.41268473150466,inf,,,0.8470780661589379
177,4.4632470302452125,-4.4632470302452125,0.0,1.3964356995847325,1.2370994612480832,0.5881391415766511,2.0078121558416573,1.6939925229342192,,,0.4302020962658841,4.4529260844314145,inf,,0.8972954426825093
178,4.31748811353631,-4.31748811353631,0.0,1.7484525220443374,1.718713189621906,0.9598101673989362,3.2913692075129606,4.454034643824462,,,0.541134803179459,4.31748811353631,inf,,0.8070876751245754
179,,0.0,0.0,1.7794701424503745,1.7575588643095004,0.8470969335480022,3.2389870803229486,3.5935845132994855,,,0.47824363442641393,inf,,,0.8125145469091444
180,,0.0,0.0,1.7061868413794292,1.6994132493367449,0.9430047791429078,2.417367873026594,2.9775947127634512,,,0.44144624493110796,inf,,,0.8358328791726991
181,,0.0,0.0,1.4853427630018323,1.4629527724362272,0.9058160801350881,2.5857387609869247,3.5874609726510536,,,0.4732203808476458,inf,,,0.8296941238743565
182,,0.0,0.0,1.676573766558796,1.652698689337408,0.8965176251343777,2.5189206226259246,2.4710692604709203,,,0.5022576003740722,inf,,,0.8478566980938672
183,,0.0,0.0,1.5102155482707447,1.4759443652547424,0.9265005403478842,2.696788397696287,8.098598098104542,,,0.4928685327679205,inf,,,0.8242850112673913
184,4.31748811353631,-4.31748811353631,0.0,1.602220284274714,1.610273884934034,0.7382384795450742,2.9296251461588603,3.801740048378388,,,0.5113665138247345,4.31748811353631,inf,,0.7530294219793808
185,5.7037824746562,-5.7037824746562,0.0,1.478376538977407,1.4687633080191633,0.9328569802466601,3.597247780320763,2.791493081694554,,,0.43586655696697996,5.703782474656201,inf,,0.6815236701156357
186,,0.0,0.0,1.6972457192954067,1.6793399350152478,0.9375808075420912,2.6897948677645926,4.478826331434272,,,0.48319206230712763,inf,,,0.7586115086977003
187,3.757872325600888,1.2494240672298536,-5.0072963928307415,1.4292606879334315,1.3700015525764864,0.8670701082691207,3.0422480689697147,3.6394228031087206,1.2494240672298536,,0.45235697871908603,3.757872325600888,1.2561018697608826,inf,0.864898939399826
188,4.349133141506006,-4.349133141506006,0.0,1.6710574504267508,1.6197880468447317,0.9194298737881261,3.5488854735954085,11.550841930211176,,,0.468121228110369,4.345373317025846,inf,,0.8142388665134411
189,5.7037824746562,-5.7037824746562,0.0,1.3126446646538519,1.2636326337396713,0.9235904425627215,2.8419118874591,6.601323884624111,,,0.47824363442641393,5.703782474656201,inf,,0.7590986918322468
190,4.605170185988091,-4.605170185988091,0.0,1.578656182203993,1.5309563383717364,0.8650411536487431,2.7524112966364207,2.4980730922314307,,,0.4576907132971797,4.605170185988091,inf,,0.8214455533304813
191,5.010635294096255,-5.010635294096255,0.0,1.4020557215560385,1.390742382182127,0.9113200789896776,3.2575465058509705,5.355697729118982,,,0.5287703885177266,5.0106352940962555,inf,,0.7982701964169303
192,4.063349897567127,-4.063349897567127,0.0,1.5757677868387208,1.5423471771999149,0.9251446075118845,3.1360591480838163,6.108967294584233,,,0.49759852643134905,4.060909786135864,inf,,0.8250537557430416
193,,0.0,0.0,1.4896958627372356,1.4613124055843876,0.9385600941795066,3.1366363355792046,3.009946449067453,,,0.40055318934786044,inf,,,0.8376888276350029
194,4.5869503213994784,-4.5869503213994784,0.0,1.5797072229452573,1.5570603571235135,0.9283783782698025,2.9951341451670617,5.060512674478898,,,0.5022576003740722,4.584278826956715,inf,,0.8675835168805165
195,4.032355232912155,-4.032355232912155,0.0,1.4036676942330781,1.315282137060843,0.8969676187821513,3.0639195752327684,3.0406741602139826,,,0.4928685327679205,4.028556821684098,inf,,0.8833829593755845
196,5.010635294096255,-5.010635294096255,0.0,1.6813109213122652,1.6744237236707575,0.9522235280301163,3.338347690895505,3.507509189162602,,,0.42445136339222655,5.0106352940962555,inf,,0.841311538955812
197,,0.0,0.0,1.6242201688837765,1.5655653755071486,0.6832971169931399,2.344440943202375,3.3712494815587752,,,0.5068466436745385,inf,,,0.868915992022405
198,,0.0,0.0,1.701474499710101,1.68047209423872,0.9215911328540732,2.401178503312549,2.4777768171204184,,,0.43586655696697996,inf,,,0.8243799493587242
199,,0.0,0.0,1.7122187502379906,1.694789375429172,0.9674343024715784,2.1607380653119717,2.409475822548037,,,0.38163879478178075,inf,,,0.8465554995917819
200,4.934948473916064,-4.934948473916064,0.0,1.3026019581650634,1.2541853832859513,0.6658891979045878,3.1335998216505954,2.823114963762958,,,0.5022576003740722,4.921404160368313,inf,,0.5740102240458851
201,5.125315512958113,-5.125315512958113,0.0,1.4722799863420462,1.4759383518911726,0.6571755492500837,3.0445849798141404,2.4706992078577215,,,0.4629450596409901,5.008970014777194,inf,,0.8337185615743973
202,5.010635294096255,-5.010635294096255,0.0,1.5954840596509907,1.5061364284491003,0.5267397357789267,1.957181126237588,2.0414750083517337,,,0.4576907132971797,5.0106352940962555,inf,,0.7955836656149884
203,,0.0,0.0,1.779057389885315,1.7766804977614445,0.6564681438690545,1.2187472695864217,1.2435085004927284,,,0.5068466436745385,inf,,,0.8702079068232855
204,,0.0,0.0,1.5489262106035508,1.5083483788698098,0.8692526212235474,1.150277005769882,1.2657377860327776,,,0.4629450596409901,inf,,,0.811863297074697
205,,0.0,0.0,1.7063653670662597,1.7095574330227745,0.6347371822117341,1.1847402134214697,1.29432161724898,,,0.5287703885177266,inf,,,0.8571838756035761
206,,0.0,0.0,1.3378293281392106,1.273971589850554,0.4880208091437984,1.4146627380141068,1.2652560181622439,,,0.5370774965580548,inf,,,0.9196635289103642
207,2.7482440615363006,-2.7482440615363006,0.0,1.245260381305793,1.2382287634290579,0.8927885157871626,4.31543393724628,20.795490270116662,,,0.44694259446804574,2.747484270347617,inf,,0.6516733812155421
208,3.7406572927969624,-3.7406572927969624,0.0,1.5473872651649248,1.5146235136453194,0.6851631975438918,3.2588357760489743,2.3232692682777327,,,0.552929491858785,3.737602953838825,inf,,0.9199617257911326
209,3.9017462934396616,1.7986972799510252,-5.700443573390687,1.3803138916603608,1.330368264221464,0.7737909239471082,2.9105156014975075,2.3997865390696838,1.7994704041491252,,0.524519217297268,3.9009731692415612,1.8061482066801546,inf,0.7310142733094778
210,3.2105250604242728,-3.2105250604242728,0.0,1.5188597948699711,1.5238632927745406,0.8013873412569407,3.5911000397448607,3.2106385192132625,,,0.43586655696697996,3.2089254940150327,inf,,0.7600517729977722
211,3.8046313651484898,-3.8046313651484898,0.0,1.6929534922047451,1.6702979741602204,0.66897316220792,3.0450759838184736,2.928756814367213,,,0.4928685327679205,3.802172584497468,inf,,0.8844245028340129
212,4.0195927239365785,-4.0195927239365785,0.0,1.598273587040285,1.593918472934019,0.6766722760870554,3.3819912805939354,2.887783268398145,,,0.5329562494928909,4.015533381797811,inf,,0.8484749537677504
213,3.106472636020872,-3.106472636020872,0.0,1.618186064334741,1.565749164474521,0.7198216536028387,3.4415918265443253,3.596893351965759,,,0.5113665138247345,3.105795186195236,inf,,0.6001098536993805
214,4.312894438991048,-4.312894438991048,0.0,1.6782406016935698,1.6531079234567492,0.4834752589245509,3.3596433017365617,5.090692040285285,,,0.5329562494928909,4.295237504601491,inf,,0.7657858634649092
215,3.709025437472419,-3.709025437472419,0.0,1.571700372067618,1.5194581889790246,0.7731486949512046,2.976296786492487,2.228456035551399,,,0.5748741956352443,3.703654739696091,inf,,0.8525490392721885
216,4.2237678219843415,-4.2237678219843415,0.0,1.7598265131711803,1.7150396070709037,0.7320407889467964,3.421702267472482,2.4624793486024266,,,0.4928685327679205,4.217642778566594,inf,,0.7817113287785324
217,3.2034009013846503,2.4970426720060366,-5.700443573390687,1.5913411668067563,1.591069469241895,0.7585688896921636,2.9397560059556764,1.6264536765610647,2.497550453029095,,0.18952474069199465,3.2028931203615914,2.5042282555601245,inf,0.8049824123780707
218,,0.0,0.0,1.5913411668067563,1.4462778159899061,0.7880753118519626,0.15051580815848323,0.14193058054553612,,,0.21876365787541036,inf,,,0.9528067449917732
219,,0.0,0.0,1.5913411668067563,1.5793667852746716,0.8859950869223574,0.03694866040314208,0.04550858735590814,,,0.1687963801566332,inf,,,0.9486262011960402
220,3.3588787187861553,1.369248392253612,-4.728127111039767,1.1657838905710172,1.1016142953238086,0.5565641300561855,2.246303649486566,1.5899907160212976,3.705309226593057,,0.41861278947482794,3.351772498334632,2.5423637048127876,inf,0.5936880233439898
221,2.9059683821911504,-2.9059683821911504,0.0,1.6240470549139059,1.5883910964593038,0.8152913690633788,3.709613036205779,4.183198827117302,,,0.4629450596409901,2.9050793867684392,inf,,0.5475704720754856
222,2.848860487367393,2.851583086023294,-5.700443573390687,1.7653505881058753,1.7245834711542938,0.7798809605576539,3.5732900205027547,3.7489631584025065,3.0593633486218694,,0.5490601803369085,2.848462354818955,2.8586590211027607,inf,0.7355976830411133
223,2.70805020110221,-2.70805020110221,0.0,1.4372159952508132,1.4247847522149213,0.8034033243722898,4.26091451157363,12.564343923082898,,,0.468121228110369,2.70805020110221,inf,,0.7169115711313597
224,3.113287891242077,-2.064711314196967,-1.0485765770451103,1.6061547107044274,1.5752294592978753,0.8005457442515329,3.367203853079912,2.7265259602045138,,,0.5068466436745385,3.1117668386762576,4.288464925403674,inf,0.5379826379287631
225,2.789080467188412,-2.789080467188412,0.0,1.5871525655532879,1.5240053420408384,0.8304477563919411,3.8541740495363874,2.7219314585961905,,,0.524519217297268,2.7887181041696647,inf,,0.6294175146102673
226,5.7037824746562,-5.7037824746562,0.0,1.7111025480620352,1.6975975925669458,0.6125031974703233,2.2860126114978496,2.537047348121099,,,0.47824363442641393,5.703782474656201,inf,,0.806318513039224
227,3.9405867159925316,-3.9405867159925316,0.0,1.522833646912457,1.4850863282016535,0.7523501899660866,3.2444336189480056,2.186670327765929,,,0.48319206230712763,3.9384810643911674,inf,,0.5781873500685262
228,3.476354549498072,-3.476354549498072,0.0,1.5115358645802042,1.4797561708345572,0.776506206292385,4.263640436305281,22.76667260352344,,,0.5068466436745385,3.475202794972651,inf,,0.6936681500373095
229,3.624340932976365,-3.624340932976365,0.0,1.7209369779859456,1.662125728300482,0.7681813811692488,3.3349409072971223,6.3657079557431375,,,0.4576907132971797,3.624340932976365,inf,,0.5838898465378638
230,4.053626081204784,-4.053626081204784,0.0,1.6832098497756074,1.6333114805272486,0.6411382022734193,3.0668145390266326,1.5858825260264195,,,0.5022576003740722,4.050646706956381,inf,,0.7662248888974706
231,2.857994279555197,2.1493021132755445,-5.0072963928307415,1.6679499212051474,1.626803888594584,0.7684685715284827,3.5019349229326613,2.1464508956154176,2.1495854171741247,,0.48319206230712763,2.8577109756566164,2.156263219705154,inf,0.5080187298506545
232,,0.0,0.0,1.692142023685419,1.6892643333774895,0.6786392238384933,1.9415590085122028,1.8389176705540022,,,0.5113665138247345,inf,,,0.8674024315932389
233,,0.0,0.0,1.7414604024315086,1.7717059809426248,0.8351282330853247,1.7457700993620577,1.7550552171565932,,,0.468121228110369,inf,,,0.808418570138198
234,,0.0,0.0,1.7764665052624544,1.7666602491851955,0.7687295905195968,1.7976641811605623,1.8773642591200541,,,0.48319206230712763,inf,,,0.7901179036966948
235,3.1388331171946646,-3.1388331171946646,0.0,1.4076923594889945,1.3382369891726247,0.7603910559032393,3.5151468796078666,1.935172793495271,,,0.5022576003740722,3.138833117194664,inf,,0.6650904841525157
236,3.305887201857831,2.3945563715328557,-5.700443573390687,1.7204594942578972,1.6806644261882133,0.6929871521775692,3.4160131635380813,2.7221783982892434,2.3945563715328557,,0.5490601803369085,3.3058872018578307,2.401234174063885,inf,0.7693589474951116
237,4.0943445622220995,-4.0943445622220995,0.0,1.6609560248940956,1.635108089327516,0.7051074238959475,2.727272048672582,2.4318299841205966,,,0.468121228110369,4.0943445622221,inf,,0.8837076456956912
238,2.7940248004920485,2.785871437149083,-5.579896237641131,1.4408085131151012,1.3650238716789471,0.7082026955482879,2.6478876130145164,1.9811244414517302,2.9075614367717786,,0.5287703885177266,2.792882136618908,2.7538965892276286,inf,0.5328145154113589
239,2.741757829052216,-2.741757829052216,0.0,1.6348766535874795,1.6307597983664013,0.8317451283597347,4.497787450583151,11.820469685820633,,,0.4732203808476458,2.741434645121794,inf,,0.8262812813629445
240,2.852775488099645,2.847668085291042,-5.700443573390687,1.6994785281289093,1.676303908924175,0.794780163290678,3.603666392118367,7.78886944864991,2.84890783927972,,0.5748741956352443,2.8515357341109664,2.855585641810749,inf,0.7485242039091978
241,2.504501207157723,3.195942366232964,-5.700443573390687,1.5711944422458215,1.5238087112515448,0.8495884100032277,4.17436878805517,12.229265254419065,3.196150209802496,,0.5329562494928909,2.5042933635881903,3.202828012333525,inf,0.6086884241794078
242,3.9509458192484668,-3.9509458192484668,0.0,1.4599441953889758,1.4650299850393316,0.681612038385021,2.676944925264475,2.571533679728283,,,0.49759852643134905,3.944775791899954,inf,,0.6313487949763942
243,4.605170185988091,-4.605170185988091,0.0,1.5668274580307586,1.5415763494392656,0.4985183800635009,1.8922754275248315,1.4869543230230542,,,0.48319206230712763,4.605170185988091,inf,,0.6309385395900854
244,5.692230021646868,-5.692230021646868,0.0,1.4080576557478826,1.3522791856062477,0.6528308104777565,2.8116691492248624,2.34526257092455,,,0.5451288209179292,5.687253172704991,inf,,0.7093076683371127
245,5.7037824746562,-5.7037824746562,0.0,1.5858934617751779,1.5512237417243686,0.46968412554286054,2.1334380305415825,2.082087878805476,,,0.468121228110369,5.703782474656201,inf,,0.9227952321965965
246,4.605170185988091,-4.605170185988091,0.0,1.2928389097092745,1.2731935963049426,0.5659121904671593,1.9397135995455281,1.7564051473349163,,,0.48319206230712763,4.605170185988091,inf,,0.6700431867032056
247,,0.0,0.0,1.437534433838075,1.3591170806390624,0.45941992237987145,2.103200161241701,1.36463377975659,,,0.468121228110369,inf,,,0.9054782176135269
248,5.282005014537414,-5.282005014537414,0.0,1.486197332198521,1.4272531160586595,0.6155633424519609,2.462782136105978,1.7732651616537827,,,0.4302020962658841,5.2030071867437115,inf,,0.7717756800690536
249,5.7037824746562,-5.7037824746562,0.0,1.3568068516168945,1.2727987019004254,0.4497509902289671,1.9440512746163723,1.605646611224042,,,0.5329562494928909,5.703782474656201,inf,,0.6907192033613802
250,4.605170185988091,1.095273387402596,-5.700443573390687,1.5112891796183245,1.4973021619668045,0.5461682218984009,2.1338847219783728,1.1761587797150512,1.7143125958088186,,0.5370774965580548,4.605170185988091,1.1019511899336245,inf,0.8643232130584259
251,5.682563683414569,-5.568912409746278,0.0,1.5048940071891213,1.4863982788297705,0.7209960750088424,2.691421855973633,2.1248259405504935,,,0.44694259446804574,5.693832143803033,inf,,0.6433575817577901
252,4.0943445622220995,-4.0943445622220995,0.0,1.4922020671340204,1.4663891657698918,0.611454261072884,2.558455486897811,2.2075441600734758,,,0.4629450596409901,4.0943445622221,inf,,0.9102116522758229
253,5.7037824746562,-5.7037824746562,0.0,1.6715340883389471,1.583089296551586,0.5707071982919069,1.2011447294057573,0.4843050917247824,,,0.44694259446804574,5.703782474656201,inf,,0.9447747292938579
254,,0.0,0.0,1.2314590254679023,1.0684509378080407,0.2945596363151085,0.8785420852320428,0.6576389766225783,,,0.5287703885177266,inf,,,0.7544211514724325
255,3.7445191863384357,-3.7445191863384357,0.0,1.5309498942858253,1.4568925101656554,0.6374088025301239,2.0714104982808115,1.2474267821710803,,,0.44144624493110796,3.7436876906089314,inf,,0.7860514790280181
256,5.010635294096255,-5.010635294096255,0.0,1.561845799136005,1.5230654418398482,0.5086474807005423,2.23591006053246,1.421530128515243,,,0.3943459996787778,5.0106352940962555,inf,,0.6459587228913821
257,4.801144988240369,-4.801144988240369,0.0,1.685301755961408,1.6679445549579077,0.5548874061117807,1.7578049664792639,0.9589525658998541,,,0.4928685327679205,4.780847200063377,inf,,0.8294787535592291
258,5.36182986557996,-2.559270650568485,-2.802559215011475,1.6548804916040707,1.615190948584694,0.607508591675771,1.6380826658782528,1.1405833553334257,,,0.5677978065141052,5.302771716897417,1.114360645636249,inf,0.9440152533180312
259,3.271082651061979,-3.271082651061979,0.0,1.6200074736559738,1.6011207272579844,0.5271182323701135,2.9063555690309917,1.5258759192402294,,,0.552929491858785,3.270169119255751,inf,,0.7417315001595733
260,4.31748811353631,-4.31748811353631,0.0,1.4246291981051458,1.3978222665178055,0.7904120763437524,3.1717519286689426,1.6688154026327973,,,0.5748741956352443,4.31748811353631,inf,,0.6017877444430493
261,2.9339904216657144,-2.9339904216657144,0.0,1.388779166152057,1.3277284887639538,0.7321774005431894,2.8766116158144786,1.790743163381975,,,0.524519217297268,2.933905759919893,inf,,0.5991384176056194
262,3.1176909724700526,-3.1176909724700526,0.0,1.6496859835551079,1.5902113073498079,0.7303190036103093,2.5889681068985255,1.2405364225268602,,,0.4880666971167561,3.1132653404551673,inf,,0.6580296186646958
263,3.395659087649835,-2.61399291203439,-0.7816661756154454,1.6792566160647642,1.6445125820622999,0.7166173886468814,2.476607800736621,1.03000274103794,,,0.5158180382284114,3.388939484266653,4.305053398341441,inf,0.7028484225367814
264,4.041471310751853,-4.041471310751853,0.0,1.7210152437643138,1.6991511363750718,0.7902896833212297,3.6642384859209183,3.7425363985287383,,,0.5022576003740722,4.037964228785993,inf,,0.6641093997676729
265,2.6442185652108297,-2.6442185652108297,0.0,1.632767776997285,1.6442320467296596,0.8439907371342322,4.287411536357753,2.0050615394087945,,,0.524519217297268,2.6439805398622642,inf,,0.6785474094121065
266,3.1388331171946646,2.5616104561960222,-5.700443573390687,1.370850622292504,1.3302178990194602,0.7282484468328206,3.766124921709038,5.503738125434668,2.5616104561960222,,0.5748741956352443,3.138833117194664,2.5682882587270512,inf,0.5387119988567314
267,4.998471340853009,-4.998471340853009,0.0,1.6631069412488453,1.615757554079046,0.5818027402781002,2.400135950960976,2.658974940697878,,,0.5567373465730988,4.995746681602505,inf,,0.8092098105264437
268,,0.0,0.0,1.7317430675867933,1.7320112250038142,0.47149801801944496,2.231209021196008,1.8627352578870546,,,0.49759852643134905,inf,,,0.7720509787682343
269,5.7037824746562,-5.7037824746562,0.0,1.5665910760393198,1.4986205747167411,0.5784856845771654,1.9492931262324626,1.3858280131635157,,,0.38163879478178075,5.703782474656201,inf,,0.812714296279382
270,5.010635294096255,-5.010635294096255,0.0,1.7307404912649837,1.6884739386002385,0.57763941547974,3.213027321352063,4.686876876813157,,,0.5748741956352443,5.0106352940962555,inf,,0.6664617228696175
271,4.0943445622220995,-4.0943445622220995,0.0,1.669845050033703,1.641992685615748,0.8297687906936283,4.280791739863788,6.241573333744084,,,0.38163879478178075,4.0943445622221,inf,,0.5721592823967702
272,2.8123834494992956,1.9283733209405454,-4.740756770439841,1.5836425348986984,1.5774078419727313,0.838228800351789,3.51143620927699,3.057676518418421,3.4786992727095054,,0.5113665138247345,2.8041940616551124,3.038850480334596,inf,0.7151356916850352
273,2.995732273553991,-2.995732273553991,0.0,1.570713293598905,1.550964627833539,0.8199463245496379,4.873791848437293,6.979204571208703,,,0.5202020156036558,2.995732273553991,inf,,0.5261974449978316
274,3.229027152183657,-3.229027152183657,0.0,1.6489126989883993,1.576494198089935,0.7224732812188674,2.963686361176366,1.5547633742453018,,,0.5068466436745385,3.228645616464006,inf,,0.6882469261120715
275,3.537966706828351,-3.537966706828351,0.0,1.769280393561362,1.7055671005733883,0.7446319123667331,3.0348159582551166,2.112714135554113,,,0.4629450596409901,3.5366353525572594,inf,,0.6837965297690884
276,2.710956821117504,-2.710956821117504,0.0,1.5078344406947946,1.449263053278291,0.8010645842043947,5.610513557787219,25.614108296273386,,,0.5113665138247345,2.7108875559223704,inf,,0.6324592702943177
277,3.0647251450409425,-3.0647251450409425,0.0,1.5513083446882296,1.5388917655593917,0.7978122401068733,3.8235002465482193,10.410667504727558,,,0.5370774965580548,3.0647251450409425,inf,,0.5822565428051515
278,2.41423566331568,2.187595621406898,-4.601831284722578,1.665114117929253,1.660171531108877,0.7152777916608973,4.376432160988992,3.3886265156438498,2.593158813930948,,0.5158180382284114,2.414137578899793,2.194371508353813,inf,0.5414867925758791
279,3.9120230054281455,-3.9120230054281455,0.0,1.6658302492512833,1.6556083859238797,0.5347984613307665,2.521902228360333,1.8436072588121544,,,0.5915533975974677,3.912023005428146,inf,,0.6356686748905569
280,5.7037824746562,-5.7037824746562,0.0,1.63223939414334,1.606708733468234,0.7253451007434497,2.8508306000055206,2.9138359084771412,,,0.5287703885177266,5.703782474656201,inf,,0.6791639830313976
281,4.095088374059814,-4.095088374059814,0.0,1.478975984793002,1.435186526559575,0.7704567870244494,3.0827998131144323,2.108642486256089,,,0.44694259446804574,4.095011451209804,inf,,0.7687141107868808
282,2.659260036932778,-2.659260036932778,0.0,1.4108994838068762,1.3779245606295467,0.7579980546477634,4.0181066280645155,33.23118543360245,,,0.524519217297268,2.659260036932778,inf,,0.6556033616487519
283,3.9120230054281455,-3.9120230054281455,0.0,1.6948088257802583,1.6377081153257242,0.7930768154613727,3.9255687322835464,4.424744203662618,,,0.5490601803369085,3.912023005428146,inf,,0.4285228740638719
284,3.1388331171946646,-3.1388331171946646,0.0,1.5604464199901982,1.5122174823824217,0.6483667392275079,2.815987507943439,1.704743084888722,,,0.5068466436745385,3.138833117194664,inf,,0.5292990353592992
285,3.757872325600888,-3.757872325600888,0.0,1.5557552033241147,1.5057818715186333,0.7421503242716397,3.129680803928924,4.330555387019414,,,0.43586655696697996,3.757872325600888,inf,,0.556993521795427
286,4.31748811353631,-4.31748811353631,0.0,1.5203806167065306,1.4632436309240584,0.566514176446484,2.2981429447819064,2.121960808199657,,,0.35499006010413947,4.31748811353631,inf,,0.6557892377826829
287,3.5065578973199822,-3.5065578973199822,0.0,1.6669296433247536,1.5568311555188916,0.7447595808370031,3.2508001560571254,1.5793648886384148,,,0.49759852643134905,3.506557897319982,inf,,0.6053339498074717
288,3.4535264377722084,-3.4535264377722084,0.0,1.7430532354194632,1.7034734247393557,0.7971165366977081,4.093979867659757,2.9611843890151244,,,0.5641709578113449,3.45213986039973,inf,,0.7888294162824503
289,3.0488567845989434,-3.0488567845989434,0.0,1.6058758838920897,1.5924011831696796,0.7218805615902126,3.6427902219571844,2.1873624407374175,,,0.4880666971167561,3.04843006255444,inf,,0.5605257197826327
290,4.128559906756945,1.5718836666337417,-5.700443573390687,1.7257550884845907,1.5709483041509185,0.6017580576816307,2.5152082325657754,1.357002730087156,2.07138916848564,,0.468121228110369,4.125491291218937,1.5816300847027782,inf,0.6607041692420506
291,4.022631416549811,-4.022631416549811,0.0,1.6037721282740456,1.53527633351264,0.5958698005744868,3.216969426939522,4.231592902227424,,,0.41268473150466,4.018618851693965,inf,,0.8822178593404721
292,4.998339029249208,-4.998339029249208,0.0,0.38639044931003047,0.3402289051504014,0.6051455222160679,1.9758773797399063,1.072505788070053,,,0.6153451465759925,4.992467990140807,inf,,0.7954309628138512
293,4.605170185988091,-4.605170185988091,0.0,1.6484562431641956,1.6134223072381533,0.6348068105481873,1.5733365665995076,1.174089569342678,,,0.4732203808476458,4.605170185988091,inf,,0.7255053418375955
294,5.010635294096255,-5.010635294096255,0.0,1.4880315152482928,1.4427554575431671,0.6813317360108,2.1884869633080144,1.806397305636271,,,0.5451288209179292,5.0106352940962555,inf,,0.6801440157340097
295,4.107733175300953,-4.107733175300953,0.0,1.2022799136787614,1.1520967138481835,0.7886838645167877,2.4608850018936286,2.2999156239244796,,,0.5490601803369085,4.10641714345637,inf,,0.503715717660225
296,4.307926150390766,-4.307926150390766,0.0,1.606610363095066,1.5396092150593366,0.6582289855580368,1.7647510686321535,1.2769314340677196,,,0.541134803179459,4.294422840605314,inf,,0.5666265098094281
297,5.7037824746562,-5.7037824746562,0.0,1.6476454980231,1.5992544214964959,0.6696932937805222,1.8598196896352586,1.2444977082217374,,,0.44144624493110796,5.703782474656201,inf,,0.935987241669792
298,,0.0,0.0,1.6945591626222813,1.6384603198584304,0.4373964998220454,1.343853309218822,0.9952514790282367,,,0.49759852643134905,inf,,,0.6198808351411172
299,4.3395437390909475,-4.3395437390909475,0.0,1.5065749750705484,1.4702206721143645,0.6663835598598535,2.6611039319365593,1.6757005493294734,,,0.5567373465730988,4.336840842052125,inf,,0.692873097286045
300,,0.0,0.0,1.7216151768311865,1.726835031839877,0.44298464366527457,1.5636505147889013,0.952163211905291,,,0.48319206230712763,inf,,,0.7399621124909121
301,3.9301260343516833,-2.5383789411827196,-1.3917470931689637,1.688021516167414,1.5730809106134864,0.7300664075333702,1.8883705081055628,0.57743355457365,,,0.5978297680564633,3.9114676041364462,3.205637904027565,inf,0.7105409978279311
302,4.0943445622220995,-4.0943445622220995,0.0,1.5625066746008867,1.484080307398997,0.59814854347126,1.9007188763193523,1.243701558936476,,,0.541134803179459,4.0943445622221,inf,,0.5905250116492152
303,5.7037824746562,-5.7037824746562,0.0,1.5003911116430644,1.4320841915361608,0.3218843774370732,0.8710550941637976,0.4904839820546161,,,0.4576907132971797,5.703782474656201,inf,,0.6238015533692701
304,5.010635294096255,-5.010635294096255,0.0,1.7399686839349577,1.7110643385741962,0.6208529204216507,1.4847924221953044,0.6624759795146322,,,0.5022576003740722,5.0106352940962555,inf,,0.6070028123327705
305,5.703782474656201,-0.11407564949312402,0.0,1.181734865823484,1.1333809620539212,0.5089041228816337,1.0996424233877065,0.8415565049976803,,,0.4928685327679205,9.615805480084347,inf,,0.6688858312110711
306,5.7037824746562,-5.7037824746562,0.0,1.5380325669447514,1.4367777990422366,0.5222032656125849,1.5455285437449773,0.7792771693199456,,,0.4629450596409901,5.703782474656201,inf,,0.7885908190490414
307,,0.0,0.0,1.4417886058661031,1.4015268799914662,0.34131991073966833,0.4920349116223522,0.5421216452472484,,,0.541134803179459,inf,,,0.9097519236015696
308,,0.0,0.0,1.1202718359419297,1.0223881035378697,0.4291575316135005,0.8946529411131523,0.826851405766458,,,0.5113665138247345,inf,,,0.6970279345918818
309,3.5964656145376876,-3.5964656145376876,0.0,1.6722718047541618,1.605660130043353,0.6287030274486587,1.89524114217292,0.6715525338012529,,,0.5567373465730988,3.595186743323792,inf,,0.8134112016189393
310,3.902603783825798,-3.902603783825798,0.0,1.5575550385096355,1.5328298277464336,0.5807668553379094,2.119754801374707,1.2164608324035213,,,0.5641709578113449,3.90152277079428,inf,,0.7818938353533411
311,3.624340932976365,-3.624340932976365,0.0,1.4302805365193636,1.393465643322377,0.5929287218216346,2.978845782198697,1.7181377680080208,,,0.552929491858785,3.624340932976365,inf,,0.6816618379729188
312,4.605170185988091,-4.605170185988091,0.0,1.49788143812798,1.4027465407245254,0.5542957177180472,1.9266940169392974,1.2474613566347663,,,0.5641709578113449,4.605170185988091,inf,,0.5396118605600291
313,5.7037824746562,-5.7037824746562,0.0,1.2506691623434922,1.2283594190927638,0.3849204854341737,1.8455839765447917,1.1894943967531073,,,0.5022576003740722,5.703782474656201,inf,,0.6841549115667639
314,,0.0,0.0,1.6757440811456052,1.6777461890654521,0.6469829381169304,2.3459529172587152,1.7086337949838288,,,0.5370774965580548,inf,,,0.7379149545884028
315,5.7037824746562,-5.7037824746562,0.0,1.521687701666276,1.4457212588530248,0.5409547707941122,1.3370610374661116,0.783492807445118,,,0.4576907132971797,5.703782474656201,inf,,0.5704292454897305
316,4.31748811353631,-4.31748811353631,0.0,1.6247838283762874,1.5640060955637045,0.535264959380803,1.430184980031519,0.7392538063324201,,,0.5783247308855777,4.31748811353631,inf,,0.8034063563286533
317,4.106245551625525,-4.106245551625525,0.0,1.5321037044030805,1.4789133764425508,0.7035485294179049,2.6563676157593212,2.0949041043272887,,,0.4928685327679205,4.105068525585076,inf,,0.5992964164253791
318,4.594621843331526,-4.594621843331526,0.0,1.5621117059774712,1.5012447573657262,0.6060411883515194,2.1466720994107633,1.5102682236748466,,,0.49759852643134905,4.593022052052444,inf,,0.6297151865369598
319,4.0943445622220995,-4.0943445622220995,0.0,1.5715072460689121,1.5765529236761806,0.5901053192500272,1.6544220731920438,1.0165199961684859,,,0.49759852643134905,4.0943445622221,inf,,0.737576389880676
320,4.485302655799849,-4.485302655799849,0.0,1.5280098968801696,1.48891172491112,0.6788139622338925,2.5177893126975763,1.5297478005375713,,,0.524519217297268,4.475117057739894,inf,,0.8180648417060212
321,3.624031074802264,-3.528705931434527,-0.09532514336773723,0.9407365424934935,0.9298991231323799,0.6938431625080471,3.3075230613498525,3.412735575488134,6.393164274132152,,0.5567373465730988,3.6214285115293303,6.1766985253489715,inf,0.7280050090033263
322,4.0943445622220995,-4.0943445622220995,0.0,1.706514850685637,1.6600202205690875,0.7270123075315552,2.498461583334436,0.7430302227444394,,,0.541134803179459,4.0943445622221,inf,,0.606931699036586
323,3.1388331171946646,-3.1388331171946646,0.0,1.6052091026840984,1.5854567374077964,0.7538622965673857,3.206754942524296,2.423769771624761,,,0.5641709578113449,3.138833117194664,inf,,0.592191700148488
324,3.6157035103615636,-3.6157035103615636,0.0,1.5252262573626447,1.4946223839062622,0.7265425189370676,2.9407695379300796,2.2006152771329375,,,0.541134803179459,3.6152160251993646,inf,,0.4668898298127482
325,3.0226394934339016,2.6778040799567853,-5.700443573390687,1.5426663040471587,1.505595805543633,0.687094462783343,2.2388803435263407,0.9757753197719872,2.702057095619498,,0.5068466436745385,3.022076248893593,2.685045127028123,inf,0.637785734240136
326,4.605170185988091,-4.605170185988091,0.0,1.5016189985911608,1.4810076597602775,0.6541444161866886,2.253080120555689,1.6147152681987116,,,0.5451288209179292,4.605170185988091,inf,,0.6781176004599383
327,3.8011032469098622,1.8993403264808246,-5.700443573390687,1.413042023792435,1.380793233745396,0.6864306986733051,2.343055384662978,1.1192064204206522,1.9017492532695437,,0.5068466436745385,3.7986943201211427,1.9084270558005727,inf,0.8486981239372066
328,4.056664773818016,-4.056664773818016,0.0,1.733109710144159,1.7462174059101694,0.7173637458448205,2.1551914338238696,1.6796116201524347,,,0.524519217297268,4.053842618912771,inf,,0.5731688023733582
329,4.605170185988091,-4.605170185988091,0.0,1.7656864448164706,1.740353817601322,0.4201117748199527,1.3147602840385912,0.8027158535079852,,,0.5113665138247345,4.605170185988091,inf,,0.5873472189918748
330,4.31748811353631,-4.31748811353631,0.0,1.4685917336418142,1.4264602134728106,0.6597961101961681,2.206318871830601,1.1715691211903372,,,0.5022576003740722,4.31748811353631,inf,,0.760545663279124
331,4.0943445622220995,-4.0943445622220995,0.0,1.4543935738468203,1.4588793933819426,0.8335248993776833,2.2961969783670595,1.0532527656891828,,,0.552929491858785,4.0943445622221,inf,,0.8518222133958958
332,5.7037824746562,-5.7037824746562,0.0,1.630002847555677,1.60791310240771,0.8341596172614302,2.5269680055458488,1.5356577876738968,,,0.5370774965580548,5.703782474656201,inf,,0.7846211369015598
333,4.31748811353631,-4.31748811353631,0.0,1.6435598601095325,1.6141907039264451,0.6488658848399789,1.685565853581152,0.8277922762784724,,,0.4880666971167561,4.31748811353631,inf,,0.6195772541575232
334,4.0943445622220995,-4.0943445622220995,0.0,1.4053499102754525,1.376540884909116,0.5348123358682159,1.766458909572765,1.4931171643295746,,,0.5113665138247345,4.0943445622221,inf,,0.6937818468758593
335,3.8457382131024245,-3.8457382131024245,0.0,1.6275764514335218,1.584285433715534,0.6956688477267897,2.5148946284791815,1.203970080183093,,,0.5641709578113449,3.842807936406673,inf,,0.596770179863721
336,4.087051699950342,-4.087051699950342,0.0,1.4264603982018045,1.3951079958999695,0.6025018367445479,1.7100093869854776,0.916450024222585,,,0.4880666971167561,4.086376392572924,inf,,0.5088729571519114
337,3.9995373526892437,-3.9995373526892437,0.0,1.7080723888730902,1.7296876550160951,0.5349929571781562,1.425445442479059,0.8634632984352315,,,0.5068466436745385,3.9954046143671973,inf,,0.7330893297541518
338,4.967385682564717,-4.967385682564717,0.0,1.733303246541559,1.6358795275555014,0.5375263210112583,1.229075632310629,0.5814364493622548,,,0.43586655696697996,4.958675555165545,inf,,0.8564664759689155
339,3.305887201857831,1.7014091909729103,-5.0072963928307415,1.5107331324199926,1.4515627914249798,0.578675939458135,1.9175845099253255,0.8258129951012403,1.7014091909729105,,0.45235697871908603,3.3058872018578307,1.7080869935039398,inf,0.5174942334821165
340,4.9471124271593085,-4.9471124271593085,0.0,1.537299976182596,1.5300913953040491,0.5161516655101053,2.4148034255009647,1.8742472903968745,,,0.541134803179459,4.935218654811502,inf,,0.7294806984784553
341,5.703782474656198,-1.0456934536869698,0.0,1.6947990310456345,1.6657811954813706,0.7946569641095577,3.2629178836984853,2.073572517568125,,,0.4629450596409901,7.4002317640799316,inf,,0.6433017497663704
342,2.813410716760036,2.887032856630651,-5.700443573390687,1.2942618391521972,1.3091313198649317,0.6802841835973853,3.7483707071320973,1.8617282559666188,2.88703285663065,,0.47824363442641393,2.8134107167600364,2.8937106591616795,inf,0.8212009640150376
343,3.166848064880402,-3.166848064880402,0.0,1.7532835561252655,1.7687214401943803,0.798034190876571,3.7444500845888506,2.0843482538262803,,,0.524519217297268,3.166125259482672,inf,,0.8352617045016018
344,3.305887201857831,-3.305887201857831,0.0,1.6209584234464771,1.5664322603571983,0.6062037931700544,2.5008889922819324,2.414017305583587,,,0.5022576003740722,3.3058872018578307,inf,,0.5668467512872546
345,4.605170185988091,-4.605170185988091,0.0,1.6469941361535139,1.5649989101437092,0.7094634221957183,2.04289652789256,1.4218183076243838,,,0.4880666971167561,4.605170185988091,inf,,0.7591839297188626
346,4.605170185988091,-4.605170185988091,0.0,1.6342235429798062,1.567356087376421,0.47561230384752545,1.4799741006153222,1.0515378588658375,,,0.49759852643134905,4.605170185988091,inf,,0.7164119845099363
347,3.3024067467782463,-3.3024067467782463,0.0,1.554212410212116,1.4686227865556172,0.5757378233241864,2.4604458010543078,1.9895669167597303,,,0.5329562494928909,3.302257433807252,inf,,0.7113477263856942
348,3.651492316143352,2.0489512572473347,-5.700443573390687,1.6551088633094828,1.497002829897107,0.6900431699258142,2.853174360142684,1.9358786092446678,2.295479848695448,,0.41861278947482794,3.650086182728223,2.0570351931934927,inf,0.758929855041659
349,4.6565290996817925,-4.6565290996817925,0.0,1.6928318214668658,1.6616387779479393,0.5005304585620325,1.8508355633148215,1.4924643695481379,,,0.45235697871908603,4.648309678648709,inf,,0.706988773082852
350,3.305887201857831,-3.305887201857831,0.0,1.6141455653868806,1.617244717352277,0.8323547280255885,3.8652113130313674,1.8818591011488315,,,0.541134803179459,3.3058872018578307,inf,,0.6306135969251856
351,2.6470097661489227,-2.6470097661489227,0.0,1.670358467370257,1.6594529115768015,0.8149635254294089,5.903149184474943,14.72350530248875,,,0.5158180382284114,2.646798325070447,inf,,0.8715413873698081
352,3.0938913310902953,-3.0938913310902953,0.0,1.5149179707211171,1.4791510970896133,0.8439685316718818,4.144786092847049,9.584722897781244,,,0.5113665138247345,3.093222605942612,inf,,0.7775234297913363
353,2.6220440244248637,2.3852523684058777,-5.0072963928307415,1.2472586966367143,1.1993834091325146,0.8704269800530768,3.550393666308546,1.822172261281091,2.3854238879695835,,0.5677978065141052,2.6218725048611575,2.3921016905006125,inf,0.40919738365828384
354,3.253169986510616,2.1783602994387534,-5.4315302859493695,1.5814531905656015,1.532691517381699,0.7175629675386119,3.097818990638399,2.3669287519028073,3.15147204403299,,0.581717464821069,3.252202828984268,2.127083600097436,inf,0.4430450955798153
355,3.6172739508369824,-3.6172739508369824,0.0,0.8764297175452646,0.8693860799043198,0.7648257181883303,4.213037735146279,8.969552082427562,,,0.5022576003740722,3.6168689181376643,inf,,0.4844562036313518
356,5.010635294096255,-5.010635294096255,0.0,1.7401504927786895,1.7453149230630556,0.5831073646548548,3.005414262029036,3.730228016690022,,,0.5113665138247345,5.0106352940962555,inf,,0.7428999143062608
357,3.0032279158637127,2.697215657526974,-5.700443573390687,1.4830787416957858,1.4404045833683583,0.7452142349446712,3.8148659275863475,4.707974025724961,2.6975747842673754,,0.4928685327679205,3.002868789123311,2.704252586798405,inf,0.726870733510338
358,4.018546289656346,-4.018546289656346,0.0,1.7568678549668495,1.7019659202532145,0.8252731832991705,3.385228752560874,1.867635065301842,,,0.524519217297268,4.008166865981048,inf,,0.626308611719041
359,3.362918611001629,-3.362918611001629,0.0,1.5080607505207746,1.4764451381961363,0.668102704876183,2.451235408046395,1.6679386894559705,,,0.581717464821069,3.3594158476472007,inf,,0.6007126231781781
360,2.7069117639382565,2.9935318094524304,-5.700443573390687,1.634159644795716,1.606216042684323,0.7941863735914976,4.088802387917327,4.281093306914631,2.9935593589284455,,0.5068466436745385,2.706884214462241,3.000237161459475,inf,0.6314077729656807
361,2.89764812834466,2.802795445046027,-5.700443573390687,1.4228492323838118,1.3390335145477945,0.7789186095349935,3.5361770151169605,2.6485378747322224,2.803248590146396,,0.5068466436745385,2.8971949832442903,2.8099263926774256,inf,0.8282943380401806
362,3.6968929896356895,-3.6968929896356895,0.0,1.7277959908414506,1.7051441929941293,0.7935907876961882,3.321738597919657,2.720559926801145,,,0.5370774965580548,3.6946739878222727,inf,,0.7338775220145636
363,3.2983462158520633,2.4020973575386235,-5.700443573390687,1.4662793685383626,1.393605483654777,0.7270190311256809,3.6290620669619598,4.543992690988018,,,0.42445136339222655,3.298039289559529,2.4090820863621865,inf,0.6450902529537638
364,2.9180584176895255,2.631700986014217,-5.549759403703742,1.55313168220879,1.5060460772704563,0.8286112445903346,3.545712377193985,3.105949043654529,2.7827006186983896,,0.4880666971167561,2.917742954692297,2.592668126983365,inf,0.6641592129285374
365,4.0943445622220995,-4.0943445622220995,0.0,1.776087296227303,1.7326747201883081,0.7840551153116123,3.517479978061792,8.717308342536102,,,0.5370774965580548,4.0943445622221,inf,,0.7449124835315921
366,2.721386457642973,-2.721386457642973,0.0,1.5912241702124448,1.5283069694873828,0.8293852803991794,4.1974761958416265,1.9104161200040357,,,0.5287703885177266,2.7211354406508654,inf,,0.6173356158853558
367,3.624340932976365,-3.624340932976365,0.0,1.7323939090212328,1.6826510860467652,0.7229477418493169,2.8238083438038846,2.043426334090525,,,0.468121228110369,3.624340932976365,inf,,0.7663700632310136
368,3.693332152499035,-3.693332152499035,0.0,1.51103781860092,1.4045052902936113,0.5369472547872086,2.1156476733881053,2.123583486891586,,,0.4880666971167561,3.6911041491360472,inf,,0.6853626417369337
369,3.083499164653219,2.616944408737468,-5.700443573390687,1.6514237291620053,1.6384270246460242,0.7340403193734986,3.523046121513183,4.487834567628639,2.6174574692151347,,0.4732203808476458,3.0829861041755517,2.624135271746164,inf,0.572649648917045
370,2.8967648122735232,2.8036787611171636,-5.700443573390687,1.5878271350480635,1.5553881158647072,0.8507604812357931,3.5842411003899595,9.329345510600778,2.804254930172957,,0.5068466436745385,2.8961886432177293,2.810932732703986,inf,0.5016574841220767
371,2.6753607911086905,3.0250827822819963,-5.700443573390687,1.4407218810037308,1.395601345981871,0.8547485931842034,4.916897452062384,7.406421240391002,3.0253444724281624,,0.48319206230712763,2.675099100962524,3.0320222749591914,inf,0.43934699864914667
372,3.5065578973199822,-3.5065578973199822,0.0,1.2914042132868517,1.2716227844830914,0.806259572918107,3.8835827432881187,11.368480265560997,,,0.4928685327679205,3.506557897319982,inf,,0.4109101046309348
373,3.2634011579628144,-3.2634011579628144,0.0,1.092591478548353,1.0519312455606389,0.6869316802242341,2.9973816822928097,2.777911706861145,,,0.5370774965580548,3.2623053827955366,inf,,0.7004676053704914
374,3.624340932976365,-3.624340932976365,0.0,1.509989054038202,1.4260505586911914,0.7790349360217669,2.803083058866202,1.681859817919758,,,0.5370774965580548,3.624340932976365,inf,,0.7038810404742596
375,3.217274970714729,-3.1028847986734442,-0.1143901720412847,1.6836265583857881,1.6695440626188731,0.7153548178495933,3.106319771667925,2.0897914204106405,,,0.524519217297268,3.2172105455491393,6.398594934535208,inf,0.5075404641669929
376,2.9311937524164198,-2.9311937524164198,0.0,1.5720725367576103,1.5582654881242723,0.7977107933975475,4.22497559984455,7.009603723831315,,,0.552929491858785,2.9311937524164198,inf,,0.8353137854104584
377,3.9120230054281455,-3.9120230054281455,0.0,1.6641175028678585,1.6071014933240346,0.6417135113535459,2.3231758198295793,2.495523520174565,,,0.5451288209179292,3.912023005428146,inf,,0.5991102513912407
378,3.9126307439507917,-3.9126307439507917,0.0,1.4316626796597307,1.4285301484612802,0.7481512876250369,2.934707806696726,2.515118193980547,,,0.44694259446804574,3.912578715361869,inf,,0.6278258760926317
379,4.031376005605565,-4.031376005605565,0.0,1.0924802242323302,1.0310556834683473,0.6120445572820563,2.753072864801606,2.4843302738204662,,,0.43586655696697996,4.022954566135428,inf,,0.5546213463271187
380,5.059155596735451,-5.059155596735451,0.0,0.7996899341453664,0.7474721285031274,0.7499257699911507,3.0894404217108313,2.4093006196596063,,,0.45235697871908603,5.046262471739407,inf,,0.7579529240064797
381,5.7037824746562,-5.7037824746562,0.0,1.634391987126738,1.6078310644506064,0.7725861863422111,2.4368926764699705,2.1746575540083395,,,0.5604843169999094,5.703782474656201,inf,,0.9081115588540228
382,4.089428391568866,-4.089428391568866,0.0,1.3528623707047522,1.2166123014892218,0.5959122720890347,3.0453088164895386,2.3890623180045307,,,0.6038851895711802,4.087037987039663,inf,,0.8834384900727268
383,3.624340932976365,-3.624340932976365,0.0,1.534252910094114,1.495652797075333,0.8164360326883094,3.3781383526714652,2.2499587102781566,,,0.585052858160615,3.624340932976365,inf,,0.7673082816493291
384,4.992151369281323,-4.992151369281323,0.0,1.6783394449529399,1.620888264712716,0.6540158500788692,2.38739244563726,3.4528030060231973,,,0.552929491858785,4.984317985778882,inf,,0.8149337818550279
385,5.544358623127413,-5.544358623127413,0.0,1.3685804879939372,1.3378403940628187,0.6858219018830167,3.149918279760157,4.525837203225004,,,0.5451288209179292,5.496768305271875,inf,,0.6906975526152062
386,3.087698616408596,-3.087698616408596,0.0,1.444748578148285,1.3968332468930882,0.8658548897350427,3.2150535681754713,7.216219239589141,,,0.5567373465730988,3.0871168353558436,inf,,0.7179239447695808
387,3.6433587150457183,-3.6433587150457183,0.0,0.297505241024424,0.28529960382589253,0.7478134364723595,3.513581724124247,3.8768156464963974,,,0.4880666971167561,3.637763953308506,inf,,0.8448612494343315
388,3.0647251450409425,2.6357184283497443,-5.700443573390687,1.703848153969965,1.6682647857326331,0.7761302302837031,3.0021262142794707,2.495528125863841,2.635718428349744,,0.4576907132971797,3.0647251450409425,2.6423962308807734,inf,0.7923511670952824
389,3.686210478225727,2.01423309516496,-5.700443573390687,1.7563674113472956,1.7311593304080304,0.607533537415277,2.530503125986247,1.7622088135407568,,,0.5068466436745385,3.6840024770344324,2.0231188988872835,inf,0.7563096465289348
390,3.305887201857831,-3.305887201857831,0.0,1.5656817862510977,1.531848716104312,0.8326987632447743,4.2508639071026915,16.53955530047429,,,0.4928685327679205,3.3058872018578307,inf,,0.5380085501477551
391,5.010635294096255,-5.010635294096255,0.0,0.04466961139416602,0.044009967923494174,0.4542110255134631,0.9842605823896402,0.4602297924659372,,,0.2461092077232671,5.0106352940962555,inf,,0.5566822357208421
392,,0.0,0.0,0.04466961139416602,0.030877235406467772,0.7370928579030614,0.28520328981361337,0.3071361831367896,,,0.1687963801566332,inf,,,0.9522119656955683
393,,0.0,0.0,0.11826719857387903,0.07013978931989537,0.07475840449642986,0.2669181354126712,0.24177146225124657,,,0.23718601089358102,inf,,,0.8019680897342418
394,3.480917923882891,-2.432341346837781,-1.0485765770451103,0.7474760375275084,0.7441408748027295,0.7525209937707789,3.6290021455000208,3.1444103871008444,,,0.5490601803369085,3.4795193484376252,3.920712415642306,inf,0.8489188246307764
395,2.3364866446697268,-2.3364866446697268,0.0,1.4967389130290458,1.451481968246987,0.9118407549934151,5.066925151476559,23.182405008552017,,,0.4880666971167561,2.336486644669727,inf,,0.38682286024013945
396,,0.0,0.0,1.4910586437264355,1.4653543460021121,0.714234115200422,1.0988901984411017,1.4493442869872089,,,0.3685265678147087,inf,,,0.8547182018967889
397,,0.0,0.0,1.5428033363850966,1.4859725949053069,0.9274960492436517,0.9097522852699261,1.271453942450452,,,0.48319206230712763,inf,,,0.78566156254303
398,,0.0,0.0,1.7137113575804332,1.7071414324052472,0.9435953521470821,1.0612105532351732,1.505489726008927,,,0.43586655696697996,inf,,,0.7829364575620849
399,,0.0,0.0,1.7126690319624394,1.6927123162816047,0.9050091648862117,1.0523557763885139,1.462794518025825,,,0.41861278947482794,inf,,,0.8393032580389299
400,,0.0,0.0,1.6495157937290599,1.6471138826767813,0.895341634235881,0.9903403056772405,1.3124091228417196,,,0.4928685327679205,inf,,,0.8337852866315794
401,,0.0,0.0,1.683961084681734,1.6421748947196488,0.919992868067366,1.022282660119305,1.5192705851683872,,,0.5287703885177266,inf,,,0.791700423103701
402,,0.0,0.0,1.701252314484368,1.68102232510706,0.891719564101967,0.9359759849036926,1.2774612163760264,,,0.4629450596409901,inf,,,0.8146849515108952
403,,0.0,0.0,1.350540120595128,1.3110371611384124,0.8703695981307844,0.8180508316929759,1.0818980510412028,,,0.4302020962658841,inf,,,0.8232574648326724
404,,0.0,0.0,1.3659171861418233,1.3527919465737506,0.7459116712895046,0.7953599790816389,0.967841704362812,,,0.5287703885177266,inf,,,0.8421940313053734
405,,0.0,0.0,1.7551165643887239,1.7409995838905985,0.4752250937614955,0.9132211080652111,1.0327071947504523,,,0.44144624493110796,inf,,,0.9102147553614165
406,5.7037824746562,-5.7037824746562,0.0,1.6235715515138789,1.5851102160440556,0.6677525046339472,1.8836592577969897,1.6985670243242257,,,0.43586655696697996,5.703782474656201,inf,,0.7218761079966749
407,,0.0,0.0,1.7493559679615074,1.7379630665327759,0.8914290024261288,2.920009714695605,4.292445816756121,,,0.44144624493110796,inf,,,0.7850895242877409
408,5.703782474656201,-2.8899164538258084,0.0,1.7007622417524524,1.6863999693954699,0.9030851187468965,3.192519274302702,4.6826409635912105,,,0.5022576003740722,6.383684428466125,inf,,0.8613732672127078
409,,0.0,0.0,1.6226379461107923,1.5788268882230527,0.9488226407611097,2.5488995559138665,3.5558098086843897,,,0.5022576003740722,inf,,,0.8291989424116059
410,,0.0,0.0,1.4874126576106814,1.464537619891415,0.9438362484574223,2.8122676285081516,3.7580287240333146,,,0.48319206230712763,inf,,,0.8132023189121366
411,,0.0,0.0,1.509465731042261,1.483717272538184,0.9366554613901388,2.6261168146830065,2.6109656088857487,,,0.49759852643134905,inf,,,0.7842343197716287
412,,0.0,0.0,1.4884734915224707,1.4707341450410398,0.7892225953272226,2.339951429120121,2.7747770101967526,,,0.43586655696697996,inf,,,0.7484523482482222
413,,0.0,0.0,1.6368069309597315,1.5924991215110547,0.3057510344542238,0.7213770321037885,0.7019305900592285,,,0.5641709578113449,inf,,,0.49703919342609304
414,,0.0,0.0,1.4235986347699308,1.4028663667247536,0.6807445679374166,0.4706656684250099,0.5388882079007693,,,0.44694259446804574,inf,,,0.8604622872964329
415,,0.0,0.0,1.6798493236186862,1.625485656000051,0.31486299126847184,0.9098381741043462,0.9688929012527399,,,0.5022576003740722,inf,,,0.7995497491591665
416,,0.0,0.0,1.506104139544617,1.4362963246746674,0.9430286265501275,0.8674110978810824,1.1278208071083815,,,0.4576907132971797,inf,,,0.8431332813856065
417,,0.0,0.0,1.7252331108055174,1.6885477222998275,0.8895606359639406,0.9913210725428582,1.2002393586980764,,,0.42445136339222655,inf,,,0.8622202762510408
418,,0.0,0.0,1.7314596824103934,1.7093213911688838,0.9288565025024005,0.9869329765430793,1.373738830488007,,,0.40055318934786044,inf,,,0.8611348718084954
419,,0.0,0.0,1.718750165247387,1.7163526019613562,0.9203341021540897,1.0667741279442824,1.502610008004088,,,0.5202020156036558,inf,,,0.8438952332018566
420,,0.0,0.0,1.5997228002007664,1.5713708126466692,0.7168347810805226,0.9196127096045577,1.1439796076410687,,,0.42445136339222655,inf,,,0.8561688733095738
421,5.7037824746562,-5.7037824746562,0.0,1.111348819793238,1.0367752407439517,0.599344556565654,1.0742890924632775,1.0751539781658492,,,0.4732203808476458,5.703782474656201,inf,,0.9285131516061226
422,,0.0,0.0,1.4458585402372226,1.4388535360986634,0.9115620967904708,1.5301021021142691,2.0982331103987404,,,0.4629450596409901,inf,,,0.8915675404885455
423,,0.0,0.0,1.5518016882018453,1.5421981895003263,0.8339490692190497,1.4046960333847966,1.7259860819590898,,,0.48319206230712763,inf,,,0.8504045936675929
424,,0.0,0.0,1.6984370743786623,1.6865561862821252,0.8497532480148632,1.088006245998069,1.3338674624090858,,,0.5022576003740722,inf,,,0.7607677721188615
425,5.7037824746562,-5.7037824746562,0.0,1.2836489845472756,1.284174357622305,0.5108946811483457,2.11921718516848,2.190098663573318,,,0.48319206230712763,5.703782474656201,inf,,0.9142995351549218
426,,0.0,0.0,1.6277963920618586,1.5962455126504125,0.7625650514894481,1.5922434594062427,1.7635230433567575,,,0.5068466436745385,inf,,,0.6700147341114828
427,,0.0,0.0,1.5851772713064956,1.5730723641863715,0.3533971016791129,1.2629125741500158,1.6515999971257216,,,0.43586655696697996,inf,,,0.5371775608691676
428,5.7037824746562,-5.7037824746562,0.0,1.582020086614195,1.547553612438725,0.5695567491310778,2.1161601998642663,2.078743387384858,,,0.44694259446804574,5.703782474656201,inf,,0.6407605291263958
429,,0.0,0.0,1.7652706598749865,1.691508713767569,0.886516524290032,1.8634648992679088,3.034267352074419,,,0.3943459996787778,inf,,,0.7900880208504734
430,,0.0,0.0,1.718930978323949,1.6849565856146957,0.8008807913208859,2.391440789204121,2.634848806851619,,,0.44694259446804574,inf,,,0.8033518688935164
431,4.091493675455312,-4.091493675455312,0.0,0.06698765724152844,0.0651156053339929,0.7375124460565984,2.7093777305499795,0.8297889934570009,,,0.1995021272786615,4.091016772129426,inf,,0.49727960298178553
432,,0.0,0.0,0.06698765724152844,0.06815848600452572,0.047087699195106164,0.08581384398062948,0.05484439483434214,,,0.1354413587855425,inf,,,0.6628528217547619
433,,0.0,0.0,0.06698765724152844,0.05464147551901137,0.24618684715537115,0.05322218095610126,0.057202749325701255,,,0.1354413587855425,inf,,,0.8885830481521523
434,4.5706483372938775,-4.5706483372938775,0.0,0.4827618355917655,0.4605977364505926,0.7318614739512797,2.802803579004514,1.4699638465593217,,,0.40055318934786044,4.56594947283481,inf,,0.7650803186709011
435,3.757872325600888,-3.757872325600888,0.0,1.7056359206002036,1.627598648628546,0.6949534102759855,3.3747559684458794,3.582315311711151,,,0.5451288209179292,3.757872325600888,inf,,0.7635282534806239
436,2.5865134813810933,-2.5865134813810933,0.0,1.7063959607040036,1.6569370053907653,0.680988696348537,4.7400377889335035,8.234532336044575,,,0.4928685327679205,2.5862751441762892,inf,,0.7787746232024751
437,3.2188758248681997,-3.2188758248681997,0.0,1.7022354442422905,1.6943464243818342,0.7560701149944585,3.5686857898387783,2.905899123101318,,,0.524519217297268,3.2188758248682006,inf,,0.7170673709076144
438,3.2167413526635724,2.4837022207271144,-5.700443573390687,1.542065363920888,1.516415071484206,0.8535441630762987,4.259482410518913,12.929231487832325,2.4837875052607985,,0.4302020962658841,3.216656068129888,2.490465307791828,inf,0.7944795457606666
439,2.9311937524164198,-2.9311937524164198,0.0,1.2948239846121337,1.2746619654586737,0.7915924605634128,3.3078306367192956,2.5542904900950725,,,0.45235697871908603,2.9311937524164198,inf,,0.45379444008074
440,2.6119991585883713,2.39529723424237,-5.0072963928307415,1.2257052178477152,1.1852908788961363,0.8578496352910789,4.262583707948849,3.5485036400958876,2.4936384129857503,,0.5370774965580548,2.6119827323559766,2.401991463005794,inf,0.5817678984056092
441,3.6564956538634035,1.350800738967338,-5.0072963928307415,1.5789730376795448,1.4271411536376784,0.6467089299107973,2.227338916938768,1.8295428269551857,2.5484487127628914,,0.524519217297268,3.6539414027526558,1.3600327926091147,inf,0.7290831367016035
442,5.010635294096255,-5.010635294096255,0.0,1.7260490279725875,1.674109729935099,0.35353311000558224,1.6054647442743655,1.6608463640841566,,,0.5287703885177266,5.0106352940962555,inf,,0.7612622221456115
443,5.7037824746562,-5.7037824746562,0.0,1.7591276699162472,1.683295724618339,0.484313246173634,1.7753281846949627,2.0893195958289734,,,0.5329562494928909,5.703782474656201,inf,,0.6517702936826857
444,2.97600051252884,2.724443060861847,-5.700443573390687,1.56845185780619,1.4333580243169037,0.7154675408120507,2.700263266340062,1.4791478086085896,2.7258202630469306,,0.4732203808476458,2.974623310343756,2.73249806557796,inf,0.5434847544298534
445,3.6408098047333897,-3.6408098047333897,0.0,1.5855350377898125,1.585275264904504,0.6338616824942743,3.2250145181562355,2.1778450865893584,,,0.468121228110369,3.639877672125494,inf,,0.6651392759979103
446,2.8536121344941336,2.846831438896553,-5.700443573390687,1.711805972747139,1.6707581774896134,0.7625009593506656,3.6607372893588734,3.0632038492350064,2.847174903446024,,0.468121228110369,2.8532686699446623,2.853852705977053,inf,0.46964403257936116
447,3.35258918996195,-3.35258918996195,0.0,1.5294338355864068,1.4593731299935067,0.7950207364807265,3.7660548039463744,6.023757875818708,,,0.4880666971167561,3.3514552897673413,inf,,0.5774179437001401
448,3.401197381662155,-3.401197381662155,0.0,1.6804120585480586,1.6481032935297166,0.7878766133910982,3.236627803866237,2.242416352261944,,,0.524519217297268,3.4011973816621555,inf,,0.8446227322583624
449,4.737622121303425,-4.737622121303425,0.0,1.553274916867901,1.5295312523439375,0.4337334953320975,2.0722486893065484,1.7109871078872962,,,0.4880666971167561,4.720456341445888,inf,,0.7569360371988484
450,4.31748811353631,-4.31748811353631,0.0,1.7683497530731833,1.739384336150259,0.5664626795307187,2.3287013208824963,1.6691046636296027,,,0.524519217297268,4.31748811353631,inf,,0.5931452913458617
451,3.646154353599659,-3.646154353599659,0.0,1.491488094758909,1.4275495601393604,0.7607633839578257,3.150414879728274,1.8102945691748231,,,0.48319206230712763,3.6441185605850395,inf,,0.7929168802488328
452,,0.0,0.0,1.5527932578530574,1.4332596225513945,0.5345664776764885,1.870059760385786,1.4844804465196495,,,0.5068466436745385,inf,,,0.7743723271672432
453,,0.0,0.0,1.6087232015993926,1.5869547705220348,0.7750507045118872,1.9150849097111347,1.4663790164486714,,,0.4880666971167561,inf,,,0.8349958832381521
454,,0.0,0.0,1.7712675826076263,1.7306975018150978,0.7867469567647215,2.341197490439088,2.477597170749496,,,0.44144624493110796,inf,,,0.8572018831022503
455,2.762046856553274,2.938396716837413,-5.700443573390687,1.7093645809060565,1.6042412119792262,0.8097312473190181,3.3415025168797583,3.200155862238489,2.9384650302629205,,0.468121228110369,2.761978543127766,2.94514283279395,inf,0.8792308911485827
456,4.605170185988091,-4.605170185988091,0.0,1.6999174025132449,1.6785366483901438,0.5164497776829755,2.096272914371106,1.574223673423118,,,0.49759852643134905,4.605170185988091,inf,,0.7139361337076932
457,,0.0,0.0,1.544677521371528,1.5306894662203856,0.3632356297425909,2.3142688662494324,2.095517525596992,,,0.5370774965580548,inf,,,0.7233005488917403
458,2.9991819171283383,2.008114475702403,-5.0072963928307415,1.038282668411759,0.9992199755444774,0.7644985821362127,3.450517935311697,2.9894641405189994,2.159592706506702,,0.5202020156036558,2.999071174819506,2.0149030205422647,inf,0.7901266282729593
459,3.305887201857831,-3.305887201857831,0.0,1.6653642399111606,1.651231771011825,0.7764730270259284,3.078900028559291,1.533916356617644,,,0.5202020156036558,3.3058872018578307,inf,,0.5824505924421763
460,5.010635294096255,-5.010635294096255,0.0,1.6375893994740092,1.6189912286102497,0.22586425157647796,0.20248236637885106,0.07696615058853123,,,0.22807408875533447,5.0106352940962555,inf,,0.5847312462306179
461,,0.0,0.0,1.6375893994740092,1.626624183080568,0.811106136794482,0.04832780965715617,0.05404988572459174,,,0.15800541964703757,inf,,,0.9183446783091258
462,,0.0,0.0,1.6375893994740092,1.6066886824986317,0.7871053479078737,0.06415501940445376,0.07975306729442529,,,0.23718601089358102,inf,,,0.905316940840036
463,3.344720162384433,-3.344720162384433,0.0,1.5024550598660686,1.4810392817633933,0.724858346807156,2.8053206725130537,1.5027331450313723,,,0.5113665138247345,3.3422997404146697,inf,,0.6338857282876555
464,3.44078338159397,-3.44078338159397,0.0,1.698414273069095,1.6837121982791048,0.8258219811803249,4.254889407022969,12.928675799615103,,,0.552929491858785,3.424807247301289,inf,,0.8439108275232482
465,3.290835413573637,2.40960815981705,-5.700443573390687,1.7018349887875757,1.6820503826815718,0.7848643934488243,4.447279325365492,17.142506768307893,2.4119794617157706,,0.5370774965580548,3.288464111674916,2.4186572642467996,inf,0.6850956273772414
466,3.1120523517894183,-3.1120523517894183,0.0,1.33147372294332,1.338053263065313,0.7997465335350951,3.9479014331564417,11.785448014573417,,,0.49759852643134905,3.111018429011787,inf,,0.8236883827499982
467,3.4233230899502987,2.277120483440388,-5.700443573390687,1.6023344074129793,1.5082127784619512,0.7382999674664612,3.5812350002054907,3.260597607285785,2.2780225552769044,,0.552929491858785,3.422421018113782,2.2847003578079335,inf,0.747021454320287
468,4.605170185988091,-4.605170185988091,0.0,1.4117924493830523,1.3612387620902644,0.6669397280070253,2.2035662756239023,1.5649812795643494,,,0.468121228110369,4.605170185988091,inf,,0.8084453515993919
469,3.6311749861772737,-3.6311749861772737,0.0,1.3899917461570646,1.3616968325455012,0.7908287613287321,2.9838166662881176,1.5962517543567105,,,0.4732203808476458,3.6306105459899607,inf,,0.6531775373431077
470,2.8207435350030052,2.212424034813521,-5.033167569816526,1.1740960430484093,1.1466519562832147,0.8423264659209473,4.866892911718874,21.848319952019303,3.1531182592433513,,0.5068466436745385,2.8184232585835804,3.0131925875825054,inf,0.5630910550575172
471,3.401197381662155,-3.401197381662155,0.0,1.5861869474086578,1.5374945037361234,0.6799162212873465,2.5089960676093623,1.9154182623097733,,,0.5783247308855777,3.4011973816621555,inf,,0.7652737890866725
472,4.0943445622220995,-4.0943445622220995,0.0,1.5466660054768109,1.4912309366983378,0.6824207629541146,2.5714590231981895,1.863515467711479,,,0.6125606311107803,4.0943445622221,inf,,0.8237284526883606
473,5.7037824746562,-5.7037824746562,0.0,1.54320564433156,1.5049495639706745,0.5846223412736485,2.2555981241520797,1.9681404644897005,,,0.5022576003740722,5.703782474656201,inf,,0.6330622255163877
474,5.7037824746562,-5.7037824746562,0.0,1.5003657682804967,1.469742190323525,0.5943839046265634,1.9583584299894674,1.3468309351631798,,,0.5158180382284114,5.703782474656201,inf,,0.6717501798251974
475,5.010635294096255,-5.010635294096255,0.0,1.6854843425210164,1.6590524205695982,0.4365782065688364,1.2967632029393408,1.175168683998457,,,0.44694259446804574,5.0106352940962555,inf,,0.6546842045431568
476,3.7326706914582384,-3.7326706914582384,0.0,1.584662193061489,1.5413152052733055,0.7169692929004493,2.158320231490502,1.4338719131311737,,,0.41861278947482794,3.7287759511132483,inf,,0.6996275796253979
477,3.729830733149738,-3.729830733149738,0.0,0.9264258974741642,0.9009715657646974,0.7484965638064035,3.8133374078304936,5.2387655215153135,,,0.5068466436745385,3.7283135233593434,inf,,0.760316614546396
478,2.9443165850477255,2.062979807783016,-5.0072963928307415,1.6779536608517671,1.6743024294471565,0.7215582781220667,4.007144491876871,2.6504466216660756,2.063312865485927,,0.468121228110369,2.943983527344814,2.0699906680169566,inf,0.5812955948281683
479,3.624340932976365,-3.624340932976365,0.0,1.4682342833779094,1.3766467774610633,0.7652716351469416,3.310084496326448,2.8151215772380946,,,0.468121228110369,3.624340932976365,inf,,0.7379456599730462
480,5.010635294096255,-5.010635294096255,0.0,1.435066693872986,1.408096486119471,0.522281176462387,2.773188374617222,2.2266393684679686,,,0.42445136339222655,5.0106352940962555,inf,,0.8636323614834072
481,3.4977778543484965,-3.4977778543484965,0.0,1.4538888972084325,1.37638060035366,0.7427812478850557,2.9207002090201066,2.795591154370429,,,0.4302020962658841,3.497341242215058,inf,,0.6768620958282957
482,2.6481218985398716,3.0523216748508153,-5.700443573390687,1.708351612949545,1.6417936493810559,0.74224689617984,3.216832734257302,1.4686132572573771,3.0530179941049114,,0.4576907132971797,2.647425579285775,3.0596957966359404,inf,0.7642028160179832
483,3.305887201857831,-3.305887201857831,0.0,1.5195896878789945,1.4986860631312886,0.750556371806988,3.071341325467409,1.4625565500035722,,,0.4928685327679205,3.3058872018578307,inf,,0.6121072624077287
484,3.9642885183757457,-3.9642885183757457,0.0,1.590004450421679,1.5855899155058841,0.6393325496457382,3.779727221916853,2.0467759890301482,,,0.44144624493110796,3.960979850154677,inf,,0.5249601164846867
485,2.75934349548976,-2.75934349548976,0.0,1.706124097840326,1.67018765240896,0.8652075461262478,3.9303569191376573,2.9978716023781966,,,0.552929491858785,2.7593434954897607,inf,,0.5088345525836339
486,4.147155202699796,-4.147155202699796,0.0,1.7180129110840867,1.6901445870366711,0.5474904190406901,3.186897435373933,2.5080444156785977,,,0.4928685327679205,4.142834771382534,inf,,0.5251566315826486
487,3.3813335589770626,-3.3813335589770626,0.0,1.70126167857415,1.6777227570287354,0.7032961628756588,3.351004037955288,2.2336209261075854,,,0.524519217297268,3.38008841845192,inf,,0.6712406819626766
488,3.2774867142722717,2.422956859118415,-5.700443573390687,1.7281173166181563,1.6428765095562903,0.768566510188362,3.106463984361975,2.6512391120666803,2.4238209263101615,,0.541134803179459,3.276622647080525,2.430498728841191,inf,0.74568086163843
489,4.31748811353631,-4.31748811353631,0.0,1.704735551163484,1.6407545153330823,0.5659683019071452,2.350530733746293,1.6500174061006936,,,0.4732203808476458,4.31748811353631,inf,,0.4734494016557109
490,3.4932122320033234,-3.4932122320033234,0.0,1.6195084415448793,1.541993435752785,0.6191924088972207,3.019957566496378,2.0934562275541877,,,0.45235697871908603,3.4925819434640077,inf,,0.6502816410880783
491,4.605170185988091,1.095273387402596,-5.700443573390687,1.6854163755868563,1.6854042161464526,0.6456315628037212,3.0665616688212114,3.5446742063921173,1.095273387402595,,0.5883313578629602,4.605170185988091,1.1019511899336245,inf,0.7043738590403194
492,4.31748811353631,-4.31748811353631,0.0,1.6357972005258938,1.5669043717878912,0.8395938173167803,2.7216235565857243,1.3647308676659975,,,0.541134803179459,4.31748811353631,inf,,0.5802935713940928
493,2.7652263272218467,2.198675806547151,-4.963902133768998,1.4943282259308828,1.5007443430705218,0.8248152794099926,3.635291602844734,3.169611808659568,2.6126426188322416,,0.5567373465730988,2.7647969349880985,2.1970481949387253,inf,0.6613142590631144
494,3.5271924822693244,-3.5271924822693244,0.0,1.34341765193377,1.3362268826500245,0.6782529981696542,3.7270363463873837,4.027437042744809,,,0.524519217297268,3.5226120035525885,inf,,0.8852918948255409
495,5.266390950005753,-5.266390950005753,0.0,1.2664379121293408,1.1577368339346796,0.5154439246978371,2.364024214821451,2.3644441158895035,,,0.5113665138247345,5.144166686720778,inf,,0.599165768768704
496,,0.0,0.0,1.7725505056125754,1.7850789070118434,0.7111773407895076,3.384549549101816,2.2835729035546173,,,0.5022576003740722,inf,,,0.9265900589888537
497,4.31748811353631,-4.31748811353631,0.0,1.5905051488864788,1.552644870277885,0.7835554783502102,3.240949776417778,4.653579127949909,,,0.5113665138247345,4.31748811353631,inf,,0.9128083910207534
498,,0.0,0.0,1.6392334566942703,1.6214966509840774,0.7397503374579593,2.6270589768479296,1.7572146729229199,,,0.5202020156036558,inf,,,0.9414841015454674
499,4.597498664056044,1.102944909334643,-5.700443573390687,1.600513937131223,1.5999678309364918,0.5631480860626327,2.084027052997382,1.261941253212894,,,0.44694259446804574,4.596320570711109,1.1108008052106069,inf,0.7602952363045045
500,5.010635294096255,-5.010635294096255,0.0,1.5383328192580614,1.5122610016827658,0.7389081278216845,3.3326013069230145,3.9777214797888165,,,0.38804190201132227,5.0106352940962555,inf,,0.9273299107155079
501,5.7037824746562,-5.7037824746562,0.0,1.166548591599865,1.131643841262466,0.6674168141924511,2.413093633565637,3.074727461672063,,,0.5068466436745385,5.703782474656201,inf,,0.8932069351377704
502,4.025062370640397,-4.025062370640397,0.0,1.7351157458762614,1.7060741662770558,0.7128536465662796,3.396178817428503,4.672563225922863,,,0.468121228110369,4.021094100482508,inf,,0.7282239672404218
503,3.31963387887369,-2.8620731907085513,-0.4575606881651388,1.19560522830351,1.1591998015699643,0.7541806112745357,3.622709870347456,3.2184216334412192,8.112125194449005,,0.581717464821069,3.2887619523323672,4.94074916663209,inf,0.6726411874800721
504,3.8924972526500263,-3.8924972526500263,0.0,1.6076387315709566,1.543841919993558,0.6714852708171067,2.515094665494467,1.4307891778873336,,,0.524519217297268,3.8911316463967696,inf,,0.6585277064319511
505,5.595189416368475,-5.595189416368475,0.0,1.118972597487888,1.0307983756068022,0.4269772109193246,1.1395538606491025,0.8682515052369735,,,0.5370774965580548,5.5582401693655425,inf,,0.7660812999119655
506,,0.0,0.0,1.4152514994360006,1.3975115537919223,0.5322312031081112,1.7219124072977876,1.1367776170553734,,,0.5158180382284114,inf,,,0.7812528451306979
507,3.9120230054281455,-3.9120230054281455,0.0,1.6542246719880396,1.4815744361041732,0.5709465287154911,2.379334678270618,1.6475059184849044,,,0.585052858160615,3.912023005428146,inf,,0.7053289142729139
508,5.010635294096255,-5.010635294096255,0.0,1.4543131723505507,1.3525433470335346,0.5079863517372998,2.3900855606413436,1.9224585395603713,,,0.5604843169999094,5.0106352940962555,inf,,0.8800109203672905
509,3.5768351085949566,-3.5768351085949566,0.0,1.6049081322416794,1.563498024610886,0.6417581001263669,3.2819426370638447,3.4213627408417118,,,0.4629450596409901,3.575154022124482,inf,,0.7118116693894756
510,3.1388331171946646,2.5616104561960222,-5.700443573390687,1.7059133963160595,1.6823314354102306,0.8552690223579359,3.8808897126082322,1.6121107200776241,,,0.48319206230712763,3.138833117194664,2.5682882587270512,inf,0.4867617895596675
511,2.850182629663737,2.85026094372695,-5.700443573390687,1.7526840679637115,1.7440906102054226,0.8027662454731566,3.459411133845166,2.3125681950918784,,,0.5158180382284114,2.849805796149503,2.8573155797722127,inf,0.7706902802926465
512,4.0943445622220995,-4.0943445622220995,0.0,1.5643848573065866,1.5553815937750564,0.7065999128620535,3.4741757383592002,16.980608928068865,,,0.41861278947482794,4.0943445622221,inf,,0.796255254895576
513,3.390405491958616,-3.390405491958616,0.0,1.3545098892380194,1.333455403733209,0.6033848865776226,2.4151688376733507,1.9718736178991367,,,0.5370774965580548,3.3846680797109445,inf,,0.8500606986922675
514,3.164486348553661,-3.164486348553661,0.0,1.6996001792925184,1.6645817645163432,0.7521546922492703,3.194312584548324,1.131303066393496,,,0.541134803179459,3.163756525647121,inf,,0.6278670765838745
515,2.5257286443082556,2.481567748522486,-5.0072963928307415,1.3892290066472446,1.362933548177033,0.8367402019225005,5.120194069607816,19.775379444632065,2.481567748522486,,0.5202020156036558,2.5257286443082556,2.488245551053515,inf,0.6174865591888309
516,3.8117078834602824,0.9736143136001263,-4.785322197060409,1.289735990480993,1.2041935880516499,0.4973108679479805,1.8305949758407525,1.3879385356896705,2.07476174181148,,0.5113665138247345,3.8046644871076465,2.0774475230729714,inf,0.5819809939019331
517,3.305887201857831,-3.305887201857831,0.0,1.5873510412467167,1.551767309967163,0.7056728574865079,2.7663731218557417,1.2700469027875085,,,0.4880666971167561,3.3058872018578307,inf,,0.4568591173003074
518,3.3856408202072803,-3.3856408202072803,0.0,1.0490613967502833,1.0321796198571493,0.8699968724712822,4.506030750333335,4.3084411041082875,,,0.4880666971167561,3.3843402645957323,inf,,0.7299922268657302
519,2.577021956478325,2.0248093282442525,-4.601831284722578,1.5755352224725625,1.531592974505261,0.7612463274015692,3.64898714475116,2.250003598092249,2.0258322145312375,,0.45235697871908603,2.5759990701913393,2.0325100170622665,inf,0.7102733018947088
520,4.498206659169542,-4.498206659169542,0.0,1.6996843897130034,1.6619564588675515,0.6808424997040777,2.047707106020621,0.9317031496110433,,,0.5022576003740722,4.485906765161274,inf,,0.7545599183212159
521,2.445685936634719,-2.445685936634719,0.0,1.68492336561911,1.6824449032573143,0.8267499861303641,3.8800829132200882,1.892235246484073,,,0.4629450596409901,2.445685936634719,inf,,0.6539519610245412
522,2.49557692863861,3.204866644752077,-5.700443573390687,1.6852776549972517,1.658298217340839,0.7835716316393784,4.51304088005879,5.783187686263545,3.206966972919619,,0.5748741956352443,2.4934766004710673,3.213644775450648,inf,0.6318481265803643
523,3.0537644351550353,-3.0537644351550353,0.0,1.7669344383324357,1.7352039273955302,0.7072503780159687,3.497046626455137,2.591519299777545,,,0.4576907132971797,3.0517149083049278,inf,,0.4638411338626999
524,2.995732273553991,2.704711299836696,-5.700443573390687,1.7141375775886494,1.660577809668394,0.699375386670679,3.2234198508793748,4.437886733639562,2.7047112998366956,,0.4880666971167561,2.995732273553991,2.7113891023677246,inf,0.5115027164254404
525,3.3065226030565267,-3.3065226030565267,0.0,1.639789965995449,1.6393413113397957,0.7759544687907178,3.6585642976967607,2.6770767992578897,,,0.5329562494928909,3.306493446192858,inf,,0.5239142405957536
526,2.8239143342414144,1.2369367732241914,-4.060851107465606,1.6826511555127979,1.658077719258786,0.8586409057280392,4.317626815246554,5.725541776686467,3.8533996231581993,,0.5329562494928909,2.820099704910833,3.226173078692144,inf,0.5537682304198092
527,5.043677042537573,-5.043677042537573,0.0,1.733730779631022,1.6301187392942444,0.5079164644132488,2.963180443151197,2.395202121019403,,,0.5370774965580548,4.957094527168226,inf,,0.7170668097918693
528,4.307818559646028,-4.307818559646028,0.0,1.7304689080016802,1.6762476858638642,0.5603303757985382,2.349595148584387,1.5964500031120266,,,0.5158180382284114,4.306713040368352,inf,,0.7662360403228213
529,4.0943445622220995,-4.0943445622220995,0.0,1.5727262664220187,1.5526146083714567,0.6717924720241195,2.56642044826785,3.43318373902376,,,0.5113665138247345,4.0943445622221,inf,,0.7059647089859282
530,5.010635294096255,-5.010635294096255,0.0,1.563094368954256,1.5338463133805738,0.558846895481242,2.07354888412793,1.8238723048420091,,,0.4732203808476458,5.0106352940962555,inf,,0.7939331779819516
531,3.9120230054281455,-3.9120230054281455,0.0,1.5509409633898241,1.5223786575387224,0.8043218461852101,3.2215295006107265,4.673214806861119,,,0.3338418249889409,3.912023005428146,inf,,0.7837882940587378
532,3.084240244374756,-3.084240244374756,0.0,1.6410293934656026,1.6016154629110007,0.7472258157265214,3.0739619918164034,1.8975643602646146,,,0.5202020156036558,3.083713817973585,inf,,0.6374053501919169
533,3.3878539564895496,-3.3878539564895496,0.0,1.4472511747039842,1.3974485189655712,0.6680115918175545,2.322151384558514,1.6525575576651752,,,0.48319206230712763,3.387294476493164,inf,,0.7265558587874034
534,3.2206160524079923,2.4798275209826945,-5.700443573390687,1.6636617242802827,1.6683537259318824,0.6160055451045432,3.899806731561995,10.357118885756092,2.479899691421789,,0.5329562494928909,3.2205438819688976,2.486577493952818,inf,0.8031937734504024
535,5.468112433265819,-5.468112433265819,0.0,1.6951221556825788,1.6179752048537361,0.5157538176317464,1.5512312908370887,1.3848767903462746,,,0.5202020156036558,5.411112860693381,inf,,0.8656626541114302
536,,0.0,0.0,1.445092885404867,1.4225620382335475,0.5789882693121167,1.7558496913303125,1.6431786740757521,,,0.47824363442641393,inf,,,0.5614974437709217
537,5.7037824746562,-5.7037824746562,0.0,0.9286715374745267,0.8732396326497744,0.43481368107475604,2.116963489431771,2.018302039961159,,,0.552929491858785,5.703782474656201,inf,,0.8156530562312274
538,3.757872325600888,-3.757872325600888,0.0,1.6761910057559248,1.644955889361914,0.7321208106020304,3.0512767996739867,2.2993480836487294,,,0.4880666971167561,3.757872325600888,inf,,0.8250651905353036
539,3.418661444534697,-3.418661444534697,0.0,1.6002012163169395,1.5712158970058827,0.5750020300051348,4.083684141105547,11.646256688488506,,,0.5641709578113449,3.415296306041657,inf,,0.7635351667534676
540,3.269052385598887,-3.269052385598887,0.0,1.4222251800704493,1.3650298317241176,0.8185140086056171,4.682685246674834,11.938280152194636,,,0.5068466436745385,3.2681244274377934,inf,,0.5155398547378816
541,2.8258827190438294,-2.8258827190438294,0.0,1.4850918787709548,1.3971498074324222,0.8609526755986371,4.622479890333498,12.561490188968694,,,0.5451288209179292,2.8253333617169423,inf,,0.8940731757430449
542,5.703782474656199,-1.463970835161758,0.0,1.608973689093831,1.476844351822578,0.5572750965808595,2.451796867674041,3.0095412296042423,,,0.5287703885177266,7.063759527458719,inf,,0.9338168874409805
543,3.826212460324306,-3.826212460324306,0.0,1.4004114870773832,1.3562592905859436,0.7155942765911073,3.5243506387863515,2.0556328568987436,,,0.5451288209179292,3.823300130923343,inf,,0.5878042244806021
544,5.010635294096255,-5.010635294096255,0.0,1.2994315268731964,1.3005892673455108,0.5479024141090904,2.447286799041971,2.424621920875759,,,0.5287703885177266,5.0106352940962555,inf,,0.8536858143842393
545,,0.0,0.0,1.6890642124164792,1.679494565295009,0.5853466328529517,2.8456765762051957,3.9324920484589976,,,0.4302020962658841,inf,,,0.7533425151397071
546,4.605170185988091,-4.605170185988091,0.0,1.5143456968613602,1.4810777915579367,0.6090053828682233,2.9377245957905678,2.728650847711318,,,0.5158180382284114,4.605170185988091,inf,,0.6628810685612911
547,2.5970337318561905,-2.5970337318561905,0.0,1.3570480960266993,1.327117302755792,0.8377900764534087,3.9394461935295686,8.227300831260198,,,0.4732203808476458,2.596807022286228,inf,,0.7815124100774566
548,4.605170185988091,-4.605170185988091,0.0,1.4553275384201672,1.3834955345576982,0.6938284737714474,2.9036568073334332,2.604725393676923,,,0.5451288209179292,4.605170185988091,inf,,0.8729622642865031
549,2.6836658326924128,3.016777740698274,-5.700443573390687,1.7169368027381897,1.7141772866720224,0.8392549561989334,4.663150454634625,13.123841577853304,4.414277142883355,,0.5713653840954815,2.6825449106938484,3.0245764652278675,inf,0.8741292105596534
550,3.624340932976365,2.0761026404143217,-5.700443573390687,1.6767887640833705,1.6448695312609047,0.6993663567710352,3.4547756112096066,9.624091875829667,6.677933925136898,,0.5451288209179292,3.624340932976365,2.0827804429453507,inf,0.9116623607619366
551,3.5048018887256847,-3.4094767453579475,-0.09532514336773723,1.591195433149375,1.5251144503372864,0.6365740319325066,2.897286247090623,2.540646150436845,,,0.47824363442641393,3.50470775803182,6.293419278846481,inf,0.6028791181363021
552,4.3558457231965475,0.5819967032522415,-4.937842426448789,1.2280158195812827,1.1339906294224238,0.5320723245242895,2.043762830163943,1.3989728923426732,,,0.5113665138247345,4.351389665211991,1.4993472224008726,inf,0.6668714042114154
553,5.010635294096255,-5.010635294096255,0.0,1.7522771897751537,1.7264164410706981,0.6605803909979804,2.5334361193037402,2.5851233634785924,,,0.43586655696697996,5.0106352940962555,inf,,0.7172712811224541
554,5.7037824746562,-5.7037824746562,0.0,1.191873477469136,1.1324691735746464,0.6293181379771543,2.0505783265804696,1.2069004376856465,,,0.5748741956352443,5.703782474656201,inf,,0.8550261642113616
555,3.9120230054281455,-3.9120230054281455,0.0,1.6511804097255092,1.612575668823514,0.6979079719982949,2.9923630754549553,1.9607015323332955,,,0.4880666971167561,3.912023005428146,inf,,0.509624043359341
556,5.67143560623007,-5.67143560623007,0.0,1.718601626756954,1.7252203495126783,0.5283622465140723,2.300091471703422,2.2261953143721054,,,0.4928685327679205,5.658171963404149,inf,,0.8437726675566819
557,,0.0,0.0,1.7830460817931133,1.7884139240937773,0.3595056340135062,1.458534643283965,1.9016654621600162,,,0.468121228110369,inf,,,0.86706084132195
558,4.31748811353631,-4.31748811353631,0.0,1.4297739670228828,1.386927579014536,0.5758006265854452,2.3232603331981787,2.172834225642412,,,0.468121228110369,4.31748811353631,inf,,0.7823286245221335
559,3.9126307439507917,-3.9126307439507917,0.0,1.5784468623451469,1.5434038438634212,0.6091977708349635,2.3198569853369637,1.8167838276219719,,,0.5287703885177266,3.912578715361869,inf,,0.7328636478326191
560,2.9326996512429626,2.7677439221477242,-5.700443573390687,1.666270111335246,1.6474790556581422,0.6647218951508163,2.723287606886013,1.4774710536512763,,,0.5490601803369085,2.932653150152771,2.774468225768945,inf,0.7815972901106731
561,3.9120230054281455,-3.9120230054281455,0.0,1.3065701817141064,1.2665234161796164,0.5475825096590003,1.8072794933433163,1.1809640872335627,,,0.45235697871908603,3.912023005428146,inf,,0.5295671822472773
562,5.010635294096255,-5.010635294096255,0.0,1.1827083320932679,1.135627309523658,0.5057525454801437,2.0643063939503095,2.1585758321121276,,,0.5567373465730988,5.0106352940962555,inf,,0.825595596880421
563,4.144923767186654,-4.144923767186654,0.0,1.6493359930900833,1.6331222105787757,0.5265564939960913,3.0757728863832767,3.1547905965665777,,,0.4880666971167561,4.140737601791811,inf,,0.5673933226725514
564,4.31748811353631,1.3829554598543767,-5.700443573390687,1.7408563439643223,1.699268646083554,0.6453460589445922,2.5348143792396542,2.441547800166286,1.382955459854376,,0.45235697871908603,4.31748811353631,1.3896332623854053,inf,0.6720548240784362
565,3.9120230054281455,-3.9120230054281455,0.0,1.4411301847134714,1.3620802227610727,0.6098308442975313,1.8976901422715622,1.6382384817355393,,,0.524519217297268,3.912023005428146,inf,,0.7263546958325835
566,4.605170185988091,-4.605170185988091,0.0,0.9993423826408956,0.9619059020602944,0.6080376519637019,3.131152707576159,5.476656472161846,,,0.4928685327679205,4.605170185988091,inf,,0.6312486584747071
567,,0.0,0.0,1.1827484203287635,1.159574203583088,0.6225818324601772,3.0470188358361336,3.145413380369517,,,0.5022576003740722,inf,,,0.8926308519175924
568,5.7037824746562,-5.7037824746562,0.0,1.6661905015902672,1.6489733809951934,0.3360498696052574,1.935477928779947,1.7074942539632796,,,0.5287703885177266,5.703782474656201,inf,,0.8043115992011283
569,,0.0,0.0,1.4340589122131613,1.4066236146210769,0.6215955468755422,1.6775376634979193,1.2385306768892372,,,0.45235697871908603,inf,,,0.7375131772184353
570,3.624340932976365,-3.624340932976365,0.0,1.3220181242785738,1.297226179266921,0.6540085673559876,2.5816729713988322,1.779477997893094,,,0.541134803179459,3.624340932976365,inf,,0.6551402846370562
571,2.7744640284709483,-2.7744640284709483,0.0,1.6619219385313164,1.6456371561014878,0.7722204495146296,3.6122842814001865,2.578098257546031,,,0.5677978065141052,2.7729443410202004,inf,,0.4642568730000584
572,2.720836950123939,-2.720836950123939,0.0,0.5924189481050853,0.5754125284607685,0.8110487870949245,4.12351868673239,2.949984459773227,,,0.5677978065141052,2.7177638932898494,inf,,0.46404566959392995
573,5.1682246449233045,-5.1682246449233045,0.0,1.5798624216607453,1.5064779052701158,0.6788268527811635,3.3352694317062266,9.333989372067212,,,0.5113665138247345,5.110455629378467,inf,,0.8490180789283068
574,4.604211245746585,-4.604211245746585,0.0,1.694091500682827,1.6755963815096508,0.4966110861316759,3.1774001496423345,3.6885199717038746,,,0.4576907132971797,4.604059691704064,inf,,0.8490155933860043
575,,0.0,0.0,1.4493938308261043,1.4445665848933171,0.7599406492210442,3.1887115877106904,3.4008561542415365,,,0.45235697871908603,inf,,,0.9117355443064326
576,5.703782474656202,-2.148424732120503,0.0,1.6790328644328072,1.6984107060191553,0.6669529100230089,2.5951515835045567,3.381719454943825,,,0.5604843169999094,6.680177130600062,inf,,0.7167346469072227
577,,0.0,0.0,1.602753812275766,1.599000793032413,0.779222458971206,2.6447166714718016,4.257092166208029,,,0.49759852643134905,inf,,,0.8351749015352808
578,3.4457999999573015,-3.4457999999573015,0.0,1.1398384968229083,1.0865368338450327,0.7407989309211398,3.037001933657245,3.0421684776950877,,,0.541134803179459,3.4444528903331126,inf,,0.8368544316848608
579,,0.0,0.0,1.726317509402378,1.7233404272530013,0.8872933592754558,1.993031976120324,2.4282969609153864,,,0.44694259446804574,inf,,,0.7077502371090743
580,,0.0,0.0,1.7699296520950392,1.768267536023453,0.5847626473827567,1.6892594563542627,2.258876052813596,,,0.4576907132971797,inf,,,0.8102765020588483
581,,0.0,0.0,1.776762498160643,1.773583708679568,0.8057515299486517,1.5068150309101418,1.7244068992077255,,,0.5370774965580548,inf,,,0.8023173313543545
582,,0.0,0.0,1.7451441209725684,1.7097974301595327,0.927140409210062,1.877820801620396,2.6195203548320842,,,0.5113665138247345,inf,,,0.7928750592350167
583,,0.0,0.0,1.7240526017793056,1.7131678099536756,0.9555903752723479,1.8609519895601283,2.10804979916318,,,0.4576907132971797,inf,,,0.8120790276922214
584,,0.0,0.0,1.5974153613750524,1.5596989192594481,0.5823033705400491,2.357398114040922,3.773226311327677,,,0.5287703885177266,inf,,,0.8178002841458564
585,,0.0,0.0,1.6600873864735184,1.6151721448037466,0.5431358998706629,1.7969773013500185,1.7167928464232793,,,0.43586655696697996,inf,,,0.9400797430549077
586,,0.0,0.0,1.3961374409403227,1.3844654608407188,0.6961753739718217,1.6899115129252849,1.828206795410331,,,0.4928685327679205,inf,,,0.8878228330849895
587,,0.0,0.0,1.3573950800420185,1.34281046376062,0.8911719692451329,2.0834754344659703,2.211846141952973,,,0.42445136339222655,inf,,,0.8363038319629283
588,,0.0,0.0,1.4681364486671258,1.468285832021501,0.46586012750601324,2.00014610870933,2.464023244212222,,,0.4576907132971797,inf,,,0.7678634913167115
589,5.7037824746562,-5.7037824746562,0.0,1.5761726630159894,1.508941983987589,0.5719972454939479,2.0882871854985154,2.076152618530473,,,0.44144624493110796,5.703782474656201,inf,,0.5661137841876274
590,,0.0,0.0,1.6690879440396773,1.698571703733342,0.48026172564577374,1.5641472359194855,1.3259260256547767,,,0.5641709578113449,inf,,,0.727660459770624
591,,0.0,0.0,1.7274027032042494,1.7136846462285178,0.4913280079299343,1.336944199669859,1.616305416016843,,,0.4928685327679205,inf,,,0.7256648787819223
592,,0.0,0.0,1.5849613020082685,1.5732396193094518,0.9372631788319746,1.3069377906491704,1.7075677613323994,,,0.40055318934786044,inf,,,0.8278554860166489
593,,0.0,0.0,1.4819307020510166,1.489453290399015,0.7492256471543486,1.3703049156808362,1.4138531630203708,,,0.5329562494928909,inf,,,0.7341913464798283
594,,0.0,0.0,1.6024785023266275,1.5940776136984478,0.8493396934114129,1.6050190833400388,2.2036150304930366,,,0.468121228110369,inf,,,0.7899229211259243
595,,0.0,0.0,1.2345924490701417,1.225139961593112,0.7077809966082677,1.9204767305436685,2.327281497090726,,,0.45235697871908603,inf,,,0.8735927354094071
596,,0.0,0.0,1.6284447396414679,1.591010855260322,0.9197936158286805,1.6198057352719442,1.7039772023267623,,,0.5068466436745385,inf,,,0.8130277088338053
597,,0.0,0.0,1.451396407455701,1.46066951142027,0.9566150903542486,1.7320402508609594,2.1222439437123484,,,0.38804190201132227,inf,,,0.7643396143216658
598,,0.0,0.0,1.2755710467637145,1.2490282758093216,0.5044659869758642,1.8466795670878031,2.91201725867598,,,0.43586655696697996,inf,,,0.857865870384582
599,,0.0,0.0,1.6755642233860835,1.65972037878916,0.578423737217404,1.3626853451788337,1.5958371650367797,,,0.41268473150466,inf,,,0.8824903338684691
600,,0.0,0.0,1.5669404363706398,1.571955418758682,0.4814550880717646,1.354136078961139,1.4765775153037548,,,0.48319206230712763,inf,,,0.7955469004100121
601,,0.0,0.0,1.437483235331746,1.4359450379017509,0.5822764119953543,1.52156263553545,1.8589715736827113,,,0.43586655696697996,inf,,,0.7356741875573294
602,5.7037824746562,-5.7037824746562,0.0,1.5674650094261007,1.5451662885484554,0.36163516568312964,1.071829498240602,0.7849224268917836,,,0.48319206230712763,5.703782474656201,inf,,0.545128634522181
603,,0.0,0.0,1.4006153528501522,1.3440653421322402,0.8208710411342217,0.2242340742946293,0.2963679861441189,,,0.3943459996787778,inf,,,0.8307332660330311
604,,0.0,0.0,1.5776023468081668,1.5450638360968214,0.8617720612078739,0.18337238895380864,0.26938560929633515,,,0.41861278947482794,inf,,,0.739331798380998
605,,0.0,0.0,1.4381344686620614,1.4456030340828692,0.5584839295300649,0.3003321973171482,0.35935287664774834,,,0.5287703885177266,inf,,,0.8827526425029824
606,,0.0,0.0,1.474694523109402,1.4619643674254634,0.5153673278507575,0.28905246487073827,0.39033251281885584,,,0.48319206230712763,inf,,,0.8701524977504365
607,,0.0,0.0,1.4064224500135154,1.391166181214652,0.7536594026611726,0.3043144101318248,0.3639614196625384,,,0.43586655696697996,inf,,,0.8351908375899448
608,,0.0,0.0,1.5915109028226881,1.5922719241520857,0.8654756820495013,0.3003363982164191,0.41130180509226527,,,0.41268473150466,inf,,,0.8241488611269094
609,,0.0,0.0,1.6290987342280738,1.6280383087239019,0.6063561235915913,0.368243893838376,0.48530237916890645,,,0.45235697871908603,inf,,,0.8173191795052244
