,bvp+temp_XAp0,bvp+temp_XAp1,bvp+temp_XAp2,bvp+temp_XCond1,bvp+temp_XCond2,bvp+temp_XDist,bvp+temp_XFuzz1,bvp+temp_XFuzz2,bvp+temp_XK2_1,bvp+temp_XK2_2,bvp+temp_XPermEn,bvp+temp_XSamp0,bvp+temp_XSamp1,bvp+temp_XSamp2,bvp+temp_XSpec
0,,0.0,0.0,1.4377592494337141,1.399183892790003,0.1527975958468015,0.9645296042003131,0.9287640074523635,,,0.48319206230712763,inf,,,0.8232173299164436
1,,0.0,0.0,1.6738102645505422,1.6638265140632331,0.645277953048599,0.9118467040716824,1.0790447635876415,,,0.5451288209179292,inf,,,0.9264180220279877
2,,0.0,0.0,1.6134748596480963,1.5966930427564034,0.11450694812535096,0.48066587898335994,0.43533187363329584,,,0.552929491858785,inf,,,0.9647173574517326
3,,0.0,0.0,1.7406421968645132,1.7041549007571906,0.4362306361663426,0.42685931500067315,0.3770523678161714,,,0.49759852643134905,inf,,,0.9270303595745173
4,,0.0,0.0,1.5199049315812898,1.4808286160068131,0.7854554054513694,0.5431981510193565,0.5393950549289069,,,0.5370774965580548,inf,,,0.9338096767295385
5,,0.0,0.0,1.50665737580552,1.4818770895109763,0.5942946311377904,0.40402785568316346,0.42581641808623155,,,0.4928685327679205,inf,,,0.8864581794973175
6,5.010635294096255,-5.010635294096255,0.0,1.6974022310127683,1.5372320643545563,0.39356140374295917,0.757044076980114,0.4238331778177612,,,0.4880666971167561,5.0106352940962555,inf,,0.6041502527267516
7,,0.0,0.0,1.5057865369523187,1.5090592249049322,0.27489866603094726,0.8289298411025657,0.7562126330456035,,,0.524519217297268,inf,,,0.6231817032136342
8,,0.0,0.0,1.4566145717398682,1.424595206713461,0.7415837225055566,1.036335141310453,0.908632536742541,,,0.45235697871908603,inf,,,0.9432640302182704
9,,0.0,0.0,1.703779907710237,1.736896591363726,0.38070378466400207,0.7403193435745762,0.6758705165972686,,,0.45235697871908603,inf,,,0.9527735530986552
10,,0.0,0.0,1.682999453557245,1.6256665485930353,0.5806470720962853,0.7219940040841933,0.5796866488667992,,,0.5287703885177266,inf,,,0.9381065463934236
11,,0.0,0.0,1.7320057161736875,1.7075647689191085,0.3882027930793063,1.0967500955854557,0.8926225259032141,,,0.4302020962658841,inf,,,0.6388688795978186
12,,0.0,0.0,1.7823712078757261,1.7805083323574573,0.3939125702289801,1.2682449003430998,0.8949531309795227,,,0.4928685327679205,inf,,,0.6565513785432752
13,,0.0,0.0,1.486713020765967,1.4221139994913699,0.659419795937761,1.597678543397357,1.1736481302506065,,,0.541134803179459,inf,,,0.930541435230121
14,,0.0,0.0,1.7574134544319846,1.6961355543914889,0.6051941360543577,1.3183784263398028,1.0361211166707727,,,0.47824363442641393,inf,,,0.9517017134253313
15,,0.0,0.0,1.7641878483512052,1.7544084533422497,0.430392931198806,1.6528520645410634,1.1061351835536832,,,0.5287703885177266,inf,,,0.930068363798311
16,5.010635294096255,-5.010635294096255,0.0,1.2310703293617538,1.2152329736122263,0.3832207249790714,1.1042996869521922,0.7749660494133082,,,0.4880666971167561,5.0106352940962555,inf,,0.7300350483145536
17,4.429684121792505,-0.9598489032068698,-3.469835218585635,1.6961747843219217,1.662168797853416,0.49129404459229736,1.6265008268669965,1.0104128578664602,2.113277994014379,,0.4629450596409901,4.420074702311411,1.7834835599241952,inf,0.6078226994010726
18,4.629498092474581,-4.629498092474581,0.0,1.6165447837010927,1.5440764699394893,0.49619886024547266,1.4400686618972165,0.903665016179233,,,0.5783247308855777,4.62537289330561,inf,,0.610501696734061
19,,0.0,0.0,1.7614831781469786,1.7648205363187959,0.8154147935328837,0.23575010305356048,0.32283725521668705,,,0.4880666971167561,inf,,,0.9046279560367272
20,,0.0,0.0,1.6340347992578896,1.6119451978679977,0.7380817736921667,0.3095356226162632,0.30621077582426437,,,0.5641709578113449,inf,,,0.9244831169168328
21,,0.0,0.0,1.6681735669624123,1.6453499926883735,0.28145856871784014,0.3687265229018481,0.3128136442340784,,,0.43586655696697996,inf,,,0.956388843126436
22,,0.0,0.0,1.7168996930084919,1.6849426023208558,0.6655421409609508,1.2968058308906123,1.0976965136411496,,,0.552929491858785,inf,,,0.902612470867561
23,,0.0,0.0,1.6767774719862454,1.6568514019377487,0.7049591062286592,1.5943814698456071,1.351548324979496,,,0.5022576003740722,inf,,,0.9328257452914437
24,,0.0,0.0,1.7099869388227373,1.7004326805392602,0.3582980711176571,1.2608656423165887,0.8853280328135851,,,0.541134803179459,inf,,,0.6827743395195657
25,,0.0,0.0,1.6606975956598866,1.5474545034371154,0.3222619270843053,0.8095269126805795,0.9547093108965331,,,0.4629450596409901,inf,,,0.7276127038246027
26,,0.0,0.0,1.567788648237097,1.5385395782096294,0.4965469951718939,0.34108351607982423,0.4249649507169912,,,0.44694259446804574,inf,,,0.9161711929773201
27,,0.0,0.0,1.7122751653837447,1.659138503407177,0.5980566922570755,0.5877921807235312,0.6505455838005558,,,0.5022576003740722,inf,,,0.9452129248588279
28,,0.0,0.0,1.6267655286835583,1.6027486394598471,0.6683575198601573,0.4738054650716936,0.6466871951103675,,,0.524519217297268,inf,,,0.9485757121522648
29,,0.0,0.0,1.5712466702707277,1.5885984460864895,0.5144657371400347,0.5018974434790971,0.71833078378861,,,0.48319206230712763,inf,,,0.950084306091604
30,,0.0,0.0,1.638652431675388,1.6191852977598438,0.597178946241282,0.6251871247382033,0.8888493056673558,,,0.47824363442641393,inf,,,0.9308385908786766
31,,0.0,0.0,1.636834466582572,1.6085447580055108,0.6541959837860571,0.9773035383167432,0.9708903250160356,,,0.4302020962658841,inf,,,0.9476775031237508
32,,0.0,0.0,1.7640482199818304,1.7309061906701513,0.6800006560305426,0.9074424424748779,0.8709340621782536,,,0.4629450596409901,inf,,,0.9272569684130431
33,,0.0,0.0,1.7334254807084615,1.693344576034717,0.6067859345347928,0.7622272135960448,0.6067416020708264,,,0.49759852643134905,inf,,,0.9496934035881333
34,,0.0,0.0,1.5398996007802408,1.5492571196602258,0.5808890045127678,0.30865967067990224,0.35732038204865846,,,0.4880666971167561,inf,,,0.9349763919652504
35,,0.0,0.0,1.5057187355655506,1.4600438143694507,0.7392873580340782,0.31868480738721744,0.3849948580922164,,,0.36181263880445963,inf,,,0.9254058172487843
36,,0.0,0.0,1.4431995137827525,1.4482015259201597,0.31080996826498974,0.49903385215665863,0.6207503562018075,,,0.45235697871908603,inf,,,0.9587713574552683
37,,0.0,0.0,1.5937071141017787,1.5594366612678365,0.8527187516081957,0.6029548325146097,0.7657295051949479,,,0.5604843169999094,inf,,,0.9297423580569184
38,,0.0,0.0,1.5386889473216163,1.4578279905929787,0.6084329271966425,0.6071645063633105,0.6293223237400577,,,0.5202020156036558,inf,,,0.942064255727819
39,,0.0,0.0,1.625913573169519,1.6101233682686649,0.5934893628564474,0.37963593032050913,0.2984747816989103,,,0.5068466436745385,inf,,,0.9446166823493576
40,,0.0,0.0,1.7667706776428855,1.7427359361068662,0.6421920222177974,1.0737634517957986,0.9173780183280724,,,0.4928685327679205,inf,,,0.9539040724235912
41,,0.0,0.0,1.758837757378624,1.7318900761000124,0.30427486745974286,1.2843747890442867,0.6449845033098329,,,0.5370774965580548,inf,,,0.8092306315799412
42,,0.0,0.0,1.6602347163712525,1.6094746861198426,0.38004090247895567,0.900458432553592,0.7548221848707073,,,0.5022576003740722,inf,,,0.8143060433434974
43,,0.0,0.0,1.694660877071525,1.6933825459368832,0.4794343320389575,1.3486379064817973,1.2583070834234444,,,0.4576907132971797,inf,,,0.9441101683936153
44,,0.0,0.0,1.6345413804081146,1.5556579972360691,0.5558167925059949,0.6405662910987437,0.5597730583127203,,,0.5113665138247345,inf,,,0.7727551355989962
45,,0.0,0.0,1.6426946279198933,1.57296286137433,0.5750184535318348,0.5474645439827862,0.3808510874164096,,,0.44694259446804574,inf,,,0.7007463222749041
46,,0.0,0.0,1.7845847522610254,1.7659725378278865,0.2730914978029215,1.1930849170477447,0.8366825047905619,,,0.5287703885177266,inf,,,0.9478387437207015
47,,0.0,0.0,1.665951539391246,1.6036675551412924,0.3319674618383057,0.5102130674891358,0.32805850314360896,,,0.541134803179459,inf,,,0.6003054037732208
48,,0.0,0.0,1.6635595287034621,1.64598091108981,0.6450271531544653,1.2034516291856698,0.9769329126260113,,,0.5677978065141052,inf,,,0.9377122084023612
49,,0.0,0.0,1.7494436978964192,1.7518160778195466,0.5673271743103027,1.48601623576284,1.16583502564312,,,0.5677978065141052,inf,,,0.6200730242734779
50,,0.0,0.0,1.6573824123713756,1.6514611249814355,0.40697073990049243,2.2334577177948782,1.769659874649931,,,0.5329562494928909,inf,,,0.7180539971514951
51,5.010635294096255,-5.010635294096255,0.0,1.7009464865134383,1.6922503880094402,0.5240523823085297,2.1832107037264756,1.8248824433647055,,,0.5158180382284114,5.0106352940962555,inf,,0.9501760479663803
52,4.605170185988091,-4.605170185988091,0.0,1.414803684318441,1.335649889351972,0.5299513806173586,1.9836225562753653,1.3327594105961567,,,0.468121228110369,4.605170185988091,inf,,0.5213237094343374
53,,0.0,0.0,1.257420489025915,1.218968474568416,0.5788640429374345,1.5105519655136714,1.0748402435171667,,,0.38804190201132227,inf,,,0.9100968145571116
54,5.010635294096255,-5.010635294096255,0.0,1.610275005068956,1.5828967342899234,0.6594780945490377,2.4228597915452865,1.7640378727963704,,,0.14689728110576383,5.0106352940962555,inf,,0.6189817500460729
55,,0.0,0.0,1.610275005068956,1.5672243576182945,0.5871778799359765,1.728951035465681,1.282236767217863,,,0.18952474069199465,inf,,,0.5742008999827767
56,5.010635294096255,-5.010635294096255,0.0,1.5879435549850522,1.4952527672827522,0.45384190339710395,1.6244297146546975,0.8504294334929123,,,0.5915533975974677,5.0106352940962555,inf,,0.7217831636870441
57,,0.0,0.0,1.6526430384442448,1.6320527361112336,0.45066044430302266,1.2423955631228387,0.8017383090536352,,,0.5748741956352443,inf,,,0.6601673719265403
58,5.7037824746562,-5.7037824746562,0.0,1.632461320460206,1.6478378530140805,0.7474488805700648,2.308963172764263,1.7365441783549067,,,0.5370774965580548,5.703782474656201,inf,,0.9529054736489605
59,,0.0,0.0,1.4209253741046028,1.3761749868646935,0.5478772162651796,1.3548556130723308,0.93099875282877,,,0.47824363442641393,inf,,,0.9426021295202806
60,4.208247949815982,-4.208247949815982,0.0,1.6775907712249185,1.6298616587141044,0.6421339753854339,2.937595582864677,2.929676017275876,,,0.45235697871908603,4.1967464958401814,inf,,0.8741330124050208
61,3.757872325600888,-3.757872325600888,0.0,1.7566448974087554,1.7332051652057694,0.7161936315959708,3.159975556231626,1.8313011028863544,,,0.5370774965580548,3.757872325600888,inf,,0.46185919748851234
62,,0.0,0.0,1.601640655230631,1.5653602500186494,0.5743758245523113,1.9733469850957341,1.7900649801882442,,,0.5202020156036558,inf,,,0.8985482951123027
63,5.347966921968761,-5.347966921968761,0.0,1.7381260332621702,1.6953343606900335,0.6490813712182466,1.523475825373767,0.9199406602421716,,,0.5641709578113449,5.289467751271054,inf,,0.9488630155351515
64,,0.0,0.0,1.6372874340814982,1.6480094049755598,0.5444667214277783,1.4041629039297274,1.4246129036324935,,,0.541134803179459,inf,,,0.7133994407657576
65,,0.0,0.0,1.5958948123281385,1.5048112228362602,0.6112412787425153,1.385516378864191,1.4188709291896948,,,0.5451288209179292,inf,,,0.894696362239752
66,,0.0,0.0,1.6259393650830762,1.6036730613214256,0.5215640889713532,0.9835523135537615,1.088218242261118,,,0.4928685327679205,inf,,,0.9300858488708776
67,,0.0,0.0,1.5774439888756755,1.5279523467747316,0.6518209325592328,1.635137808203365,1.3619070672238676,,,0.5451288209179292,inf,,,0.945517668185778
68,,0.0,0.0,1.6842273260938794,1.6764071578484854,0.49206430982076654,1.0473462242848994,1.2088782265271776,,,0.552929491858785,inf,,,0.9504967610031626
69,,0.0,0.0,1.5905546617862103,1.5221052484153539,0.5963692605724022,1.151735614557806,1.2641541207508724,,,0.5202020156036558,inf,,,0.9458010431020948
70,,0.0,0.0,1.7303971008492596,1.6861051794713597,0.4847938798091869,1.0202102552425572,0.7766234846581546,,,0.5287703885177266,inf,,,0.6549134472978032
71,,0.0,0.0,1.360308642685345,1.3148335013592993,0.47296107687099126,1.200016298282363,1.2462916474757533,,,0.5068466436745385,inf,,,0.9505299474804514
72,,0.0,0.0,1.7520261798078691,1.7286108681213141,0.5506179374017272,1.335879915746597,1.5876080796102727,,,0.541134803179459,inf,,,0.940751176287895
73,,0.0,0.0,1.6223198189198216,1.526916585296281,0.5840859798740721,1.09341448189011,1.1450738986127573,,,0.5113665138247345,inf,,,0.9430629872023348
74,,0.0,0.0,1.7509078464166599,1.7569335771432648,0.6459853888595447,0.7713702973949262,1.1485168177897644,,,0.4576907132971797,inf,,,0.9165599479446312
75,,0.0,0.0,1.6197439872524984,1.5741209563042196,0.4690301378598416,1.078273575018941,1.045763042521642,,,0.43586655696697996,inf,,,0.6143571096649424
76,,0.0,0.0,1.5848046141655758,1.5481703058774603,0.8137789544081369,0.9309756714207218,1.2871022329142117,,,0.5113665138247345,inf,,,0.8926385274790551
77,,0.0,0.0,1.6008230189271435,1.601952248735658,0.8225687591841327,0.6217718821698934,0.9595998046637418,,,0.47824363442641393,inf,,,0.9192797305530355
78,,0.0,0.0,1.6515657610821743,1.6592610029330177,0.7711423917926175,0.7381454862687408,0.8783572827756886,,,0.5202020156036558,inf,,,0.9421625046153405
79,,0.0,0.0,1.745647929852451,1.7167917029719288,0.6802425621171825,0.46918948518021536,0.58257630583279,,,0.5287703885177266,inf,,,0.9349278155220958
80,,0.0,0.0,1.5571052089782522,1.5423629875205978,0.2879522433764645,1.7115753934646334,1.6978338885636464,,,0.47824363442641393,inf,,,0.8327119594577005
81,,0.0,0.0,1.5086062409435406,1.4990570067755133,0.9647857991818589,1.3898326383652075,2.162019890487395,,,0.5022576003740722,inf,,,0.9161588390806618
82,4.684911657249363,-4.684911657249363,0.0,1.7282895590191087,1.6384958092264428,0.29263987794003254,1.1648721458173477,1.2393729526437853,,,0.4576907132971797,4.6729732893394536,inf,,0.6416151855091646
83,5.7037824746562,-5.7037824746562,0.0,1.5740040807919309,1.4964094732817261,0.2695026019311519,0.9724250516549655,1.003608586500738,,,0.5202020156036558,5.703782474656201,inf,,0.6581544562730415
84,5.010635294096255,-5.010635294096255,0.0,1.2514561884865838,1.0825432184840202,0.3757131681389721,1.8767822940951873,3.183200189703131,,,0.44144624493110796,5.0106352940962555,inf,,0.5158459773671749
85,,0.0,0.0,1.7440788793183022,1.6523573024238132,0.36133626503878313,0.7676225664835171,0.4466507362754527,,,0.541134803179459,inf,,,0.8391860948923451
86,5.010635294096255,-5.010635294096255,0.0,1.74853175815746,1.7076361812001601,0.5139711889513313,1.357963563614091,0.6849825616442053,,,0.4576907132971797,5.0106352940962555,inf,,0.6662534240252581
87,,0.0,0.0,1.7656638197098968,1.7043155622173844,0.5202739789313724,0.8030703155970503,0.6217990381233761,,,0.5202020156036558,inf,,,0.9460228402237757
88,,0.0,0.0,0.898060278503934,0.8325005172385107,0.5856743132160684,1.4313147062166185,0.6412445434127916,,,0.5370774965580548,inf,,,0.47224955870463114
89,3.7102461288981416,-3.7102461288981416,0.0,1.5643818800664473,1.5275390222405265,0.628406231352256,2.784119544786023,2.279300197871542,,,0.5068466436745385,3.7081755430556655,inf,,0.7699973483211232
90,4.70113026157369,-4.70113026157369,0.0,1.5777033510958018,1.4442913945434608,0.4429255786535897,1.8715203908121634,1.332410113002307,,,0.43586655696697996,4.687344794177108,inf,,0.7112587844421822
91,4.31748811353631,-4.31748811353631,0.0,1.6693566226635506,1.538842997501622,0.6144424349702242,1.734470801778014,0.74196734596583,,,0.49759852643134905,4.31748811353631,inf,,0.6905941512301191
92,,0.0,0.0,1.670335658102301,1.625011469301219,0.422465257394018,0.7444706295079416,0.776002260274457,,,0.49759852643134905,inf,,,0.8029823255940439
93,5.703782474656201,-3.080042536314348,0.0,1.6191799288866136,1.4874387651637222,0.3623762929715688,0.8274233506919939,0.5506013319633487,,,0.5202020156036558,6.319968614080018,inf,,0.7007987817544375
94,5.7037824746562,-5.7037824746562,0.0,1.6265322162402736,1.6206927250206433,0.3646748055577512,0.8668353714506296,0.7221027512650333,,,0.5022576003740722,5.703782474656201,inf,,0.783225131508849
95,,0.0,0.0,1.6232531762234128,1.5933483212552466,0.6686362638766015,1.3372878425923949,0.7824725607693774,,,0.44694259446804574,inf,,,0.9493413050571895
96,,0.0,0.0,1.695724267304135,1.6171354330996404,0.6448124737383243,1.7140931865358773,1.312552164586449,,,0.5287703885177266,inf,,,0.937573115035117
97,4.31748811353631,-4.31748811353631,0.0,1.7050599298408617,1.5264370181962565,0.5721605887468899,1.8869021156436334,1.3801303413727073,,,0.4928685327679205,4.31748811353631,inf,,0.8141433456908325
98,,0.0,0.0,1.513291583258797,1.4521364662051588,0.5199715727958952,0.9786151906600509,0.8090507983899394,,,0.5202020156036558,inf,,,0.9487778493941105
99,,0.0,0.0,1.6098171861786437,1.5900534648949878,0.41565438296326573,0.9746925600599977,0.7213361868713623,,,0.5202020156036558,inf,,,0.5703441773099704
100,,0.0,0.0,1.3946624837351094,1.3888443183591783,0.3822722923834567,0.5830721532677997,0.36723300999054265,,,0.4732203808476458,inf,,,0.9373868832399259
101,,0.0,0.0,1.5449786362225264,1.5142977527533679,0.46503484184514543,0.6968109192784049,0.5765880858228707,,,0.5370774965580548,inf,,,0.9384504799878184
102,4.0943445622220995,1.6060990111685873,-5.700443573390687,1.494032873132994,1.3950941802147434,0.4745809762535172,0.8867806404087558,0.41992990894501125,1.6060990111685858,,0.38804190201132227,4.0943445622221,1.612776813699615,inf,0.8852196223943479
103,,0.0,0.0,1.6594529456402003,1.5562369623267678,0.5331306735683898,0.4759575956254395,0.28569945765276705,,,0.47824363442641393,inf,,,0.9345866095308102
104,,0.0,0.0,1.3227605052131215,1.2830975316494648,0.6348099564369446,0.9534340827910353,0.8851660216383618,,,0.48319206230712763,inf,,,0.948949705242983
105,,0.0,0.0,1.078063280345172,1.029016371299015,0.4183368466994343,1.0678372702129457,0.6196170081780696,,,0.5677978065141052,inf,,,0.9224494803519688
106,5.7037824746562,-5.7037824746562,0.0,1.2929434471487737,1.2791415022575767,0.42438005963248526,1.123433985479752,0.6509160303787793,,,0.5068466436745385,5.703782474656201,inf,,0.7224324379616465
107,5.7037824746562,-5.7037824746562,0.0,1.713245266513944,1.6431290330190103,0.7170579101538687,2.0488297340957664,0.6161127937673023,,,0.5641709578113449,5.703782474656201,inf,,0.8539394372588764
108,5.7037824746562,-5.7037824746562,0.0,1.7311185773314808,1.731059338619141,0.5669747463606432,2.668249731015656,1.8876762740348756,,,0.48319206230712763,5.703782474656201,inf,,0.708035592313649
109,5.7037824746562,-5.7037824746562,0.0,1.315108402654282,1.3040129370185702,0.3779820198133022,0.859794209582737,0.6717477182997114,,,0.4576907132971797,5.703782474656201,inf,,0.8705623019463385
110,,0.0,0.0,1.5093060644232041,1.4944120926412103,0.39755057699753493,0.8204599829272894,0.8083721992531814,,,0.5329562494928909,inf,,,0.7978984451530459
111,,0.0,0.0,1.7182117842307512,1.66247920451765,0.41041465781263803,1.2163184857552012,1.0429438887048246,,,0.5202020156036558,inf,,,0.6786034082186968
112,5.7037824746562,-5.7037824746562,0.0,1.787114399415771,1.6942811845451438,0.4289605931420845,1.5760191647372135,1.2472890266028631,,,0.48319206230712763,5.703782474656201,inf,,0.6862936343204027
113,4.5581821141543,-4.5581821141543,0.0,1.719400441286849,1.6972227648293587,0.6641165420171019,3.235643358362811,2.4302581263445315,,,0.5022576003740722,4.552156150702475,inf,,0.7025762603044474
114,4.31748811353631,-4.31748811353631,0.0,1.476923697886112,1.4382820129108522,0.7109716345626986,3.042982270551917,2.866985223091458,,,0.5567373465730988,4.31748811353631,inf,,0.8349295565440341
115,4.0943445622220995,-4.0943445622220995,0.0,1.6286617518739641,1.5803790980713825,0.6911018624181098,3.6387457740234805,3.9083586695293384,,,0.4629450596409901,4.0943445622221,inf,,0.8576538128280216
116,4.31748811353631,-4.31748811353631,0.0,1.6461526826431223,1.499079649754839,0.6585603468802179,1.0742863282641208,0.30764142893136204,,,0.5022576003740722,4.31748811353631,inf,,0.6064427439655798
117,3.3386103635906497,-3.3386103635906497,0.0,1.7362390830787597,1.699421253158532,0.6859020987669672,3.4259312846253342,2.6289730095115162,,,0.4928685327679205,3.3375968002525607,inf,,0.4974952483785503
118,3.4776443673467194,-3.4776443673467194,0.0,1.5411982932152508,1.5035934025733186,0.7971497086551872,3.828232537056186,3.985407185007396,,,0.5202020156036558,3.472335409495495,inf,,0.878850242119112
119,,0.0,0.0,1.5591226778826157,1.5283575361919721,0.5960005422486718,2.0176694893311233,1.398216014765917,,,0.5287703885177266,inf,,,0.9210751270154379
120,5.7037824746562,-5.7037824746562,0.0,1.6591263843803432,1.6613877690594858,0.5750511506021869,2.2431170826046793,1.6117067766752404,,,0.48319206230712763,5.703782474656201,inf,,0.9485355586988501
121,,0.0,0.0,1.5358428887455702,1.461672496960091,0.1859044664019145,0.3772279202731983,0.30787545835447505,,,0.5329562494928909,inf,,,0.8414650306019861
122,4.605170185988091,-4.605170185988091,0.0,1.5116374315957994,1.4673158432106144,0.5623143133807964,1.0286165129770966,0.35545973267748,,,0.5567373465730988,4.605170185988091,inf,,0.6174994434810764
123,,0.0,0.0,1.7282325248287282,1.699270014831064,0.2575471969152058,0.5423186623435724,0.617505073909076,,,0.5490601803369085,inf,,,0.9446774651319076
124,,0.0,0.0,1.6700620532860184,1.6582285928476925,0.6462171606239343,0.4213418283720599,0.44843006609966324,,,0.4880666971167561,inf,,,0.9457975057914679
125,,0.0,0.0,1.550026588061389,1.467900864488885,0.22965570799704463,0.5307323050263377,0.4072811753660216,,,0.4576907132971797,inf,,,0.788792023609464
126,5.7037824746562,-5.7037824746562,0.0,1.582851140586856,1.5730027560739033,0.6201011123393724,1.8994897189120115,1.3029636410492302,,,0.5287703885177266,5.703782474656201,inf,,0.9441946683246198
127,,0.0,0.0,1.6316134437340257,1.637285004033329,0.6444233966752495,0.9246424517700809,0.6763767097426931,,,0.5158180382284114,inf,,,0.9466963758922773
128,,0.0,0.0,1.6637419749744429,1.634426596399481,0.7163028270156458,1.1030070207897233,0.7887299807646233,,,0.5113665138247345,inf,,,0.9513737018365176
129,,0.0,0.0,1.759868151219439,1.7363482765345946,0.6174347652976256,0.9770096363938684,0.8584805854854106,,,0.47824363442641393,inf,,,0.9470842534068773
130,,0.0,0.0,1.7211022053165719,1.6968309595578084,0.4541721602353781,1.1742460560707668,0.9792212503286857,,,0.5287703885177266,inf,,,0.9496674875859782
131,,0.0,0.0,1.5945008494535424,1.6100004876390686,0.6206698032781659,1.00543899015729,0.7841803983894877,,,0.5490601803369085,inf,,,0.9539387849885067
132,,0.0,0.0,1.751769974642328,1.7126328484297733,0.2568608034184732,0.682297520277258,0.3123089885594542,,,0.48319206230712763,inf,,,0.9554023369417076
133,5.010635294096255,-5.010635294096255,0.0,1.6757333268970371,1.6672206098825444,0.4866785782619716,1.5510962708666434,0.6363477320672615,,,0.4576907132971797,5.0106352940962555,inf,,0.5712155653836821
134,5.7037824746562,-5.7037824746562,0.0,1.6590545261855736,1.6450875290820113,0.7253427373320375,2.61422665564255,1.0917433061103616,,,0.5713653840954815,5.703782474656201,inf,,0.7571775007252884
135,4.605170185988091,-4.605170185988091,0.0,1.6735939580563048,1.67812305153165,0.6535355131016962,3.186251248532421,1.9772093795048882,,,0.47824363442641393,4.605170185988091,inf,,0.7439429150806097
136,5.010635294096255,-5.010635294096255,0.0,1.5093795389726836,1.397360630460954,0.7962021182178269,2.0578491152124374,0.7192585163383094,,,0.5158180382284114,5.0106352940962555,inf,,0.8024268885986879
137,3.9120230054281455,-3.9120230054281455,0.0,1.6793912758728768,1.6814194151197763,0.7138483462118288,3.435139785145788,2.6898157135583602,,,0.5202020156036558,3.912023005428146,inf,,0.838207840800875
138,4.0943445622220995,-4.0943445622220995,0.0,1.7420305312416007,1.6023458465253724,0.6044325205281476,1.679094541226319,0.8519459109779086,,,0.5490601803369085,4.0943445622221,inf,,0.8794403081042846
139,3.624340932976365,-3.624340932976365,0.0,1.3676366612730138,1.3172956875914752,0.6656534746273348,1.9394699910692297,1.0366428454188825,,,0.4732203808476458,3.624340932976365,inf,,0.8158444236332376
140,,0.0,0.0,1.6293921566047906,1.6247554520448515,0.23011921014570455,0.947489253050146,0.829080957247528,,,0.45235697871908603,inf,,,0.9597683000970691
141,3.7071303964035693,-3.7071303964035693,0.0,1.7295186495863408,1.5556789057054803,0.6007346873280238,1.0553955575464493,0.643837215977191,,,0.45235697871908603,3.70500883604382,inf,,0.6905405797291051
142,5.703782474656202,-3.4602947012914287,0.0,1.7119098738876684,1.5939043384280887,0.41244444382738427,1.513744128328872,1.4652947581282165,,,0.5370774965580548,6.203558262235607,inf,,0.8029129453120956
143,,0.0,0.0,1.6845727585264947,1.6207235764179793,0.9048152484962246,0.45226986321374396,0.8149382270125259,,,0.42445136339222655,inf,,,0.9037532402904344
144,,0.0,0.0,1.7562212511376325,1.7031561432483806,0.8954544386083273,0.24567844997347785,0.4905303410855466,,,0.43586655696697996,inf,,,0.8714029375999721
145,,0.0,0.0,1.7739601729759713,1.760944044303107,0.8967311146813665,0.19604886645964775,0.38617281218922495,,,0.4629450596409901,inf,,,0.8760773800752849
146,,0.0,0.0,1.7492264943411737,1.7169529773483634,0.9199199619332789,0.24879965290142578,0.5040861142400495,,,0.47824363442641393,inf,,,0.8860430365187324
147,,0.0,0.0,1.6499798004374724,1.6317662220361981,0.4664990057627884,0.2798541396241835,0.4872269288016398,,,0.49759852643134905,inf,,,0.9251599188433182
148,,0.0,0.0,1.5672893902087703,1.5348186830100707,0.9282836604247476,0.32907978746376476,0.5607943928327177,,,0.48319206230712763,inf,,,0.9238618972622714
149,,0.0,0.0,1.5934532932107897,1.5723221785101225,0.9124637672518758,0.4636103676406062,0.7183039413024194,,,0.5158180382284114,inf,,,0.9283985150468431
150,,0.0,0.0,1.5751589731050983,1.527913664166879,0.8823093457267674,0.6244286796306405,0.8809284406356731,,,0.5287703885177266,inf,,,0.9227863700857062
151,,0.0,0.0,1.6458508581656561,1.604819796943719,0.41140255157691247,0.9222349397781033,1.307616344166981,,,0.4880666971167561,inf,,,0.9414680113060703
152,,0.0,0.0,1.6105564283693794,1.5812221495718002,0.9129373600279953,0.8817858868620673,1.281599017391172,,,0.5490601803369085,inf,,,0.903517813517183
153,,0.0,0.0,1.571801085165667,1.5633245525783468,0.39499895871880586,0.6943959217634676,1.006304010505319,,,0.5113665138247345,inf,,,0.9555149436689684
154,,0.0,0.0,1.4054198198811807,1.4167775687569335,0.31414465938112424,0.645283603996589,0.9245626816328761,,,0.5202020156036558,inf,,,0.6141517130907742
155,,0.0,0.0,1.333896113478667,1.3109149270335243,0.343178592044338,0.7025035801630934,0.8730878900028741,,,0.4576907132971797,inf,,,0.6629998960522915
156,,0.0,0.0,1.73681059339987,1.698686857172125,0.3236944582879399,1.909968437677212,1.9263357403527404,,,0.5329562494928909,inf,,,0.8679103531698741
157,,0.0,0.0,1.6905970265060315,1.6515242021378485,0.32621690242444684,0.48861815078178433,0.5504322527075819,,,0.5022576003740722,inf,,,0.9338116917261983
158,,0.0,0.0,1.616258342010657,1.5979820669114384,0.8291438082551994,1.4991911978106596,1.7702081404197842,,,0.5202020156036558,inf,,,0.9093850514408628
159,,0.0,0.0,1.3938605888604363,1.3858213303385372,0.8701827681008298,2.3333094604943816,1.644717431775824,,,0.4066654671944331,inf,,,0.9252194877644712
160,,0.0,0.0,1.6771712375883407,1.6228555428124727,0.8681746414726607,3.6119348594136285,2.977988359985053,,,0.6097226960127671,inf,,,0.9342839261444132
161,,0.0,0.0,1.6121033819732657,1.5707275513229766,0.9185214594006612,3.1683511331126524,7.424971826280228,,,0.4880666971167561,inf,,,0.8870473387810853
162,,0.0,0.0,1.7212440527631945,1.6929777457088107,0.9318920657003074,3.7573983226496095,4.219664310162765,,,0.5068466436745385,inf,,,0.9255758234470219
163,,0.0,0.0,1.6813907906720464,1.6520545823674464,0.9347407326929862,3.7661848446518564,8.548853997680997,,,0.5022576003740722,inf,,,0.917878519790969
164,,0.0,0.0,1.5908746276107775,1.3743503209190149,0.6869679076257955,1.898313839359167,1.7312496839740268,,,0.5068466436745385,inf,,,0.731275574451914
165,,0.0,0.0,1.7638538908069985,1.73124391604283,0.7563334491335862,1.0805713662125183,1.5321753103144888,,,0.40055318934786044,inf,,,0.8991749385389967
166,,0.0,0.0,1.712367627542573,1.692498105750426,0.821206233880759,1.376451227978132,1.9925985856722797,,,0.4928685327679205,inf,,,0.9465834133652009
167,5.7037824746562,-5.7037824746562,0.0,1.4272647871872286,1.3150579952908255,0.281927278533169,1.519888688656159,1.7984958419793806,,,0.49759852643134905,5.703782474656201,inf,,0.7740932682537334
168,,0.0,0.0,1.2006821589948575,1.1308182227126535,0.08393970153283987,0.48210549034427275,0.45770559370397224,,,0.5329562494928909,inf,,,0.6170165290095101
169,,0.0,0.0,1.5783753512046597,1.523208104639243,0.7552726466885145,0.5861761179221305,0.5637681823941934,,,0.5370774965580548,inf,,,0.9293970390360282
170,,0.0,0.0,1.7020426550481143,1.6427479205635092,0.7862427665784127,0.6970851020406555,0.6794198784985267,,,0.5451288209179292,inf,,,0.9483798394811656
171,5.703782474656201,-0.09506304124427002,0.0,1.5750793131311487,1.5649548594664444,0.1330685549538086,0.7815960202699636,0.6735141540627021,,,0.5490601803369085,9.798127036878302,inf,,0.7641409255829019
172,,0.0,0.0,1.6384304912430214,1.5971086108492365,0.6793763016098985,0.21075933517254206,0.24867383986180908,,,0.524519217297268,inf,,,0.9412028194308042
173,,0.0,0.0,0.8325079363910596,0.7234822627534951,0.38313985080436536,0.41024828695774723,0.3960580595345509,,,0.5202020156036558,inf,,,0.7855236984312821
174,,0.0,0.0,1.5704468298530534,1.5420152850663278,0.6567407799370544,1.7997626862675926,0.9121032770491326,,,0.5158180382284114,inf,,,0.8843843064994462
175,5.703782474656203,-0.43728998972364225,0.0,1.57142949853815,1.5137244021275964,0.5180038403394112,1.6973021699486124,1.6438792795937318,,,0.5068466436745385,8.272070733383252,inf,,0.833404302254024
176,,0.0,0.0,1.463996382844024,1.4381226760751593,0.9172705595411601,0.8915306716879314,1.3542424381873168,,,0.4629450596409901,inf,,,0.8194462925539754
177,,0.0,0.0,1.7452738275074209,1.625400745965521,0.6715312697055782,0.8406771246863943,0.9376780626235028,,,0.45235697871908603,inf,,,0.9303221251130707
178,,0.0,0.0,1.4637283430734773,1.4446745431536794,0.9569291023402585,0.46362027300857195,0.8111179827313042,,,0.4880666971167561,inf,,,0.8901235153491893
179,,0.0,0.0,1.6122363014508623,1.5931089509487333,0.94276661385832,0.3312770085325146,0.5650719017893657,,,0.47824363442641393,inf,,,0.8581892155439665
180,,0.0,0.0,1.502297741118923,1.491475758168,0.9218887712493367,0.36510499731491813,0.5279244746491462,,,0.5022576003740722,inf,,,0.8510086580833506
181,,0.0,0.0,1.3742939424429255,1.3562947758513721,0.3757191241453274,0.49005967419886826,0.5980286732180402,,,0.4629450596409901,inf,,,0.7142228049389634
182,,0.0,0.0,1.712850166313935,1.5342878755403901,0.2684418941241812,0.7796404261910537,0.9198319313658493,,,0.5287703885177266,inf,,,0.8578947124309001
183,5.7037824746562,-5.7037824746562,0.0,1.675794569487401,1.6159119651613991,0.38328429945591264,1.437402997586198,0.8560613725551931,,,0.4732203808476458,5.703782474656201,inf,,0.6630904498346067
184,,0.0,0.0,1.7589869486089151,1.6949779001949732,0.6835304073171916,2.1387686787603473,1.7566838076326854,,,0.48319206230712763,inf,,,0.9409253692291235
185,,0.0,0.0,1.7625169575872384,1.7169484917027746,0.6375547603489851,1.8766675246712476,2.3325038550066104,,,0.5158180382284114,inf,,,0.948807716517086
186,5.7037824746562,-5.7037824746562,0.0,1.7695197314648252,1.7561625284557423,0.45244584074797317,1.9240095953651792,2.602136739351338,,,0.47824363442641393,5.703782474656201,inf,,0.7516144570014831
187,5.7037824746562,-5.7037824746562,0.0,1.7756519990124648,1.765777692537542,0.6278885933315046,2.7454395423748035,2.0119335349784206,,,0.5748741956352443,5.703782474656201,inf,,0.7141073022554689
188,,0.0,0.0,1.4599430914537699,1.4281171590641553,0.8478284197775223,2.9920506164678984,2.220477677069388,,,0.5370774965580548,inf,,,0.9228688392575514
189,,0.0,0.0,1.7391036499173664,1.712217899721829,0.6947419241913521,2.8592061913869395,2.3514658226855927,,,0.5451288209179292,inf,,,0.9293724431977596
190,,0.0,0.0,1.6583424048323103,1.6294858717360783,0.6371029589776533,3.157059951705846,3.78011776649269,,,0.541134803179459,inf,,,0.9477192120590133
191,,0.0,0.0,1.6686329102594126,1.6645926408793514,0.7256543172562481,2.8792629796099547,2.7196989183352853,,,0.5202020156036558,inf,,,0.9465815954879842
192,,0.0,0.0,1.6302434277463875,1.561539915878053,0.8802270407487427,3.1131467407047833,3.248759413453674,,,0.5068466436745385,inf,,,0.9356528231106471
193,5.7037824746562,-5.7037824746562,0.0,1.4511099735537258,1.4229445597199544,0.6534830306400993,3.0487754708729327,3.5551175922562344,,,0.5202020156036558,5.703782474656201,inf,,0.837591611585539
194,,0.0,0.0,1.655691879528016,1.5757819834007996,0.9441042154263295,1.4980949902126701,2.828561992576066,,,0.48319206230712763,inf,,,0.8829703742686815
195,,0.0,0.0,1.6819087869414,1.6529126747856433,0.9505602142350702,1.64380522706455,2.9619818887457567,,,0.47824363442641393,inf,,,0.8642315190590915
196,,0.0,0.0,1.6684966650193056,1.610393912930685,0.6258978502843857,1.2620499452780563,1.1220590998661724,,,0.48319206230712763,inf,,,0.9363742134140884
197,,0.0,0.0,1.7292488733176667,1.697885998707536,0.8977525675559687,1.0099837873377422,1.1283479659669897,,,0.524519217297268,inf,,,0.9337662158607378
198,,0.0,0.0,1.7401889735242957,1.7256915895833278,0.8906912102589545,1.0031718213246659,1.356852275778395,,,0.4629450596409901,inf,,,0.9184377193024916
199,,0.0,0.0,1.7561044973151554,1.7168755675537761,0.9146358455531306,0.89249232277915,1.2473570464094226,,,0.4576907132971797,inf,,,0.913347041298157
200,,0.0,0.0,1.7419350374974714,1.6914017465562334,0.5658433902510742,0.9070475082015039,1.4592670872651845,,,0.468121228110369,inf,,,0.8898579698827304
201,,0.0,0.0,1.7836599573485328,1.7871815743194035,0.4879148719133715,0.5350003389900713,0.9684796835647167,,,0.4576907132971797,inf,,,0.6853715228925332
202,,0.0,0.0,1.7809039068593187,1.7308158398805633,0.28725747142123514,0.5202810522058253,0.8487274649086102,,,0.4629450596409901,inf,,,0.9433690103640966
203,,0.0,0.0,1.6985594670114055,1.5968202961064226,0.5355511835727818,0.7566305114771693,0.8573734044286153,,,0.49759852643134905,inf,,,0.9390513588833047
204,,0.0,0.0,1.7275253454850277,1.7103881254159006,0.5200730778812543,1.0858172814285456,1.7902263930256632,,,0.4629450596409901,inf,,,0.9452735455595416
205,,0.0,0.0,1.7285361220044158,1.6815330902132912,0.9100120672757556,0.6853698788670133,1.1617563175280394,,,0.43586655696697996,inf,,,0.9026062871591685
206,,0.0,0.0,1.7635614289470594,1.7118069790415318,0.923894119925374,0.6749104880056127,1.186562967819492,,,0.4629450596409901,inf,,,0.9142608908319009
207,,0.0,0.0,1.3654083161398156,1.2555157827018764,0.10013462007302111,0.6247329544822432,0.9678093561622197,,,0.5567373465730988,inf,,,0.7599521888692782
208,,0.0,0.0,1.1470533190589987,1.126868876517415,0.5199152090491087,1.2360641139010329,1.305190447547241,,,0.552929491858785,inf,,,0.6896362358278427
209,,0.0,0.0,1.6942243236748045,1.7132279690125745,0.7712604085460721,1.0000991721324555,1.1790499357914648,,,0.5158180382284114,inf,,,0.9051956652158231
210,4.457493388796177,-4.457493388796177,0.0,1.7384891138643845,1.576733500444135,0.5119634199058739,1.9448493709466228,1.2111529038935418,,,0.48319206230712763,4.447217220211095,inf,,0.9249216552113083
211,3.9120230054281455,-3.9120230054281455,0.0,1.7595686991881554,1.718207716119379,0.7973804477074904,3.4408583322086326,3.8848513668052926,,,0.524519217297268,3.912023005428146,inf,,0.9409208147219214
212,3.305887201857831,-3.305887201857831,0.0,1.7535712283381195,1.7118668399315442,0.7822701041785155,4.600678095824849,14.912346448989329,,,0.4880666971167561,3.3058872018578307,inf,,0.810895108985651
213,3.9120230054281455,-3.9120230054281455,0.0,1.5498906542975777,1.5592463517220516,0.7978091705629023,4.155046716958851,5.382015078845268,,,0.5022576003740722,3.912023005428146,inf,,0.9434443189939926
214,4.656529099681792,-4.656529099681792,0.0,1.4143378997103109,1.369112435633746,0.5958456035336148,2.487251812016708,1.2962149022557754,,,0.5677978065141052,4.648309678648709,inf,,0.6558455310911498
215,5.703782474656201,-3.3462190517983044,0.0,1.6302527299147747,1.5680584452396749,0.3341668022397232,0.4688517323138087,0.47414340598903104,,,0.5113665138247345,6.2370809542742505,inf,,0.9371764853920888
216,,0.0,0.0,1.5273925705323017,1.5027937902373418,0.8911331777178808,0.423083996700163,0.516307100262137,,,0.5202020156036558,inf,,,0.8602141749989969
217,,0.0,0.0,1.6511630167855418,1.6119895550510683,0.5475703899732182,0.2911000168344762,0.3061230128768775,,,0.4928685327679205,inf,,,0.946791564367958
218,,0.0,0.0,1.4827318001898435,1.4499441599547365,0.28836465211444007,0.1159968472139894,0.11001247246441664,,,0.5158180382284114,inf,,,0.9530431901234887
219,,0.0,0.0,1.6690493069414356,1.662253083061685,0.7884960763706037,0.06750758314845391,0.08490275813357734,,,0.5202020156036558,inf,,,0.8717513668894771
220,,0.0,0.0,1.726150533393211,1.7003629749237454,0.39680206904710086,0.06053175877582706,0.07938517038417688,,,0.468121228110369,inf,,,0.9035014294357971
221,,0.0,0.0,1.4870942594930574,1.4495146135002714,0.39502493923810417,0.3615164547800652,0.24511308395463927,,,0.4880666971167561,inf,,,0.91779622855347
222,5.703782474656203,-1.806197783641131,0.0,1.74390649588735,1.6587256742798566,0.3712221789800659,0.7366532012523443,0.48918397997059493,,,0.49759852643134905,6.853688057711861,inf,,0.9567351117210113
223,,0.0,0.0,1.560355828719497,1.5665653482942563,0.49022635634004763,0.3191128305214585,0.3420812346093835,,,0.38804190201132227,inf,,,0.9389071432067503
224,5.7037824746562,-5.7037824746562,0.0,1.7642024647178651,1.635380042321703,0.15339926834870823,0.20829390862282732,0.14634017583170245,,,0.468121228110369,5.703782474656201,inf,,0.8579694497917401
225,4.0943445622220995,-4.0943445622220995,0.0,1.7083925562362194,1.6833417802412693,0.6276711945709853,2.4184921665035324,0.5654695046227136,,,0.20924377657122822,4.0943445622221,inf,,0.8776770891813084
226,4.410505316962386,-4.410505316962386,0.0,1.7460044167558246,1.7359382125788618,0.6040310778328094,2.6126440631521324,1.870279576090859,,,0.5567373465730988,4.4017759300589,inf,,0.754086308323521
227,4.605170185988091,-4.605170185988091,0.0,1.7775327433935972,1.6459434089488612,0.3981265989003931,1.868801117834672,1.3551946456048005,,,0.6097226960127671,4.605170185988091,inf,,0.883985104674316
228,5.010635294096255,-5.010635294096255,0.0,1.5552933012986268,1.476467790194005,0.7751037340941005,3.0709030482437147,2.181510254698659,,,0.5287703885177266,5.0106352940962555,inf,,0.7909240479026252
229,,0.0,0.0,1.5577690636204775,1.5256981447141695,0.6038039460149943,1.7475984841488892,1.4522256729044603,,,0.468121228110369,inf,,,0.9440521835052818
230,,0.0,0.0,1.5386669731816551,1.5135361937382392,0.5575255082398948,1.7687228704307978,1.6369820530459587,,,0.41268473150466,inf,,,0.9450950221977286
231,,0.0,0.0,1.613206856870694,1.5904196773857364,0.7515136609625369,2.099563369013072,2.55475219571739,,,0.5370774965580548,inf,,,0.9297144561236941
232,,0.0,0.0,1.568941286948015,1.5569413251497692,0.8552990892315886,2.071149164804933,2.707559913254169,,,0.49759852643134905,inf,,,0.9344077606368957
233,,0.0,0.0,1.7517932810828247,1.7054311680311844,0.79474012743425,1.9686799539862307,1.723750590531595,,,0.5158180382284114,inf,,,0.9319040931489592
234,,0.0,0.0,1.5899196681484387,1.534545147367827,0.713035665991917,1.7943707231723092,1.4270731931592238,,,0.48319206230712763,inf,,,0.9359024984339106
235,,0.0,0.0,1.6770019834451877,1.651413146235209,0.7729634549082204,1.7770083803330772,1.4090050360367048,,,0.38163879478178075,inf,,,0.9371345969879216
236,,0.0,0.0,1.4886599055808103,1.4249375702114517,0.7975026370116551,1.18771007915966,1.336762519187622,,,0.5202020156036558,inf,,,0.9099919152301057
237,,0.0,0.0,1.3523400564535069,1.3584392138261372,0.6576348583201833,1.9139032917737757,2.8606169150933995,,,0.4880666971167561,inf,,,0.9401859580945601
238,,0.0,0.0,1.6515375207813117,1.5390019078128068,0.5496839776496926,1.8307367531652146,1.1435423279627623,,,0.5113665138247345,inf,,,0.9486096186878483
239,,0.0,0.0,1.7216069174033604,1.7078195207080744,0.6319837267794365,1.592085298959083,1.1268628898200688,,,0.5113665138247345,inf,,,0.9473273029362755
240,,0.0,0.0,1.7190391114501717,1.6591133343391742,0.8353667233965522,1.6038462334619046,1.0365156407951417,,,0.552929491858785,inf,,,0.9331465305235256
241,,0.0,0.0,1.7277606452216179,1.6976084038746564,0.6605348289658349,1.3957865867032977,0.828641601645641,,,0.524519217297268,inf,,,0.9439456463086859
242,,0.0,0.0,1.6311066614963847,1.6100667849619488,0.7375505166724687,1.214886665829704,0.6768142197452811,,,0.5202020156036558,inf,,,0.9452570297949697
243,,0.0,0.0,1.6957661807437623,1.631212932685821,0.5616842807746163,0.6571103319235527,0.4844136566757329,,,0.4629450596409901,inf,,,0.9449309943135424
244,,0.0,0.0,1.588941274287155,1.5906815086573076,0.6032261739359752,0.7975606302984738,0.5481248812618329,,,0.5113665138247345,inf,,,0.9476254961062236
245,,0.0,0.0,1.448365963876232,1.4362964096972104,0.44329502219786604,1.1580720455554585,1.0657950844476973,,,0.5022576003740722,inf,,,0.9516186094539653
246,,0.0,0.0,1.6096546388375477,1.5773927553925111,0.5905774894789931,0.8647238411571897,0.9684219826694815,,,0.5329562494928909,inf,,,0.9476022127935486
247,5.7037824746562,-5.7037824746562,0.0,1.7524715464259308,1.691186059219791,0.4278614729273073,1.3761092387419938,1.0819001275476043,,,0.468121228110369,5.703782474656201,inf,,0.6058715104534845
248,,0.0,0.0,1.6787784412841495,1.670764747252698,0.7422708748951351,1.8930823434469592,1.6867111034805906,,,0.48319206230712763,inf,,,0.6458615792990731
249,,0.0,0.0,1.7785837936697941,1.6959578953665215,0.4187837072700173,1.0207766524440705,0.5944681842268249,,,0.44144624493110796,inf,,,0.9299777201182432
250,,0.0,0.0,1.592271224462508,1.5946941359353142,0.44135958441387024,1.3122436779848001,0.9964337595525912,,,0.541134803179459,inf,,,0.7373368482523616
251,,0.0,0.0,1.591351830076368,1.565769004833537,0.5372329750316366,0.8854075624825406,0.6629461520928812,,,0.4928685327679205,inf,,,0.9040506445247961
252,5.7037824746562,-5.7037824746562,0.0,1.0838124009387453,1.064882919756004,0.4181338585699223,1.2102453838235767,0.6180906271825053,,,0.5490601803369085,5.703782474656201,inf,,0.7510574234963182
253,5.703782474656204,-1.9582986496319632,0.0,1.4321014185593322,1.2960933332620366,0.6329882635992674,1.6775680400434294,1.5500004101698017,,,0.44694259446804574,6.772835961082766,inf,,0.8263926678781316
254,5.703782474656201,-5.589706825163077,0.0,1.7878851542186713,1.73912174048633,0.30109209648978785,1.274724264814429,1.2140857517520696,,,0.5022576003740722,5.72398518197372,inf,,0.9452989230632315
255,3.757872325600888,-3.757872325600888,0.0,1.7089941001413145,1.513774867507567,0.6160702186112719,2.0765519049193464,1.41505589468543,,,0.4732203808476458,3.757872325600888,inf,,0.7990279288770235
256,,0.0,0.0,1.7324663934536215,1.6217558533153018,0.606114999783084,1.8070344847283681,1.4970941403793652,,,0.5713653840954815,inf,,,0.7093686953660872
257,,0.0,0.0,1.7507720825022492,1.7444124466363264,0.333501819324618,1.409035423230921,1.4746889475562852,,,0.5158180382284114,inf,,,0.9607005011441504
258,5.7037824746562,-5.7037824746562,0.0,1.5181198972085848,1.4915450682420894,0.5460032326152455,1.8233029814794097,1.448677989074402,,,0.4880666971167561,5.703782474656201,inf,,0.7147240858863884
259,,0.0,0.0,1.6855271928032403,1.6863624682290705,0.369840056192647,0.3170716389040846,0.359804489859055,,,0.5287703885177266,inf,,,0.8975192840721574
260,,0.0,0.0,1.5862898223065147,1.5925635129743754,0.3747729817499022,0.29567251288240315,0.3297314547076325,,,0.5451288209179292,inf,,,0.9512257233415071
261,,0.0,0.0,1.6376364242866002,1.593966152656921,0.4884004843618801,0.19910289459236538,0.24129094560812872,,,0.5713653840954815,inf,,,0.9099668666521753
262,,0.0,0.0,1.6618962981206633,1.6028154956654856,0.5537788447907812,1.0115808315481956,0.6366053435568344,,,0.4629450596409901,inf,,,0.9482872762765914
263,,0.0,0.0,1.4417482838990636,1.2984887325395102,0.7949406236941599,1.8225762980146332,1.494977537702402,,,0.5947193981915972,inf,,,0.9142565326484191
264,,0.0,0.0,1.6366435547950626,1.5936798822122862,0.551924925872121,1.0996084354730302,0.742909076990035,,,0.5641709578113449,inf,,,0.8737642005990036
265,,0.0,0.0,1.4481691757690358,1.4115364664641559,0.7390212600209347,1.4013564262392961,1.0522030754371066,,,0.44694259446804574,inf,,,0.9426959649869212
266,,0.0,0.0,1.7311892635520414,1.6898268006141226,0.8065826978800572,1.2590692419309377,1.1487954814441688,,,0.5329562494928909,inf,,,0.9283119084500031
267,,0.0,0.0,1.6306698904353158,1.549363952154182,0.6572452063466007,1.4869333301780538,1.3194304027647503,,,0.5068466436745385,inf,,,0.9515156504682176
268,,0.0,0.0,1.7319305527975843,1.713635506471011,0.4787957319090982,1.1369631225059513,0.8929275921295337,,,0.5158180382284114,inf,,,0.9192901790268548
269,,0.0,0.0,1.742285161751916,1.6971991762290257,0.5540261467944249,1.4062770764828514,0.9253409466516884,,,0.4928685327679205,inf,,,0.7739356589773485
270,,0.0,0.0,1.734613208163577,1.737335633549289,0.5854458513091052,1.298590108845147,1.0762624327624144,,,0.5370774965580548,inf,,,0.7978154135338341
271,,0.0,0.0,0.6101652088362945,0.5886624581994969,0.7055848469128316,1.2423013909799994,0.860034998865969,,,0.5022576003740722,inf,,,0.9391004173143214
272,,0.0,0.0,1.575416685721585,1.524765489403978,0.3478986131191926,0.9376332506890075,0.5832339061699673,,,0.5641709578113449,inf,,,0.6126014184216219
273,,0.0,0.0,1.418676436192384,1.30719717848901,0.5728570054222838,1.5119832511325657,0.7829224968212989,,,0.5158180382284114,inf,,,0.7072711271804789
274,4.605170185988091,-4.605170185988091,0.0,1.63049254244575,1.5663205318575086,0.5130933528901612,1.3349192395491576,0.5400171976896464,,,0.5113665138247345,4.605170185988091,inf,,0.5989101490291087
275,3.805659036347338,-3.805659036347338,0.0,1.636646223874323,1.6354139574178868,0.6431891227558162,2.2429405392234187,1.6094095151247414,,,0.5113665138247345,3.803168600516064,inf,,0.7558867555751679
276,,0.0,0.0,1.544120388142025,1.447740667243826,0.3909103479522853,0.9082301707849759,0.4999378020646599,,,0.48319206230712763,inf,,,0.9528289434380363
277,,0.0,0.0,1.440457551632624,1.4409906314031127,0.7837277743537794,0.6617568489303666,0.6931989424789013,,,0.5202020156036558,inf,,,0.9461102191173353
278,,0.0,0.0,1.6600505161789951,1.6516120813034962,0.8231942840013439,0.5212401739828599,0.526523827901019,,,0.48319206230712763,inf,,,0.9155064953748505
279,,0.0,0.0,1.6155825297931898,1.5852280139075996,0.17091621382675318,0.8932149053289381,0.80437716722663,,,0.524519217297268,inf,,,0.9468767267557704
280,,0.0,0.0,1.7416707682538508,1.726712840947215,0.7319374729141304,0.7993013322029755,1.04051651537588,,,0.4302020962658841,inf,,,0.8922171957399627
281,5.7037824746562,-5.7037824746562,0.0,1.7710639725761734,1.728489269982051,0.3695400593146018,1.0449791399921833,0.9441948352927823,,,0.4880666971167561,5.703782474656201,inf,,0.5822605436372282
282,,0.0,0.0,1.7705450809223944,1.7269316571224893,0.4931903034190521,1.4236409658142555,0.8896925703197478,,,0.5158180382284114,inf,,,0.6733705197605384
283,5.7037824746562,-5.7037824746562,0.0,1.6755208961389545,1.6341524902438482,0.45501889806252915,1.5934146503994082,0.9423323926621823,,,0.5068466436745385,5.703782474656201,inf,,0.6105251434970052
284,4.787629484636764,-4.787629484636764,0.0,1.576157427975032,1.5439802540834306,0.6611893594687864,2.933933401595338,1.9872122899015823,,,0.44144624493110796,4.767689115485866,inf,,0.8646923251944298
285,4.31748811353631,-4.31748811353631,0.0,1.7793696922981552,1.7670841180589405,0.7360912546796866,4.226594665293698,12.559952236982243,,,0.541134803179459,4.31748811353631,inf,,0.6736941226206041
286,5.703782474656202,-3.3272064435494513,0.0,1.7769682856643652,1.692698661668667,0.6044312771153723,1.598445129676699,1.2775889136519656,,,0.41268473150466,6.242778975388888,inf,,0.7796899843273354
287,,0.0,0.0,1.7799709688916614,1.7377119815939224,0.7759522418628277,0.8163304895524597,0.78335309800101,,,0.48319206230712763,inf,,,0.8547611984409362
288,,0.0,0.0,1.6705404313122791,1.601720040661424,0.3163783839736783,1.0040574605237171,0.8600378118372065,,,0.5329562494928909,inf,,,0.9376860050853276
289,4.0943445622220995,-4.0943445622220995,0.0,1.490875735716873,1.5053781240804953,0.6223511862455817,3.5382320909392764,16.783581132498462,,,0.5713653840954815,4.0943445622221,inf,,0.6403637000030763
290,,0.0,0.0,1.7529332979157055,1.7124424962201852,0.719077974437406,3.4286767201346393,2.812459942513546,,,0.42445136339222655,inf,,,0.751286276940647
291,5.7037824746562,-5.7037824746562,0.0,1.550697823549822,1.5236914244148683,0.6740999749078753,3.2200628558678073,3.3004889136933864,,,0.5022576003740722,5.703782474656201,inf,,0.6748729062453863
292,3.944233147128411,-3.944233147128411,0.0,1.6749737097045552,1.6327859004374659,0.7742652606234365,3.210973369816546,2.44162370626089,,,0.44144624493110796,3.9419096391783457,inf,,0.6731487050480065
293,,0.0,0.0,1.4833441782036778,1.462913080866715,0.5548936052401826,2.390338295018909,1.9359949041228446,,,0.44694259446804574,inf,,,0.710693671005418
294,4.0943445622220995,-4.0943445622220995,0.0,1.3792791566789127,1.3650728705323418,0.6216835747170072,3.494589277848209,1.943165842501008,,,0.4928685327679205,4.0943445622221,inf,,0.9210169615097626
295,4.31748811353631,-4.31748811353631,0.0,1.6705285426489278,1.6562535343121427,0.6863852278670621,2.599816283390524,1.6148885055292537,,,0.524519217297268,4.31748811353631,inf,,0.7447267922076893
296,,0.0,0.0,1.6518682620686054,1.6396202727969058,0.798214308654352,3.0856409251816004,3.834341091796703,,,0.5113665138247345,inf,,,0.9322531234039414
297,5.010635294096255,-5.010635294096255,0.0,1.7681339669638072,1.7861725478620618,0.5770936971374224,2.758365110859712,1.7300253424082883,,,0.41861278947482794,5.0106352940962555,inf,,0.7966004338465381
298,4.0943445622220995,-4.0943445622220995,0.0,1.7154380007949634,1.6999985775356126,0.7669904013764538,3.2489817139996795,1.3627648498063922,,,0.524519217297268,4.0943445622221,inf,,0.7780212158223873
299,4.605170185988091,1.095273387402596,-5.700443573390687,1.4354337652253069,1.385269072641445,0.6108425706122976,1.9237810018460744,1.138997793976647,1.095273387402595,,0.581717464821069,4.605170185988091,1.1019511899336245,inf,0.8802450421153644
300,,0.0,0.0,1.6704900246061298,1.6307354612163387,0.3541319561285166,0.5617495044947007,0.5164322368872574,,,0.5370774965580548,inf,,,0.9485735772513468
301,,0.0,0.0,1.5895898854061046,1.568693801661386,0.4138220012678015,0.5402235718265185,0.535681516487054,,,0.42445136339222655,inf,,,0.95614190524745
302,,0.0,0.0,1.6134631041091931,1.5744410451213076,0.3733095703536557,0.663334494111259,0.5403609880134279,,,0.45235697871908603,inf,,,0.790690374383034
303,,0.0,0.0,1.2590294641001378,1.2532630167044265,0.33476327543791945,0.8824218743605405,1.1581138467516965,,,0.49759852643134905,inf,,,0.9475518811409411
304,,0.0,0.0,1.7220336561633345,1.722310785283011,0.5267066410228893,0.7956869201469381,0.983063536681309,,,0.43586655696697996,inf,,,0.9271879310306561
305,,0.0,0.0,1.7262065567556304,1.7051511637075656,0.6144558099013209,1.8676091327864974,0.9638756020650658,,,0.45235697871908603,inf,,,0.9000859673297166
306,4.605170185988091,-4.605170185988091,0.0,1.6425984391200428,1.5409457545341758,0.5366135867683497,2.0008270536137522,1.4703779744648542,,,0.5490601803369085,4.605170185988091,inf,,0.7817196614240578
307,5.7037824746562,-5.7037824746562,0.0,1.5080336673661239,1.5132086922661923,0.534155141130998,2.422583001818523,1.843439689012853,,,0.4928685327679205,5.703782474656201,inf,,0.6392823009262495
308,,0.0,0.0,1.4393839062856482,1.4044806340326175,0.5747804706202319,2.087646103675521,1.4466315229274862,,,0.524519217297268,inf,,,0.8701102639125311
309,,0.0,0.0,1.501838275942422,1.4950049798131486,0.5061883307951373,0.9499460800759143,0.8866126507302002,,,0.4880666971167561,inf,,,0.6156979886923601
310,,0.0,0.0,1.5278461763751963,1.4652533377704366,0.5643265839868239,1.0127425748133165,0.7906071412627227,,,0.5158180382284114,inf,,,0.9366973706835907
311,,0.0,0.0,1.5451376246508803,1.482957104883967,0.6236499504099018,1.9381810814368787,1.660913922404923,,,0.4928685327679205,inf,,,0.9389581467847808
312,5.703782474656201,-4.924265536453187,0.0,1.603674840995133,1.5445229526098405,0.6038676389527662,2.5102688924074905,2.3886757566360513,,,0.5451288209179292,5.8507368876128645,inf,,0.7134141923230345
313,5.7037824746562,-5.7037824746562,0.0,1.6487284704752863,1.5266071728807906,0.6239709547197573,1.6172303932847794,0.6231652953471147,,,0.5287703885177266,5.703782474656201,inf,,0.5415868728947292
314,5.7037824746562,-5.7037824746562,0.0,1.5589409187030359,1.503630000448058,0.4730239030700808,1.4996514663537366,1.2375335621000205,,,0.524519217297268,5.703782474656201,inf,,0.5642931194278571
315,5.703782474656203,-2.1674373403693568,0.0,1.6969543253343482,1.6389890411054673,0.2879707785171191,1.1712520683370422,0.7974531325268144,,,0.4880666971167561,6.671366500917907,inf,,0.917238981589808
316,,0.0,0.0,1.7115146018215728,1.685054858048408,0.29436298187756704,0.6212003969730642,0.655388018997847,,,0.5329562494928909,inf,,,0.9618670799081287
317,,0.0,0.0,1.497261021457158,1.5098445370119222,0.6889389878280391,1.065331725745832,1.232865688834486,,,0.5202020156036558,inf,,,0.9313591827674955
318,,0.0,0.0,1.5042630873835676,1.4862654944165357,0.28047278595192543,0.9761202309185517,1.435591260491217,,,0.4302020962658841,inf,,,0.9519165690285513
319,,0.0,0.0,1.7275187182897345,1.7103007563747663,0.2147600630359839,0.5076454884968312,0.40559006442112355,,,0.5022576003740722,inf,,,0.9513741296104974
320,,0.0,0.0,1.4261244587023922,1.4022086970804408,0.4502364227855881,0.8835299426998274,0.5381796957873732,,,0.38804190201132227,inf,,,0.6597558437972577
321,5.010635294096255,-5.010635294096255,0.0,1.513714127767026,1.4970489046566482,0.5784394379051672,1.8090439748544411,0.8200889977472154,,,0.581717464821069,5.0106352940962555,inf,,0.7143466270197755
322,,0.0,0.0,1.4739349592716984,1.4372345341777564,0.23268528993327572,0.5923639396458485,0.5814551353377686,,,0.44694259446804574,inf,,,0.9510422479010092
323,,0.0,0.0,1.7808057058174742,1.757672128758203,0.4818388657419915,0.8459321123864073,0.6040554647303131,,,0.5113665138247345,inf,,,0.9477427967000707
324,,0.0,0.0,1.667523712139099,1.6472412145515127,0.3302253468268597,0.6448962775895358,0.450598136908945,,,0.41268473150466,inf,,,0.7607324958795068
325,5.7037824746562,-5.7037824746562,0.0,0.9013587378889967,0.8695735547606029,0.29561120044924416,0.4729177678662002,0.36763469496728673,,,0.5287703885177266,5.703782474656201,inf,,0.6285105635887029
326,5.7037824746562,-5.7037824746562,0.0,1.3693350092280707,1.3656891512131446,0.6277556323248333,1.3899609678374416,0.43393689550219805,,,0.524519217297268,5.703782474656201,inf,,0.9076091611374442
327,,0.0,0.0,1.5277595702156475,1.5110587851934436,0.5685267734619235,1.2536028154119694,0.5977116737391783,,,0.5202020156036558,inf,,,0.9473691424661295
328,,0.0,0.0,1.6510911839468994,1.652480891615811,0.4635019637595511,0.3762130484761185,0.3164251453316055,,,0.48319206230712763,inf,,,0.9613643290679319
329,,0.0,0.0,1.7345015583246646,1.7122258373196206,0.09402719822961733,0.6285506449373933,0.6876753101804796,,,0.5202020156036558,inf,,,0.8713973248599112
330,,0.0,0.0,1.5538138498716174,1.5282788607932412,0.9275388617576752,0.7603297136984738,1.336479122703,,,0.47824363442641393,inf,,,0.8939413213637123
331,,0.0,0.0,1.4981814962834994,1.476373003861804,0.3401945711635547,0.6963298156962066,0.7633326284175282,,,0.43586655696697996,inf,,,0.5857526271983052
332,,0.0,0.0,1.5829874240285415,1.5796785802635191,0.20974561178885212,0.5787069126471349,0.5320423230807864,,,0.5287703885177266,inf,,,0.9609370021871512
333,,0.0,0.0,1.6196208794931133,1.6161531548192998,0.34885099353534227,0.6894459029120903,0.3377756788208577,,,0.44694259446804574,inf,,,0.764525674539985
334,,0.0,0.0,1.6222350090137363,1.6281478388749804,0.33134723030558205,0.5369346851576042,0.4395240423682567,,,0.541134803179459,inf,,,0.8845317636654972
335,5.010635294096255,-5.010635294096255,0.0,1.6121246704488261,1.4399381270508649,0.3660727438568496,0.8955842918783701,0.5741301158425858,,,0.48319206230712763,5.0106352940962555,inf,,0.7981827670228919
336,,0.0,0.0,1.563156924570012,1.5546032527491565,0.14720167465494935,0.32775080266403794,0.3306698524513109,,,0.4302020962658841,inf,,,0.9340443999738708
337,,0.0,0.0,1.7605611092119013,1.7615786010853307,0.5971438207089752,0.2621644737470107,0.41503536334097907,,,0.5113665138247345,inf,,,0.9367989179046986
338,,0.0,0.0,1.6647802053092768,1.5774103103427448,0.5317378580260204,0.8781832479786935,0.7018130589831193,,,0.5158180382284114,inf,,,0.6713688435645012
339,5.010635294096255,-5.010635294096255,0.0,1.6185757978245447,1.6179753379981405,0.6779781850273338,2.798567804299137,2.8591722154983494,,,0.5370774965580548,5.0106352940962555,inf,,0.8082478819214808
340,,0.0,0.0,1.449370944421426,1.3773938245698145,0.7816330942169352,2.405678246758286,1.5343234518693296,,,0.48319206230712763,inf,,,0.9510258758318983
341,,0.0,0.0,1.585611009799062,1.525139618550814,0.45971329757448737,0.8188742741105557,0.6690493412146781,,,0.552929491858785,inf,,,0.9499921855236083
342,4.2155858917694875,-4.2155858917694875,0.0,1.6643491597943914,1.5481161423218637,0.6081782956700744,1.9483551331329678,0.8263378567423383,,,0.48319206230712763,4.2093813722104585,inf,,0.6388173993542604
343,4.605170185988091,-4.605170185988091,0.0,1.624921298262702,1.5198182796091824,0.622133806606295,1.7902508779813,1.0002476449935411,,,0.4732203808476458,4.605170185988091,inf,,0.7381304767588737
344,,0.0,0.0,1.4089215462258078,1.3915193022585843,0.3681531131650548,1.0859886385062383,0.967635428739698,,,0.4629450596409901,inf,,,0.7509204521362307
345,,0.0,0.0,1.4559440838845013,1.3995648563686802,0.2749663775976326,1.0095592389721346,0.8262025091767127,,,0.48319206230712763,inf,,,0.843319320186426
346,4.605170185988091,-4.605170185988091,0.0,1.7380667329128834,1.7394184454584969,0.5154035508993725,1.9271096627554478,1.3451155586437475,,,0.5490601803369085,4.605170185988091,inf,,0.8805375832154654
347,3.421567081356002,-3.421567081356002,0.0,1.699405830414776,1.643535085049833,0.7826410913672349,2.477949634047776,1.2288588364074178,,,0.44694259446804574,3.4207200481510194,inf,,0.6580067922276517
348,4.0943445622220995,-4.0943445622220995,0.0,1.7695700005785968,1.5779203008725853,0.4932705622163563,1.355082076665845,1.0913189849772134,,,0.581717464821069,4.0943445622221,inf,,0.9277099613573836
349,4.095088374059814,-4.095088374059814,0.0,1.4043942836043004,1.3938087460667776,0.8583045803282735,3.48107855963941,6.218473062339401,,,0.524519217297268,4.095011451209804,inf,,0.8401903339043805
350,3.9813051970098483,-3.9813051970098483,0.0,1.714271917147678,1.6902851884319217,0.7492953435179137,4.261264865669807,2.920690347325923,,,0.47824363442641393,3.9774508107506015,inf,,0.8946103226637863
351,,0.0,0.0,1.7253635532644462,1.7351541130147226,0.6305712512359839,2.695219542176942,3.156773552893165,,,0.47824363442641393,inf,,,0.7939809267644188
352,,0.0,0.0,1.7180995607409257,1.6524476851929626,0.4695079474301357,0.8328372147068253,0.7090666967779377,,,0.4302020962658841,inf,,,0.6809204814866734
353,5.7037824746562,-5.7037824746562,0.0,0.8253185088241564,0.8058557618569393,0.3256202830892829,0.5182623683125482,0.31560634439723234,,,0.22807408875533447,5.703782474656201,inf,,0.6971825863241755
354,5.703782474656201,-2.9279416703235164,0.0,1.1067557181919945,1.057438831903511,0.3586962763121212,1.1034290267857607,0.9958096021534488,,,0.5604843169999094,6.370612346898773,inf,,0.7690354738027588
355,,0.0,0.0,1.6157251972051196,1.5544539886069508,0.6131170501533533,1.3064001176308206,1.284818391505584,,,0.4928685327679205,inf,,,0.9451068817128073
356,,0.0,0.0,1.420070135444495,1.37972197440548,0.5686232887933997,1.0918667581041126,1.3278989675653528,,,0.5287703885177266,inf,,,0.9380952089750105
357,,0.0,0.0,1.7015176553879265,1.6865410305834785,0.3262318394556567,0.9982780913580612,1.0554799950067328,,,0.5113665138247345,inf,,,0.6714550450174082
358,,0.0,0.0,1.7484155812053548,1.7251213266350627,0.4327583615250575,1.0139151578913153,1.170106366111976,,,0.4629450596409901,inf,,,0.9518341427689059
359,,0.0,0.0,1.774091487103178,1.6987261526571125,0.6907819702566468,0.9839774588203991,0.9125211375485309,,,0.44144624493110796,inf,,,0.946609283358059
360,,0.0,0.0,1.6670180502170582,1.659782427518219,0.6297199625886367,1.156049309216537,1.1689185907646567,,,0.4576907132971797,inf,,,0.9434128588404331
361,,0.0,0.0,1.731297972730898,1.723866423202326,0.7285486480809394,1.0529921049117037,0.8984708247484343,,,0.468121228110369,inf,,,0.9496322269899408
362,,0.0,0.0,1.4510681488879138,1.4166645099116346,0.5108652768812183,0.8095366346825864,0.9026259327959294,,,0.42445136339222655,inf,,,0.9501497306238776
363,,0.0,0.0,1.5547802472923538,1.577439777435122,0.5070104233857988,0.6498659302705112,0.6765511319751256,,,0.5451288209179292,inf,,,0.9423280403066344
364,,0.0,0.0,1.6142536908681144,1.6104317689874492,0.44146292007333177,0.703348013024308,0.8104024094856647,,,0.5783247308855777,inf,,,0.9501538236094326
365,,0.0,0.0,1.4998934427201347,1.4605849700589173,0.4607331061669869,0.9055813153314999,0.9311822489707322,,,0.48319206230712763,inf,,,0.9502878816603532
366,,0.0,0.0,1.567013574841614,1.516613834969806,0.5593430130536144,0.26098349460790826,0.3189946840556889,,,0.541134803179459,inf,,,0.9471397713908323
367,5.7037824746562,-5.7037824746562,0.0,1.7743713437579403,1.7094592988437796,0.4115988867682065,0.8565849180978544,0.35492474996987844,,,0.5202020156036558,5.703782474656201,inf,,0.9532911283745086
368,,0.0,0.0,1.3323900368071493,1.3336054493073126,0.5129164560623032,0.6802825644044525,0.6588839604148804,,,0.524519217297268,inf,,,0.9457322288406481
369,,0.0,0.0,1.6404759649739602,1.6188996962930569,0.8407699199698504,0.4727324409550052,0.5420752681743664,,,0.524519217297268,inf,,,0.9425505417127539
370,,0.0,0.0,1.6711574269071598,1.7005336370680706,0.4042758866050235,0.34391942542485676,0.3708999279981427,,,0.5329562494928909,inf,,,0.9505620638274624
371,5.703782474656202,-1.8632356083876926,0.0,1.6357969621062902,1.5892337418104208,0.2241727717282382,0.4118121852782907,0.6682603731133585,,,0.5451288209179292,6.82259747064183,inf,,0.5770687718356105
372,,0.0,0.0,1.7365112536396317,1.685539023846041,0.8910618249220592,0.27555085499808163,0.5449341300832218,,,0.5113665138247345,inf,,,0.8890692132018986
373,,0.0,0.0,1.718203933319042,1.5026358467614436,0.8781441392793468,0.3704301630707252,0.49928724873583735,,,0.4576907132971797,inf,,,0.8836724307815851
374,,0.0,0.0,1.7289324196848148,1.5745312868988417,0.9276899981071889,0.7822493189730967,1.1399134345727902,,,0.524519217297268,inf,,,0.8830589357291767
375,,0.0,0.0,1.4674750911888108,1.4105296414940327,0.9043296208983262,0.27918377097691316,0.5495215796380413,,,0.47824363442641393,inf,,,0.8900325980176212
376,,0.0,0.0,1.699540535365087,1.6752255125231446,0.8874888837497408,0.2206934640352014,0.4558206129792181,,,0.49759852643134905,inf,,,0.8364449777009159
377,,0.0,0.0,1.6682268263920932,1.6375854750031489,0.9560291017962167,0.22875785363045884,0.4731653532390351,,,0.44144624493110796,inf,,,0.8643116835805047
378,,0.0,0.0,1.5837178040905857,1.5623080331685142,0.931826283554402,0.2708114107493875,0.5621686793878302,,,0.541134803179459,inf,,,0.8219358265491612
379,,0.0,0.0,1.5069922174945007,1.4696994083125787,0.9038468240866748,0.2805978411451441,0.5485466159017305,,,0.5567373465730988,inf,,,0.8835851512911789
380,,0.0,0.0,1.4277211300748176,1.4245230563819944,0.9175775964623331,0.2899634031314782,0.5828801875570901,,,0.5113665138247345,inf,,,0.8501146068178768
381,,0.0,0.0,1.4583155639232763,1.4619751030756483,0.9426182373019696,0.29557596911784556,0.5743355127304532,,,0.5370774965580548,inf,,,0.8360796220146587
382,,0.0,0.0,1.4536150618428576,1.4458082222504096,0.9653417294436275,0.6092148127337144,0.8509595311758184,,,0.5287703885177266,inf,,,0.8873160233396417
383,,0.0,0.0,1.4394627740502242,1.3808079169982312,0.9214293596985538,0.4849746803149169,0.8098567905836833,,,0.48319206230712763,inf,,,0.9099306356934879
384,,0.0,0.0,1.6468753524262991,1.6042860811693327,0.9204796850247943,0.40522640169591156,0.670257662884743,,,0.47824363442641393,inf,,,0.9211964724474349
385,,0.0,0.0,1.5613924011465417,1.537902530460725,0.9377864256336615,0.38910347336461215,0.6583276658608498,,,0.5022576003740722,inf,,,0.848137809140468
386,,0.0,0.0,1.5785491431905863,1.585540142756918,0.480031239004426,1.043646129396136,0.79923424905466,,,0.541134803179459,inf,,,0.9316605674668164
387,,0.0,0.0,1.6809373029265307,1.6338895760608187,0.3383871439943289,0.8441980275141127,0.806282888604387,,,0.5068466436745385,inf,,,0.7624291731015392
388,,0.0,0.0,1.5582743229686273,1.5023936233010176,0.7989277256528152,0.5307183372928859,0.7946750349685555,,,0.49759852643134905,inf,,,0.9119321262152145
389,,0.0,0.0,1.7518141246381944,1.701071188548361,0.9196537098925994,0.506853559810461,0.7840285152435331,,,0.5370774965580548,inf,,,0.8961642945087409
390,,0.0,0.0,1.7153526308065832,1.6416118599770995,0.9439448215245327,0.5220365391070595,0.8516545381737621,,,0.5567373465730988,inf,,,0.9069725121702065
391,,0.0,0.0,1.5521929929887759,1.5108575868783816,0.46318884876721766,1.359920406146053,1.4454945264723578,,,0.5883313578629602,inf,,,0.9517637847008317
392,,0.0,0.0,1.7113274651237345,1.6804826057508984,0.9288867914096255,1.0402415986863642,1.9524284488950914,,,0.468121228110369,inf,,,0.9203289613875704
393,,0.0,0.0,1.6976606711236877,1.6420080189830277,0.9335802691091996,0.7085610950854183,1.220450439452752,,,0.42445136339222655,inf,,,0.9003319748384375
394,,0.0,0.0,1.6653830663087001,1.6303965266756046,0.9682054994135649,0.734570641116395,1.316509894152183,,,0.4629450596409901,inf,,,0.8371791467095614
395,,0.0,0.0,1.4735029824265489,1.4421579611543354,0.9763645865925965,0.6482397297577562,1.285609731889829,,,0.44144624493110796,inf,,,0.8167371155950601
396,,0.0,0.0,1.4850533157437407,1.5023383732930675,0.9542477485467962,0.7963121768506307,1.6317552207125736,,,0.41861278947482794,inf,,,0.8642874147633449
397,,0.0,0.0,1.7423868927182193,1.7022797224952981,0.9561307210439853,0.9154539876937426,1.7932536759766364,,,0.4880666971167561,inf,,,0.8719044854684437
398,,0.0,0.0,1.757625135979418,1.7148136679267534,0.9398286292194376,0.953496373112612,1.7950535862636154,,,0.45235697871908603,inf,,,0.8914192512372467
399,,0.0,0.0,1.750963163808207,1.7288644483908897,0.9535849977160389,0.8596230543133336,1.59033487750708,,,0.47824363442641393,inf,,,0.8574769402098581
400,,0.0,0.0,1.4054046989536253,1.3790884659767777,0.932179562536092,0.7466240254902345,1.405735007084967,,,0.48319206230712763,inf,,,0.9022626354120075
401,,0.0,0.0,1.6825204680685486,1.6339287559149973,0.954770040794031,0.9871673692312766,1.7950743909192375,,,0.41861278947482794,inf,,,0.8671410208280128
402,,0.0,0.0,1.478484873999131,1.4771965340102329,0.48620980582203255,1.4797098401700595,1.819234127757404,,,0.5329562494928909,inf,,,0.9443594484349257
403,,0.0,0.0,1.4127267599295072,1.385549923611259,0.8312638401485949,2.0453734385832774,2.7295704495839823,,,0.5287703885177266,inf,,,0.9369618668949761
404,,0.0,0.0,1.4682213729060898,1.4359806980167487,0.7568077220932338,2.0367180465132706,2.585009892363566,,,0.44694259446804574,inf,,,0.9378560810303801
405,,0.0,0.0,1.6660526755325542,1.63777749386619,0.8895747091835718,1.6412747013687847,2.209682180752419,,,0.48319206230712763,inf,,,0.9198781179560761
406,,0.0,0.0,1.5292730392829208,1.5305026210443682,0.8380912694097057,1.6433010479069194,1.6534374709544206,,,0.5022576003740722,inf,,,0.9378908703537714
407,,0.0,0.0,1.634053006481274,1.5309528296803796,0.35553648374061225,1.024987289969104,1.1938991740159455,,,0.5068466436745385,inf,,,0.8053923050967317
408,,0.0,0.0,1.668440696093518,1.633453225852393,0.7708944322249545,1.9346030665228615,1.5416119525790073,,,0.5490601803369085,inf,,,0.9400840405616933
409,,0.0,0.0,1.6274245230622362,1.590166919987408,0.8415087422013118,1.989155804442296,1.4910285024212535,,,0.468121228110369,inf,,,0.9182874167729568
410,,0.0,0.0,1.6538220399369004,1.6134882478464727,0.8766689200975274,2.550176101719483,10.64975907257017,,,0.5113665138247345,inf,,,0.8898799280389202
411,,0.0,0.0,1.3353580612939093,1.2405544846325498,0.5442194668479093,0.6834322342149818,0.9942145143305219,,,0.4880666971167561,inf,,,0.9067392223892508
412,,0.0,0.0,1.7250121069738935,1.6675565860361778,0.4920849876395461,0.36906125462882927,0.47167529506360883,,,0.43586655696697996,inf,,,0.9504083543195601
413,,0.0,0.0,1.3724116970125588,1.346304692990839,0.8567076511636942,0.2781078454368046,0.4329049394818996,,,0.5370774965580548,inf,,,0.8366094746996567
414,,0.0,0.0,1.4168712494749842,1.403982365464217,0.38447516367284845,1.9445238525865474,1.8572806580949488,,,0.5022576003740722,inf,,,0.5702370864396508
415,,0.0,0.0,1.609998418441888,1.5795767867611465,0.9523656338955321,0.9029701944802702,1.4218632911945064,,,0.5022576003740722,inf,,,0.8534202113971823
416,,0.0,0.0,1.779589345485049,1.7204766185225546,0.5214781416585792,0.7660582256303142,0.9560354323658035,,,0.4576907132971797,inf,,,0.9229507441662614
417,,0.0,0.0,1.7203769528454687,1.6070740218748796,0.8558566080427298,0.36241208221330906,0.4786683641529334,,,0.47824363442641393,inf,,,0.8817957766152087
418,,0.0,0.0,1.6747828517163519,1.641145699815643,0.6017769577825421,0.372048575642921,0.4177408743295094,,,0.468121228110369,inf,,,0.939931014720268
419,,0.0,0.0,1.4310918699876916,1.3960026626397528,0.9056452197165437,0.2547483710748997,0.406341208948186,,,0.4732203808476458,inf,,,0.8050558423935368
420,,0.0,0.0,1.555533920129969,1.5412467365919014,0.6183791189123657,0.21408204731757052,0.2610960834711363,,,0.49759852643134905,inf,,,0.8735451908805539
421,,0.0,0.0,1.765715531988079,1.7477856038386006,0.6180742483588926,0.1567336837417479,0.21175947110516452,,,0.5329562494928909,inf,,,0.8605253865775312
422,,0.0,0.0,1.743403562105435,1.733127551196461,0.9085329828212754,0.16390431913950387,0.2537024854404355,,,0.5329562494928909,inf,,,0.8213360806226941
423,,0.0,0.0,1.7524937487944374,1.738280971335737,0.9318528949982717,0.2470981053710911,0.35703231798229784,,,0.4629450596409901,inf,,,0.85551867450811
424,,0.0,0.0,1.6872189505329127,1.658817592721497,0.3735375790121855,0.6291702903395489,0.4814205363415943,,,0.45235697871908603,inf,,,0.6729955712837282
425,,0.0,0.0,1.6910921529718181,1.6327937090300195,0.8124141148292864,0.9341346135138695,0.8854124668512934,,,0.41861278947482794,inf,,,0.9257746838638223
426,,0.0,0.0,1.7412980593035587,1.6681717912417768,0.31189665145549733,0.7858968086899201,0.9586842190211421,,,0.45235697871908603,inf,,,0.9411009552870071
427,,0.0,0.0,1.7851561616673812,1.7468958978596194,0.7680759914150622,0.5684723709610305,0.8653538215270049,,,0.44694259446804574,inf,,,0.8556558560973304
428,,0.0,0.0,1.7527768231040581,1.7067440931557585,0.8381474230582757,0.8654054398413714,0.9196791070996362,,,0.4576907132971797,inf,,,0.9148201238779301
429,,0.0,0.0,1.7867322913156494,1.7747469473359323,0.20279776601101615,0.8462196250929076,0.8397873687270416,,,0.468121228110369,inf,,,0.6589618229383024
430,,0.0,0.0,1.7775584134097548,1.762424917792766,0.25913701655344706,0.6522608812634795,0.7743444705688828,,,0.44694259446804574,inf,,,0.6063727525893148
431,5.7037824746562,-5.7037824746562,0.0,1.7720781158085672,1.7497082702097888,0.15099933733111712,0.7338219250779685,0.8406576368631671,,,0.5370774965580548,5.703782474656201,inf,,0.7986269969051896
432,,0.0,0.0,1.7563013673430747,1.7361611510158081,0.12317214910010466,0.6796035492314318,0.6249653747017018,,,0.5748741956352443,inf,,,0.6425289538060762
433,,0.0,0.0,1.4829442880939205,1.448965171104967,0.26428212134632867,1.073202862053212,1.0022938501507939,,,0.4576907132971797,inf,,,0.7682795136685987
434,,0.0,0.0,1.5945490901928987,1.5956667545947827,0.6122244802168593,2.2421361144691954,3.698126269805609,,,0.5329562494928909,inf,,,0.9246645234315781
435,5.7037824746562,-5.7037824746562,0.0,1.6587563351190022,1.6491395461750675,0.5393805743641525,3.071540651758293,2.872728612458465,,,0.541134803179459,5.703782474656201,inf,,0.8614848626647044
436,5.7037824746562,-5.7037824746562,0.0,1.7520034528917032,1.7357336276886581,0.47932382265709295,3.0976903184317766,2.764139755667501,,,0.5490601803369085,5.703782474656201,inf,,0.8644018986483948
437,,0.0,0.0,1.727219168074182,1.7207890321516064,0.6868035651208394,3.2679195673715564,2.3149312461518767,,,0.4302020962658841,inf,,,0.7398406482972438
438,,0.0,0.0,1.730696612436018,1.7035560481200889,0.7056966089551524,3.072837909198058,7.202254751417648,,,0.5158180382284114,inf,,,0.9223817375261272
439,,0.0,0.0,1.5797329147386574,1.5014846880213384,0.5143240781070623,1.1145210835564154,0.9710288501110673,,,0.5022576003740722,inf,,,0.6214501448284885
440,,0.0,0.0,1.667076878907515,1.6586715713077114,0.8841125733574666,0.22876110907484953,0.39867836690051106,,,0.5022576003740722,inf,,,0.8472497302780453
441,5.7037824746562,-5.7037824746562,0.0,1.7695700005785966,1.7164092885321751,0.12994679351305768,0.22781482741829318,0.25765458481346326,,,0.5567373465730988,5.703782474656201,inf,,0.9414876987317362
442,,0.0,0.0,1.7456221423239573,1.7144090171605029,0.8979880565526724,0.16711821931713933,0.2502369800895629,,,0.45235697871908603,inf,,,0.7134259831587202
443,,0.0,0.0,1.6601873609102087,1.6419038851024177,0.11889869371082779,0.25090175597012954,0.26714808344054064,,,0.5451288209179292,inf,,,0.6523960911053928
444,,0.0,0.0,1.6686157519050622,1.6555850093312428,0.8899793172706276,0.19489656873535335,0.29619846837834096,,,0.38804190201132227,inf,,,0.8571902885598537
445,,0.0,0.0,1.542939491506279,1.5308825658122118,0.9531489220557731,0.2038499781554985,0.3460232570106255,,,0.5113665138247345,inf,,,0.8586945538376812
446,,0.0,0.0,1.7653859368121894,1.7604154306177253,0.8904266104972404,0.2464487162144064,0.44635106299059124,,,0.6008849035917525,inf,,,0.8195479190173205
447,,0.0,0.0,1.6926255690980663,1.6673772626375614,0.9076528974102734,0.2542641251954908,0.4829522330619437,,,0.48319206230712763,inf,,,0.8508247212019493
448,,0.0,0.0,1.6838351071133728,1.5759159287691635,0.32589226169632807,0.7286493892330267,0.6975958141686953,,,0.5641709578113449,inf,,,0.6115357593945316
449,,0.0,0.0,1.5159652960369685,1.3577768921363351,0.9319778593823534,1.0792117209711671,1.2511894360134646,,,0.4576907132971797,inf,,,0.8717378748113426
450,,0.0,0.0,1.7297043987303538,1.7053485131900714,0.31527235247183877,1.291283169938979,1.7859703453816218,,,0.468121228110369,inf,,,0.9509663185281169
451,,0.0,0.0,1.4977299644693733,1.4494474905531745,0.8705945357095516,1.0778013902130983,1.6666567816552242,,,0.43586655696697996,inf,,,0.9190602916473614
452,,0.0,0.0,1.750105800812343,1.686872867308493,0.7197830228606619,0.5242035309978285,0.809812742803974,,,0.4928685327679205,inf,,,0.9049384101832713
453,,0.0,0.0,1.7383018160714352,1.6773114134376592,0.19029791873825627,0.4834308696306108,0.6000645479708935,,,0.44144624493110796,inf,,,0.5821642918054044
454,,0.0,0.0,1.7689555202528109,1.756155425181654,0.22035933093020207,0.2826768980370719,0.4838337953366729,,,0.44144624493110796,inf,,,0.9652334833628117
455,,0.0,0.0,1.7132804320628345,1.6593676495197638,0.9465991742367528,0.2752319164427698,0.5318527058302627,,,0.3943459996787778,inf,,,0.829038747419315
456,,0.0,0.0,1.7129987767862125,1.6935105833670183,0.3157153046244459,0.3806280590651924,0.5617648224540603,,,0.49759852643134905,inf,,,0.9567987513263931
457,,0.0,0.0,1.676281697736043,1.669769737688962,0.6633925657972125,1.4002442043334267,0.8105001414031936,,,0.4880666971167561,inf,,,0.934076205860937
458,,0.0,0.0,1.7369570054676866,1.674983483513288,0.8310745271562657,2.438885549408,5.292984587337842,,,0.5490601803369085,inf,,,0.876317950927838
459,,0.0,0.0,1.7077539230000083,1.6656652258886502,0.9391809008450956,2.5041008785125514,3.578594252569645,,,0.4576907132971797,inf,,,0.8784995385555912
460,,0.0,0.0,1.7146805283322537,1.6440475325009305,0.7225015500539177,2.289615526915003,3.2215658043991984,,,0.5490601803369085,inf,,,0.9173336377681223
461,,0.0,0.0,1.6719921764004702,1.627821892073526,0.612674166772964,0.8147012929194818,0.7467175665432303,,,0.5022576003740722,inf,,,0.8802906249346704
462,,0.0,0.0,1.3459270727383779,1.3220689737486562,0.49516375856269285,0.8260918224485669,0.8843720074150379,,,0.5158180382284114,inf,,,0.8817875344052131
463,,0.0,0.0,1.7271791011118114,1.740926279074746,0.736564062726789,1.2488054747851385,1.2008204973726182,,,0.5783247308855777,inf,,,0.9445783029516915
464,,0.0,0.0,1.2638108481660844,1.2536383031603413,0.38339503321186785,0.6408566285925873,0.5222387256726786,,,0.49759852643134905,inf,,,0.9522124734681751
465,,0.0,0.0,1.7568709751919014,1.7072178075723086,0.3592265281494028,0.49066265673216763,0.3327113945381234,,,0.4928685327679205,inf,,,0.9529925227314765
466,,0.0,0.0,1.5304397138624446,1.4985366481791678,0.6680960354727272,0.7191025555006495,0.9363372351185109,,,0.4880666971167561,inf,,,0.9435309460860473
467,,0.0,0.0,1.7316802019100563,1.7085543946326351,0.7900654493942064,0.7761396928023597,1.348808680491321,,,0.5451288209179292,inf,,,0.9256754311933167
468,,0.0,0.0,1.7227142589703761,1.7174241397124426,0.7036065422826858,0.943202822181544,1.2337853315564449,,,0.48319206230712763,inf,,,0.728118194954874
469,,0.0,0.0,1.3747593104425917,1.3757042309628995,0.5674359142844814,1.4218235324329458,2.3818515725513607,,,0.47824363442641393,inf,,,0.7578306004161868
470,,0.0,0.0,1.6657725251075484,1.5930473620219219,0.7030333337483597,0.9973278759450984,1.4246726339641456,,,0.5068466436745385,inf,,,0.9218760805566613
471,,0.0,0.0,1.597234276071554,1.564216159747867,0.6208449921607214,0.9017684947719001,1.1680512098993923,,,0.5113665138247345,inf,,,0.9472105993618193
472,,0.0,0.0,1.4569601284923919,1.4383739683153958,0.7483995923935625,0.6395659259708092,0.8298183380871649,,,0.4629450596409901,inf,,,0.9453095735468895
473,,0.0,0.0,1.7266938228689468,1.73844614813048,0.8011093686787231,0.40202834433983275,0.5376548057961703,,,0.4576907132971797,inf,,,0.9462709783598403
474,,0.0,0.0,1.5646662607564,1.555643907654264,0.7124730106029558,0.5674079963182364,0.7836984916513586,,,0.47824363442641393,inf,,,0.9440228382324731
475,,0.0,0.0,1.5192411486585207,1.4987621325657963,0.6433599463423801,1.02129091902425,1.1298724576249068,,,0.5158180382284114,inf,,,0.944821016419437
476,,0.0,0.0,1.6915450868961133,1.6944414045641354,0.7404916716544516,0.5208286346140151,0.872469828494852,,,0.5068466436745385,inf,,,0.9057626503756768
477,,0.0,0.0,1.7637887960381282,1.7182985977305099,0.7421691393703259,0.4487437510254945,0.5545664762311981,,,0.44694259446804574,inf,,,0.8312278850217417
478,,0.0,0.0,1.3685805692185993,1.354564919291104,0.7544100643506791,0.29273911886663756,0.42636909146458113,,,0.5287703885177266,inf,,,0.9168431094210727
479,,0.0,0.0,1.742742419870709,1.7209349546979984,0.6529351585140862,0.37209409407037947,0.44214146436774404,,,0.44694259446804574,inf,,,0.9499031789070167
480,,0.0,0.0,1.635015711917502,1.6159301875484577,0.5531165184814809,0.5712045087051348,0.7623356851285468,,,0.4928685327679205,inf,,,0.8627219605643274
481,5.010635294096255,-5.010635294096255,0.0,1.697311211216374,1.5443347129959994,0.4720777866737405,1.4082261561998537,0.9360080745728427,,,0.1687963801566332,5.0106352940962555,inf,,0.9305395970515713
482,5.703782474656201,-5.684769866407347,0.0,0.9778479493097304,0.9809653596508201,0.5232715359167639,2.1080381219361324,1.7143507265461517,,,0.49759852643134905,5.707121375921716,inf,,0.6998668879350598
483,,0.0,0.0,1.7563926814969917,1.7204777166231635,0.6465342788418031,1.9260492888467438,1.7549462353177638,,,0.4928685327679205,inf,,,0.9458025610481304
484,,0.0,0.0,1.7740769294402796,1.7653802658435758,0.767118746951022,1.8047362495251476,1.8172734330643703,,,0.468121228110369,inf,,,0.9525900083352374
485,,0.0,0.0,1.7576581466470527,1.657622263833124,0.5831976806766341,1.4375139024970292,0.9970804424035067,,,0.44694259446804574,inf,,,0.7711764455122723
486,,0.0,0.0,1.679717847372118,1.6581545520394023,0.33546261458168297,0.9029257546740248,0.47670870547545996,,,0.5329562494928909,inf,,,0.6066858518514431
487,5.703782474656201,-0.3232143402305181,0.0,1.479710733503813,1.4707015074439722,0.33100638689446693,1.039949624673367,0.9443690907887758,,,0.5287703885177266,8.574351605256187,inf,,0.6807047612152737
488,,0.0,0.0,1.7002309605222128,1.7277737244058198,0.21645004373626078,0.897512439622923,0.9821401834113171,,,0.5158180382284114,inf,,,0.7242077782380792
489,4.605170185988091,-4.605170185988091,0.0,1.6547473698792332,1.5783360258207844,0.5716785024070985,0.9935667467167153,0.5590850981710097,,,0.41861278947482794,4.605170185988091,inf,,0.649656014128147
490,3.757872325600888,-3.757872325600888,0.0,1.7385126614799402,1.7304524645596404,0.6800051817611242,1.9598880347917074,0.7826631804457915,,,0.5604843169999094,3.757872325600888,inf,,0.7839764561795863
491,,0.0,0.0,1.7850582762431473,1.711226207826649,0.8263111292649382,2.2295926305105263,1.7303338406872943,,,0.4576907132971797,inf,,,0.9505337703037213
492,5.7037824746562,-5.7037824746562,0.0,1.6885566290557288,1.6691390011400933,0.73493247892922,2.3256484208029873,1.4937622167103677,,,0.585052858160615,5.703782474656201,inf,,0.8472055575358324
493,,0.0,0.0,1.7042722391636285,1.6918481357257251,0.3804195172306978,0.8185234249582836,0.9631708950332757,,,0.524519217297268,inf,,,0.952086380615612
494,,0.0,0.0,1.6741108108553426,1.655592340797835,0.5643787247592562,0.3764476747706141,0.5182846045509011,,,0.4732203808476458,inf,,,0.942337864217069
495,5.7037824746562,-5.7037824746562,0.0,1.7685282875982757,1.7227833719682901,0.34911969299391576,1.4895200805629027,1.0044258780606814,,,0.5113665138247345,5.703782474656201,inf,,0.6074584367263888
496,,0.0,0.0,1.7573184332961405,1.6909017115715008,0.3693977099003195,1.0078625781088681,0.9838652961970549,,,0.5202020156036558,inf,,,0.6192759562283339
497,,0.0,0.0,1.5408360297982018,1.4972402371884344,0.5781416240502323,1.0897052740460629,0.6117091544737727,,,0.524519217297268,inf,,,0.9468643199483392
498,4.31748811353631,-4.31748811353631,0.0,1.617789631738014,1.5641969724029057,0.4111174152715766,1.2227638661084275,0.730542532978244,,,0.4302020962658841,4.31748811353631,inf,,0.6714889916023931
499,,0.0,0.0,1.2915527054363343,1.2695329037644192,0.9101672914528289,0.5526458531826092,0.8401291252569145,,,0.47824363442641393,inf,,,0.927677493651423
500,,0.0,0.0,1.7174892470458447,1.6432518660203743,0.3040363690045864,0.7126735814104159,0.733663514107877,,,0.44144624493110796,inf,,,0.5678710858897993
501,,0.0,0.0,1.6590247786441403,1.65670199411769,0.3483361743844356,0.5384011300647583,0.5579642634158284,,,0.41861278947482794,inf,,,0.6384467964978928
502,,0.0,0.0,1.655433620745329,1.6498335734110134,0.6266911866099759,0.4810055831419238,0.5738670327476769,,,0.5068466436745385,inf,,,0.9376838187149054
503,,0.0,0.0,1.2080911671837433,1.1991880852656656,0.7141907819495774,0.3084090067527921,0.3777785942363958,,,0.4880666971167561,inf,,,0.913352284550423
504,,0.0,0.0,1.1459588544291304,1.1322823674736955,0.391716555225424,1.2340749745489668,0.7219133774695843,,,0.5068466436745385,inf,,,0.7052948784117057
505,4.605170185988091,-4.605170185988091,0.0,1.753855394543007,1.6729741815771235,0.43801503061322633,1.8699733061087438,1.3728263886143228,,,0.5022576003740722,4.605170185988091,inf,,0.6202446473692401
506,,0.0,0.0,1.7636439679387452,1.711508180547567,0.5734003789083323,0.9373159908529528,0.8932951436631003,,,0.541134803179459,inf,,,0.9512970165973054
507,,0.0,0.0,1.7637687922032952,1.7224362412998768,0.4372015848773749,1.2437121932796606,1.1480965302596884,,,0.44694259446804574,inf,,,0.9525161959366232
508,,0.0,0.0,1.6159328685656424,1.5895911680235972,0.5936833436838059,0.8189216873111147,0.7042613296658866,,,0.5022576003740722,inf,,,0.94165176248748
509,,0.0,0.0,1.3026550866800057,1.2637568529946137,0.666989124160286,1.0359628822409934,0.9598526503575882,,,0.47824363442641393,inf,,,0.943238201625937
510,,0.0,0.0,1.5821599680542442,1.519926151121318,0.44444084642277254,1.073328228419498,1.1066724000288457,,,0.4629450596409901,inf,,,0.9355453912642178
511,,0.0,0.0,1.6927922521757344,1.6359118061835867,0.359151339990009,1.1577794346925776,1.1710937961458028,,,0.5490601803369085,inf,,,0.8458492307926617
512,,0.0,0.0,1.6671444584839041,1.5788215897916202,0.6169683229019762,1.3712072691353014,1.0071918256283763,,,0.4629450596409901,inf,,,0.680467038221605
513,4.608877397061579,-0.6624164616372576,-3.946460935424321,1.7287537467265643,1.5913860410742455,0.4903761271068586,1.5444964765008886,0.636637340922263,2.1217763974786847,,0.5158180382284114,4.606281914840782,1.4685642412062512,inf,0.8440641788623022
514,,0.0,0.0,1.6521308900109488,1.6218085755663,0.5330394471553448,1.7255364910609694,1.1976493510995567,,,0.4928685327679205,inf,,,0.6777196317116041
515,5.703782474656201,-5.1524168354394355,0.0,1.4510464932525946,1.391658370169264,0.5314081585789563,1.2651509808143835,0.7949861329911434,,,0.5158180382284114,5.805446128432701,inf,,0.7782879596174804
516,5.7037824746562,-5.7037824746562,0.0,1.7797896227815861,1.7557793133067847,0.3705591454474775,1.2918594181103922,0.9677074534002514,,,0.541134803179459,5.703782474656201,inf,,0.6626263581300849
517,,0.0,0.0,1.720622136998363,1.7286356889507943,0.4851776679663143,1.1980235298089323,0.8611141898526267,,,0.4880666971167561,inf,,,0.9303399827613106
518,,0.0,0.0,1.5171895936752802,1.5198531539933966,0.18524731494043434,0.7376659439611645,0.5589978316892649,,,0.3751344627501719,inf,,,0.9295419858338757
519,,0.0,0.0,1.670413575532232,1.679760802203672,0.4197935280892773,0.8590787690638602,0.8627608426099355,,,0.5451288209179292,inf,,,0.9301904436264599
520,,0.0,0.0,1.6961813425504504,1.698976874462047,0.37949203570942625,1.6451654609571875,1.3919169127580533,,,0.3751344627501719,inf,,,0.9191209923319837
521,2.870569130599985,-2.870569130599985,0.0,1.6256869359738402,1.5964260691284713,0.7656897319413577,3.213504915673246,2.113122755491694,,,0.5567373465730988,2.870569130599985,inf,,0.6455846500128243
522,3.9120230054281455,-3.9120230054281455,0.0,1.7592369289649883,1.6813108028228638,0.7706694707287021,3.3274080867571816,4.673193826630468,,,0.4928685327679205,3.912023005428146,inf,,0.6233747853458456
523,3.757872325600888,1.942571247789799,-5.700443573390687,1.7006708096779364,1.643328907823389,0.7621435720796005,3.015132210863538,2.2833011605582407,1.9425712477897987,,0.5113665138247345,3.757872325600888,1.949249050320828,inf,0.6068094829704189
524,5.010635294096255,-5.010635294096255,0.0,1.7207770807537095,1.6949631686207087,0.5165288731985751,2.695631567625205,2.7846613344085376,,,0.5113665138247345,5.0106352940962555,inf,,0.720650495086259
525,,0.0,0.0,1.7119261121079796,1.7094693914046353,0.33543900655569486,1.5162255569005396,1.4705662549788925,,,0.5677978065141052,inf,,,0.947080644907419
526,,0.0,0.0,1.4380228790526735,1.4052991417060792,0.3875355736021299,1.4309254368739814,1.1932622914612092,,,0.5158180382284114,inf,,,0.9455790648737393
527,3.8770821846673007,-2.580660234866074,-1.2964219498012268,1.687469301391979,1.5046986820805945,0.5836588298556554,1.955380519714112,1.4213470853575823,,,0.47824363442641393,3.874941330523614,3.3131159136126813,inf,0.620260997485723
528,5.703782474656203,-0.38025216497708014,0.0,1.3132888139791532,1.2745019145344945,0.4864299665127834,1.9525585408859432,1.1240036436656942,,,0.4928685327679205,8.411832675758411,inf,,0.9140194699511134
529,5.193164051643707,-5.193164051643707,0.0,1.6896970682052002,1.685050061888212,0.676510596753734,2.379038187934247,1.6130399874376726,,,0.5113665138247345,5.151814907559035,inf,,0.5636780751732549
530,3.972796857692797,-3.972796857692797,0.0,1.63331391808279,1.6085680256919968,0.629815817052504,2.6622006517177668,1.6376378161359204,,,0.5113665138247345,3.9691814192680948,inf,,0.6699573777450043
531,5.7037824746562,-5.7037824746562,0.0,1.7071735686569969,1.7209438745546857,0.5712155263355647,1.9910427478076744,1.8391223982689398,,,0.5451288209179292,5.703782474656201,inf,,0.626778822075063
532,4.605170185988091,-4.605170185988091,0.0,1.6491076583292743,1.6384975999030122,0.6670588827120539,2.2257770707232134,1.2759105851675527,,,0.5068466436745385,4.605170185988091,inf,,0.7085388728053147
533,4.31748811353631,-4.31748811353631,0.0,1.3623592338920063,1.3382601386749966,0.7425030590050897,2.798258493493252,1.8192809299287385,,,0.47824363442641393,4.31748811353631,inf,,0.616987006944663
534,2.407824383171303,3.292619190219384,-5.700443573390687,1.6484761424790448,1.5796127497290735,0.8642675172392882,4.757376720764818,14.952986662499935,3.989118681354003,,0.48319206230712763,2.4078221594819107,3.2992992164398047,inf,0.6164301788700667
535,2.9378627329339686,2.7625808404567183,-5.700443573390687,1.731887060900326,1.5033802675348513,0.7978799022359478,2.4045884648244185,1.3091010613765652,2.7627705423765088,,0.5287703885177266,2.9376730310141776,2.7694483449075378,inf,0.8330326448637742
536,2.2843320916225807,3.416111481768106,-5.700443573390687,1.620676251754752,1.5899183763056675,0.6913614761663588,4.768707658412856,118.2048863388556,3.41624398204006,,0.5113665138247345,2.2841995913506263,3.422921784571089,inf,0.7677270993593526
537,2.2374067296594093,-2.2374067296594093,0.0,1.7721783356323302,1.7582670456015694,0.9284025943576844,6.651065190677403,43.96943591720925,,,0.5022576003740722,2.2373176709026636,inf,,0.8990472808205415
538,4.31748811353631,-4.31748811353631,0.0,1.6447916491988013,1.4406138840249723,0.6616808097433506,1.9635481848796907,1.8237638168344315,,,0.43586655696697996,4.31748811353631,inf,,0.8281302532536025
539,,0.0,0.0,1.634088293786392,1.6396996075957828,0.4665272279302979,1.2381922389765854,1.1488388341600806,,,0.44694259446804574,inf,,,0.9475693973191052
540,,0.0,0.0,1.4603257797270115,1.408426673996658,0.600206528737386,1.5076914044704612,1.45354255767656,,,0.28007874463063287,inf,,,0.9274731720199827
541,,0.0,0.0,1.5637080525365186,1.4828131795949075,0.51096110441188,1.3905396214169574,1.3681659115494553,,,0.5490601803369085,inf,,,0.9004914233059125
542,,0.0,0.0,1.6993986498941356,1.6221077320958643,0.49055753660308815,1.7122330691207959,1.696029698178743,,,0.4928685327679205,inf,,,0.941926709955409
543,,0.0,0.0,1.4600488600639139,1.420865990717581,0.5907354815596635,2.0785586587638254,2.2991847731572514,,,0.49759852643134905,inf,,,0.9140550488034891
544,2.6127400212978853,2.394556371532856,-5.0072963928307415,1.7682634779222577,1.656484439500109,0.9223464585711257,5.000356394866043,22.148537335598938,2.3945563715328557,,0.5202020156036558,2.6127400212978853,2.401234174063885,inf,0.7355504268618004
545,2.5682882587270512,2.43900813410369,-5.0072963928307415,1.7660824298841327,1.7262876900397923,0.9400883777455614,5.704041213726156,69.90485891627736,2.4390081341036898,,0.5451288209179292,2.5682882587270512,2.445685936634719,inf,0.8270317370352677
546,2.5682882587270512,2.43900813410369,-5.0072963928307415,1.782498650451956,1.7583921955418593,0.9386467274527631,4.746929178249875,172.79963961098278,3.132155314663635,,0.4732203808476458,2.5682882587270512,2.445685936634719,inf,0.7264626208045675
547,2.5355173556245787,-2.5355173556245787,0.0,1.717128517172274,1.627891401942965,0.9204840911569869,4.4475473596057045,84.26085004367044,,,0.5490601803369085,2.5353581932840985,inf,,0.8656326775517433
548,4.320364934260828,-4.320364934260828,0.0,1.5950237760489996,1.2244009150345103,0.5812702024057184,1.9429728158807296,1.782006702395982,,,0.48319206230712763,4.319991243754429,inf,,0.6944829325480288
549,,0.0,0.0,1.5806690280188476,1.556619901682294,0.8759175743222255,0.5052288640190816,0.7886678581793167,,,0.4629450596409901,inf,,,0.9223402502281217
550,,0.0,0.0,1.7828133746543493,1.7489157399986635,0.8940681352594065,0.5046747587598133,0.9374293982969084,,,0.43586655696697996,inf,,,0.8670681700332221
551,,0.0,0.0,1.7803905060079255,1.7637086514515883,0.9152733029499444,0.6869957610225977,1.2015926848503478,,,0.4880666971167561,inf,,,0.888840910299378
552,,0.0,0.0,1.7679394102293047,1.7424059107105958,0.9246792044975044,0.5500791484610926,0.9285765878000056,,,0.48319206230712763,inf,,,0.8810914631438937
553,,0.0,0.0,1.695636570025485,1.6538906706672507,0.9350971291475172,0.36514795257495486,0.631453727574608,,,0.45235697871908603,inf,,,0.9136365676328657
554,,0.0,0.0,1.68130289552074,1.6440406745018648,0.9288654839250575,0.47014182114481573,0.7827320512459573,,,0.4302020962658841,inf,,,0.9085774722897177
555,,0.0,0.0,1.745139253613198,1.7288834503594024,0.41351785008678904,0.48142836080470297,0.6920279947511003,,,0.5158180382284114,inf,,,0.9512422741259857
556,,0.0,0.0,1.7143791779435882,1.6827722727864713,0.31344971863235455,0.4536381768294169,0.6182992519421597,,,0.5022576003740722,inf,,,0.9485432079397604
557,,0.0,0.0,1.7369575214023487,1.706451032840864,0.10540450947863857,0.42839298717459245,0.5738892950209527,,,0.5677978065141052,inf,,,0.7283064450663436
558,2.7521624342755033,-2.7521624342755033,0.0,1.2850158819714772,1.2568061174412348,0.8753789358445314,3.6934101043091845,2.0526268527137894,,,0.5068466436745385,2.752002088631393,inf,,0.7150181349182297
559,2.932914779646755,-2.932914779646755,0.0,1.5549000370851032,1.5162492919033799,0.9581957993945088,4.224850157251606,2.092865034720875,,,0.5202020156036558,2.932861809517117,inf,,0.9386439617823449
560,2.9320542660315874,-2.9320542660315874,0.0,1.3243606595756985,1.181640539139875,0.9305555300237813,4.010465449225752,15.419974778525038,,,0.5287703885177266,2.9320274331649974,inf,,0.7777755349132731
561,5.7037824746562,-5.494643783918806,0.0,1.7185316953746899,1.6844248628815937,0.43958232060406416,2.2279110106282696,2.446509852421132,,,0.552929491858785,5.7411382611999695,inf,,0.7213239033892458
562,,0.0,0.0,1.63315997150331,1.5904604890502643,0.878490376239645,1.3633523530296525,1.5825927212287225,,,0.49759852643134905,inf,,,0.8667103486017476
563,,0.0,0.0,1.4211886903316024,1.4134136118503646,0.3183220408944062,1.3830855943097784,2.280921661373645,,,0.4302020962658841,inf,,,0.49547825125668754
564,4.31748811353631,-4.31748811353631,0.0,1.4414818721037186,1.3755182798229915,0.780680673999957,2.7206726154902303,2.0218085991397214,,,0.6207552362147116,4.31748811353631,inf,,0.5232608712781405
565,5.7037824746562,-5.7037824746562,0.0,1.5507152347945374,1.520414902523883,0.6091340612570745,2.2455147629751684,1.5180227657921606,,,0.5641709578113449,5.703782474656201,inf,,0.6587330450476465
566,,0.0,0.0,1.5826903138156585,1.5330269807913228,0.6585813376163551,2.058137703272163,1.2826670297419067,,,0.5713653840954815,inf,,,0.7060389444885743
567,,0.0,0.0,1.7195113653002476,1.7268348463784926,0.29728737862061705,1.170730806224796,0.8057039405995199,,,0.5202020156036558,inf,,,0.8916796926160617
568,,0.0,0.0,1.7533469763199827,1.6853770043440215,0.6280601571977736,1.2884115028237346,0.8101827957170287,,,0.5202020156036558,inf,,,0.9502458155366956
569,,0.0,0.0,1.658650560597148,1.6289312995817324,0.47416726211620747,1.90054687079448,1.654057835105681,,,0.4066654671944331,inf,,,0.7305845238991252
570,5.7037824746562,-5.7037824746562,0.0,1.655254105110979,1.605574327940265,0.49999778724529526,2.2557533862804604,1.9727888178151933,,,0.5068466436745385,5.703782474656201,inf,,0.7966404207026219
571,4.757895376708833,-4.757895376708833,0.0,1.6794147970136037,1.614352367288442,0.540890727060039,1.779309534420116,1.5385570275012033,,,0.5068466436745385,4.739336700894999,inf,,0.8816598009406074
572,,0.0,0.0,1.591093250299909,1.5469835249864001,0.4792353808259594,1.4261751505140565,1.0203473207619387,,,0.5022576003740722,inf,,,0.850560737516805
573,,0.0,0.0,1.357593509889899,1.3246058496991355,0.44180526559764854,1.38679915983819,1.438877641099112,,,0.5713653840954815,inf,,,0.9168229009619648
574,5.7037824746562,-5.7037824746562,0.0,1.7242110884954092,1.6997165072974214,0.15595031536623769,1.77588010629492,2.112165195223971,,,0.49759852643134905,5.703782474656201,inf,,0.9639379342219537
575,5.703782474656201,-0.7605043299541602,0.0,1.3609085869787843,1.301593283576908,0.46435248852054134,1.6363779761013366,1.4890684120355988,,,0.5287703885177266,7.718685495198466,inf,,0.9425976772122157
576,,0.0,0.0,1.3930323143604957,1.4029214506968117,0.5892268111336108,1.073439315057013,0.9814867560219716,,,0.49759852643134905,inf,,,0.9426690831541464
577,5.7037824746562,-5.7037824746562,0.0,1.2734527125401283,1.2362065443305,0.795788064563828,2.943476744706876,2.336642845977549,,,0.4928685327679205,5.703782474656201,inf,,0.9527432907513917
578,4.356804663438053,1.3436389099526336,-5.700443573390687,1.7180820842633253,1.6756367445920402,0.7336058296723352,3.7324688552435,10.658687504837866,1.348191467418036,,0.5202020156036558,4.35225210597265,1.3548692699490654,inf,0.7952230032535257
579,4.262446037545472,-4.262446037545472,0.0,1.625484560723558,1.645362518491761,0.7381240110065583,3.214505038775867,2.884575696057219,,,0.5202020156036558,4.257648113180293,inf,,0.8471555589387718
580,,0.0,0.0,1.6216019190231414,1.542237274318966,0.5359948728123494,1.7810193868772897,0.9409515092006691,,,0.5490601803369085,inf,,,0.8265378976861565
581,,0.0,0.0,1.3781909749209116,1.2662698631929297,0.3687611045598006,1.166088421647312,1.5190481765934585,,,0.44144624493110796,inf,,,0.8159732114892007
582,,0.0,0.0,1.7797849910413062,1.747697663024634,0.8999855520366806,0.921903242625745,1.4526433973679622,,,0.4629450596409901,inf,,,0.8638637201982432
583,5.7037824746562,-5.7037824746562,0.0,1.209435955354157,1.2080906881917983,0.521534179092717,2.2453800011613207,1.8863377616904633,,,0.5113665138247345,5.703782474656201,inf,,0.7491461402347259
584,3.9120230054281455,-3.9120230054281455,0.0,1.5771172276389247,1.5261639591746508,0.8408599894529454,4.742339058965636,19.353694391406016,,,0.541134803179459,3.912023005428146,inf,,0.7886547692281012
585,3.86115328108515,-3.86115328108515,0.0,1.7736981312468987,1.6976112278571556,0.7608898590416073,3.2857262789670965,4.757469511525455,,,0.45235697871908603,3.858482238500116,inf,,0.7282981851897399
586,,0.0,0.0,1.6879000940586302,1.6291413692497394,0.6758273896616821,2.3021541081052206,1.4535597448053372,,,0.49759852643134905,inf,,,0.8332311068863222
587,,0.0,0.0,1.7618742780896404,1.7379648403448105,0.3871435383441656,1.9415872994646908,1.9113166297129116,,,0.5113665138247345,inf,,,0.6528852228638035
588,5.7037824746562,-5.7037824746562,0.0,1.7860087827012796,1.764024523532245,0.7876297360559146,2.4787091916196937,2.402506059322461,,,0.5158180382284114,5.703782474656201,inf,,0.9487669466072206
589,,0.0,0.0,1.648631109450135,1.5209851728821573,0.5615951828230229,2.6736659493403723,2.175343489966724,,,0.47824363442641393,inf,,,0.6516633535228133
590,3.7640383527939774,-3.7640383527939774,0.0,1.3047590798917612,1.259698168068823,0.6607130852681568,2.565894561976783,1.4945083400670671,,,0.40055318934786044,3.763603000309873,inf,,0.8183755318247867
591,,0.0,0.0,1.475960546562645,1.4414236298270988,0.6041866085705764,2.771980062395056,2.2738275720906778,,,0.40055318934786044,inf,,,0.5927712295374423
592,,0.0,0.0,1.6749035353602404,1.673400234102113,0.6463826425500049,2.6444793444997012,2.094932137604033,,,0.4732203808476458,inf,,,0.8532653157758202
593,,0.0,0.0,1.5083425073216736,1.509051751935138,0.5419435404446742,1.8534439082873433,1.4181302434343235,,,0.5068466436745385,inf,,,0.7691965245101064
594,,0.0,0.0,1.655814391230375,1.6677810176228773,0.48380109147077804,1.5918311542048995,1.8382545626357059,,,0.5329562494928909,inf,,,0.9535555264303854
595,,0.0,0.0,1.6664650082498365,1.565909561001029,0.4857597642308227,1.3724668854599738,1.2106165747865765,,,0.5068466436745385,inf,,,0.806788633290864
596,5.7037824746562,-5.7037824746562,0.0,1.7866704821983044,1.7317221573139692,0.6071430048241545,1.906276241334113,1.019562019519738,,,0.5287703885177266,5.703782474656201,inf,,0.49938511893131055
597,4.605170185988091,-4.605170185988091,0.0,1.5397613985928014,1.483560686452617,0.4980899185063641,2.22069185034926,2.238094790888383,,,0.468121228110369,4.605170185988091,inf,,0.5543043842274704
598,,0.0,0.0,1.5496938610454989,1.5362713863798272,0.5196200033752684,1.8273834561179834,1.4005137261020915,,,0.5158180382284114,inf,,,0.9385633864069627
599,5.7037824746562,-5.7037824746562,0.0,1.5160233248833344,1.499174257026002,0.6091564897347576,1.6824674960185366,0.8272159433522459,,,0.48319206230712763,5.703782474656201,inf,,0.7110656460903154
600,5.7037824746562,-5.7037824746562,0.0,1.6845705778877824,1.5894990844621635,0.5366403798837082,1.0189155128735785,0.8325709593050354,,,0.5158180382284114,5.703782474656201,inf,,0.6744520170756251
601,,0.0,0.0,1.6653897716473147,1.650982491303825,0.21605391296264304,0.7462659684809717,0.9307229573820718,,,0.5022576003740722,inf,,,0.9544649206303293
602,,0.0,0.0,1.6211158534092909,1.5887387017306882,0.46029711644760646,0.8356910442076338,1.3718487761354425,,,0.5451288209179292,inf,,,0.8821743219268957
603,,0.0,0.0,1.5940921007008924,1.5621703314349535,0.9411284036341,0.7994027188763221,1.450197389588387,,,0.47824363442641393,inf,,,0.8916687361574667
604,,0.0,0.0,1.4844987964045238,1.4756765765881,0.3931258608467141,0.8882310246244363,1.0261241556356193,,,0.5068466436745385,inf,,,0.9461871134563222
605,,0.0,0.0,1.7042579993973666,1.6953103180137499,0.6299246888711957,0.9746933176058968,1.146383386955377,,,0.4302020962658841,inf,,,0.9346029465602624
606,,0.0,0.0,1.5584975892071582,1.5282138026752132,0.8027996663385912,0.9851433716302885,1.5425548681383927,,,0.4576907132971797,inf,,,0.9140752798801556
607,,0.0,0.0,1.7300487023542928,1.7173373202745927,0.3438243669831337,0.6177868497571583,0.6455792795605553,,,0.42445136339222655,inf,,,0.9336299276014081
608,,0.0,0.0,1.7736420533086368,1.7472679162730156,0.41956319935735603,0.5334176663985306,0.5659149550840743,,,0.44694259446804574,inf,,,0.945246970417211
609,,0.0,0.0,1.6907891425407353,1.688093986963328,0.6111371147856729,0.5899852750956089,0.596815711375284,,,0.5022576003740722,inf,,,0.9451806812700959
610,,0.0,0.0,1.4216441791660317,1.3151226801911335,0.3735782154201608,0.7145525433631532,0.6921329875785135,,,0.5022576003740722,inf,,,0.9402920905988
611,,0.0,0.0,1.3964385010979685,1.3977526718938609,0.7077998670653961,0.6593218800897751,0.6333624209683308,,,0.44694259446804574,inf,,,0.936080782324818
612,,0.0,0.0,1.736567409807671,1.586344805375157,0.4195423641297917,0.8480981773484111,0.6389611922435817,,,0.47824363442641393,inf,,,0.9454332871441387
613,,0.0,0.0,1.5516865236967818,1.5698969338986954,0.3873219967015406,0.6726466953871063,0.611298157439786,,,0.42445136339222655,inf,,,0.9564740354344975
614,,0.0,0.0,1.451596078389697,1.328202555143027,0.5826876340709317,1.204920764093212,1.0664583668045355,,,0.3751344627501719,inf,,,0.9453616802402018
615,5.345656431366895,-5.345656431366895,0.0,1.6534522350599423,1.6150919366294993,0.5958345041905747,2.07819630736274,1.1807670572371376,,,0.5641709578113449,5.287267530361452,inf,,0.8069054752820303
616,5.7037824746562,-5.7037824746562,0.0,1.6604723454868795,1.6446663803598853,0.6808290494797538,2.4163509508354104,1.2815454304431362,,,0.5202020156036558,5.703782474656201,inf,,0.5840258394018245
617,,0.0,0.0,1.6958682601368773,1.6669008897434279,0.41893952532738693,1.33527822167508,1.0074039855386645,,,0.43586655696697996,inf,,,0.6770022103679875
618,5.7037824746562,-5.7037824746562,0.0,1.5927996953580887,1.5815860293890263,0.5290693155107925,1.0016236757434578,0.8154071332103832,,,0.47824363442641393,5.703782474656201,inf,,0.94891081020824
619,,0.0,0.0,1.7608259596434415,1.761737525492927,0.4096172084823558,0.513270236310415,0.5507411445837372,,,0.44144624493110796,inf,,,0.9493564576324726
620,5.7037824746562,-5.7037824746562,0.0,1.6382687275520305,1.5931510970494285,0.5749033022979453,1.566951415771333,1.2563778401467935,,,0.47824363442641393,5.703782474656201,inf,,0.5260493891991024
621,5.7037824746562,-5.7037824746562,0.0,1.7375573126544475,1.6423667304389187,0.48820369638564065,1.5486263174093746,1.3034709226194405,,,0.5158180382284114,5.703782474656201,inf,,0.6311251104288255
622,,0.0,0.0,1.7170796430663398,1.672686386520999,0.5174656184169406,0.7447209233236272,1.2227113108514915,,,0.5202020156036558,inf,,,0.9505132720386604
623,,0.0,0.0,1.7800066686110176,1.7617248017953087,0.8308589508984311,0.6697750714787389,1.0582076861719918,,,0.5567373465730988,inf,,,0.9165155556015767
624,,0.0,0.0,1.715283815654288,1.681943401274818,0.8743895123487376,1.0563689707713273,1.80847264774665,,,0.468121228110369,inf,,,0.9144406087784102
625,,0.0,0.0,1.732548618510947,1.6957434580112938,0.5936645701124826,1.28422260025769,2.0756345984204025,,,0.5202020156036558,inf,,,0.8868317547048445
626,,0.0,0.0,1.592784521080417,1.5627172531271731,0.481158246511778,1.3095699469832043,0.8810104106768548,,,0.4629450596409901,inf,,,0.6115028608956886
627,,0.0,0.0,1.7242012195016776,1.6949916696600928,0.6294973439468834,1.7925916050575685,1.4163693387538399,,,0.4302020962658841,inf,,,0.9171910979168258
628,,0.0,0.0,1.7764019056201206,1.7610709108761895,0.7220670212241774,1.0324778886131336,1.1654856618219394,,,0.49759852643134905,inf,,,0.9330396258097793
629,,0.0,0.0,1.6856679868017759,1.667536506317134,0.6867158115565015,1.0169685211367157,1.160373833435727,,,0.44694259446804574,inf,,,0.9107466184988332
630,,0.0,0.0,1.7360109521805267,1.730820283617852,0.47719448031057465,1.0255995306313077,0.966109873180794,,,0.524519217297268,inf,,,0.6410406852682121
631,5.40110820581169,-5.40110820581169,0.0,1.7695166083486464,1.7459135237109644,0.7138901228928293,2.4567288100227054,1.7385470110391648,,,0.524519217297268,5.341456859208654,inf,,0.8346840043985528
632,3.5065578973199822,2.1938856760707046,-5.700443573390687,1.7777776031683958,1.6604279632560062,0.665980473340175,3.3469445472508075,4.969043368342187,2.1938856760707046,,0.48319206230712763,3.506557897319982,2.200563478601734,inf,0.8495641646978142
633,5.170059145625042,-5.170059145625042,0.0,1.7569075038910136,1.693348914906742,0.671079223725172,2.987930635075865,3.0692953217729317,,,0.4576907132971797,5.132802928070463,inf,,0.8634128223548285
634,5.7037824746562,-5.7037824746562,0.0,1.6849100246374307,1.6529327050161386,0.48204290967328506,1.8102503817936182,0.8706301681638187,,,0.5287703885177266,5.703782474656201,inf,,0.545139727938299
635,4.605170185988091,-4.605170185988091,0.0,1.6667667610023151,1.5001420056064938,0.5027482072832624,1.4502123587997287,0.8083113969613971,,,0.4732203808476458,4.605170185988091,inf,,0.9355607261758095
636,3.9120230054281455,-3.9120230054281455,0.0,1.746984049303601,1.7047494656078375,0.6367176332660914,1.425246700200532,0.49798801454047603,,,0.4629450596409901,3.912023005428146,inf,,0.8923645920904769
637,5.010635294096255,-5.010635294096255,0.0,1.5789841829072473,1.5115637869773206,0.5179831741344982,1.2709375307274602,0.6606427254578442,,,0.5113665138247345,5.0106352940962555,inf,,0.8847584472642733
638,4.0943445622220995,-4.0943445622220995,0.0,1.4659307530895371,1.422802494520369,0.6288564280754283,2.2463446493352355,0.9933819905606533,,,0.524519217297268,4.0943445622221,inf,,0.635339798235115
639,5.7037824746562,-5.7037824746562,0.0,1.5876830453872048,1.547179720053665,0.3403106893668559,0.6884956847966995,0.8176509105549635,,,0.49759852643134905,5.703782474656201,inf,,0.9476567301481219
640,,0.0,0.0,1.6016155366059828,1.5664116081954154,0.4688887634960558,1.1514998628368478,0.7265065980881207,,,0.4880666971167561,inf,,,0.6837021295000176
641,4.0943445622220995,-4.0943445622220995,0.0,1.5866714952716756,1.4707056321983814,0.48342197488777394,1.2099857382025743,0.6954561151664118,,,0.524519217297268,4.0943445622221,inf,,0.8492620260855527
642,,0.0,0.0,1.7503962887117235,1.7258698172796223,0.40293065668322625,0.7725101339768905,0.8869796645194807,,,0.44694259446804574,inf,,,0.6068993464536799
643,,0.0,0.0,1.6600888901261195,1.5421515697461514,0.18384501086360178,0.45962372167510335,0.5764616938258607,,,0.4629450596409901,inf,,,0.7633893562053932
644,,0.0,0.0,1.6000908116181307,1.6083571211595682,0.3469127915606052,0.7187595668054362,0.6955018160318488,,,0.4880666971167561,inf,,,0.5872533008289939
645,,0.0,0.0,1.5306566720214114,1.5227840492393223,0.06846528818455187,0.5499811361492664,0.8189390954153384,,,0.3943459996787778,inf,,,0.9695469669306485
646,,0.0,0.0,1.4417067006797404,1.4269191109474388,0.9135364681200303,0.35237567794640684,0.6728416245028171,,,0.5068466436745385,inf,,,0.8702997720900406
647,,0.0,0.0,1.3529456047322732,1.3265724845053681,0.6681192589332724,0.36987418115775017,0.6477530087753334,,,0.41861278947482794,inf,,,0.8999275455272387
648,,0.0,0.0,1.4604636558603385,1.4698866112814228,0.8566067940496267,0.4446299432048409,0.7011699710317602,,,0.5068466436745385,inf,,,0.8889278055758428
649,,0.0,0.0,1.7792240207821486,1.7543963369555533,0.5678555668893697,0.5334714350772016,0.8699694563927128,,,0.5113665138247345,inf,,,0.9448547062412238
650,,0.0,0.0,1.621673595580173,1.599647543963031,0.3655563429601024,0.5982245942360741,0.9623983662658312,,,0.581717464821069,inf,,,0.94171888158187
651,,0.0,0.0,1.5041127399955285,1.4797638767761614,0.5887507323084117,0.4577158580847542,0.7840961997015099,,,0.44144624493110796,inf,,,0.931001542811745
652,4.517580065327201,-4.517580065327201,0.0,1.4076915366883112,1.3946922808598607,0.4560753177849861,1.2662927927575789,0.8683765420709524,,,0.524519217297268,4.480007043034085,inf,,0.8749266969541453
653,,0.0,0.0,1.6176041510421593,1.567619644870575,0.508509141478079,1.582875852732891,1.9229946167649523,,,0.5677978065141052,inf,,,0.8248748937715082
654,,0.0,0.0,1.4146456410569472,1.3870010830342372,0.3880700373064051,1.3113758818849728,1.3962270799256227,,,0.5068466436745385,inf,,,0.9544074276217973
655,,0.0,0.0,1.5877852178706278,1.5482824716923855,0.758197421419162,1.0581493326592841,1.3969081035146445,,,0.48319206230712763,inf,,,0.9320722956679388
656,,0.0,0.0,1.5194798844820725,1.449084483107639,0.36602907605634727,1.872018518259345,3.0691990223062606,,,0.5113665138247345,inf,,,0.654008592028899
657,5.7037824746562,-5.7037824746562,0.0,1.113149273404457,1.1098105829513802,0.6251091678043977,2.5511124165019794,3.7758829348277887,,,0.4880666971167561,5.703782474656201,inf,,0.7189269233030487
658,4.605170185988091,1.095273387402596,-5.700443573390687,1.7123551690647536,1.703827304637257,0.41210826170856574,2.2505439194389028,1.3929726490985508,,,0.5068466436745385,4.605170185988091,1.1019511899336245,inf,0.6108155337110805
659,,0.0,0.0,1.474800033616194,1.4563864556434403,0.4334641145758937,1.243187601972001,1.0609949959201543,,,0.4576907132971797,inf,,,0.9454436993981558
660,,0.0,0.0,1.3795974570591372,1.3407751323672836,0.547421449789286,1.633107275920047,1.2479021291908137,,,0.541134803179459,inf,,,0.8760265106989299
661,,0.0,0.0,1.5738931386935238,1.5474596194949015,0.6596617945176457,0.954972843908414,1.3011808618674736,,,0.4732203808476458,inf,,,0.923489226361012
662,,0.0,0.0,1.6503419611981127,1.6527791638982694,0.6784033810403066,0.7521589769294885,1.2658989310340107,,,0.5641709578113449,inf,,,0.9402397495799767
663,,0.0,0.0,1.630310819270641,1.623595031909823,0.22893710592636848,0.6644677875640914,0.8440755104526431,,,0.524519217297268,inf,,,0.8430308406881651
664,,0.0,0.0,1.6896989882167914,1.635659772080933,0.3881542330787093,1.440773662040368,1.6085162337231067,,,0.41268473150466,inf,,,0.6338766873439637
665,,0.0,0.0,1.697884597466294,1.6887691296618972,0.19161799533061907,1.2459777714332836,1.7670500843379378,,,0.4066654671944331,inf,,,0.6711839039273195
666,5.010635294096255,-5.010635294096255,0.0,1.7737100537679324,1.7593818971511932,0.33715256517131176,1.889754215785296,1.013263355729143,,,0.6038851895711802,5.0106352940962555,inf,,0.691086490996585
667,,0.0,0.0,1.7649735967351525,1.7018796046983728,0.6083168905218592,0.5119472875666817,0.651964279712605,,,0.4576907132971797,inf,,,0.8984214155214341
668,,0.0,0.0,1.4962450033281316,1.4850575311317087,0.47182331726613774,0.5578544521105255,0.5823748013449974,,,0.552929491858785,inf,,,0.9443290545272842
669,,0.0,0.0,1.4900461933404001,1.49982177565511,0.15042263816323828,0.7361121828476921,0.7322082376760969,,,0.524519217297268,inf,,,0.9451837615105725
670,,0.0,0.0,1.7799694974431268,1.74876465900605,0.899186361602353,0.5546518648840143,0.7774445235348735,,,0.38163879478178075,inf,,,0.9288685779981392
671,,0.0,0.0,1.5753182123342513,1.5766249065700206,0.1715833578584697,0.8576582072229116,0.8822335834441835,,,0.4732203808476458,inf,,,0.6564697346820539
672,,0.0,0.0,1.6440327058667927,1.6368767819987178,0.6827348710660753,0.7857629381620299,0.8547955592212664,,,0.45235697871908603,inf,,,0.9311119111689508
673,,0.0,0.0,1.7429041108559502,1.7410022956332436,0.6362715881752843,0.784396439514748,0.9498436094205965,,,0.44144624493110796,inf,,,0.939556503884107
674,,0.0,0.0,1.4628967346225394,1.4258900226620526,0.6361951593740626,1.952365332139432,2.0725473777836045,,,0.49759852643134905,inf,,,0.9346337825325368
675,,0.0,0.0,1.616227594316629,1.586583003030402,0.7420035076548315,1.2791178699266499,1.4849742144698708,,,0.4302020962658841,inf,,,0.9136407226571255
676,,0.0,0.0,1.7277053984484578,1.6847722598832475,0.7699440216798179,0.8844299379035292,0.9850287958757258,,,0.581717464821069,inf,,,0.8692947725401289
677,,0.0,0.0,1.7594382749020832,1.7434045088847057,0.687165207672844,1.2806852587971613,1.5549701911924254,,,0.5113665138247345,inf,,,0.9080117190053582
678,,0.0,0.0,1.444040464395336,1.4205276953290065,0.6225243116204644,1.0698906072705385,1.0352762218335472,,,0.5567373465730988,inf,,,0.9418289859265156
679,,0.0,0.0,1.6808664966211808,1.6552894487287553,0.41423867203401943,0.9293603676468534,0.8561940171300478,,,0.47824363442641393,inf,,,0.9557554031349329
680,,0.0,0.0,1.4272787219448044,1.3960423657129355,0.8337452498382428,0.36107834332304606,0.49458737766211386,,,0.47824363442641393,inf,,,0.9093054774119493
681,,0.0,0.0,1.7437272910206212,1.7269228570625677,0.8110688626412561,0.30163870581317187,0.36751079675157194,,,0.4880666971167561,inf,,,0.9145446793722161
682,,0.0,0.0,1.4797534374158086,1.4919512895439297,0.8802592205719955,0.3598044393369628,0.47868199810065487,,,0.4928685327679205,inf,,,0.8624750058302746
683,,0.0,0.0,1.6247005980221152,1.6076047380031628,0.9139943724461708,0.37524306922282313,0.5637738789201243,,,0.5068466436745385,inf,,,0.8424602067075577
684,,0.0,0.0,1.5428267910990794,1.5336665233168654,0.8988312273287471,0.44915582935814835,0.6934060202104441,,,0.48319206230712763,inf,,,0.8749091388752206
685,,0.0,0.0,1.3993615239610773,1.376391365788671,0.9309911516953487,0.373115841503463,0.5523613359822788,,,0.38804190201132227,inf,,,0.8414977168481
686,5.703782474656201,-3.3652316600471583,0.0,1.5855663881138093,1.5415326855525824,0.21481888591135967,0.7695016983168362,0.8567536962288533,,,0.4629450596409901,6.231415216738573,inf,,0.826930692349781
687,,0.0,0.0,1.6968249123786845,1.695050384040836,0.9090383221784847,0.3099465314689345,0.45795800327224784,,,0.45235697871908603,inf,,,0.9063200478798994
688,,0.0,0.0,1.739977724790017,1.7076322936769963,0.8709509914943305,0.4054983568678509,0.6776014571338698,,,0.48319206230712763,inf,,,0.9009616880437481
689,,0.0,0.0,1.6829391299791359,1.6449254555532078,0.9281124888194199,0.5222390432387837,0.8069597367991576,,,0.41268473150466,inf,,,0.9073997186264088
690,5.010635294096255,-5.010635294096255,0.0,1.717863181756138,1.6083492011225924,0.260851919808267,0.7367220424441752,0.8903965783029076,,,0.44144624493110796,5.0106352940962555,inf,,0.5437682231761175
691,5.010635294096255,-5.010635294096255,0.0,1.673478088642629,1.6478760494423141,0.7479916126421764,3.558678430150346,5.7316245118921225,,,0.5641709578113449,5.0106352940962555,inf,,0.7128343300619782
692,3.4970754509107778,-3.4970754509107778,0.0,1.7419864450551537,1.7153549811629945,0.8761212416832231,5.193448373382594,4.253792989002907,,,0.5490601803369085,3.4966075664668135,inf,,0.9310865709336765
693,2.479154278525519,3.221289294865168,-5.700443573390687,1.7484612191778701,1.71947895731706,0.8618670279132566,4.409809270160807,37.740407182784544,3.221386448391578,,0.4629450596409901,2.4790571249991085,3.228064250922607,inf,0.9051305664411489
694,2.503137618217535,-2.503137618217535,0.0,1.7394319077901266,1.7267148119706703,0.9329762211167457,5.7794526117739,6.538116908658805,,,0.5329562494928909,2.5027991026295884,inf,,0.9086025907261392
695,2.7809703839978703,1.3180107808148303,-4.098981164812701,1.7574224395692166,1.719967111826338,0.9155167279585256,4.907361215168071,58.01013238172947,3.6857923197136357,,0.5748741956352443,2.7806208939370456,3.256306027247694,inf,0.8783454679414104
696,2.332531463640897,3.3679121097497897,-5.700443573390687,1.7528107847346506,1.7263329995208776,0.8704239151621771,6.634915895205772,40.67193203146627,3.3679718466464412,,0.4928685327679205,2.332471726744245,3.3746496491774707,inf,0.8706688373351378
697,2.6115546409626633,-2.6115546409626633,0.0,1.7425951717992338,1.7147112804919378,0.8968186373128934,6.685682354392272,94.21972329309837,,,0.5883313578629602,2.611528634111588,inf,,0.8924744161933279
698,3.4823265180808813,-3.4823265180808813,0.0,1.4935104201266114,1.1825253539194134,0.7453975597398725,1.9068335638471203,1.4792609091044397,,,0.5113665138247345,3.480601404449424,inf,,0.8277796081240093
699,,0.0,0.0,1.7741915970624915,1.7460962886242208,0.8296469068097759,0.5726166458606045,0.6740936389730285,,,0.468121228110369,inf,,,0.8881581777486617
700,,0.0,0.0,1.7754800412214355,1.7503467131826351,0.8902759688068498,0.2762443202764712,0.42603173659422516,,,0.42445136339222655,inf,,,0.8736517830609687
701,4.587909261640984,-4.568844232967437,-0.019065028673547448,1.4175703733104883,1.2706084164276847,0.41976205514290493,0.7514001287835473,0.49820342472841084,6.815519588089462,,0.5068466436745385,4.585367558691911,6.822197390620491,inf,0.7339388823722605
702,4.31748811353631,-4.31748811353631,0.0,1.5799951804217218,1.4732203877851051,0.576465963319141,1.3256543574628454,0.6802690575858188,,,0.524519217297268,4.31748811353631,inf,,0.6219212989296763
703,5.7037824746562,-5.7037824746562,0.0,1.4427071804277385,1.4108677470636213,0.607715755179818,1.1476268494964128,0.7500686650939279,,,0.4732203808476458,5.703782474656201,inf,,0.7794321848544351
704,5.7037824746562,-5.7037824746562,0.0,1.5976498048194425,1.5797260637526773,0.6429152305063829,2.3355108138696328,1.2087759069755557,,,0.4880666971167561,5.703782474656201,inf,,0.9019839532470458
705,,0.0,0.0,1.6796383842099292,1.6111481293137246,0.5836293202372547,1.699266092374812,0.9498962832348272,,,0.5604843169999094,inf,,,0.6593606404944808
706,,0.0,0.0,1.7550128488836736,1.7029529156453918,0.45982517515711363,1.4530857591148965,0.900332209096343,,,0.5604843169999094,inf,,,0.6625145243879768
707,5.685298549841268,-5.685298549841268,0.0,1.6405036697470126,1.5819326987340034,0.40749824252383704,1.7453876958480894,0.9253496507970604,,,0.5158180382284114,5.677465166338828,inf,,0.6099891391656626
