,bvp+temp_XAp0,bvp+temp_XAp1,bvp+temp_XAp2,bvp+temp_XCond1,bvp+temp_XCond2,bvp+temp_XDist,bvp+temp_XFuzz1,bvp+temp_XFuzz2,bvp+temp_XK2_1,bvp+temp_XK2_2,bvp+temp_XPermEn,bvp+temp_XSamp0,bvp+temp_XSamp1,bvp+temp_XSamp2,bvp+temp_XSpec
0,5.2763417133109005,-5.2763417133109005,0.0,1.738201253301908,1.6854526273537287,0.7798431492226644,3.204605869074338,2.7558057188732388,,,0.5022576003740722,5.2234160583749185,inf,,0.9474279786014896
1,5.703782474656201,-1.3689077939174883,0.0,1.5044622812829846,1.4767449294818105,0.673078865794146,2.301100103349152,2.0397374976526046,,,0.5604843169999094,7.1308988302963465,inf,,0.9218012600845004
2,4.605170185988091,-4.605170185988091,0.0,1.5763778255322167,1.5952422882047874,0.5776236500246723,2.5727878210861737,3.704219200395741,,,0.524519217297268,4.605170185988091,inf,,0.726800906570176
3,4.29785372587673,-4.29785372587673,0.0,1.678195321064783,1.6363374543560567,0.7506738216953003,3.6866907955122574,4.49400243988711,,,0.44694259446804574,4.293608839746367,inf,,0.9230330461534663
4,5.010635294096255,-5.010635294096255,0.0,1.7393796586438584,1.6946992466086321,0.6740979888557224,2.592156376201833,2.3335555940800012,,,0.5713653840954815,5.0106352940962555,inf,,0.7653575184782405
5,5.7037824746562,-5.7037824746562,0.0,1.7056783945057354,1.6952838631216398,0.690486003267789,2.0887126557715496,1.497570058901684,,,0.5883313578629602,5.703782474656201,inf,,0.859111618038783
6,5.7037824746562,-5.7037824746562,0.0,1.619713194385783,1.6017307524813404,0.6569513011316012,2.112590789395246,1.3195795601269422,,,0.48319206230712763,5.703782474656201,inf,,0.8125764361202292
7,4.711942664456574,-4.711942664456574,0.0,1.633048434781177,1.610607455989232,0.6202941029751893,2.4871497414979578,2.9200087440603286,,,0.26342377874763145,4.697041839859974,inf,,0.8621548947674748
8,,0.0,0.0,1.633048434781177,1.6429406338969887,0.4738605484142427,1.962795765726882,2.093746818509943,,,0.3265551233283096,inf,,,0.9492798478484169
9,5.7037824746562,-5.7037824746562,0.0,1.633048434781177,1.539696856282684,0.6698413932849149,2.1545755954302166,1.9589410218964107,,,0.21876365787541036,5.703782474656201,inf,,0.8897879041976413
10,4.74568832612174,-4.74568832612174,0.0,1.3041495896790578,1.2521778638838241,0.8549040578778169,3.3461296842418173,3.3886564328693467,,,0.524519217297268,4.610741231037546,inf,,0.9350027312897056
11,5.576705491553543,-5.576705491553543,0.0,1.7022172681100403,1.7084229447814792,0.8870372681488202,3.658112614506857,25.355597341002902,,,0.5202020156036558,5.535447159836986,inf,,0.9047325352677822
12,4.752489175267391,-4.752489175267391,0.0,1.6012070326129457,1.5964521685820825,0.8039526105606858,3.806597172457069,4.535643354210239,,,0.468121228110369,4.7342669815447485,inf,,0.9452561235053437
13,,0.0,0.0,1.0958320382004412,1.0758257071736592,0.8610276640508373,3.4904582520357095,5.043554452218462,,,0.48319206230712763,inf,,,0.9013512126223728
14,5.646020209609539,-5.646020209609539,0.0,1.5882416440060894,1.5538764411453012,0.800933030661137,3.243358597012534,1.9788333638789077,,,0.5068466436745385,5.6237397669826645,inf,,0.9538545809840613
15,5.121538842985845,-5.121538842985845,0.0,1.6538524239273231,1.618141337366953,0.8223373031726702,3.24651808160861,2.798255991305654,,,0.5783247308855777,5.094016903035307,inf,,0.9342277009958799
16,,0.0,0.0,1.6514248870381412,1.6240138823624015,0.7973846378172054,3.819184717937934,5.122117410814232,,,0.4880666971167561,inf,,,0.8785594900601842
17,5.570304808129454,-5.496034077354395,0.0,1.4212882796219406,1.3232285085247377,0.7151178875243626,3.4840190650927845,7.011885884123297,,,0.581717464821069,5.541096892379105,inf,,0.7509680498830253
18,4.7443798731052285,-4.7443798731052285,0.0,1.6750461293690955,1.6533414754719384,0.7075037366331021,2.9957815077922705,2.342073205074831,,,0.4732203808476458,4.726710270522187,inf,,0.9420248799568202
19,3.7473470517308107,-3.7282820230572633,-0.019065028673547448,1.713317920355808,1.6996820494805813,0.7339404425799415,3.3240905406114694,2.744377464174571,,,0.524519217297268,3.746037867953885,7.661527081358517,inf,0.6999479444841747
20,5.7037824746562,-5.7037824746562,0.0,1.4736661498034493,1.4277839934311136,0.6734312583803445,3.514375070671204,9.44185408883384,,,0.5451288209179292,5.703782474656201,inf,,0.8458343648547112
21,5.574002390832822,-5.574002390832822,0.0,1.5631164242299813,1.5503568772144327,0.6854563312559685,2.9176695431396262,3.696786674589741,,,0.524519217297268,5.485986529668587,inf,,0.8865447548475722
22,5.7037824746562,-5.7037824746562,0.0,1.5107163251320903,1.5071710742730253,0.8286096499872534,3.4489133258695173,7.050465881520229,,,0.541134803179459,5.703782474656201,inf,,0.6600651368662559
23,3.762447874006093,-3.762447874006093,0.0,1.6305622980267322,1.5609432372104364,0.6958616546649591,3.044368867055391,2.878783874715908,,,0.541134803179459,3.756444773609702,inf,,0.6641419937264663
24,5.049913634327985,-5.049913634327985,0.0,1.576953129675497,1.5595738771256475,0.8140508879863462,3.0083541436402306,4.57365410599037,,,0.5329562494928909,5.03937776296191,inf,,0.7111293964562203
25,4.0943445622220995,-4.0943445622220995,0.0,1.7099616840478657,1.686602669508419,0.6899742890910573,3.356196731101533,3.3487241131935783,,,0.5451288209179292,4.0943445622221,inf,,0.7547183888335404
26,3.401197381662155,-3.401197381662155,0.0,1.506438519253182,1.4616509484336457,0.7332770864818359,3.9886476970288838,9.67100297299082,,,0.5370774965580548,3.4011973816621555,inf,,0.7544923935226902
27,5.010635294096255,-5.010635294096255,0.0,1.6872021650463525,1.6700884854916471,0.6746945115441161,2.8461797142802183,4.342170761134128,,,0.541134803179459,5.0106352940962555,inf,,0.8308631549960558
28,,0.0,0.0,1.6811446338024318,1.6235126628306018,0.5094017652040286,2.4238392358236034,2.224139429616729,,,0.5202020156036558,inf,,,0.7890273073514641
29,4.5985775650879965,-4.200034176113704,0.0,1.5859765715441645,1.550197643027967,0.6438560330759266,2.5181317007162436,1.9356476028873857,,,0.5883313578629602,4.530268877814973,inf,,0.670486186244867
30,3.517943590766766,-3.517943590766766,0.0,1.3009116725514813,1.2461009263293268,0.7375286506621636,3.261120401616022,3.003276516092222,,,0.45235697871908603,3.517356736202441,inf,,0.605571260042099
31,4.31748811353631,-4.31748811353631,0.0,1.5503224851353534,1.5186864367056796,0.6252129246071048,3.0984515602539346,2.524983950146655,,,0.581717464821069,4.31748811353631,inf,,0.8913820249012095
32,5.347966921968761,-2.4119525062424545,-2.936014415726307,1.65904187546465,1.6324038231460662,0.7000718731219502,2.683299647796611,1.9454535464645306,,,0.5158180382284114,5.289467751271054,1.0811445956277188,inf,0.7461424584614273
33,5.7037824746562,-5.7037824746562,0.0,1.4556435975823168,1.4086565250966774,0.623884842526602,2.568255373457683,2.257630670873305,,,0.5022576003740722,5.703782474656201,inf,,0.9468710412468073
34,4.605170185988091,-4.605170185988091,0.0,1.6156562092076001,1.6111234563270032,0.6407365250269941,2.5142926111144503,2.3938806876774468,,,0.5783247308855777,4.605170185988091,inf,,0.938106163430022
35,,0.0,0.0,1.6855588555465397,1.635062350318768,0.4741161363765662,2.1635932930066266,2.044075011757751,,,0.45235697871908603,inf,,,0.929951605580978
36,5.7037824746562,-5.7037824746562,0.0,1.7267005179563146,1.7165073492281617,0.7342724468122067,3.038069867147608,3.3349958319161694,,,0.5490601803369085,5.703782474656201,inf,,0.9095060862412795
37,3.624340932976365,-3.624340932976365,0.0,1.6389180549079887,1.5986088286636024,0.7842860392031521,3.418624549260815,1.9980288990110004,,,0.5641709578113449,3.624340932976365,inf,,0.7493476298480174
38,3.846252048701849,-3.846252048701849,0.0,1.6584406534455238,1.6543359094101806,0.6775653848301395,3.1533130868192485,2.552178292718621,,,0.5490601803369085,3.8433264741419113,inf,,0.7583702270066515
39,5.7037824746562,-5.7037824746562,0.0,1.6758432027927976,1.649829469229728,0.7383040276074493,2.9818436650602256,2.179635759670714,,,0.5113665138247345,5.703782474656201,inf,,0.9414647472434688
40,3.4049104055678194,-3.4049104055678194,0.0,1.7539122441744213,1.7106157001647573,0.8454490147368935,4.459005793341418,6.459679793834274,,,0.5451288209179292,3.40453628292767,inf,,0.6533326971060953
41,3.3173244234343504,-3.3173244234343504,0.0,1.7556007338523323,1.7334220889157206,0.7977747665148818,4.179988468557858,9.96908926143476,,,0.5883313578629602,3.3168562332284046,inf,,0.8509419294714232
42,4.883370670107305,-4.883370670107305,0.0,1.5876219753054683,1.5351099427754598,0.6257613888016472,2.6800770492772763,1.945991731411075,,,0.5604843169999094,4.860779538551879,inf,,0.8012660704356814
43,4.0943445622220995,-4.0943445622220995,0.0,1.5227102651251772,1.5282542933178191,0.6531710989687395,3.1557186884570725,2.091318868403578,,,0.541134803179459,4.0943445622221,inf,,0.7489034816244678
44,5.370679942655661,-5.06634141257184,0.0,1.588779841714727,1.52779782880976,0.6177153174433441,2.7666300179071386,1.5628891743775357,,,0.5158180382284114,5.369694029390264,inf,,0.6849304011932963
45,4.31748811353631,-4.31748811353631,0.0,1.6752555656010004,1.6643069373220034,0.7178684917678076,3.248918141682016,3.35525874446761,,,0.5113665138247345,4.31748811353631,inf,,0.7133821945468803
46,5.7037824746562,-2.680777763088414,0.0,1.3551216583528567,1.3042377138666887,0.7083099071082043,3.625907120901799,3.2428072859336985,,,0.524519217297268,6.458805058934233,inf,,0.6718230390920474
47,4.657880650042152,-4.657880650042152,0.0,1.6931938759119252,1.6848296256220783,0.5726769129935981,3.3244006266015798,2.6703524315197944,,,0.4732203808476458,4.649470444884671,inf,,0.9065691818840782
48,3.552885891344826,-3.552885891344826,0.0,1.6843447138791192,1.6514906116413843,0.8172645600268476,3.8895991291597576,4.351275440466503,,,0.5978297680564633,3.5512453779058144,inf,,0.7322640077677282
49,3.6724122343211936,-3.6724122343211936,0.0,1.697997808930305,1.6790038217803356,0.7914747240056874,3.6751025213618744,2.2271289113058477,,,0.5490601803369085,3.670384871477772,inf,,0.8077268562087353
50,4.31748811353631,-4.31748811353631,0.0,1.6432946540208262,1.615987357302493,0.7603540093225052,3.6171643232960538,5.601824716705236,,,0.552929491858785,4.31748811353631,inf,,0.9021290280555354
51,4.5869503213994784,-4.5869503213994784,0.0,1.6397301076310704,1.612798579824072,0.6643884048773921,2.4993507389838805,2.260010102640078,,,0.5451288209179292,4.584278826956715,inf,,0.7736022079601259
52,3.401197381662155,-3.401197381662155,0.0,1.6515446397805071,1.588975277302713,0.7559282351171511,3.0077940157238734,2.554673545566867,,,0.4880666971167561,3.4011973816621555,inf,,0.8758295021607789
53,3.407330068634066,-3.407330068634066,0.0,1.4106224657948059,1.4023779501628308,0.7159177402265311,3.2780839294095436,5.035070957905471,,,0.5202020156036558,3.4055401310962923,inf,,0.8262131885251309
54,5.7037824746562,-1.559033876406028,0.0,1.7110830286351204,1.6604581108848426,0.6465669938064609,2.7505320136646065,2.4775538169879896,,,0.541134803179459,7.000845702048149,inf,,0.7848061340899201
55,5.010635294096255,-5.010635294096255,0.0,1.7216479000328069,1.7102044928986642,0.7224229471196264,2.8966632671022117,2.762166952878384,,,0.48319206230712763,5.0106352940962555,inf,,0.8577482596348456
56,5.010635294096255,-5.010635294096255,0.0,1.7201344852803693,1.7196721062583866,0.6737542894047109,2.721256271395493,2.3890464519772077,,,0.5068466436745385,5.0106352940962555,inf,,0.6119491694316274
57,4.049371911546258,-4.049371911546258,0.0,1.5771612083970945,1.523266599202221,0.7270852432993936,2.886886371049481,2.971105674464824,,,0.47824363442641393,4.046189520335053,inf,,0.754729463894177
58,4.605170185988091,-4.605170185988091,0.0,1.7049062754631386,1.705009840598146,0.6606812985098613,3.3469653502401298,3.067583349970783,,,0.5370774965580548,4.605170185988091,inf,,0.6572254514273427
59,5.206234814575949,-5.206234814575949,0.0,1.7058732843262154,1.6838135758454058,0.5922314895584937,3.2074435147913394,2.546820397649602,,,0.5370774965580548,5.117849378403405,inf,,0.7661844583753538
60,4.168798846597965,-4.168798846597965,0.0,1.4104513828020595,1.4156016396379791,0.6818425066166822,2.729917249909585,3.26570987732679,,,0.524519217297268,4.157639412594414,inf,,0.8891805839962262
61,4.838060707317725,-4.838060707317725,0.0,1.4693208703169367,1.4716602517314985,0.5937118726204894,3.6056350326738436,6.012687153569708,,,0.6097226960127671,4.766382779571811,inf,,0.7540756089817178
62,3.9120230054281455,-3.9120230054281455,0.0,1.6727210396238243,1.6106095138670653,0.8091068855785402,4.265974407363335,51.64596393508393,,,0.4576907132971797,3.912023005428146,inf,,0.9339607897047342
63,4.0943445622220995,-4.0943445622220995,0.0,1.4785488335790133,1.4572736429280009,0.7015227139116804,4.804405500676075,13.382192637470542,,,0.5158180382284114,4.0943445622221,inf,,0.6782345564355398
64,3.841627528307032,-3.841627528307032,0.0,1.6815578774205162,1.6928518593802266,0.7449417991014552,4.026808515273258,2.399409728843736,,,0.541134803179459,3.8386692859054063,inf,,0.7834181163169249
65,4.3280364561928755,-4.3280364561928755,0.0,1.3612318724493995,1.3377835995291647,0.7714047997485767,4.784586068943124,11.039824370462238,,,0.5329562494928909,4.32669705262162,inf,,0.8129279121066436
66,5.7037824746562,-5.7037824746562,0.0,1.6525107460200772,1.652828829072899,0.7301024165354825,3.495144367801695,9.699611731614121,,,0.5490601803369085,5.703782474656201,inf,,0.8202354893992955
67,,0.0,0.0,1.6601960935803692,1.6548989114494608,0.7376167958726094,3.985265505022489,43.94836733985959,,,0.5329562494928909,inf,,,0.9079796495201138
68,5.010635294096255,-5.010635294096255,0.0,1.6265293990235863,1.614695440638375,0.7154517776419099,3.4716625778344024,4.41798594242261,,,0.45235697871908603,5.0106352940962555,inf,,0.8294464818694264
69,5.7037824746562,-5.7037824746562,0.0,1.737697083807904,1.7238232743082817,0.7490809107187408,4.338012953596174,7.779754106022352,,,0.552929491858785,5.703782474656201,inf,,0.932068878000315
70,5.010635294096255,-5.010635294096255,0.0,1.6330235972683276,1.6403217726700001,0.7984203389117036,3.1933855484221545,2.5504696961473265,,,0.5068466436745385,5.0106352940962555,inf,,0.8133946410605187
71,3.9120230054281455,-3.9120230054281455,0.0,1.6386390643944038,1.6553812203754554,0.8440370497035253,3.4100912672784727,5.972060434102525,,,0.524519217297268,3.912023005428146,inf,,0.9375479699056445
72,5.010635294096255,-5.010635294096255,0.0,1.683126281777561,1.6958382364269853,0.8178899772398993,3.850957842522625,10.71556302871542,,,0.541134803179459,5.0106352940962555,inf,,0.9289896608495243
73,,0.0,0.0,1.5933863543869724,1.5400941061757618,0.8269864680493038,3.2821774435214914,14.912130301482428,,,0.5677978065141052,inf,,,0.8703352262448225
74,5.7037824746562,-5.7037824746562,0.0,1.4532269065835104,1.4320473406024068,0.7703167553343787,3.3608233886379715,5.495631126595958,,,0.5451288209179292,5.703782474656201,inf,,0.8698235273448977
75,,0.0,0.0,1.683623068062675,1.6615599672067372,0.8266057288920653,3.815928657924336,2.353506990898859,,,0.541134803179459,inf,,,0.9013214455963667
76,4.605170185988091,-4.605170185988091,0.0,1.4456963164475387,1.4708701014959065,0.6883166875452749,2.97507977681354,2.170429913258905,,,0.5451288209179292,4.605170185988091,inf,,0.8355882523552276
77,,0.0,0.0,1.7047219567619352,1.6839826069690487,0.8283025440528371,3.3919212866947417,3.4231086438028577,,,0.552929491858785,inf,,,0.9093954389714052
78,4.31748811353631,-4.31748811353631,0.0,1.7762950956459032,1.6782075539755323,0.7362572137992872,2.9495992732720713,2.9939246533319595,,,0.5287703885177266,4.31748811353631,inf,,0.7292008247600922
79,5.010635294096255,-5.010635294096255,0.0,1.4925035847154613,1.4737123963596157,0.8231999353763321,3.1950080522404494,3.4542768604392533,,,0.4928685327679205,5.0106352940962555,inf,,0.9233256686322749
80,5.7037824746562,-5.7037824746562,0.0,1.6698770981118776,1.6209115176208686,0.6906200308050096,2.9117549263692872,3.8110002472268616,,,0.5068466436745385,5.703782474656201,inf,,0.9276064282045549
81,4.358722543921066,-4.358722543921066,0.0,1.6027179245262255,1.5876236007300315,0.8093433779497334,3.9318776439329,3.6676723297234326,,,0.3943459996787778,4.353979222118726,inf,,0.8785486915682282
82,5.604431378775941,-5.604431378775941,0.0,1.7456630635890056,1.5699187944612765,0.537742161836285,2.80269737407307,2.980284638532479,,,0.4880666971167561,5.569834502146462,inf,,0.9514719952165989
83,,0.0,0.0,1.600921644795368,1.5406003988138086,0.7132270834575708,2.9630996249041934,2.891206186817027,,,0.5158180382284114,inf,,,0.9533925930888899
84,5.7037824746562,-5.7037824746562,0.0,1.7397802110137992,1.6897490991259443,0.7661177235723379,2.704525284176257,1.7883255564858498,,,0.4732203808476458,5.703782474656201,inf,,0.808786129337376
85,5.703782474656201,-5.589706825163077,0.0,1.4648339398883792,1.450374690482949,0.6915208600396513,2.3383689295945396,1.576979821849747,,,0.22807408875533447,5.72398518197372,inf,,0.8798555679661169
86,5.010635294096255,-5.010635294096255,0.0,1.4906607493811737,1.4925221248504377,0.7487241755304596,2.7322162066664473,2.295852994538171,,,0.552929491858785,5.0106352940962555,inf,,0.9014534498191782
87,5.123849333587712,-5.123849333587712,0.0,1.3430527013034466,1.3018968799620947,0.6730416696741284,2.9313850889265822,2.912358345039217,,,0.5748741956352443,5.095830140159488,inf,,0.8929525689470924
88,4.372147707302148,-4.372147707302148,0.0,1.4770877253474581,1.4738989478646014,0.6149242022148018,3.187270012457453,5.5590871487583575,,,0.4928685327679205,4.3661532855175915,inf,,0.9424164111183605
89,5.7037824746562,-5.7037824746562,0.0,1.5208651769546895,1.468305096904905,0.6854681446449362,3.199712226781599,3.192486036978666,,,0.5451288209179292,5.703782474656201,inf,,0.7881802318889837
90,,0.0,0.0,1.6476545594384202,1.5568846418693147,0.8647024104342561,2.5518268596998057,2.465117503426379,,,0.4732203808476458,inf,,,0.9392893633830863
91,5.010635294096255,-5.010635294096255,0.0,1.5965310671694357,1.5261708268807597,0.8022092640632729,2.9842243599918508,3.8396978050098545,,,0.43586655696697996,5.0106352940962555,inf,,0.946619008551051
92,4.605170185988091,-4.605170185988091,0.0,1.6246014950581478,1.6111102126168289,0.7379046955979379,3.358889512515668,9.078425341879,,,0.44694259446804574,4.605170185988091,inf,,0.7359553869207988
93,,0.0,0.0,1.5459162580158177,1.5322971339786131,0.774134440301451,3.57162889132417,4.826794781006655,,,0.4880666971167561,inf,,,0.938178648764
94,,0.0,0.0,1.6665573890235044,1.6524433402788465,0.6424244278514254,2.6307738842017283,2.156074942471206,,,0.5604843169999094,inf,,,0.9444211282379136
95,4.594621843331526,-4.594621843331526,0.0,1.6376605003890792,1.6355538950664859,0.6996713608231535,2.157636874865806,1.398696518163507,,,0.4880666971167561,4.593022052052444,inf,,0.951950475960711
96,5.7037824746562,-5.7037824746562,0.0,1.6071257736526072,1.595862633078157,0.7335227690938104,2.7088380908208434,2.3130202554413133,,,0.47824363442641393,5.703782474656201,inf,,0.8034057625437241
97,,0.0,0.0,1.689686483549405,1.6625475832804364,0.6994593436930274,3.240208934433532,2.5439954652652648,,,0.5287703885177266,inf,,,0.8991201235781473
98,5.079950012152249,-5.079950012152249,0.0,1.6413669657088947,1.6026343154158444,0.7736993286098893,3.531478579711248,2.04022253647302,,,0.47824363442641393,5.061928588483807,inf,,0.8971344945409593
99,5.010635294096255,-5.010635294096255,0.0,1.684070414861143,1.6296110345812822,0.7102439899673801,2.968190952743246,2.7299377908876172,,,0.5567373465730988,5.0106352940962555,inf,,0.933371960929636
100,5.010635294096255,-5.010635294096255,0.0,1.5613629381633523,1.5573159858490548,0.6967298856826633,3.29604502464401,3.4128883247113873,,,0.5202020156036558,5.0106352940962555,inf,,0.9504899562730278
101,,0.0,0.0,1.2669674326537799,1.2004505876106772,0.6887033255718139,3.5488205193130606,3.75111987783498,,,0.468121228110369,inf,,,0.9373195679376672
102,,0.0,0.0,1.5979252132486308,1.5922715355147892,0.6894589319270784,2.6936006449640244,1.6234059611863638,,,0.47824363442641393,inf,,,0.9469641951511251
103,5.599810397572208,-5.599810397572208,0.0,1.6941127584131586,1.6762098300700148,0.6995907923440223,3.222434392118882,3.4341081682268895,,,0.5202020156036558,5.5640205322810425,inf,,0.767966047533897
104,5.7037824746562,-5.7037824746562,0.0,1.6727771907445637,1.6038075241475813,0.8243915867872837,3.4627918427998545,3.9451448181196924,,,0.541134803179459,5.703782474656201,inf,,0.8224539349224637
105,,0.0,0.0,1.3698665752193662,1.2747702134155485,0.6745250265994135,3.3364987175231824,2.356506675251365,,,0.5370774965580548,inf,,,0.936735238442429
106,5.703782474656201,-0.03802521649770801,0.0,1.3016036346118387,1.2357670555150304,0.4792098573864666,1.8750685364210822,1.8447673111224439,,,0.5158180382284114,10.714417768752456,inf,,0.7596161940538868
107,,0.0,0.0,1.5246339261217445,1.5202377655287478,0.7285730771543272,1.7044556014406282,2.1086982182735525,,,0.22807408875533447,inf,,,0.9291658844159317
108,5.7037824746562,-5.7037824746562,0.0,1.5355253545469538,1.4898967626052584,0.7242919815050785,2.861873539973974,2.395551761115473,,,0.1792956407887421,5.703782474656201,inf,,0.9477394804161141
109,4.17542005253293,-4.17542005253293,0.0,1.5355253545469538,1.5268952689820674,0.7504126924314318,3.1367868601514366,1.8765705030961333,,,0.20924377657122822,4.169786757388959,inf,,0.9159236505694349
110,4.25350756142642,-4.25350756142642,0.0,1.5355253545469538,1.4792098522797192,0.7269849536541032,2.918455140914343,1.9470329904958468,,,0.1995021272786615,4.229019465548702,inf,,0.911148090188695
111,4.837636847970105,-4.837636847970105,0.0,1.4098990417770163,1.3928748680821468,0.7550765107358616,3.14278301436627,3.2773559276921214,,,0.5202020156036558,4.817263901115716,inf,,0.9321368114803716
112,4.906565916348492,-4.906565916348492,0.0,1.4484065165531752,1.424535828594532,0.7288594733656533,3.0962780349081833,5.00612194404494,,,0.2461092077232671,4.889893676400127,inf,,0.7346259177238899
113,5.7037824746562,-5.7037824746562,0.0,1.6060543950841826,1.5366927329813074,0.8601287768665854,3.5657065520775366,5.466125750308651,,,0.4576907132971797,5.703782474656201,inf,,0.9468751143084877
114,5.7037824746562,-5.7037824746562,0.0,1.5022177663704994,1.4932804131131807,0.7173350850668813,3.070003492647092,3.997276639285156,,,0.1792956407887421,5.703782474656201,inf,,0.9390913844245206
115,5.703782474656204,-1.9582986496319632,0.0,1.5022177663704994,1.4995213015443756,0.7979791174424741,3.1158939962850374,2.9413755401149864,,,0.12360019792221849,6.772835961082766,inf,,0.9430794244327508
116,,0.0,0.0,1.7810819811085508,1.7596787065168429,0.957593358373638,4.222483306377589,71.0745470239801,,,0.4629450596409901,inf,,,0.8359215268645814
117,,0.0,0.0,1.7883782629968656,1.7666041051926962,0.9518811444796281,4.129382258313987,53.88735238629058,,,0.4732203808476458,inf,,,0.817954320152202
118,,0.0,0.0,1.7192803918005264,1.6671598032956494,0.5968728719056304,2.5542771722523265,3.305334829487217,,,0.5329562494928909,inf,,,0.7849544184222086
119,,0.0,0.0,1.739966375430354,1.6593612919896297,0.9370602871150788,2.9789554575181425,1.609679264925791,,,0.47824363442641393,inf,,,0.9061575165366768
120,,0.0,0.0,1.7709617540547051,1.7528117135057528,0.760282911367128,3.924500600424632,14.386959429265863,,,0.4629450596409901,inf,,,0.9362935038116046
121,,0.0,0.0,1.5008876061151222,1.4977952056293546,0.8949039453958184,3.6057174628519317,2.6594608877377506,,,0.4880666971167561,inf,,,0.9260163058322801
122,5.507390773497549,-5.507390773497549,0.0,1.6534499026880183,1.4631305255541025,0.7764500729063215,3.641566688928017,22.36995091319306,,,0.5113665138247345,5.454321615024618,inf,,0.8715548334917214
123,3.54938730742399,-3.54938730742399,0.0,1.7343204540854855,1.7090107777645576,0.9392508849963109,5.351357322698254,146.3268697431795,,,0.5022576003740722,3.543145044317837,inf,,0.9207003746815102
124,2.69032310812065,-2.69032310812065,0.0,1.7623359003456607,1.7172498486711067,0.9486661632104302,4.446746149292393,110.50456902796621,,,0.4732203808476458,2.690046576662635,inf,,0.8738817952381174
125,2.4057635500016197,-2.4057635500016197,0.0,1.711533397757959,1.6676262505230408,0.9372576035334016,4.6706356819927155,734.722926989812,,,0.47824363442641393,2.405725851913559,inf,,0.9050005954032935
126,2.2966829248859075,-2.2966829248859075,0.0,1.6855394104678016,1.65397500082328,0.9302514877338759,5.741672001794519,196.0365468006818,,,0.49759852643134905,2.296603021316498,inf,,0.9053123998435706
127,2.1484344131667874,-2.1484344131667874,0.0,1.5030338459735817,1.4773991131312323,0.9332686777252039,5.059377728010835,inf,,,0.5113665138247345,2.1484344131667874,inf,,0.8493016486252875
128,1.9724698860386964,-1.9724698860386964,0.0,1.6266154395648593,1.6121620600658015,0.9309061369853793,5.022932633506366,inf,,,0.4732203808476458,1.9724024356434544,inf,,0.8416022786582452
129,2.040220828526554,-2.040220828526554,0.0,1.5281933812675998,1.4961962007175422,0.9447438978484117,4.768927330692978,inf,,,0.541134803179459,2.0402208285265546,inf,,0.8474173676836849
130,2.0661963149298157,-2.0661963149298157,0.0,1.602557545859059,1.5495427900231595,0.9341542376826607,5.797977862972906,152.91407037593575,,,0.4928685327679205,2.0661963149298153,inf,,0.9073578107093658
131,2.269795270171055,-2.269795270171055,0.0,1.5495776277157003,1.5226620959554718,0.870047612899821,3.9020454974923235,2.820528933543445,,,0.48319206230712763,2.2697952701710546,inf,,0.9094418948703502
132,2.11514906101831,-2.11514906101831,0.0,1.6528483948763988,1.6191559645140279,0.9190781644201194,5.3000092414375715,413.80768095662756,,,0.5329562494928909,2.115091747797697,inf,,0.8492786389821443
133,2.2072749131897207,-2.2072749131897207,0.0,1.6100036729611387,1.5680759407413232,0.9364349799114673,4.773046316627528,416.83160240633964,,,0.4629450596409901,2.2072749131897207,inf,,0.8641232400151851
134,2.33730544213199,-2.33730544213199,0.0,1.5245388990657736,1.496040371662643,0.9303872877774185,4.588887944322362,inf,,,0.38804190201132227,2.3372915662333376,inf,,0.852210459537154
135,2.280504895749691,-2.280504895749691,0.0,1.2803363476903789,1.2660373548034256,0.9353559206639666,4.090941326642916,97.95040992587506,,,0.44144624493110796,2.280280152473545,inf,,0.8918743411641039
136,4.605170185988091,-4.605170185988091,0.0,1.7075601528110345,1.6497731385707608,0.8256868274943072,3.9332974606364246,4.46038784464484,,,0.44144624493110796,4.605170185988091,inf,,0.8762854080752354
137,,0.0,0.0,1.7355395857819502,1.7158932533573412,0.8494437073518614,4.639063229427927,16.367938525884846,,,0.3943459996787778,inf,,,0.8386864004181875
138,,0.0,0.0,1.5730764585508739,1.5724758564383627,0.9473912076595815,4.248312630910801,71.14452322798621,,,0.4732203808476458,inf,,,0.8783371490019554
139,,0.0,0.0,1.550697420165605,1.5146905978250402,0.9482357433272748,3.9711516340950843,92.87299877909317,,,0.5329562494928909,inf,,,0.8582624447676283
140,,0.0,0.0,1.4490943879124616,1.4107925386975937,0.9572198626836418,5.161022698442227,275.6642143949269,,,0.4302020962658841,inf,,,0.8926511231425576
141,,0.0,0.0,1.4633283072979462,1.451327528530988,0.9531921195848009,4.405607279737429,74.95242574702799,,,0.44694259446804574,inf,,,0.9180699655492011
142,5.010635294096255,-5.010635294096255,0.0,1.5849681409053515,1.5464582501945345,0.803335768798135,6.367802651153558,134.3546063221357,,,0.4629450596409901,5.0106352940962555,inf,,0.9021556173035681
143,5.703782474656202,-2.129412123871649,0.0,1.6375570267323243,1.6209554715755121,0.6625233196323246,4.2790872812607885,12.399074825553043,,,0.4732203808476458,6.689066078017308,inf,,0.9192005812285973
144,,0.0,0.0,1.7102029021643221,1.6470793531913515,0.9324359546459027,3.9104399774059657,9.731999762387408,,,0.41861278947482794,inf,,,0.8973986232853233
145,,0.0,0.0,1.5411397407792067,1.5202197062519756,0.8859138112773487,4.326121703016253,171.50588023415065,,,0.4928685327679205,inf,,,0.834303342629791
146,,0.0,0.0,1.622625613531659,1.6145140765176134,0.7526304705777656,3.842428160795825,10.248164485702375,,,0.4928685327679205,inf,,,0.9202213761686143
147,,0.0,0.0,1.7440991236990289,1.7182332340379276,0.8736060640703158,3.9341233900153902,24.425331788022607,,,0.44144624493110796,inf,,,0.8358231656422936
148,,0.0,0.0,1.2107664855243818,1.2041069765485597,0.9439038586842599,4.032425886086371,152.08132609855954,,,0.44694259446804574,inf,,,0.8681408187037013
149,,0.0,0.0,1.784946335392036,1.749454691033418,0.947236391501456,4.535622634050354,8.469117219749165,,,0.4629450596409901,inf,,,0.8749676491336339
150,,0.0,0.0,1.769508622990153,1.7251368564697753,0.9257947977993541,4.110197574873628,621.607246303648,,,0.41861278947482794,inf,,,0.8376975057241843
151,,0.0,0.0,1.3552152802030288,1.3324150152749223,0.9461893329123826,5.308234104111004,460.46378381864594,,,0.4732203808476458,inf,,,0.8732739210542276
152,5.010635294096255,-5.010635294096255,0.0,1.6783410012166453,1.631257907101656,0.7353900211548561,4.123970840215923,39.20881113500444,,,0.4732203808476458,5.0106352940962555,inf,,0.6784359410445642
153,4.31748811353631,-4.31748811353631,0.0,1.6636305424025242,1.6236537004163059,0.7815339075126518,5.038337250809426,76.92942578764222,,,0.40055318934786044,4.31748811353631,inf,,0.9139710956987648
154,2.6034539519149873,-2.6034539519149873,0.0,1.5639722235450824,1.5417061025342211,0.8205211291856975,3.737175415014304,1.447979595028599,,,0.5022576003740722,2.602939716699593,inf,,0.738324281382146
155,3.401197381662155,-3.401197381662155,0.0,1.592847520578069,1.5737258434319268,0.8962302825545531,3.671803822331846,4.468442982167209,,,0.4576907132971797,3.4011973816621555,inf,,0.9414187220754211
156,,0.0,0.0,1.6130978436833612,1.597182590136321,0.9355882916915842,2.861508390710072,2.886396899567169,,,0.41861278947482794,inf,,,0.8579408601775435
157,,0.0,0.0,1.6550718595363627,1.6289564336101772,0.8488821361967288,2.8630354660316395,3.1519914923292336,,,0.4302020962658841,inf,,,0.8534136196247779
158,5.7037824746562,-5.7037824746562,0.0,1.499307959216046,1.4877699003140517,0.9301784209629697,2.8178287071483634,2.667098408648881,,,0.3338418249889409,5.703782474656201,inf,,0.8638586453461156
159,,0.0,0.0,1.7724998056118868,1.7372012740669853,0.9655975060748884,3.093832148407249,2.436965853451514,,,0.5158180382284114,inf,,,0.8501651226945333
160,,0.0,0.0,1.7597599949147713,1.7294293667897596,0.9672357877191557,3.677387688907014,12.210174041661393,,,0.43586655696697996,inf,,,0.8269690529143843
161,,0.0,0.0,1.6571164658039228,1.6341628715018301,0.9788671294466988,3.7875286559222987,4.525488350305254,,,0.40055318934786044,inf,,,0.8117946601239903
162,,0.0,0.0,1.6966810689237293,1.6684648944557214,0.9696831588565241,3.932551976756021,3.6403878962253216,,,0.4066654671944331,inf,,,0.8145495706961104
163,,0.0,0.0,1.0456689863454047,1.0269021305179267,0.9432139247585822,3.5024806658363206,2.255254850496642,,,0.45235697871908603,inf,,,0.8421909107148565
164,4.31748811353631,-4.31748811353631,0.0,1.322973764374935,1.2940392114297108,0.9447381908315889,4.223850344529482,6.635808033598592,,,0.36181263880445963,4.31748811353631,inf,,0.8103990143475946
165,2.817792861821099,-2.817792861821099,0.0,1.5989967617151315,1.5753896108637129,0.9688692300940132,4.4858399699020755,5.368665976222529,,,0.4928685327679205,2.817679072502724,inf,,0.8667849659475697
166,1.9661128563728327,-1.9661128563728327,0.0,1.5876000290001302,1.5327499455994196,0.9639578794559602,4.786589015034566,316.5454537316651,,,0.41268473150466,1.9661128563728327,inf,,0.8789815759171709
167,2.120263536200092,-2.120263536200092,0.0,1.717896008082712,1.6839626722758092,0.9347655234728605,4.035542723268564,421.072139548673,,,0.5287703885177266,2.120263536200091,inf,,0.9213636608348889
168,2.2076852019719437,-2.2076852019719437,0.0,1.6058173332448578,1.5501861889703707,0.9498098265705578,5.171418717884263,146.0339189247256,,,0.4629450596409901,2.207679035240078,inf,,0.9185466218334385
169,2.188302212153383,-2.188302212153383,0.0,1.4172378915331314,1.406855284628816,0.946193535423137,4.715748013030011,79.96675388360123,,,0.4732203808476458,2.188165732847873,inf,,0.9239512308196896
170,3.2986362537753613,-3.2986362537753613,0.0,1.2221841670134326,1.198507594418968,0.9207103058779119,3.751877178489452,23.931263431434946,,,0.45235697871908603,3.2983399962224476,inf,,0.7551970342613675
171,2.75934349548976,-2.75934349548976,0.0,1.6444934397895699,1.6353218990045306,0.7723594056211013,4.186053610190106,64.82773261767466,,,0.5068466436745385,2.7593434954897607,inf,,0.8013744551544175
172,3.9120230054281455,-3.9120230054281455,0.0,1.7368767390224213,1.7042340933338769,0.9746143096249963,3.537007641811431,3.496938860440254,,,0.4629450596409901,3.912023005428146,inf,,0.8587424782641632
173,5.010635294096255,-5.010635294096255,0.0,1.3760473275426257,1.3715371170070687,0.6532459697374048,2.999540256101252,3.180266056960512,,,0.47824363442641393,5.0106352940962555,inf,,0.8408202029537024
174,5.7037824746562,-5.7037824746562,0.0,1.5406048730077704,1.5344770430515366,0.8738628408099738,3.137199395616127,5.4967143387581885,,,0.4732203808476458,5.703782474656201,inf,,0.8173889007631948
175,,0.0,0.0,1.5647057859558513,1.5375669459327301,0.9533461073716603,3.6943974978036564,7.5723232052712275,,,0.4629450596409901,inf,,,0.7902662196613939
176,,0.0,0.0,1.5361962899697397,1.5009727840681157,0.9586719218513025,2.8493008830395055,3.4081711035326396,,,0.48319206230712763,inf,,,0.8427888463350642
177,4.605170185988091,-4.605170185988091,0.0,1.2725728594460168,1.2430793740548014,0.7491477222077876,3.227413377297856,5.455111582432697,,,0.47824363442641393,4.605170185988091,inf,,0.9083717567833256
178,2.541050105499022,2.0607811792235555,-4.601831284722578,1.7468471287572762,1.7191289783032917,0.9388069487065864,3.443032330338788,22.788665398692935,2.060989002604273,,0.5113665138247345,2.540842282118304,2.0676668051353024,inf,0.8096786637394879
179,,0.0,0.0,1.6298730566350592,1.6028984125323946,0.9565124072735126,3.2399234145268005,7.541417353545768,,,0.3751344627501719,inf,,,0.8499511060426218
180,,0.0,0.0,1.5892993007789642,1.5378121105332125,0.8175060513080612,2.901983810250461,3.547445172193186,,,0.41268473150466,inf,,,0.9058139986946937
181,,0.0,0.0,1.7209730117801278,1.6651531197260383,0.9456706843508932,2.201946768028431,2.5187092962191557,,,0.43586655696697996,inf,,,0.8137009040816261
182,,0.0,0.0,1.6079003815173578,1.5769713974418114,0.9749105235992693,2.5277019231523203,2.0114340961546886,,,0.3116047106179316,inf,,,0.7940230711579284
183,,0.0,0.0,1.6257130348149547,1.6143085147476652,0.9316134521701135,2.182328368368805,1.6623427270959823,,,0.42445136339222655,inf,,,0.8137825585712432
184,,0.0,0.0,1.5769344950142354,1.5564762582210252,0.9117126463638203,2.340101382750635,1.9209025486999214,,,0.38804190201132227,inf,,,0.8204722272575755
185,,0.0,0.0,1.5384605572409367,1.5221799185650804,0.7859402516547693,2.599783642875406,3.0637078307506194,,,0.468121228110369,inf,,,0.7922522831820523
186,,0.0,0.0,1.705598951795167,1.669402258680067,0.955641324981183,2.6687767343782234,2.9836300345045452,,,0.4302020962658841,inf,,,0.8553436734103219
187,5.703782474656201,-5.361555526176829,0.0,1.4245030724554806,1.3873664374026036,0.6806998373061833,3.39207561114313,3.7058927069017873,,,0.42445136339222655,5.765657878374289,inf,,0.8949718032799445
188,5.7037824746562,-5.7037824746562,0.0,1.6626809272877634,1.6166833214588858,0.9692061594586355,2.482643185712253,2.507763633600176,,,0.41861278947482794,5.703782474656201,inf,,0.8773346013979535
189,,0.0,0.0,1.7286031525875158,1.7134148483341058,0.8453526093917985,3.1932481653209868,2.9044675984865838,,,0.3751344627501719,inf,,,0.8900574060392188
190,,0.0,0.0,1.6410571791669257,1.5675421037226889,0.9703209177857587,3.3357080224027986,2.1626736752139966,,,0.468121228110369,inf,,,0.873735711447133
191,,0.0,0.0,1.2930522187170321,1.2572537504683718,0.9709769237535552,3.6557512230614995,5.08685996985059,,,0.41861278947482794,inf,,,0.9014830778143013
192,5.7037824746562,-5.7037824746562,0.0,1.603012021447573,1.59948924849997,0.7280472380061104,2.9276295374226993,2.5925872094004627,,,0.45235697871908603,5.703782474656201,inf,,0.8481199028062223
193,3.624340932976365,-3.624340932976365,0.0,1.2382118356263656,1.1872257744611558,0.8651139139962408,3.6787307140726124,6.307553348350563,,,0.47824363442641393,3.624340932976365,inf,,0.8671461773320618
194,3.2784369838550327,-1.6769745752770469,-1.6014624085779858,1.5660642897906627,1.4667520447795142,0.775078731977834,3.5827004450073736,8.188410341620447,,,0.5451288209179292,3.2713393944039417,3.7054087560651467,inf,0.8307266847255607
195,5.7037824746562,-5.7037824746562,0.0,1.136174295222214,1.1163317939393451,0.8131635121487444,3.4451464125786586,12.200358310092748,,,0.5113665138247345,5.703782474656201,inf,,0.8808922990391586
196,5.7037824746562,-5.7037824746562,0.0,1.6633772420524988,1.6167057388059063,0.7673801404402353,3.078108646498569,2.9608695336742623,,,0.44694259446804574,5.703782474656201,inf,,0.9228132309498112
197,4.418176838894434,-4.418176838894434,0.0,1.660863970131109,1.6644060416530218,0.7446498648902994,3.7769989918798967,4.920976081744398,,,0.48319206230712763,4.409055307061801,inf,,0.6166937716455307
198,5.345656431366895,-5.345656431366895,0.0,1.6933998916956665,1.6533500348012122,0.7353087262727799,3.1107875236615268,3.123440187349754,,,0.4880666971167561,5.287267530361452,inf,,0.8149434528006255
199,4.0943445622220995,-4.0943445622220995,0.0,1.722725488925206,1.7072670827260843,0.7304993760987236,2.7993508634826303,2.4866543278943554,,,0.5677978065141052,4.0943445622221,inf,,0.6670381972484675
200,,0.0,0.0,1.5146521993470858,1.5018609796376148,0.7402753688007041,3.31055744976647,13.878884736183462,,,0.4066654671944331,inf,,,0.9387434565598012
201,5.703782474656203,-4.639076412720378,0.0,1.7250307703770247,1.6987707238116265,0.8272072864073172,3.0206565717470593,3.921357633760915,,,0.5022576003740722,5.910396724019201,inf,,0.924736412210658
202,5.7037824746562,-5.7037824746562,0.0,1.7084312304658416,1.6502364878009825,0.8711293273402225,3.0816733635406224,2.8510681896105456,,,0.44144624493110796,5.703782474656201,inf,,0.892889829454513
203,5.7037824746562,-5.7037824746562,0.0,1.7323121291639076,1.7298137814312697,0.8241604119614863,2.802088472104376,2.718953342555504,,,0.5068466436745385,5.703782474656201,inf,,0.8839664732975098
204,,0.0,0.0,1.6503438831868666,1.6521967190341547,0.7843037294501868,2.561235879300922,2.4855982778216363,,,0.5451288209179292,inf,,,0.9156989712022393
205,5.7037824746562,-5.7037824746562,0.0,1.190129153574131,1.179733002388046,0.7857444464201649,2.5874757878787094,2.0302600838604428,,,0.48319206230712763,5.703782474656201,inf,,0.9244373399896565
206,4.31748811353631,-4.31748811353631,0.0,1.6117185451693183,1.611952479189467,0.647715567562088,2.3005552660423048,1.839749253285392,,,0.47824363442641393,4.31748811353631,inf,,0.7632472499961873
207,,0.0,0.0,1.4278622809067383,1.4125146746072381,0.7914097429090058,2.7825173442366196,2.273793937277078,,,0.45235697871908603,inf,,,0.9460037285168401
208,,0.0,0.0,1.649187114009752,1.6234676528820073,0.8283414125354991,2.4008172125296454,3.0596127799305735,,,0.26342377874763145,inf,,,0.9414217572580459
209,,0.0,0.0,1.649187114009752,1.6380489508068332,0.7253382637219743,2.1591752404547444,2.5441788361431397,,,0.20924377657122822,inf,,,0.9419192160937092
210,,0.0,0.0,1.649187114009752,1.6375790226709521,0.8033713755403347,2.5812917119029724,6.257580178626689,,,0.20924377657122822,inf,,,0.8893756891933128
211,4.0150681574452145,-4.0150681574452145,0.0,1.3084407602137293,1.2568646227128077,0.5763814880650938,2.07135806199127,0.584110302053487,,,0.541134803179459,4.006333684899388,inf,,0.7089534064825851
212,5.376961783304101,-3.4591787472589717,0.0,1.4032836056890363,1.3516952341639472,0.6117859571267882,2.935820081860415,2.0107154148093582,,,0.4302020962658841,5.7585907111511965,inf,,0.7367648923280532
213,4.897010654151775,-4.635836752597013,0.0,1.4032836056890363,1.3821392405425394,0.6980903942634199,2.5273988338116657,1.9983591499265652,,,0.3751344627501719,4.898795812340721,inf,,0.9422798126849542
214,5.703782474656201,-0.019012608248854004,0.0,1.4032836056890363,1.399462321869659,0.4193084600087908,2.209098981467632,1.7797282215661023,,,0.4066654671944331,11.407564949312402,inf,,0.6156726381698754
215,5.703782474656203,-4.372899897236422,0.0,1.4032836056890363,1.3859940169457983,0.7066246307713492,2.5142023474705923,1.9663454931525401,,,0.4302020962658841,5.969485640389206,inf,,0.7948613541782984
216,4.328429066311729,1.3529494784054101,-5.681378544717139,1.1146121379871443,1.0928494146018681,0.5215545582439537,2.61993755930606,1.9585897560446819,,,0.44144624493110796,4.32669705262162,1.3837744101853775,inf,0.6724834807764473
217,3.874424364703555,-3.874424364703555,0.0,1.5608492329323556,1.506672722754874,0.7738951902969564,3.2273192476646426,2.766422562461829,,,0.552929491858785,3.871201010907891,inf,,0.6803072772095566
218,5.7037824746562,-5.7037824746562,0.0,1.5979083769099214,1.5765563214074123,0.6382044868892007,2.404901235771377,2.4934714498174877,,,0.31914402280573173,5.703782474656201,inf,,0.7867209203133227
219,,0.0,0.0,1.4936528194792182,1.4203859703521022,0.6716968131668789,1.8144331985325375,2.7999425018377284,,,0.42445136339222655,inf,,,0.8948613444738844
220,,0.0,0.0,1.7517850274961582,1.7337725954457526,0.5610581055362118,1.703780897534365,1.6932517523074788,,,0.4880666971167561,inf,,,0.8907369067915661
221,5.010635294096255,-5.010635294096255,0.0,1.69469740827112,1.6549971681954994,0.5883629616300803,2.3705317078553247,2.987733416152864,,,0.5748741956352443,5.0106352940962555,inf,,0.945609485018886
222,2.8324635213733527,2.867980052017334,-5.700443573390687,1.684791258376804,1.6083128180030763,0.8065430844436946,3.1375320968934775,2.643211899142803,2.8683407236184975,,0.5451288209179292,2.832102849772189,2.875018526149527,inf,0.7310911556764824
223,2.80439951321499,2.265488765485712,-5.069888278700702,1.3831293782220972,1.3742111978008766,0.8525226615537627,3.8971402159662483,2.3147174551042724,2.896249511735574,,0.6097226960127671,2.8041940616551124,2.2559816780012794,inf,0.5597429196483703
224,4.946115277247789,-4.946115277247789,0.0,1.347183932691806,1.3415733140282584,0.6264066206450358,3.1813674954045017,2.4328618065503824,,,0.5783247308855777,4.9032767757757565,inf,,0.6245000575103727
225,4.005006999393063,-4.005006999393063,0.0,1.3772531073863243,1.3552706741140927,0.6370588555179552,2.687510394580879,2.3298845957221395,,,0.5978297680564633,4.000854219134761,inf,,0.7379571113691179
226,3.9120230054281455,-3.9120230054281455,0.0,1.645000748104477,1.6259343210084871,0.6065155961478108,2.876191622105776,2.7354441202209974,,,0.5978297680564633,3.912023005428146,inf,,0.7331665496741718
227,3.8936240877286945,-3.8936240877286945,0.0,1.5237836075082436,1.5170477866187322,0.7332918091245332,3.2474385415940112,2.9114526438668085,,,0.6233814453054027,3.8911316463967696,inf,,0.9496705689614358
228,5.646020209609539,-5.646020209609539,0.0,1.4604282914488316,1.4337600890139115,0.6986026336149214,3.128901314186959,3.4068843642551725,,,0.5713653840954815,5.6237397669826645,inf,,0.7363329315493901
229,3.873999171070756,-3.873999171070756,0.0,1.7249385864638878,1.6817723449544935,0.6721476229798984,2.992693926840818,3.952597050948632,,,0.5567373465730988,3.871734486514035,inf,,0.8134862157962471
230,5.7037824746562,-5.7037824746562,0.0,1.4190421963511,1.409368876037263,0.7366459618663646,2.479129554432537,2.451181939053245,,,0.5451288209179292,5.703782474656201,inf,,0.6018018602632852
231,4.0943445622220995,-4.0943445622220995,0.0,1.6295376120634402,1.60667815403157,0.7129422831385837,3.484731196289514,3.8632188172347686,,,0.5783247308855777,4.0943445622221,inf,,0.7182014941862027
232,5.678367078035669,-5.678367078035669,0.0,1.0245223308223297,0.9955706035286441,0.6772996347918785,4.104199179477618,7.829020214755112,,,0.5329562494928909,5.667772037133168,inf,,0.8437506348632905
233,5.7037824746562,-5.7037824746562,0.0,1.7233672182819106,1.7014414744784878,0.8054723175538906,3.6415669335315597,2.932980310112938,,,0.4576907132971797,5.703782474656201,inf,,0.916366043404191
234,5.703782474656203,-4.658089020969232,0.0,1.4847984663496154,1.4763148163532513,0.6872118374792464,3.228961390855406,1.8249101836897261,,,0.5641709578113449,5.906306738767675,inf,,0.9523031409845465
235,5.096123446365314,-5.096123446365314,0.0,1.5629885387868088,1.5084237826677112,0.7902524350867144,2.7828202577355037,2.0562442554806153,,,0.5113665138247345,5.074285321172711,inf,,0.931519725634143
236,,0.0,0.0,1.6907621621517652,1.6654650151696813,0.6400123108718919,3.1572879247955363,4.725494295469108,,,0.5158180382284114,inf,,,0.918142408654659
237,4.0943445622220995,-4.0943445622220995,0.0,1.2684762338533473,1.2497273363935704,0.7257451177179601,3.3204647493760313,15.606590197307561,,,0.5883313578629602,4.0943445622221,inf,,0.9170572155496038
238,,0.0,0.0,1.6789057366570965,1.6695233478469709,0.6891347648195756,3.6898047958308187,2.6229110884172018,,,0.5158180382284114,inf,,,0.9322260274729226
239,,0.0,0.0,1.7006602389178802,1.6894781309103801,0.6864870129908629,3.2461586020445883,5.806850185167318,,,0.18952474069199465,inf,,,0.9307357594483
240,,0.0,0.0,1.6955394849755172,1.6345818316058034,0.8610598810968204,2.271006031813686,2.942954246392901,,,0.20924377657122822,inf,,,0.9301062912121267
241,,0.0,0.0,1.6955394849755172,1.6445217357470034,0.7693939037651909,2.624139513540475,3.1056018258739724,,,0.1995021272786615,inf,,,0.9262164222493093
242,,0.0,0.0,1.7773361870490663,1.7428781092100356,0.9737114409011033,2.28949239392605,4.000389822163772,,,0.38163879478178075,inf,,,0.8639912364850552
243,,0.0,0.0,1.7747453658121621,1.739068247214421,0.9450228270970273,2.504561675449504,3.889370322862744,,,0.5022576003740722,inf,,,0.857015241115183
244,4.31748811353631,-4.31748811353631,0.0,1.7562609083750091,1.74853280946696,0.6945065667056053,4.133403613768324,14.129350747563247,,,0.5490601803369085,4.31748811353631,inf,,0.5400042285794369
245,,0.0,0.0,1.7138033842841618,1.6741317536148783,0.9678749798600507,2.7426727688848915,4.313445640747162,,,0.41268473150466,inf,,,0.8972054335783022
246,,0.0,0.0,1.752109977268429,1.7307394299994971,0.960585064425281,3.3487903529641057,4.466947426902898,,,0.48319206230712763,inf,,,0.8426500803048899
247,,0.0,0.0,1.7675448771508069,1.7511884503197641,0.9574217363513633,3.354156156047141,50.283667886302396,,,0.38163879478178075,inf,,,0.8358906678880327
248,,0.0,0.0,1.7396563450734268,1.7188797988552829,0.9744586047669871,3.5587672351424438,75.85114710360666,,,0.47824363442641393,inf,,,0.8471599029730007
249,,0.0,0.0,1.7264999948479849,1.7054766194666282,0.9739132237897028,4.037600554600095,31.729207774355764,,,0.4928685327679205,inf,,,0.8790846373809762
250,,0.0,0.0,1.5436272753966238,1.5155540416168258,0.9600202988495369,4.451296712703187,10.797533510980449,,,0.43586655696697996,inf,,,0.8959125848719972
251,,0.0,0.0,1.3479134090340992,1.3275685001750466,0.9599396442607729,3.5338893063130334,23.78850079502124,,,0.44694259446804574,inf,,,0.8857785793961344
252,,0.0,0.0,1.5439742664805471,1.520259003234774,0.9550408258655237,4.5908310085690855,65.28110488257535,,,0.468121228110369,inf,,,0.9065440186954257
253,5.7037824746562,-5.7037824746562,0.0,0.7149505994751051,0.6827598921538716,0.6902929040180341,4.537170066639877,19.143010973695304,,,0.48319206230712763,5.703782474656201,inf,,0.7486222892376442
254,4.31748811353631,-4.31748811353631,0.0,1.6415295407742547,1.6047630100613328,0.7304053008616945,3.913674060851693,11.799325185492481,,,0.5068466436745385,4.31748811353631,inf,,0.7175892762211756
255,5.595189416368475,-5.595189416368475,0.0,1.4999499894378423,1.4751870265438296,0.9655203363942938,3.7922494891630256,52.952766400256934,,,0.5113665138247345,5.5582401693655425,inf,,0.8474172523246531
256,4.31748811353631,-4.31748811353631,0.0,1.6186350745227454,1.591506515402995,0.9647685762912319,4.445190395404405,87.65046201382197,,,0.3943459996787778,4.31748811353631,inf,,0.8957059493527798
257,5.7037824746562,-5.7037824746562,0.0,1.5611573210543608,1.5144780259268822,0.9691556211166479,5.088406645610278,34.67957429771347,,,0.5287703885177266,5.703782474656201,inf,,0.8963083214740363
258,,0.0,0.0,1.455208043170336,1.418909632162942,0.9556990657649936,4.279461636834067,7.257103782181363,,,0.45235697871908603,inf,,,0.9161300890315764
259,5.7037824746562,-5.7037824746562,0.0,1.4114207041243436,1.370559227822956,0.8585565661266705,3.932772641756047,3.2160708076546185,,,0.41861278947482794,5.703782474656201,inf,,0.8794244365669575
260,,0.0,0.0,1.5922273759355345,1.569272860445094,0.9785051143922411,2.627335490454472,1.608421825907477,,,0.49759852643134905,inf,,,0.8723666316324611
261,,0.0,0.0,1.6222379171309194,1.5724465313662201,0.9439101954682058,3.553658112101825,4.091324498916296,,,0.47824363442641393,inf,,,0.8919352502587286
262,,0.0,0.0,1.3900856329907687,1.3458864071569934,0.9541103285882208,3.3869283713653733,61.399096993534016,,,0.4066654671944331,inf,,,0.8936602093446732
263,,0.0,0.0,1.577267984445676,1.5443560406594412,0.7602630970556199,3.083667576111191,3.8466068926260752,,,0.4066654671944331,inf,,,0.9320052866175285
264,,0.0,0.0,1.3079661355704189,1.2940423866645472,0.7730557723809102,2.754449176694563,2.579698919220419,,,0.43586655696697996,inf,,,0.8710783051655164
265,4.605170185988091,-4.605170185988091,0.0,1.4863857757029366,1.4643805569470727,0.6344533967628899,2.773967341640081,4.447369945112973,,,0.524519217297268,4.605170185988091,inf,,0.7380078478531085
266,4.829746435922999,-4.829746435922999,0.0,1.5783018690613269,1.552821004183592,0.6577338335926585,2.8208873432590824,4.2543648085417765,,,0.6207552362147116,4.807694450099565,inf,,0.7572138824490778
267,5.010635294096255,-5.010635294096255,0.0,1.6910281085387329,1.6308573636123087,0.6588341869649437,2.8175254841762336,2.7228594602255267,,,0.5641709578113449,5.0106352940962555,inf,,0.5291536434885451
268,4.605170185988091,-4.605170185988091,0.0,1.4301090466257373,1.3266391642835706,0.5778231524126043,2.395303900557945,2.7770593990949175,,,0.5068466436745385,4.605170185988091,inf,,0.6916608413916633
269,,0.0,0.0,1.4617672912652657,1.4209297937251892,0.795245594657141,1.399209970792676,1.630489123500442,,,0.42445136339222655,inf,,,0.7997379116970885
270,,0.0,0.0,1.185192989441025,1.144567167861188,0.8098735186560185,1.7361176524355177,2.119117892011685,,,0.4880666971167561,inf,,,0.7169984789513086
271,,0.0,0.0,1.7308122936424706,1.7253481580001835,0.6384411721718021,1.5667741195184248,1.8262440328061404,,,0.4302020962658841,inf,,,0.6963446521436405
272,,0.0,0.0,1.5656836334860889,1.5447164314066724,0.9881409950363654,2.045952352692294,2.021712854827509,,,0.4066654671944331,inf,,,0.7771281474253947
273,,0.0,0.0,1.7771725442783337,1.7435671670222628,0.9812520926784801,2.4143945326392724,2.514645938478066,,,0.4302020962658841,inf,,,0.8015026550967338
274,,0.0,0.0,1.785738282378183,1.7709285184370716,0.9620326366491374,2.457006155340504,2.080846049256103,,,0.4302020962658841,inf,,,0.821614677585884
275,,0.0,0.0,1.5372855582776457,1.4954086266610738,0.6608015481410475,2.726195727045326,1.9375362798984153,,,0.4732203808476458,inf,,,0.6467884162490335
276,,0.0,0.0,1.7488286952788497,1.7118658171663435,0.9643346123536184,3.7020492891494974,4.986558535880353,,,0.42445136339222655,inf,,,0.8618456461780176
277,,0.0,0.0,1.7573319234336433,1.7403896744340928,0.9586093079661236,2.6432798048213795,2.0572965340323925,,,0.44694259446804574,inf,,,0.878280254975919
278,4.575585509276438,-4.575585509276438,0.0,1.6495908941132986,1.59208945453251,0.5885113905477549,2.615915617118254,1.9744286997363076,,,0.5370774965580548,4.555322380260524,inf,,0.6581410192742763
279,5.7037824746562,-5.7037824746562,0.0,1.5604102728826061,1.47529264988832,0.7475847370285799,2.663306171051233,2.7085489853950415,,,0.5202020156036558,5.703782474656201,inf,,0.8099644145024533
280,,0.0,0.0,1.6796880539262993,1.6421784806780413,0.9573221766007908,2.5509808286252036,2.8085459753763264,,,0.44144624493110796,inf,,,0.8018279486420671
281,,0.0,0.0,1.6830090563008098,1.6198993786296272,0.9799958458546949,3.06906574107118,7.513107706501666,,,0.42445136339222655,inf,,,0.8053524650738964
282,,0.0,0.0,1.551331639492082,1.5391055084055798,0.9829028476908066,3.4298442854643483,6.726869788665341,,,0.4629450596409901,inf,,,0.862726848754814
283,,0.0,0.0,1.5995127617137581,1.570749758749737,0.9807379242338948,3.3898874831484394,52.93240247901589,,,0.44144624493110796,inf,,,0.8468451968663346
284,,0.0,0.0,1.659347477988582,1.6215778427956136,0.9734357884399698,3.4824127119389465,8.425669979986319,,,0.45235697871908603,inf,,,0.8358614731270786
285,,0.0,0.0,1.4375141154540767,1.4424040882579523,0.9847162496228468,3.817106943487879,19.569231226463287,,,0.4302020962658841,inf,,,0.8001400457437751
286,,0.0,0.0,1.5597526076474533,1.5174600051546223,0.9737544885087436,2.959721859966033,14.66826304818707,,,0.38163879478178075,inf,,,0.8026751722017836
287,,0.0,0.0,1.3300191373108325,1.2859790083361642,0.9541038185316231,3.7270766410406226,11.18477408582214,,,0.49759852643134905,inf,,,0.7858815385787292
288,,0.0,0.0,1.5421133042618727,1.5132586071810386,0.9784715732961491,3.3876019978846723,12.776556714249146,,,0.44144624493110796,inf,,,0.849486518512286
289,,0.0,0.0,1.543767368816395,1.5300749543857777,0.9687169657993324,4.190385960118985,24.399074826501383,,,0.48319206230712763,inf,,,0.8909952299038355
290,4.0943445622220995,-4.0943445622220995,0.0,1.4630308112681987,1.4143274868427562,0.8150382921117894,6.271025136228637,9.34189631997818,,,0.43586655696697996,4.0943445622221,inf,,0.9212498234484704
291,2.39704904223873,-2.39704904223873,0.0,1.4331718976847054,1.3957780448901107,0.9148113284412001,4.409114942955136,42.05962416156937,,,0.44694259446804574,2.396895772465287,inf,,0.9198943732449345
292,3.2188758248681997,-3.2188758248681997,0.0,1.4916023503987759,1.4825789237559257,0.9720525766133397,4.757606613240757,8.178544138591633,,,0.5113665138247345,3.2188758248682006,inf,,0.9092285616907992
293,3.629670225889268,-3.629670225889268,0.0,1.3564060064916679,1.2215706087182954,0.7652047454738514,3.9022857370249717,6.978967534121232,,,0.38163879478178075,3.623924353091149,inf,,0.8105032536294905
294,,0.0,0.0,1.6909538873113665,1.6537759321325787,0.95863330479895,3.8125666378982603,57.165371743068064,,,0.44144624493110796,inf,,,0.878746033739553
295,,0.0,0.0,1.5724571943769687,1.5487225180520423,0.9497687505353062,3.4289286387995825,4.8523496488691364,,,0.3943459996787778,inf,,,0.8885912917796557
296,,0.0,0.0,1.5592304877440806,1.4951046339855503,0.9270604583818236,3.671684238451493,3.9948824695495486,,,0.4732203808476458,inf,,,0.8857945613536967
297,3.503686940650214,-3.503686940650214,0.0,1.5557169953831544,1.3283133518257433,0.8300674184796162,2.902788605077262,1.2477386089491898,,,0.5158180382284114,3.503230107227307,inf,,0.8422085840685107
298,4.008045692006295,-4.008045692006295,0.0,1.7221237355611614,1.6017878489173545,0.7956645137199461,3.7032431031907262,3.218580705217626,,,0.5370774965580548,4.003894659300029,inf,,0.687232937994366
299,4.3678015380533175,-4.3678015380533175,0.0,1.4239681264064306,1.4281953043734263,0.7757307937939371,3.387194961198979,5.011153897013145,,,0.5947193981915972,4.360047727955107,inf,,0.6726385201792219
300,4.841691499051186,-4.841691499051186,0.0,1.7118214133883278,1.61500406034908,0.7663916858461054,4.276076697386531,16.97947629928734,,,0.524519217297268,4.821393294457727,inf,,0.8789107964475305
301,3.300376481315155,-3.300376481315155,0.0,1.6156394416109836,1.6164197105134839,0.9324359030863767,4.198872734877697,32.714200287105996,,,0.38163879478178075,3.3001461375924275,inf,,0.7042107697280827
302,5.7037824746562,-5.7037824746562,0.0,0.7838861121734096,0.7299125474698551,0.7846835529553841,4.402963368769337,52.351606522796075,,,0.5158180382284114,5.703782474656201,inf,,0.8897184018878079
303,4.58407350067496,-4.58407350067496,0.0,1.5472780224251554,1.5059538476359493,0.8702676972319029,4.010336567771732,6.542267451844753,,,0.5068466436745385,4.581019725755808,inf,,0.9197998105185288
304,,0.0,0.0,1.299977584533314,1.2411470048479374,0.7460791374065973,3.483447054201238,51.174436789067,,,0.4302020962658841,inf,,,0.7372038584951551
305,5.010635294096255,-5.010635294096255,0.0,1.7574844195991628,1.7212612413084056,0.8120258619273304,4.652316756828192,61.30324475563471,,,0.5158180382284114,5.0106352940962555,inf,,0.935458579551329
306,5.7037824746562,-5.7037824746562,0.0,1.5298589759198822,1.4868945710118333,0.7261755375476068,3.614696347944188,4.514281803958601,,,0.5451288209179292,5.703782474656201,inf,,0.7731159491355469
307,4.605170185988091,-4.605170185988091,0.0,1.4706607152606568,1.4255925056999854,0.7945047088616936,4.4902331983856145,14.187166143288586,,,0.585052858160615,4.605170185988091,inf,,0.8429825414163047
308,5.010635294096255,-5.010635294096255,0.0,1.6008647741436994,1.5672149421176504,0.777384707461839,3.7874536214110743,129.7698255710929,,,0.21876365787541036,5.0106352940962555,inf,,0.8907076418610361
309,4.605170185988091,-4.605170185988091,0.0,1.2606256806364673,1.1805563630433407,0.5508186869008638,2.0736218006820852,1.8345088742644982,,,0.38163879478178075,4.605170185988091,inf,,0.8726863415052085
310,5.7037824746562,-5.7037824746562,0.0,1.286111360495824,1.2798604397220172,0.4885212205953646,2.1112825896030083,1.8380597374688104,,,0.5451288209179292,5.703782474656201,inf,,0.9248659389104739
311,,0.0,0.0,1.6833229946673522,1.6735984288738561,0.46010219558241233,1.775358891495447,1.714130610587368,,,0.5677978065141052,inf,,,0.9138515771931824
312,3.757872325600888,-3.757872325600888,0.0,1.6882062291773225,1.6324212017709634,0.4991341104920566,2.0301560703913215,1.4578379249743807,,,0.5748741956352443,3.757872325600888,inf,,0.8486521573916622
313,3.5811538199023576,-3.5811538199023576,0.0,1.6677238118295867,1.6688226045533525,0.7365651783177432,2.4723300708833795,1.3319599585423223,,,0.5158180382284114,3.5795269171865725,inf,,0.8229701658878547
314,3.5012898715370904,-3.5012898715370904,0.0,1.7616253761572458,1.7186893528026952,0.8134022001047938,4.730303033452608,3.3105039837278234,,,0.5947193981915972,3.501017716944366,inf,,0.8979639563406654
315,5.010635294096255,-5.010635294096255,0.0,1.653639621990255,1.621007247114534,0.5595003271064233,1.9093761004823593,1.3653306351904562,,,0.5113665138247345,5.0106352940962555,inf,,0.7290657957003689
316,4.31748811353631,-4.31748811353631,0.0,1.3887334790115378,1.3752574168730047,0.5077170435608199,2.5251541539208158,1.546717430333476,,,0.5783247308855777,4.31748811353631,inf,,0.7698682031522011
317,5.7037824746562,-5.7037824746562,0.0,1.600090411350432,1.5846582148813464,0.5790923324186734,2.8045168551751214,3.2926321663185063,,,0.48319206230712763,5.703782474656201,inf,,0.7897214902036869
318,4.049785847368667,-4.049785847368667,0.0,1.7372464944099564,1.7080905559852952,0.7633471504912577,3.6938183857714186,19.605892315875128,,,0.5604843169999094,4.034190639402354,inf,,0.84607092580487
319,5.010635294096255,-5.010635294096255,0.0,1.6533049260218289,1.6053805212629177,0.7988401098900625,4.018603910767857,11.356085137305609,,,0.5370774965580548,5.0106352940962555,inf,,0.8909908365710765
320,4.9444093264385875,-4.9444093264385875,0.0,1.4586830473212689,1.4312846937554677,0.8095093260724092,3.233095709651294,2.2835318177501374,,,0.4576907132971797,4.932132232608312,inf,,0.909910814356534
321,4.605170185988091,-4.605170185988091,0.0,1.6947924433971262,1.7155508961953587,0.7590972747218211,3.53260866076665,3.723359598371488,,,0.5329562494928909,4.605170185988091,inf,,0.8988407020646816
322,5.412660658821023,-5.412660658821023,0.0,1.709955308907633,1.6888106811715546,0.552096399322522,3.1041905082435393,7.081315847852447,,,0.47824363442641393,5.353125603043032,inf,,0.7655640186387582
323,3.757872325600888,-3.757872325600888,0.0,1.4597833482773284,1.4454622145864973,0.7782593420224576,3.71467498692918,4.1582176283944685,,,0.524519217297268,3.757872325600888,inf,,0.816631148589842
324,3.624340932976365,-3.624340932976365,0.0,1.6263099583592804,1.599585961864205,0.789452473210258,4.786173053706265,12.520902343280557,,,0.41268473150466,3.624340932976365,inf,,0.7934945218458335
325,4.323241754985346,-4.323241754985346,0.0,1.4062915694727847,1.3708590209044818,0.7624840762060138,4.1857249822284155,5.998784900167395,,,0.5490601803369085,4.322500655359855,inf,,0.9216163341638414
326,3.3370218605939104,-2.8603961437552243,-0.4766257168386862,1.6763513719085719,1.5977377794740433,0.7616456344989093,3.217290570668055,2.0889250893116023,,,0.5604843169999094,3.336034055755742,4.852655068688459,inf,0.6718582694642088
327,3.883762047459815,-3.883762047459815,0.0,1.635412715305111,1.641318093651029,0.7138164842543249,3.2831794962222016,3.420688470836665,,,0.468121228110369,3.881924974270867,inf,,0.8631956268314382
328,3.8874558272050685,-3.8874558272050685,0.0,1.7307683321540883,1.6919331024964916,0.8444709744299626,3.4559033085942517,4.703050305794929,,,0.5490601803369085,3.8754768057706794,inf,,0.8104111347134588
329,3.542970965778971,-3.542970965778971,0.0,1.4997635383728305,1.4995743067248293,0.8293553465066021,4.2494409356313385,4.25262385285785,,,0.5329562494928909,3.5396934589160804,inf,,0.827184170099175
330,3.6554982579220874,-3.6554982579220874,0.0,1.645080681290499,1.6134231777870682,0.725649566234449,3.808624819662536,2.841943019828939,,,0.43586655696697996,3.6539414027526558,inf,,0.6403150909119452
331,3.9132880644133485,-3.9132880644133485,0.0,1.786468816388441,1.7651632832101394,0.8064576150698521,3.551951595810842,2.322234029727695,,,0.44694259446804574,3.912578715361869,inf,,0.9299370200203474
332,3.3532245911606453,2.3472189822300416,-5.700443573390687,1.7032853788203572,1.6820150962327411,0.8235419680893041,3.5282671420106038,4.190944853750819,2.348353765835559,,0.5158180382284114,3.3520898075551275,2.3550315683665883,inf,0.9292947671294981
333,3.624340932976365,-3.624340932976365,0.0,1.7717050584154537,1.7762539515496911,0.6693983338732854,3.507730229649235,5.8111151404437535,,,0.585052858160615,3.624340932976365,inf,,0.9362292716022966
334,4.002836081700857,-4.002836081700857,0.0,1.0778223949835135,1.0118860925519502,0.7828171787493307,3.473082998816382,12.729114805654767,,,0.581717464821069,3.9893841265856143,inf,,0.7213703654722803
335,3.6646601807287977,-3.6646601807287977,0.0,1.5371175026967565,1.553804156525749,0.8359297056975207,3.6847937385024103,2.9648538757987883,,,0.6097226960127671,3.661696719520134,inf,,0.711729866769461
336,3.2548137050316295,1.8736790081526347,-5.128492713184264,1.732768715790371,1.7275327260582565,0.8082738087878368,4.3776573713976745,18.537852318073554,3.484095798271132,,0.5113665138247345,3.2533522543981737,2.559501315312389,inf,0.7675764330227127
337,4.233437375874625,-4.233437375874625,0.0,1.5986590780829768,1.580485871227932,0.854403151756065,3.981519808818288,12.42716925609974,,,0.5641709578113449,4.227495075009606,inf,,0.9328999729821712
338,4.0943445622220995,-4.0943445622220995,0.0,1.4099227748500276,1.3725046546767763,0.7682250216360675,3.8405650500415205,10.041914012955575,,,0.4732203808476458,4.0943445622221,inf,,0.9209739054003461
339,5.703782474656201,-4.905252928204333,0.0,1.7349298786585357,1.7012409151237617,0.7210041760674569,4.235558215231949,9.851109936242265,,,0.44144624493110796,5.8546053643907845,inf,,0.9319243328939613
340,4.246118908277022,-4.246118908277022,0.0,1.6950748494775003,1.6876283804816747,0.7252566880419953,3.6047598000799876,3.731988578547962,,,0.4629450596409901,4.234373206825804,inf,,0.7692929936895059
341,2.9912145770743606,2.7092289963163263,-5.700443573390687,1.6753600625075,1.6797710933826246,0.7348269427306859,3.8325597386300254,2.920059099721221,2.7093671113728894,,0.42445136339222655,2.991076462017797,2.7160449139039184,inf,0.7121881503986224
342,3.392301764880418,-3.392301764880418,0.0,1.7013709258713163,1.7066166205681441,0.8773524335771214,3.90509522758909,5.5051285493982824,,,0.5713653840954815,3.391907334755063,inf,,0.9316283530673551
343,5.010635294096255,-5.010635294096255,0.0,1.5837111243062543,1.5669407035661023,0.8113740203686781,3.651490495751827,10.32282503310593,,,0.4928685327679205,5.0106352940962555,inf,,0.9496273887746947
344,4.0943445622220995,-4.0943445622220995,0.0,1.6594717571753452,1.6239976806483767,0.7934251827121431,3.9957349357913534,8.941587121891974,,,0.4576907132971797,4.0943445622221,inf,,0.8603339963730942
345,4.074974135379656,-4.074974135379656,0.0,1.6693950155670894,1.6261698705145085,0.717457469975734,2.829467722735259,2.0765503130831346,,,0.552929491858785,4.056406722881708,inf,,0.8751835885140095
346,4.315256678023169,-4.315256678023169,0.0,1.739532082310272,1.697011944644585,0.8726320975929266,3.61559378840499,4.504540091908715,,,0.5158180382284114,4.314991233337723,inf,,0.7931953272082193
347,5.010635294096255,-5.010635294096255,0.0,1.4278069809835123,1.3944253999552183,0.7400479971281819,4.139720257393732,1.612129076100687,,,0.585052858160615,5.0106352940962555,inf,,0.9450199571687243
348,4.916026768871016,-4.916026768871016,0.0,1.723263088305091,1.7105728778884786,0.7515435720305185,4.327496599989873,23.996380063943846,,,0.4576907132971797,4.90028723692739,inf,,0.8532105249728339
349,5.7037824746562,-5.7037824746562,0.0,1.7460820548500386,1.735327019180179,0.6794691296694901,4.708965806740502,8.86468854366154,,,0.47824363442641393,5.703782474656201,inf,,0.9185040894707933
350,4.605170185988091,-4.605170185988091,0.0,1.5900288668761033,1.5437477078506385,0.6804045885347133,3.383291483659703,2.3328450069197073,,,0.48319206230712763,4.605170185988091,inf,,0.9360069212526148
351,4.0943445622220995,-4.0943445622220995,0.0,1.700982707218634,1.7103007633074754,0.8073795018769127,4.439246735631532,8.00244503875872,,,0.5490601803369085,4.0943445622221,inf,,0.8795260047230562
352,3.3093819084506566,-3.3093819084506566,0.0,1.5518041282343313,1.5520340013170286,0.7780278396358173,4.345617239641608,26.35021947336544,,,0.541134803179459,3.309226103123345,inf,,0.8733982576599345
353,4.605170185988091,-4.605170185988091,0.0,1.0769345713067868,1.0725058847551516,0.692134022240402,4.145729889393731,13.986052923370234,,,0.4880666971167561,4.605170185988091,inf,,0.9166908663431164
354,,0.0,0.0,1.5995104213217783,1.5622928873743727,0.697998322971389,4.081580018581441,13.4417458090164,,,0.4732203808476458,inf,,,0.7772882089010135
355,5.7037824746562,-5.7037824746562,0.0,1.73533094862297,1.7253407396363272,0.6522250098978745,3.760579332294817,10.157861390985058,,,0.5451288209179292,5.703782474656201,inf,,0.9134230363046552
356,3.5065578973199822,-3.5065578973199822,0.0,1.6855784681251873,1.6546002775813946,0.6651630078586659,3.882587205910821,2.835988832713496,,,0.5287703885177266,3.506557897319982,inf,,0.8657377005787651
357,5.7037824746562,-5.7037824746562,0.0,1.761160320220958,1.7187325407449339,0.7809065480878256,3.6338584133557066,3.416077371736083,,,0.5287703885177266,5.703782474656201,inf,,0.8067879318863966
358,5.7037824746562,-5.7037824746562,0.0,1.4380385966979259,1.4278202360927326,0.7918549338537381,3.868007997941541,2.4604204944677255,,,0.49759852643134905,5.703782474656201,inf,,0.7172504631315461
359,5.701471984054334,-5.701471984054334,0.0,1.443888661838684,1.4069737048501232,0.7750563280987811,3.627058793481858,7.340530878292695,,,0.4880666971167561,5.700454684563526,inf,,0.6566410333216436
360,4.79979343788001,-4.79979343788001,0.0,1.6342756082939012,1.6162439714860826,0.6267030127758023,2.64227670121939,2.165755645496974,,,0.468121228110369,4.779523573132869,inf,,0.7801754469724886
361,5.7037824746562,-5.7037824746562,0.0,1.6711245780304673,1.639801545221685,0.6188932469334949,2.4226191644220596,1.251069387437616,,,0.49759852643134905,5.703782474656201,inf,,0.7029897512429124
362,4.640091605242407,-4.640091605242407,0.0,1.5879301677712143,1.5689968872724147,0.7079242479153511,3.3311505071514924,2.2537297868762574,,,0.49759852643134905,4.631057956940219,inf,,0.8586436821714819
363,4.657880650042152,-4.657880650042152,0.0,1.6806485498689145,1.5940582554800218,0.8043043952266931,3.221510646794444,2.7899216534913145,,,0.5202020156036558,4.649470444884671,inf,,0.6492279600755182
364,4.31748811353631,-4.31748811353631,0.0,1.700295919004238,1.6934043328612964,0.620443070166854,3.178773351287704,2.5303388375591687,,,0.44694259446804574,4.31748811353631,inf,,0.6214558448742319
365,3.5065578973199822,-3.5065578973199822,0.0,1.7469201284341347,1.7632152174838385,0.8196932974618707,3.986972945177601,18.4167368634131,,,0.5202020156036558,3.506557897319982,inf,,0.8818452019962788
366,3.7681490375893723,-3.7681490375893723,0.0,1.489127688018597,1.4686021683273511,0.7252375356877615,3.1014727522013903,4.2567693776026125,,,0.5641709578113449,3.7674417766170385,inf,,0.7205327476813767
367,3.757872325600888,-3.757872325600888,0.0,1.72765750176792,1.6930569068516788,0.6686879005060421,3.844412138548572,7.752178635089299,,,0.5022576003740722,3.757872325600888,inf,,0.8575942483164012
368,4.0943445622220995,-4.0943445622220995,0.0,1.7574782852846567,1.747331350901288,0.6470635720325645,3.0512477791711037,2.29589926550656,,,0.5202020156036558,4.0943445622221,inf,,0.7628877718058763
369,4.074289190974765,-4.074289190974765,0.0,1.5624617262431582,1.5385572612300393,0.7307073864764734,3.825644850997512,3.0661172954193034,,,0.5113665138247345,4.072583070440588,inf,,0.7443191481371917
370,5.7037824746562,-0.969643020691554,0.0,1.5988880216128911,1.5519368940362113,0.8086524174495586,3.5610330468460725,6.327432083570226,,,0.5158180382284114,7.4757393165880766,inf,,0.8096796483386484
371,5.010635294096255,-5.010635294096255,0.0,1.670906229794715,1.6961872916167908,0.7240821170170375,3.6717290508722162,5.247888881900837,,,0.45235697871908603,5.0106352940962555,inf,,0.7839981838163291
372,4.805199639321452,-4.805199639321452,0.0,1.6271235041557506,1.6210114957921031,0.7672350870861854,3.086509388381414,1.9303642381458173,,,0.5068466436745385,4.784828625362563,inf,,0.7239197016802136
373,4.7876294846367635,-4.7876294846367635,0.0,1.1914550361496832,1.1485078255310597,0.722598870185326,3.8637271580108346,7.431453784429687,,,0.5329562494928909,4.767689115485866,inf,,0.6004885206581453
374,,0.0,0.0,1.6572914719024368,1.5876641514327918,0.6065689747353026,2.725040762642754,1.5743565826632206,,,0.5068466436745385,inf,,,0.8138995299914547
375,,0.0,0.0,1.7022313489897243,1.7000773315541229,0.6909700498877587,3.5284371336943656,2.676659999762609,,,0.5567373465730988,inf,,,0.9345371783383494
376,5.00117444157373,-5.00117444157373,0.0,1.6643662633787126,1.6596076819394523,0.6862313492632104,3.4317817340837045,3.166709862429513,,,0.5370774965580548,4.9990361582529035,inf,,0.8884450788828558
377,4.119434646126933,-4.119434646126933,0.0,1.48846264008379,1.457636087110636,0.7357971781931615,3.282807368754932,4.525205552951737,,,0.49759852643134905,4.11659017116942,inf,,0.8439473951357567
378,,0.0,0.0,1.7445483449454937,1.7421882392176513,0.679786755449103,3.279537035539462,2.58781336746202,,,0.4880666971167561,inf,,,0.7572094431037409
379,4.0943445622220995,-4.0943445622220995,0.0,1.5344486308943663,1.4894827102583208,0.7981189138896871,3.3259603549967354,1.963557132313495,,,0.5113665138247345,4.0943445622221,inf,,0.8719219615276391
380,5.010635294096255,-5.010635294096255,0.0,1.5712753858849628,1.4830257206876776,0.7718922001747,3.5140051924756004,2.049441116611013,,,0.5677978065141052,5.0106352940962555,inf,,0.8858974398635192
381,5.7037824746562,-5.7037824746562,0.0,1.4096150070075253,1.3969831116316027,0.6948648043173737,3.3304193261722297,1.9031023482357474,,,0.48319206230712763,5.703782474656201,inf,,0.931855257007065
382,5.010635294096255,-5.010635294096255,0.0,1.5583000604669754,1.5523449748796203,0.7632591918488065,3.5001627804786053,3.948457902221564,,,0.5287703885177266,5.0106352940962555,inf,,0.8230732848202571
383,3.981912935532495,-3.981912935532495,0.0,1.7120039124294855,1.7034101595630922,0.7391201714004662,2.986780517655922,4.8061681129120615,,,0.4629450596409901,3.9780441065259398,inf,,0.6574931827142403
384,4.605170185988091,1.095273387402596,-5.700443573390687,1.664268927265626,1.6189824935120258,0.6371132013094603,2.740076962444595,2.4412341764455454,1.095273387402595,,0.5202020156036558,4.605170185988091,1.1019511899336245,inf,0.7400252234700759
385,3.624340932976365,-3.624340932976365,0.0,1.6118809717009819,1.6136246013907476,0.6407059694288765,3.254767730008639,6.904886450178296,,,0.5287703885177266,3.624340932976365,inf,,0.6434503990142647
386,4.208527378156176,-4.208527378156176,0.0,1.4844719262330108,1.4345292383462709,0.7342378475480809,2.615172797058258,1.899658820416974,,,0.552929491858785,4.188655241693342,inf,,0.806943454299557
387,3.734281779570556,-3.734281779570556,0.0,1.5456017347219355,1.530095108334841,0.8254963534356423,3.1431994757723944,2.446145709301186,,,0.5451288209179292,3.7329474519480392,inf,,0.8650918589024529
388,,0.0,0.0,1.670405973333431,1.6657354259960588,0.7872083906737753,3.783594618020912,2.564405312282682,,,0.6008849035917525,inf,,,0.9148870319578923
389,5.7037824746562,-5.7037824746562,0.0,1.6443128055383194,1.6176178700798678,0.7889955315398413,4.289599205792665,4.878944670010928,,,0.5158180382284114,5.703782474656201,inf,,0.9480582512003703
390,4.906565916348493,-4.906565916348493,0.0,1.6952273582137742,1.689587335100976,0.8649151830217038,4.44973374936371,6.517064178074654,,,0.6097226960127671,4.889893676400127,inf,,0.9539201178120892
391,,0.0,0.0,1.2277577907293422,1.2024622165991887,0.6781459953724419,2.5903931389963843,2.3650816783591453,,,0.5329562494928909,inf,,,0.9340508609238213
392,,0.0,0.0,1.3475810968660014,1.3085469294832535,0.6068891285941223,3.7039934018118825,3.3412367535892358,,,0.4576907132971797,inf,,,0.9346558397189005
393,,0.0,0.0,1.2677756253451695,1.2289676436845045,0.8571540697590854,3.3032200425162093,5.635288530278611,,,0.5113665138247345,inf,,,0.8602722489929713
394,,0.0,0.0,1.7133157816082516,1.6690053111433332,0.7646934323547995,2.9379943464791904,5.695570342865206,,,0.45235697871908603,inf,,,0.9063385661508805
395,,0.0,0.0,1.3794411268848188,1.3668166798177315,0.7361478714937592,2.4874131682385427,1.9625886624649143,,,0.5287703885177266,inf,,,0.9328247200905205
396,,0.0,0.0,1.5318608322648708,1.467637928192853,0.6418164269304703,2.5330175367591994,2.4427401695856985,,,0.49759852643134905,inf,,,0.9521171367752059
397,,0.0,0.0,1.0036205727601604,0.955731836224916,0.6010390688004501,2.071840514687812,1.8323637648239117,,,0.5287703885177266,inf,,,0.9359331389479835
398,4.59366290309002,-4.59366290309002,0.0,1.6924295394398854,1.634768146302322,0.6893177899193798,2.4970503354960387,2.4902342473745884,,,0.28007874463063287,4.591924959238071,inf,,0.9463783112578943
399,4.316744301698596,-4.316744301698596,0.0,1.6924295394398854,1.6753329794038485,0.8076564880410424,3.1703490342483,2.8630864530658267,,,0.1995021272786615,4.316655127232418,inf,,0.9388542942165392
400,5.010635294096255,-5.010635294096255,0.0,1.3785397478053558,1.3398427080977415,0.7538394596801656,2.9858150704002058,6.4662651139698575,,,0.1687963801566332,5.0106352940962555,inf,,0.9475953589049745
401,5.7037824746562,-5.7037824746562,0.0,1.3785397478053558,1.3441581945217036,0.7951366284526291,2.5628470913592536,2.6915421534014,,,0.1687963801566332,5.703782474656201,inf,,0.9454228326810836
402,,0.0,0.0,1.780531586082871,1.7621801943378606,0.9402780447060678,3.4916681345733087,19.95546103277531,,,0.47824363442641393,inf,,,0.884169386840902
403,,0.0,0.0,1.7859039068887372,1.746208474937612,0.9406799480064468,3.9306275328332085,53.32639764782553,,,0.4928685327679205,inf,,,0.8662654785046812
404,5.530495679516214,-0.7373994239354952,0.0,1.7399464349964737,1.6825623073950835,0.7657480446848315,3.490450663012944,7.557722082414047,,,0.5287703885177266,7.495541943884256,inf,,0.9154703061964928
405,,0.0,0.0,1.637360791280705,1.5996966813468327,0.8482530379009543,5.188478462444594,74.67393406605112,,,0.4880666971167561,inf,,,0.9145679979247692
406,5.7037824746562,-5.7037824746562,0.0,1.3085409526695886,1.2397461982766282,0.842591998269173,4.40346989399038,80.06276845758383,,,0.5068466436745385,5.703782474656201,inf,,0.898392005955898
407,,0.0,0.0,1.7573635198518298,1.7117298695676337,0.9363607042421964,4.443357214079549,104.30880904849215,,,0.524519217297268,inf,,,0.8990737565398347
408,,0.0,0.0,1.6156633666120752,1.5848681922585328,0.9389273554358973,4.656401868692926,523.7136485913478,,,0.5490601803369085,inf,,,0.851041122166698
409,,0.0,0.0,1.6561302406125782,1.6116190187822717,0.7716633097446141,3.939021807441018,10.594308886703775,,,0.5202020156036558,inf,,,0.902221379022198
410,,0.0,0.0,1.4871145243658885,1.4532880588668955,0.9278261379036528,3.960272653957085,210.37241534488462,,,0.5158180382284114,inf,,,0.839734782946368
411,,0.0,0.0,1.5509790143092257,1.5158123042439668,0.9244593239971082,4.184241094268712,2.0569818713324484,,,0.45235697871908603,inf,,,0.9062205487733551
412,,0.0,0.0,1.7231112260733408,1.6808166851694868,0.9103952979089185,4.179854228283933,96.47896917573165,,,0.48319206230712763,inf,,,0.9058330957389272
413,,0.0,0.0,1.4947764647379125,1.4173726221635252,0.9239559102147886,3.9683033934672194,74.38273214804808,,,0.468121228110369,inf,,,0.9227788014920997
414,5.010635294096255,-5.010635294096255,0.0,1.53930846780304,1.5333351194719065,0.8510165940774008,4.0835390963366525,25.37039664707811,,,0.48319206230712763,5.0106352940962555,inf,,0.7622987272085905
415,4.31748811353631,-4.31748811353631,0.0,1.3755694691874627,1.3491358659075126,0.7982028324641179,3.894715157698073,29.972810597175318,,,0.5287703885177266,4.31748811353631,inf,,0.8947533441480446
416,,0.0,0.0,1.6688066141133224,1.6312465295847942,0.9070144398164431,3.987162458603012,180.96716274704946,,,0.468121228110369,inf,,,0.9008121664251442
417,,0.0,0.0,1.6997726753385596,1.6897410944522449,0.8527966565611568,4.178615077441969,19.705135784061667,,,0.4732203808476458,inf,,,0.920222016511521
418,4.0943445622220995,-4.0943445622220995,0.0,1.4466004602211362,1.4076044286711857,0.849149988712136,4.213890068463737,64.58651233965718,,,0.468121228110369,4.0943445622221,inf,,0.9360674022327674
419,,0.0,0.0,1.6239804971782996,1.555802207109856,0.9264752565656162,4.33115133994712,104.08702066879742,,,0.5113665138247345,inf,,,0.9000184147985435
420,4.31748811353631,-4.31748811353631,0.0,1.6094713859897436,1.5933347265223792,0.8042506876800932,2.8676686381084027,2.0355939906942764,,,0.5451288209179292,4.31748811353631,inf,,0.849999550508824
421,,0.0,0.0,1.6980044304399633,1.674556567028992,0.42850707604128935,0.3523996893055166,0.31814600271383836,,,0.47824363442641393,inf,,,0.9023691057686596
422,,0.0,0.0,1.3363221676600132,1.305894801071619,0.6439814185886714,0.4863298267255788,0.506663968673671,,,0.5022576003740722,inf,,,0.9409190544187235
423,,0.0,0.0,1.4535185993521786,1.4611191211271142,0.500455658858235,0.2988175116191637,0.30418084892584485,,,0.4732203808476458,inf,,,0.9395619772546681
424,,0.0,0.0,1.5550054437209262,1.5502585807295741,0.4936399752773031,0.40931830772716776,0.30223135046963245,,,0.4928685327679205,inf,,,0.922745591847992
425,,0.0,0.0,1.5376548110905903,1.5186934420060731,0.5036063698450929,0.44584876770290044,0.30458180565587084,,,0.4629450596409901,inf,,,0.9334956085588295
426,,0.0,0.0,1.634483072591927,1.6116294499498522,0.44937099431676897,0.6989086412125632,0.5072451023358796,,,0.4629450596409901,inf,,,0.9438571225598957
427,5.7037824746562,-5.7037824746562,0.0,1.3059637923875704,1.061152687108323,0.5235820467222396,1.872134627840251,1.2179680561215418,,,0.40055318934786044,5.703782474656201,inf,,0.6929730914815956
428,2.5749560231126765,-2.5749560231126765,0.0,1.548944731137702,1.5027837865831846,0.9388811769099401,4.399989998612263,1.7094095239724645,,,0.4576907132971797,2.5748313573159876,inf,,0.8797541683119068
429,3.035748139016423,-3.035748139016423,0.0,1.4528124561830191,1.4169709157609751,0.9627655599584515,4.257923544182373,240.21630832624606,,,0.4732203808476458,3.035166342799398,inf,,0.8490921236641243
430,4.0943445622220995,-4.0943445622220995,0.0,1.6913662075050915,1.5364311886693909,0.7836610065314041,1.7000180507236367,0.9437768589620934,,,0.468121228110369,4.0943445622221,inf,,0.8672069026847447
431,,0.0,0.0,1.5134275114089344,1.5096020929015153,0.27404115260836776,0.5330871258574412,0.7597794462846108,,,0.41861278947482794,inf,,,0.9506691723513933
432,,0.0,0.0,1.122439310241047,1.1061350253568423,0.2818841655499877,0.6383627857573481,1.0496157072992554,,,0.5068466436745385,inf,,,0.5740630142633779
433,2.825197982169202,-2.825197982169202,0.0,1.4672335721741598,1.4585306338399533,0.7694368457173842,4.462927603773025,16.515674747395636,,,0.5783247308855777,2.824396768972632,inf,,0.6598307112688472
434,2.5146721143644215,-2.5146721143644215,0.0,1.6599023946252385,1.5820953803712512,0.8711412237874776,4.80245725347678,101.59285459773587,,,0.6068309995095971,2.513992230683097,inf,,0.7426398844286266
435,2.7608639638284544,-2.7608639638284544,0.0,1.5305323034005969,1.4801557887155783,0.9090094511714324,4.56743616398172,127.50793440946616,,,0.5158180382284114,2.7605723203613204,inf,,0.8169916744749454
436,4.605170185988091,-4.605170185988091,0.0,1.3358568943040035,1.2989900088450081,0.71297219550106,4.170426134759756,20.932986291119626,,,0.44694259446804574,4.605170185988091,inf,,0.6669079784226319
437,,0.0,0.0,1.2956472183833656,1.2728850832640413,0.7596715724328873,3.859045513591461,29.71429876058305,,,0.4880666971167561,inf,,,0.8922833252500537
438,,0.0,0.0,1.4403043474246569,1.3892163992516358,0.7016913272954338,4.1044838490911335,42.9568156340664,,,0.541134803179459,inf,,,0.7593127009600011
439,,0.0,0.0,1.7659689194800017,1.7357577427800552,0.9435470359865871,3.7280093076568446,27.62924163833991,,,0.5748741956352443,inf,,,0.8845799269990302
440,,0.0,0.0,1.0574859910118846,1.0103334246796782,0.44049500620470233,3.989621315062725,49.65807202262497,,,0.5451288209179292,inf,,,0.6954681929297497
441,2.9792528827806737,-2.9792528827806737,0.0,1.3126208967037074,1.2687495217564337,0.6820340535399045,5.34754931556556,7.950470365093285,,,0.5113665138247345,2.971581813321708,inf,,0.681058330417303
442,5.7037824746562,-5.7037824746562,0.0,1.6950941322694408,1.6904445382454532,0.81606320259688,3.8198364924713357,8.98472076637485,,,0.5287703885177266,5.703782474656201,inf,,0.8276726674348849
443,,0.0,0.0,1.7833829575579305,1.7557831388784475,0.9552624990022716,4.078623453571164,95.76396957219174,,,0.3751344627501719,inf,,,0.853953339711612
444,,0.0,0.0,1.7405912837916013,1.7269004445428524,0.9460647777706712,3.87591209913239,106.96143916362395,,,0.5641709578113449,inf,,,0.8579770588158212
445,,0.0,0.0,1.7061305076670688,1.6823686848282158,0.9549327290003202,4.361910110659706,23.631577235448002,,,0.38163879478178075,inf,,,0.8603371115875165
446,,0.0,0.0,1.6188070158071295,1.6019214587592359,0.9286395261240524,4.000011775752656,58.7006212206866,,,0.36181263880445963,inf,,,0.8401789718676016
447,,0.0,0.0,1.7122081661085669,1.7043898568007396,0.6329782453339561,3.5070833559001,90.69396591522839,,,0.4732203808476458,inf,,,0.920169296342082
448,3.9120230054281455,-3.9120230054281455,0.0,1.5314758227683427,1.4924644711705626,0.7516015642355436,3.66455145152088,9.452134315799231,,,0.5202020156036558,3.912023005428146,inf,,0.9292840698383733
449,,0.0,0.0,1.6584804232618628,1.6291042944094747,0.9594291389602304,3.9245068906063056,81.78280979803023,,,0.47824363442641393,inf,,,0.8843809134410541
450,,0.0,0.0,1.7865838302643853,1.7350702157765188,0.9472487651551204,4.191994374052041,28.812505685044684,,,0.4576907132971797,inf,,,0.8978085927688783
451,,0.0,0.0,1.7169533860542996,1.6831694670017314,0.9588415814407139,3.527976401288603,28.333825405142786,,,0.4576907132971797,inf,,,0.9005635529509074
452,,0.0,0.0,1.742818071440325,1.687421358160084,0.9482019642317522,2.8363431669990673,14.736036495156656,,,0.40055318934786044,inf,,,0.8609502299968289
453,,0.0,0.0,1.4716151640032338,1.4446913338295186,0.9480010098780239,3.613695838192456,10.43059083614226,,,0.4880666971167561,inf,,,0.8828601044603726
454,,0.0,0.0,1.6024458568308846,1.588718623964493,0.9613816173329136,3.10948661884715,24.01304258858614,,,0.38804190201132227,inf,,,0.8777236284923131
455,,0.0,0.0,1.4100511961206343,1.4150216066833925,0.936512900767142,3.108286297099615,31.58204128449847,,,0.3751344627501719,inf,,,0.8854797358618003
456,5.7037824746562,-5.7037824746562,0.0,0.9570879090689335,0.9354206450519984,0.6035389818312863,3.103492435429032,4.056889702033431,,,0.44694259446804574,5.703782474656201,inf,,0.6221150367427598
457,4.525578145943099,-4.525578145943099,0.0,1.3665836882153706,1.325119823369001,0.7624285058783585,3.2164339045227166,10.024304268722702,,,0.49759852643134905,4.516955829165235,inf,,0.8435413098519103
458,,0.0,0.0,1.6254944260547959,1.606197872239785,0.7933232058675358,2.3960631343126035,2.6827185250142334,,,0.44694259446804574,inf,,,0.9004098059654727
459,4.605170185988091,-4.605170185988091,0.0,1.2324779473019065,1.2335966290744222,0.6203934952074504,2.5310621119351797,2.9424942861331402,,,0.41268473150466,4.605170185988091,inf,,0.8070922215472922
460,2.9311937524164198,-2.9311937524164198,0.0,1.3884802486017618,1.3620227271076042,0.7870864818356502,4.0002155548678,14.409792137466056,,,0.48319206230712763,2.9311937524164198,inf,,0.907877097108279
461,3.064972171614788,-3.064972171614788,0.0,0.9792594092292198,0.942127945788998,0.9652252501981169,4.814193164804258,4.312587302732092,,,0.43586655696697996,3.0649632686282087,inf,,0.8565519795324761
462,,0.0,0.0,1.3447577522039094,1.3163310987944021,0.9176766769271045,3.2855510492649813,2.560382332594755,,,0.43586655696697996,inf,,,0.8760789568692947
463,5.7037824746562,-5.7037824746562,0.0,1.4541531407782733,1.3912397120038194,0.7277564218715413,4.001092377692601,33.94003276205737,,,0.4928685327679205,5.703782474656201,inf,,0.9038668850351744
464,,0.0,0.0,1.5751488975525805,1.5543579446508347,0.9565900595855639,3.8000540478132354,78.90999356833238,,,0.4732203808476458,inf,,,0.8800413547944588
465,,0.0,0.0,1.5533817738414721,1.513531406979249,0.9560576551437234,4.000523158784745,21.38410602794323,,,0.44144624493110796,inf,,,0.8712965314199469
466,,0.0,0.0,1.2620258573030578,1.2426891383394563,0.9624792056545088,3.858334828754621,46.81828468230337,,,0.38804190201132227,inf,,,0.848245101080409
467,5.010635294096255,-5.010635294096255,0.0,1.656816475755103,1.6451214787189843,0.7089068772282688,4.161885516171913,35.712145312836185,,,0.4576907132971797,5.0106352940962555,inf,,0.844678171598831
468,,0.0,0.0,1.6399729966678673,1.6187483492191317,0.8409648668948714,4.089953744186356,25.99083908555737,,,0.44694259446804574,inf,,,0.9064232259073225
469,,0.0,0.0,1.7652326655117598,1.745313962873577,0.9668344301348389,4.934487902760335,8.818596916241244,,,0.5158180382284114,inf,,,0.8818668079811794
470,,0.0,0.0,1.357196778733608,1.2959883541277313,0.9601815355493443,4.348202013276281,67.45557458448283,,,0.5158180382284114,inf,,,0.8958032466901091
471,,0.0,0.0,1.5417268399323523,1.527434789223737,0.9533206091358882,4.177619879018344,38.48631374384324,,,0.41861278947482794,inf,,,0.9069839520260604
472,,0.0,0.0,1.6449252921961108,1.6180054469976763,0.9570026564427238,4.275442582997975,78.05400993525046,,,0.49759852643134905,inf,,,0.9136174627390928
473,,0.0,0.0,1.463162440360402,1.4417374487333017,0.9536058209921163,3.7027574958660368,19.71144351035814,,,0.49759852643134905,inf,,,0.9253859017360443
474,,0.0,0.0,1.475706236517928,1.4410188733330835,0.7304177957686443,4.330345561900353,20.826743225672637,,,0.468121228110369,inf,,,0.86385565142121
475,,0.0,0.0,1.2920288617728843,1.267232897291137,0.767187800533611,2.403563088314463,2.36869769832028,,,0.5022576003740722,inf,,,0.8840791016331824
476,,0.0,0.0,1.063118587857202,1.0420278912255183,0.6818492725161299,2.935648338338144,4.307282269534951,,,0.44694259446804574,inf,,,0.8400610794255663
477,,0.0,0.0,1.6514475219434124,1.61127321491024,0.968790992649111,3.0341344328118405,4.44964574320956,,,0.40055318934786044,inf,,,0.8308811356170798
478,,0.0,0.0,1.1395683235306104,1.0912191610799615,0.9697792594786309,2.978611273488438,6.872545212916998,,,0.38163879478178075,inf,,,0.8302306695948397
479,,0.0,0.0,1.380122831849599,1.36971464065798,0.9655106553340455,3.403774450917491,4.726837188465138,,,0.49759852643134905,inf,,,0.84195212325953
480,,0.0,0.0,1.486640867066776,1.4248047508256323,0.9702615828684102,3.074139371236754,2.9699851116127536,,,0.45235697871908603,inf,,,0.8078567940774819
481,,0.0,0.0,1.4517550315739312,1.4333485118246694,0.9675903305288645,3.132135271415663,8.48974671034509,,,0.3943459996787778,inf,,,0.8498052340267476
482,,0.0,0.0,1.658024076215072,1.6313615662463052,0.9786125698321361,3.5203751250627335,7.569737172108911,,,0.44694259446804574,inf,,,0.8557015139039724
483,,0.0,0.0,0.914401273779705,0.7993464937046378,0.7040357592305945,3.6384357206360227,11.919607174819822,,,0.4928685327679205,inf,,,0.8476462146936721
484,,0.0,0.0,1.39472649992193,1.3195732477002555,0.7366973765827621,3.0819337417967883,2.5637020552901566,,,0.4880666971167561,inf,,,0.9072156615172124
485,,0.0,0.0,1.326051395993916,1.288841302073764,0.9795445736618893,3.4570271881970234,4.803395705805583,,,0.4576907132971797,inf,,,0.9142282058406049
486,,0.0,0.0,1.569292697104495,1.5202217276039136,0.968725544423462,2.9588290729787516,2.570244412065145,,,0.5113665138247345,inf,,,0.8783529303246214
487,,0.0,0.0,1.5633055086754317,1.5436185664096933,0.9405708536437769,3.084292640780114,3.0350788046869943,,,0.42445136339222655,inf,,,0.8554864392378214
488,5.7037824746562,-5.7037824746562,0.0,1.3000431979870368,1.2285252670941122,0.6774360802063359,2.5636185759744596,1.7272828194622152,,,0.45235697871908603,5.703782474656201,inf,,0.8433267698508453
489,5.7037824746562,-5.7037824746562,0.0,1.6304952240584656,1.5923533547964097,0.7834695657975139,2.687535147650846,2.9649343211809454,,,0.4928685327679205,5.703782474656201,inf,,0.9076466254993646
490,,0.0,0.0,1.3131591650946046,1.3110064965541164,0.5902208089807923,2.191480898313053,2.770410612109526,,,0.4629450596409901,inf,,,0.6969957266860018
491,,0.0,0.0,1.5740372234637323,1.525316362057821,0.9636954589505533,3.2291583953698884,1.931135342974566,,,0.42445136339222655,inf,,,0.8921671493845549
492,,0.0,0.0,1.7298333971531568,1.6691449154744045,0.9549436766084656,2.610032620255488,2.8274839375355545,,,0.4302020962658841,inf,,,0.8684403479945854
493,,0.0,0.0,1.3032915251721888,1.283103167465662,0.6816071038623566,2.0989450014976954,2.43510658905745,,,0.4928685327679205,inf,,,0.8202872057156207
494,,0.0,0.0,1.5036854967023168,1.42613483345868,0.7391209470055425,2.711232657362813,2.4859736779383366,,,0.5158180382284114,inf,,,0.7970642319794516
495,,0.0,0.0,1.613179067516764,1.5801678675866129,0.9689428262736286,3.3886566838335717,15.056332423377842,,,0.48319206230712763,inf,,,0.8401844173760715
496,,0.0,0.0,1.7669187496977068,1.730527723285489,0.9822877762583025,3.3476315191692527,2.788825482667412,,,0.40055318934786044,inf,,,0.8010666396773339
497,,0.0,0.0,1.4032776019833522,1.3462064557474565,0.9826645173124028,3.6213000427532727,4.03281364804261,,,0.5113665138247345,inf,,,0.7949149819366759
498,,0.0,0.0,1.6273880305466621,1.6051615707809255,0.9603804421840839,3.8743664036172833,4.495969257812167,,,0.468121228110369,inf,,,0.7801439747010993
499,5.2486158260885025,-5.2486158260885025,0.0,1.4855035010765212,1.4569057266919263,0.8044063771905398,2.5201926370835768,2.773585641334673,,,0.5022576003740722,5.198974923215773,inf,,0.8809085016208625
500,,0.0,0.0,1.6788901455914724,1.653460949918628,0.9457539397420661,2.2861615504810846,2.5276237557588175,,,0.41268473150466,inf,,,0.8207920342992715
501,4.690317858690806,-4.690317858690806,0.0,1.5984428514862254,1.5600619590673244,0.8329585399727425,3.726950963367769,12.322436864898151,,,0.42445136339222655,4.677740878822926,inf,,0.9278750049971791
502,5.7037824746562,-5.7037824746562,0.0,1.7236663239176435,1.6692573526258303,0.9457019809013623,4.3873102471782035,9.378119037494923,,,0.44694259446804574,5.703782474656201,inf,,0.8969969281978597
503,4.533249667875146,-4.533249667875146,0.0,1.7731103242832902,1.7466654065059473,0.8288832308014406,4.338497603465807,11.245779696679222,,,0.49759852643134905,4.5251274783145545,inf,,0.829927373159001
504,4.31748811353631,-4.31748811353631,0.0,1.5618954185535205,1.5369545546764132,0.797201058533423,3.642716110952762,3.3195211487493297,,,0.5883313578629602,4.31748811353631,inf,,0.9119015543603655
505,,0.0,0.0,1.5852016620524516,1.5633393535297284,0.7346481015569561,2.6326899200810976,3.399637770405339,,,0.4880666971167561,inf,,,0.8051073010733093
506,5.535116660719948,-5.535116660719948,0.0,1.520351321739132,1.4771228880637113,0.817607369407558,2.99786651727282,3.7724126398868276,,,0.5567373465730988,5.485986529668587,inf,,0.9448208455282858
507,5.419592130626623,-5.419592130626623,0.0,1.445369723180336,1.3663076847453886,0.8775210820211788,3.246763082832411,3.481727362372885,,,0.5158180382284114,5.360192770266124,inf,,0.9243381947250784
508,4.31748811353631,-4.31748811353631,0.0,1.6803010958008526,1.6453768169760579,0.9103506229706473,3.950410270575405,2.1678051929413713,,,0.524519217297268,4.31748811353631,inf,,0.9213677158860483
509,5.7037824746562,-5.7037824746562,0.0,1.646007394842166,1.5927004830434304,0.8484811203446032,2.598446488693618,1.745715628010435,,,0.5641709578113449,5.703782474656201,inf,,0.8549266961439795
510,5.7037824746562,-5.7037824746562,0.0,1.712060636238821,1.7322013789040054,0.7379598512100319,2.9142866021643616,2.941510159089761,,,0.5677978065141052,5.703782474656201,inf,,0.9441088797972265
511,5.703782474656201,-5.627732041660785,0.0,1.6472525549713246,1.6139817766181508,0.5628249994608281,2.9591631606353728,4.012279636791989,,,0.5567373465730988,5.717205494988342,inf,,0.9419072775363804
512,5.7037824746562,-5.7037824746562,0.0,1.0230236036673852,0.9819972066906121,0.8062987311825853,2.6607122455484675,1.4820845395193913,,,0.5748741956352443,5.703782474656201,inf,,0.9429300429110296
513,,0.0,0.0,1.751633192276947,1.687497946916902,0.7559336021734727,2.3249289296283244,2.5594113340862443,,,0.5370774965580548,inf,,,0.9428722260367988
514,5.7037824746562,-1.254832144424364,0.0,1.6314598845550021,1.616839341867518,0.6764823670012161,2.6131083359472926,2.1650402181468134,,,0.5490601803369085,7.217910207285977,inf,,0.9289433840675122
515,5.0822605027541154,-5.0822605027541154,0.0,1.5835716477747903,1.5589940513831682,0.729229882365296,2.9234509552294856,2.566706235187171,,,0.5604843169999094,5.063684515186071,inf,,0.9263311368200227
516,5.703782474656202,-3.859559474517363,0.0,1.6380213916232687,1.60466113890046,0.5457459945000621,2.447353326647397,2.765614411613715,,,0.26342377874763145,6.094358970270615,inf,,0.9397043548224376
517,,0.0,0.0,1.6380213916232687,1.620880906123661,0.9393521801881541,2.0653793513333736,3.0461730950656736,,,0.28007874463063287,inf,,,0.9093404341540888
518,,0.0,0.0,1.6380213916232687,1.6313274253463959,0.6055952727334466,2.2588990069685457,3.1817007168275815,,,0.22807408875533447,inf,,,0.8457271517179825
519,3.230477341800151,2.469966231590536,-5.700443573390687,1.649575676620962,1.634237349539834,0.8153646691633409,4.2584734979660555,27.647540672489406,2.7197995677493463,,0.541134803179459,3.230049125466326,2.47707225045539,inf,0.6945866987104017
520,4.722755067339458,-4.722755067339458,0.0,1.5445324755142082,1.4838287894797557,0.7437841104446626,3.0050494101944922,2.9318077538313947,,,0.5567373465730988,4.706833839764592,inf,,0.7065340509647443
521,5.280962694514634,-5.280962694514634,0.0,1.6880441025903523,1.6604635765586975,0.6395324224433594,3.062802760281131,5.984134599128856,,,0.38163879478178075,5.22754829565983,inf,,0.9431470203753899
522,,0.0,0.0,1.7760842448265934,1.7526513167020306,0.5754267508884211,2.5758356436765886,2.5685346523972328,,,0.5713653840954815,inf,,,0.9275314116940536
523,5.7037824746562,-5.7037824746562,0.0,1.5938871298224857,1.554226321813769,0.6862082394645687,2.1046655555506955,2.135924565565335,,,0.4928685327679205,5.703782474656201,inf,,0.9069599667471503
524,4.515029803286533,-4.515029803286533,0.0,1.6259240625231197,1.6193002082084693,0.6855583746510845,2.8729499755106245,2.1165897054868483,,,0.5677978065141052,4.505827742655828,inf,,0.7961086373448567
525,4.605170185988091,-4.605170185988091,0.0,1.5826694420503613,1.5534924828707106,0.7131937042573759,2.778355812395378,2.6591456733473,,,0.5567373465730988,4.605170185988091,inf,,0.8148459046173846
526,4.605170185988091,-4.605170185988091,0.0,1.6293839427079448,1.5407940775362987,0.6322152234070294,2.741349523681255,1.8855700618573636,,,0.5713653840954815,4.605170185988091,inf,,0.8789166086433259
527,4.605170185988091,-4.605170185988091,0.0,1.6917164333406882,1.6572492222883766,0.7105106904230544,2.6357256602886845,2.6637603357432122,,,0.5677978065141052,4.605170185988091,inf,,0.8060977795988306
528,5.7037824746562,-5.7037824746562,0.0,1.472335886484068,1.4559887282429786,0.6992901438515818,2.9760298849231233,3.339408234066837,,,0.5287703885177266,5.703782474656201,inf,,0.7614107816049523
529,5.010635294096255,-5.010635294096255,0.0,1.7503998959464286,1.7491572389780494,0.5543915152841565,2.393975642334665,3.6647052468671104,,,0.5113665138247345,5.0106352940962555,inf,,0.8394585763009385
530,5.010635294096255,-5.010635294096255,0.0,1.7310847903904094,1.6982214229521742,0.6139770464814235,2.4913910989783994,1.3057426134621979,,,0.21876365787541036,5.0106352940962555,inf,,0.9446189762571431
531,5.609052359979675,-5.609052359979675,0.0,1.771265995708998,1.767302098674358,0.6811271362705421,3.2908731816193626,4.9311759463282865,,,0.5490601803369085,5.575682472028885,inf,,0.8113764118733225
532,5.010635294096255,-5.010635294096255,0.0,1.544013309242848,1.5397504294658995,0.7104001799445754,3.127987108185927,4.893936920922179,,,0.5287703885177266,5.0106352940962555,inf,,0.8108760465201075
533,5.218579448264238,-5.218579448264238,0.0,1.7557898963407235,1.7444227276520687,0.6859876904163544,3.6683776625130915,10.364902217330933,,,0.4880666971167561,5.173154223594031,inf,,0.9041124089797858
534,3.9120230054281455,-3.9120230054281455,0.0,1.5271497711234197,1.5359324470624605,0.613578754582928,3.068133765342159,7.911852740730941,,,0.5490601803369085,3.912023005428146,inf,,0.6503150433102971
535,5.010635294096255,-5.010635294096255,0.0,1.5683594496699844,1.5453678493678087,0.5706992648185848,2.5418596274089236,1.9975171908741176,,,0.5068466436745385,5.0106352940962555,inf,,0.8403972027217429
536,,0.0,0.0,1.70884693268223,1.6459399101406125,0.7168413568178817,3.1394718546824594,3.23672580416989,,,0.5677978065141052,inf,,,0.5475878605545309
537,3.2188758248681997,-3.2188758248681997,0.0,1.623854308549252,1.6047220954758636,0.7982847592143725,3.390276562485016,5.34555859841204,,,0.45235697871908603,3.2188758248682006,inf,,0.8445676303722152
538,3.2098043179985325,2.4906392553921544,-5.700443573390687,1.5472825137238921,1.5106818440771415,0.8144380889527215,3.5026602392584554,14.255213837326792,2.4909678730344007,,0.5604843169999094,3.2094757003562857,2.49764567556543,inf,0.6378154407394596
539,3.9126307439507917,-3.9126307439507917,0.0,1.6613476070863267,1.6457330310343656,0.6879935815543798,3.8680890268948027,1.3619194189455635,,,0.44694259446804574,3.912578715361869,inf,,0.6933311756890403
540,3.5065578973199822,-3.5065578973199822,0.0,1.6150116924673559,1.556493892529077,0.7606454719550135,3.761585272203946,4.955157107238044,,,0.5567373465730988,3.506557897319982,inf,,0.6556141009633096
541,3.5407149776603335,0.5010711011317248,-4.041786078792058,1.5741922785440479,1.5481898753932541,0.7657321710401107,3.3780930192376553,3.1603890845920373,,,0.5113665138247345,3.5393106837917894,2.5116679908486,inf,0.668676747104452
542,3.535864114601792,-3.535864114601792,0.0,1.6946530995073035,1.6612414862791551,0.790239475416012,3.645657454280288,3.562495912294668,,,0.5641709578113449,3.532065656867194,inf,,0.7277393391919871
543,4.0943445622220995,-4.0943445622220995,0.0,1.7335948927497702,1.7157429779181088,0.681252976882599,3.3534889658812697,3.115943114315579,,,0.5158180382284114,4.0943445622221,inf,,0.6854405548218259
544,3.624340932976365,2.0761026404143217,-5.700443573390687,1.6580708056585496,1.649550901154039,0.7037934041444487,2.679887462107601,2.450564801307944,2.0761026404143212,,0.4928685327679205,3.624340932976365,2.0827804429453507,inf,0.7594668823750321
545,3.4253018961455397,-3.4253018961455397,0.0,1.7368525313232754,1.603320531249832,0.7576228174935311,3.651327402132131,3.11306676320676,,,0.5641709578113449,3.4210600107584073,inf,,0.5792759397737189
546,,0.0,0.0,1.541007543501019,1.5096352964920554,0.3790434929399136,2.8439143116646872,2.504134121102342,,,0.48319206230712763,inf,,,0.7277391524317575
547,5.7037824746562,-5.7037824746562,0.0,1.650831333914215,1.603244060227671,0.5931982050251111,2.915951097737647,2.8713911336009112,,,0.5287703885177266,5.703782474656201,inf,,0.7839801633729764
548,5.010635294096255,-5.010635294096255,0.0,1.7400571690315363,1.7098000084204918,0.6073773040301742,3.3676131637752116,1.9816180965952523,,,0.5022576003740722,5.0106352940962555,inf,,0.7474342204189118
549,5.7037824746562,-5.7037824746562,0.0,1.7087100020491635,1.6981258905145649,0.7266358525432149,3.181046655072618,3.3093201515483717,,,0.5113665138247345,5.703782474656201,inf,,0.9258536864934435
550,3.7227090588764304,-3.7227090588764304,0.0,1.7533243139661043,1.744234491383886,0.7437637647864671,3.4337258848277825,1.9820386911898287,,,0.5158180382284114,3.720943614367782,inf,,0.6020554816155783
551,5.7037824746562,-5.7037824746562,0.0,1.7288407348180574,1.695670244890017,0.7743517296873852,4.009436572025469,8.589594310909025,,,0.5287703885177266,5.703782474656201,inf,,0.5757576002963567
552,3.939978977469885,-3.939978977469885,0.0,1.5314985407485484,1.5123295804217423,0.6557865065995693,3.3222129549350154,2.1703457095591046,,,0.5370774965580548,3.937910776380274,inf,,0.746238600940659
553,4.121865600217519,-4.121865600217519,0.0,1.4159383636885954,1.3883176850409276,0.6400024348673502,4.247930269868578,2.6238690475676476,,,0.4302020962658841,4.1193205482922775,inf,,0.764260109384225
554,4.31748811353631,-4.31748811353631,0.0,1.4320909696974602,1.392126548230133,0.7070759660072571,2.9767018271520613,6.266008096624791,,,0.5287703885177266,4.31748811353631,inf,,0.8537673702113787
555,3.757872325600888,-3.757872325600888,0.0,1.617109360976048,1.6341353909978495,0.7732739035297557,3.3491619107079647,4.5906132982593935,,,0.4629450596409901,3.757872325600888,inf,,0.8428643341010714
556,3.9120230054281455,-3.9120230054281455,0.0,1.6422861584188588,1.6063673657295792,0.7992412481619966,3.6669132524416277,14.564161712762322,,,0.5158180382284114,3.912023005428146,inf,,0.7825723995910051
557,3.757872325600888,-3.757872325600888,0.0,1.6959755258645128,1.6455138442806705,0.8414588860281764,4.076140422949379,2.486130481292644,,,0.5370774965580548,3.757872325600888,inf,,0.747102621818016
558,3.3559874973638184,-3.3559874973638184,0.0,1.6772735115286195,1.6665347504876262,0.8519236499506092,4.646790482068278,15.708729339243902,,,0.541134803179459,3.3546319125148347,inf,,0.8127356737441538
559,2.8925857902214616,2.7707662952462857,-5.663352085467747,1.4982620218301756,1.4778700775684885,0.7401130323882248,4.288177975366509,5.555679931809266,,,0.468121228110369,2.8913722582297483,2.763620052257021,inf,0.699994037088051
560,4.286248016352321,-3.5045818407368756,-0.7816661756154454,1.5110348714283293,1.4483154351620764,0.6878186974776771,3.4026924164051406,4.340711631679031,,,0.5567373465730988,4.283086686818978,3.4109061957891162,inf,0.7976982133493292
561,5.010635294096255,-5.010635294096255,0.0,1.5370692968423223,1.481092357325157,0.7682952047395765,3.3198729768001116,2.2812233632043277,,,0.5068466436745385,5.0106352940962555,inf,,0.6220740817423667
562,3.5902363471592413,-3.5902363471592413,0.0,1.5169117655698612,1.5053643861042179,0.7707116130795013,3.4285845540273634,4.163188291933993,,,0.6008849035917525,3.5887325055089976,inf,,0.6608510063204011
563,3.539929757422624,-3.539929757422624,0.0,1.6889857130279595,1.6929485644325362,0.7813048548596347,3.5923492560507415,2.3844431160099395,,,0.5748741956352443,3.538545572813379,inf,,0.6265492729107633
564,4.167981934155789,-4.167981934155789,0.0,1.69315325101929,1.654560095358537,0.7542548366309465,3.149778126437015,7.474333110915164,,,0.5370774965580548,4.162623402975395,inf,,0.8245961838120862
565,3.569768126455574,-3.569768126455574,0.0,1.727754721384688,1.6986497567228105,0.7277299710254765,2.8148240850987682,1.9972773677148843,,,0.541134803179459,3.5680393676077236,inf,,0.5227145227279214
566,3.491657230126097,2.20878634326459,-5.700443573390687,1.5902091489560148,1.569993608138357,0.7550237395282412,3.4391408729918393,2.661924292517898,2.2096861150158875,,0.5068466436745385,3.490757458374799,2.216363917546917,inf,0.7055844681114318
567,3.3516360881639065,-3.3516360881639065,0.0,1.510048442511371,1.4851136926049713,0.7454988842549065,4.292501244798459,1.7806060544071869,,,0.5567373465730988,3.350504267346637,inf,,0.7627347267720764
568,3.5418928080168968,-3.5418928080168968,0.0,1.7214623960259372,1.69174184616925,0.6786177418658004,3.53527498334084,4.744777134465062,,,0.541134803179459,3.540459448995663,inf,,0.6682270114747035
569,5.516632735905016,-5.516632735905016,0.0,1.5993373284672898,1.5456696003277528,0.6523652246645606,3.066519436817095,3.926783447452515,,,0.524519217297268,5.464765574185701,inf,,0.6756131601029141
570,3.9405454226352807,-3.9405454226352807,0.0,1.7484945979470248,1.7255993258829805,0.7859026214968208,2.947708091352881,2.14302952823163,,,0.5451288209179292,3.9271366432381942,inf,,0.9468304678596422
571,4.1372235192395195,-4.1372235192395195,0.0,1.507205392016619,1.4257384859569457,0.734164906505201,3.097967242890901,3.0166440719125256,,,0.5567373465730988,4.122058400789617,inf,,0.750706653087287
572,3.2304300239443644,2.4700135494463225,-5.700443573390687,1.7233243275574395,1.7136358917118977,0.7425164478389675,3.504802738432552,5.995988028589428,2.4726391177781846,,0.5677978065141052,3.227804455612502,2.4793169203092136,inf,0.819356186192405
573,,0.0,0.0,1.6882151130738872,1.663272374434374,0.5358983254483912,2.672266623551692,2.7882275030941908,,,0.1354413587855425,inf,,,0.6398139800963939
574,,0.0,0.0,1.6954314042311815,1.6203569814673233,0.8516548440127826,2.8006523135164403,7.367904358723891,,,0.08522179521623931,inf,,,0.9360178263967771
575,,0.0,0.0,1.6954314042311815,1.6136488480434001,0.6956262313900399,2.787706781578517,5.265834341145425,,,0.1687963801566332,inf,,,0.9183099590334644
576,5.703782474656201,-0.45630259797249606,0.0,1.5878814135286303,1.529004849588868,0.816330393742538,3.0665811059650383,2.615276790060815,,,0.5490601803369085,8.229511118964457,inf,,0.8769480584768979
577,5.010635294096255,-5.010635294096255,0.0,1.656129495630625,1.6551399015376729,0.734505740536552,3.4318907583775418,6.740276437759096,,,0.5604843169999094,5.0106352940962555,inf,,0.8866804783972406
578,,0.0,0.0,1.7292444103978704,1.7308181946221817,0.7488972871659164,3.194382988130257,2.0643384943915217,,,0.5713653840954815,inf,,,0.893938447635587
579,,0.0,0.0,1.5874213904840762,1.5571814297689548,0.7728172513518364,3.4664870804605674,12.984038989814852,,,0.585052858160615,inf,,,0.9300054277257456
580,4.254330157064316,-4.254330157064316,0.0,1.5341181652554376,1.5150879702839053,0.7392178184853027,3.58044866383013,8.44270380050843,,,0.5202020156036558,4.234373206825804,inf,,0.9286187944024182
581,,0.0,0.0,1.718640482667276,1.680505427619128,0.5156247937656852,2.6465323366566276,2.2678940431690835,,,0.2548524784312949,inf,,,0.9382657825689854
582,4.792914096626919,-4.792914096626919,0.0,1.5762989257678652,1.5590805595510853,0.71330902583924,3.047242614164453,2.009695603565322,,,0.5370774965580548,4.75728590072498,inf,,0.8498984469170802
583,4.4316020022755165,-4.4316020022755165,0.0,1.5067286584412884,1.4903056033335622,0.5793569947219408,3.4021374136316043,6.149409751491318,,,0.5567373465730988,4.421923131673194,inf,,0.6806105248398073
584,,0.0,0.0,1.4845403466477778,1.4388076247630266,0.6136289021043493,3.177672061878392,5.41540527996324,,,0.5748741956352443,inf,,,0.7949789299062572
585,,0.0,0.0,1.394687876790171,1.3576526431041456,0.8466659410879445,2.930097339889076,3.2272172927641427,,,0.5287703885177266,inf,,,0.9164688375749819
586,5.7037824746562,-5.7037824746562,0.0,1.5372183733754683,1.4925687334252462,0.8027269158487116,3.3831574496698957,4.958276617389274,,,0.5677978065141052,5.703782474656201,inf,,0.8647682933833896
587,4.308562371483742,-4.308562371483742,0.0,1.56366914865086,1.5695890834825093,0.7165358517720641,3.9329115367167975,8.937232989280504,,,0.5677978065141052,4.307537782683142,inf,,0.8774724745274796
588,4.605170185988091,-4.605170185988091,0.0,1.6620140265753742,1.6191159317561448,0.730922048505454,3.0441358026393126,2.334941702857926,,,0.4928685327679205,4.605170185988091,inf,,0.8819597681962458
589,,0.0,0.0,1.2906121948440648,1.243998157688012,0.7712020588755092,2.5208387891449724,4.33668281776157,,,0.47824363442641393,inf,,,0.9103474401299209
590,,0.0,0.0,1.4076748675867021,1.3664971478853687,0.7869732984233464,2.2173905536960294,3.368639676291552,,,0.4629450596409901,inf,,,0.8744506948786178
591,4.328995396434381,-4.328995396434381,0.0,1.5245607581003071,1.472673252923856,0.8351697606036129,3.7240635667019064,9.830211274278216,,,0.5202020156036558,4.327538449389812,inf,,0.9526333501875967
592,5.7037824746562,-5.7037824746562,0.0,1.4668234529770363,1.4356455149149905,0.6878567772116048,2.758249604303857,3.4867133060090816,,,0.5329562494928909,5.703782474656201,inf,,0.9344761436358602
593,5.7037824746562,-5.7037824746562,0.0,1.507499541033788,1.5020096044570606,0.74545829689802,3.127968715833002,2.447771486973595,,,0.1792956407887421,5.703782474656201,inf,,0.9499375597200997
594,4.640310495357465,-4.640310495357465,0.0,1.507499541033788,1.4717832819898562,0.6356359531682452,2.6959253783929773,2.5085373184708404,,,0.1354413587855425,4.6344845736568665,inf,,0.9003282412353002
595,5.7037824746562,-3.0039921033189323,0.0,1.507499541033788,1.486046847826603,0.7040409574617955,2.371309390232822,2.01644114730207,,,0.1354413587855425,6.344969916285435,inf,,0.9452087488214408
596,5.010635294096255,-5.010635294096255,0.0,1.645336000011193,1.590938521878025,0.7224444469081419,3.2467441436113047,3.219288207105557,,,0.5113665138247345,5.0106352940962555,inf,,0.7644126892700065
597,5.010635294096255,-5.010635294096255,0.0,1.6865338513453776,1.6417829320649737,0.6830693783693677,3.4348145397119,4.7251109037266374,,,0.5158180382284114,5.0106352940962555,inf,,0.7759668553138811
598,,0.0,0.0,1.6764333897522374,1.6357082874233595,0.772828562302685,2.8110127551578117,1.9706539757095847,,,0.468121228110369,inf,,,0.9428705606627917
599,5.010635294096255,-5.010635294096255,0.0,1.7153580528527481,1.700002325184239,0.790266309204877,2.9632770390030103,5.477281767133023,,,0.524519217297268,5.0106352940962555,inf,,0.9424313194701748
600,,0.0,0.0,1.5306070862321757,1.518882210735973,0.773289166715787,2.628889394428785,4.225651417010907,,,0.4066654671944331,inf,,,0.9277602148062061
601,,0.0,0.0,1.5276066245886806,1.538410573874984,0.7307644878705111,2.541077809774013,2.1592926748739565,,,0.5490601803369085,inf,,,0.9380784758481243
602,,0.0,0.0,1.7236328783354038,1.6930509476339204,0.8806266116022603,3.0242299093497094,2.4743247559521744,,,0.44694259446804574,inf,,,0.9420261495552327
603,,0.0,0.0,1.6571016107444507,1.651259875844063,0.7454416500131569,3.507532359301342,3.2696594340020195,,,0.4732203808476458,inf,,,0.9426134534321469
604,,0.0,0.0,1.6707258221333612,1.6597815599266308,0.8965559529500894,3.2393007126235895,4.854583378925705,,,0.4880666971167561,inf,,,0.9324465255478664
605,5.7037824746562,-5.7037824746562,0.0,1.7509257690189532,1.7488548404745534,0.7550961947796244,2.7112806057250536,2.7422538675678965,,,0.4732203808476458,5.703782474656201,inf,,0.9390208200402771
606,5.7037824746562,-5.7037824746562,0.0,1.633084951599048,1.6216073717037958,0.7226130545972792,2.923183826489326,2.4270719312092646,,,0.5748741956352443,5.703782474656201,inf,,0.9505752250702995
607,,0.0,0.0,1.6750883225502249,1.6425864401115942,0.5427695561913235,2.643894790408666,3.457538199979028,,,0.4302020962658841,inf,,,0.946530054086834
608,5.7037824746562,-5.7037824746562,0.0,1.6239025787404668,1.5613083138846222,0.5483102375490049,2.91513167045873,3.5554036883912374,,,0.1354413587855425,5.703782474656201,inf,,0.9520774457256406
609,,0.0,0.0,1.6239025787404668,1.6007540462884586,0.593248173423003,2.594575637154257,3.0963022094364465,,,0.23718601089358102,inf,,,0.9480345965365663
610,5.2208899388661045,-5.2208899388661045,0.0,1.6239025787404668,1.6174654271431532,0.6629783229737801,2.427694594393019,2.480661448939497,,,0.18952474069199465,5.175116932761879,inf,,0.9525070335182304
611,,0.0,0.0,1.500083832510671,1.4900972915472004,0.6849445570048777,2.754283101782969,4.8321485689711725,,,0.42445136339222655,inf,,,0.922405739330872
612,5.703782474656201,-2.9089290620746624,0.0,1.5877653350029761,1.5708189067550267,0.7528731672734538,2.877168408526684,3.749515219913106,,,0.4576907132971797,6.3771270279199666,inf,,0.9390867051271876
613,5.7037824746562,-5.7037824746562,0.0,1.7323784795012453,1.7128049547392823,0.6278138642241147,2.574456857009742,2.039551748774936,,,0.5113665138247345,5.703782474656201,inf,,0.9463863084536718
614,,0.0,0.0,1.5759526878209984,1.5637926184344078,0.7771914059070624,3.033613043115287,4.947441851457801,,,0.5068466436745385,inf,,,0.9369913156928403
615,,0.0,0.0,1.581273021876695,1.5691316838531923,0.6643724703419843,2.8822286259669503,2.5461474899746417,,,0.5113665138247345,inf,,,0.9406201898883046
616,5.7037824746562,-5.7037824746562,0.0,1.771384643662091,1.7701391415978696,0.7567390477736633,2.846899180337113,3.275279836755416,,,0.541134803179459,5.703782474656201,inf,,0.9464487968764647
617,5.7037824746562,-5.7037824746562,0.0,1.5456767971208607,1.5665261474435732,0.7496999980960161,3.3685280873707657,3.381160507697022,,,0.5329562494928909,5.703782474656201,inf,,0.9546230223313519
618,,0.0,0.0,1.6087845643994227,1.5544373767288857,0.9225225712482047,2.934728785107104,3.197009826645792,,,0.09856104664732858,inf,,,0.9516626470496485
619,5.1654381644213085,-5.1654381644213085,0.0,1.5618063071661599,1.5272108865557288,0.842012466618739,2.9798425693489436,2.9047618761360856,,,0.21876365787541036,5.129043525146558,inf,,0.9048394043658747
620,5.7037824746562,-5.7037824746562,0.0,1.1120817625582913,1.093069740842223,0.7273811800342616,2.657161829620592,1.8624579848395983,,,0.20924377657122822,5.703782474656201,inf,,0.939060197598372
621,,0.0,0.0,1.7550083172114141,1.7686223171944306,0.4998050407884938,3.351855087017688,8.836318776720123,,,0.524519217297268,inf,,,0.9390179594969165
622,,0.0,0.0,1.6341873906938638,1.6055381467621463,0.852897093128678,3.2041178930810057,4.417756582945069,,,0.5370774965580548,inf,,,0.9391600391451306
623,,0.0,0.0,1.6793571946224997,1.5941074225881178,0.7050283426687299,2.26145946845953,1.7122172860384226,,,0.5641709578113449,inf,,,0.9325735419482879
624,5.7037824746562,-5.7037824746562,0.0,1.7223815272377254,1.7024856032418592,0.7858389635852979,3.156384535199739,3.1207636347680223,,,0.4880666971167561,5.703782474656201,inf,,0.9182683791835018
625,,0.0,0.0,1.6693481617667272,1.6703709648366154,0.6472276514188622,2.9720214141658996,2.841039847101108,,,0.20924377657122822,inf,,,0.9315905972445666
626,4.609224837069172,-4.609224837069172,0.0,1.6693481617667272,1.6626263687625884,0.673484597616095,3.361279334037308,2.349834818499838,,,0.288175044534938,4.608509087253606,inf,,0.9535992986136388
627,3.9120230054281455,-3.9120230054281455,0.0,1.6185459351530458,1.6040860625016233,0.7115124161125511,2.4086337841889067,1.4787650544301956,,,0.5158180382284114,3.912023005428146,inf,,0.9509667917866055
628,5.247688135075762,-5.247688135075762,0.0,1.675580715844662,1.662021338990006,0.7815573213321793,3.054185128214497,2.8529507394943905,,,0.5022576003740722,5.1234307882416,inf,,0.9509731899056695
629,5.512011754701282,-5.512011754701282,0.0,1.724932343847492,1.6719782334812454,0.7193029093419622,3.0489500064794757,2.47254676520067,,,0.49759852643134905,5.459529960131756,inf,,0.9420675777817844
630,5.7037824746562,-5.7037824746562,0.0,1.779271844706872,1.7787324561352877,0.6551688569134139,3.4119138655329477,4.099455473626275,,,0.585052858160615,5.703782474656201,inf,,0.7097131598228895
631,5.7037824746562,-5.7037824746562,0.0,1.4117554794243317,1.3956301020915545,0.7206102845607979,3.1042242191958875,2.828029549137888,,,0.3943459996787778,5.703782474656201,inf,,0.814864041446338
632,4.991713589051207,-4.991713589051207,0.0,1.5773333997987455,1.5685185855482329,0.5890702121285113,4.010961733354694,14.943714449974824,,,0.5947193981915972,4.98757002116526,inf,,0.9319089262033127
633,5.7037824746562,-5.7037824746562,0.0,1.6615583024290925,1.6357943636451278,0.7788806683750569,3.374935616326615,7.4030403577295925,,,0.552929491858785,5.703782474656201,inf,,0.7754433306752723
634,5.7037824746562,-5.7037824746562,0.0,1.6210986745657072,1.6338115163173905,0.5736232268987213,3.5316565361136663,4.4304152210213,,,0.5451288209179292,5.703782474656201,inf,,0.7316162681904795
635,5.703782474656201,-0.6274160722121821,0.0,1.553032756507951,1.5372844060748636,0.6289413133462433,3.680590861557536,2.067534687059735,,,0.41861278947482794,7.911057387845922,inf,,0.7653409301315794
636,,0.0,0.0,1.4496260824758096,1.4281201966314634,0.8650066399060995,3.5735645303300823,3.41027016332206,,,0.41861278947482794,inf,,,0.8602014972111983
637,,0.0,0.0,1.5212127467181298,1.4824938205855978,0.736464854671091,2.9111722035223275,2.1665642515254966,,,0.49759852643134905,inf,,,0.942913638834873
638,4.270627967760325,-4.270627967760325,0.0,1.571401319439748,1.5171555002564885,0.7319563135115258,3.5440642635525554,11.750101567886682,,,0.5158180382284114,4.266319826961911,inf,,0.9471039251666262
639,5.7037824746562,-5.7037824746562,0.0,1.5288925184977218,1.5340864482074035,0.7385842857198851,3.468252317734329,3.43240500703745,,,0.5604843169999094,5.703782474656201,inf,,0.7392575537852768
640,5.7037824746562,-5.7037824746562,0.0,1.6690616841291144,1.6874108155516128,0.7115731169451699,3.2776193556393896,1.5891241998750307,,,0.44144624493110796,5.703782474656201,inf,,0.8340355077375965
641,,0.0,0.0,1.474177996623787,1.4045152332709534,0.4838810289873011,2.0374367828289075,1.9480678954622244,,,0.5370774965580548,inf,,,0.9417081450709286
642,5.7037824746562,-5.7037824746562,0.0,1.7314808894474938,1.7171951099418714,0.6354155651000359,2.919562918024762,3.633435620304066,,,0.5022576003740722,5.703782474656201,inf,,0.7508402133066101
643,,0.0,0.0,1.6245954209962299,1.5944249609923438,0.7182442697103207,3.0004317588530545,5.7855307677252945,,,0.47824363442641393,inf,,,0.9286259687468467
644,5.7037824746562,-5.7037824746562,0.0,1.7523269021874515,1.7574111231266523,0.6074985357018515,3.35394082679047,13.091068139292604,,,0.4629450596409901,5.703782474656201,inf,,0.9388687506791075
