,bvp+temp_XAp0,bvp+temp_XAp1,bvp+temp_XAp2,bvp+temp_XCond1,bvp+temp_XCond2,bvp+temp_XDist,bvp+temp_XFuzz1,bvp+temp_XFuzz2,bvp+temp_XK2_1,bvp+temp_XK2_2,bvp+temp_XPermEn,bvp+temp_XSamp0,bvp+temp_XSamp1,bvp+temp_XSamp2,bvp+temp_XSpec
0,4.604211245746585,-4.585146217073038,-0.019065028673547448,1.420537698322047,1.3732403595600273,0.6185397827878811,2.7089984040144213,3.1538337568152293,,,0.5490601803369085,4.604059691704064,6.803505257608338,inf,0.7930372358834307
1,3.872971499871907,-3.872971499871907,0.0,1.6528101115735745,1.6007596887871751,0.6703685995254631,2.8453196227095026,2.4269210629734093,,,0.581717464821069,3.8706678197462323,inf,,0.7713853091442915
2,5.056845106133585,-5.056845106133585,0.0,1.7290265023688196,1.7044396903645556,0.8093203029549539,3.3539823750962716,3.0415442081215596,,,0.5748741956352443,5.044536845771937,inf,,0.7591372841929112
3,,0.0,0.0,1.733862824324173,1.6967201605579092,0.7160068423858104,2.9633233834156623,2.6771526796135823,,,0.44144624493110796,inf,,,0.9413321219789936
4,3.9679349495116245,-3.9679349495116245,0.0,1.6832213932149442,1.5854573156669738,0.749354584707966,3.519480159052384,2.545270509509435,,,0.524519217297268,3.964486574963887,inf,,0.7321618623862793
5,3.9120230054281455,-3.9120230054281455,0.0,1.5911528265740453,1.5945149115168173,0.5320509401382234,3.280382052043565,3.1349875110322745,,,0.581717464821069,3.912023005428146,inf,,0.7632911988527991
6,3.395478770873895,-3.395478770873895,0.0,1.4735331695517424,1.432638336480759,0.7901247939835543,4.047450072460663,5.29080258362448,,,0.6068309995095971,3.395215309984608,inf,,0.7637755168858591
7,4.34337950005697,-4.34337950005697,0.0,1.5531955737112442,1.4692597357699149,0.7239069994964656,3.7816826675734423,5.871929336225419,,,0.49759852643134905,4.340245100658927,inf,,0.7013902578648176
8,3.9120230054281455,-3.9120230054281455,0.0,1.4915488145845386,1.471728184619233,0.7044634003436592,3.8563609955864506,16.68322785539585,,,0.5490601803369085,3.912023005428146,inf,,0.6442800881241488
9,3.535595729682923,-3.535595729682923,0.0,1.6817405771448064,1.6953697323557553,0.7561932176977119,3.5031133107768997,2.7848313832473184,,,0.6125606311107803,3.531685789816093,inf,,0.6225716685987649
10,2.760605063986067,2.9398385094046198,-5.700443573390687,1.4901626473150658,1.4633251796308435,0.8709294525297689,3.7601521183341418,5.619158026218378,2.939871253029366,,0.581717464821069,2.7605723203613204,2.9465490555603955,inf,0.5205916990142262
11,2.982394312518893,-1.609712248023477,-1.3726820644954163,1.3844280086023026,1.3788702255429663,0.7754094910790219,4.44656243195231,12.17233381960789,5.5284668424171395,,0.6038851895711802,2.982048546468069,4.148850283828278,inf,0.6862911748152277
12,2.75934349548976,2.9411000779009266,-5.700443573390687,1.6807450569108224,1.6861556370734532,0.7173407704935668,3.4968315530955714,2.6920046058123184,2.9411000779009258,,0.6068309995095971,2.7593434954897607,2.947777880431955,inf,0.5512194967637823
13,4.7822232831953215,-4.7822232831953215,0.0,1.6343462141405103,1.5977415728329476,0.5144303617702475,2.660423574763276,2.1487552691370753,,,0.49759852643134905,4.762473979806758,inf,,0.8461563423172812
14,4.088267176995635,-4.088267176995635,0.0,1.7080263077759856,1.7111214103206815,0.6827557843214507,3.6960438527165103,3.4317104011497803,,,0.5677978065141052,4.0877000195034325,inf,,0.8097209610194187
15,3.401548583381014,-3.401548583381014,0.0,1.5210124012310005,1.4522009302622032,0.7029379275886954,3.2595949534059074,2.5722624449574156,,,0.5202020156036558,3.401530770563393,inf,,0.6594833792003574
16,3.909967663030449,-3.909967663030449,0.0,1.15559521933648,1.1015757578139347,0.6743261136311387,3.3916725261159457,2.8612860395519353,,,0.5202020156036558,3.9098032486898333,inf,,0.7151327698320493
17,2.659260036932778,-2.659260036932778,0.0,1.5871597640367423,1.5762168212813104,0.8801664022774963,3.4949403166849384,4.50702132850798,,,0.5202020156036558,2.659260036932778,inf,,0.5157529272200031
18,2.950125051950107,-2.950125051950107,0.0,1.7010576224526883,1.6344553972241747,0.776159059899598,4.0929576123425155,5.3143203961277115,,,0.5490601803369085,2.9496972239809796,inf,,0.5357041557185871
19,2.952380601222368,-2.952380601222368,0.0,1.5213118757299355,1.4682101666941032,0.8294425922026691,3.610262149473021,8.041408935316914,,,0.5915533975974677,2.9513964597339393,inf,,0.6414247792987142
20,2.34327947532897,2.33313569215598,-4.67641516748495,1.3497784070462941,1.3281376634375814,0.8956424854836298,3.3074307742579836,2.4526260525180876,3.1469148699203218,,0.6097226960127671,2.3431756328205235,2.3286093022495518,inf,0.7421864503734708
21,3.401197381662155,-3.401197381662155,0.0,1.7033983042509133,1.6744900570270775,0.6873507663956332,3.152172844940026,2.621953424448072,,,0.5329562494928909,3.4011973816621555,inf,,0.8067510022611272
22,4.31748811353631,-4.31748811353631,0.0,1.5108395688002823,1.4943154795468139,0.7444661540995732,3.1833220875259713,3.5041923214656516,,,0.4302020962658841,4.31748811353631,inf,,0.5653641387940403
23,5.7037824746562,-5.7037824746562,0.0,1.6224149082316544,1.6208426348493543,0.6604180495249964,3.184827891959035,4.097788981569683,,,0.524519217297268,5.703782474656201,inf,,0.6572010685760724
24,4.368311946336124,-4.368311946336124,0.0,1.7099837765956423,1.6647154879456803,0.7042523656572386,2.7261278784749514,2.4347752138554375,,,0.4629450596409901,4.362659832183032,inf,,0.9006522287793082
25,5.010635294096255,-5.010635294096255,0.0,1.482926034318286,1.4554616804831455,0.6544165563295286,2.967579391761219,3.2217074448468566,,,0.5022576003740722,5.0106352940962555,inf,,0.8107153312841128
26,4.717348865898016,-4.717348865898016,0.0,1.687745225109318,1.6532352112138655,0.7624056836532854,2.97133095797049,3.2235113263382758,,,0.47824363442641393,4.701925854452399,inf,,0.8512689306129216
27,4.637607394636744,-4.637607394636744,0.0,1.6738505840459141,1.6510491933205442,0.6529484016369268,3.1362788453698873,2.2605334874591785,,,0.5604843169999094,4.632198858376011,inf,,0.7816882694292075
28,4.0943445622220995,-4.0943445622220995,0.0,1.4802197084551543,1.4325426827620387,0.6593138567760451,2.807587421623774,2.0400468709292827,,,0.552929491858785,4.0943445622221,inf,,0.7771037036012474
29,3.943017670083118,-3.943017670083118,0.0,1.5591445831862563,1.563545567477464,0.6591553007516666,3.2567464173372107,2.0509454386665547,,,0.4928685327679205,3.9407654742938,inf,,0.8111208162877401
30,3.4201622744805635,-3.4201622744805635,0.0,1.7137052257351493,1.680473149863324,0.786228832917965,3.023206181445634,2.303355664657025,,,0.5451288209179292,3.4193613522898265,inf,,0.8208858236117094
31,3.456687253241944,-3.456687253241944,0.0,1.706539920721179,1.6313237434570143,0.707057137215013,3.7103198897639715,11.948026746920632,,,0.5287703885177266,3.4553016406553563,inf,,0.783397636452374
32,4.31748811353631,-4.31748811353631,0.0,1.5797252205772667,1.5435776816306845,0.7385113376131253,3.179081138836337,4.650083758822536,,,0.5158180382284114,4.31748811353631,inf,,0.8773360677057874
33,3.6247860376184478,-3.6247860376184478,0.0,1.6242147372195936,1.6213689539629412,0.7933047665547728,3.3317405666040356,3.28861406723192,,,0.552929491858785,3.624757686472708,inf,,0.7542304348913424
34,5.010635294096255,-5.010635294096255,0.0,1.673772597739259,1.6647896455260598,0.6320069507673947,3.1158008457366875,5.3018163134528065,,,0.468121228110369,5.0106352940962555,inf,,0.7116220365406541
35,3.724489477444757,-3.724489477444757,0.0,1.6016428049911868,1.5853437285191976,0.7573291360503904,3.3276760003726435,2.561304454201415,,,0.541134803179459,3.7227810057896176,inf,,0.8694586614865901
36,3.8041175295490652,-3.8041175295490652,0.0,1.5033888668843356,1.4798647329317831,0.7950514876554695,3.5061700782864893,8.639111289766724,,,0.5022576003740722,3.8016749482592807,inf,,0.7037319746534968
37,4.31748811353631,-4.31748811353631,0.0,1.5447257303760935,1.4987341402850423,0.6324491679500295,2.814389821892689,3.3624383428009117,,,0.4928685327679205,4.31748811353631,inf,,0.7597273981528763
38,3.9120230054281455,-3.9120230054281455,0.0,1.4842710200163702,1.4807217059925266,0.8716660542887634,3.517692975542867,2.158868140059658,,,0.4880666971167561,3.912023005428146,inf,,0.595702519195695
39,3.307297157985898,-3.307297157985898,0.0,1.513702261515466,1.4639612905217374,0.8460286273972077,4.000106597860263,1.8240295185429618,,,0.41861278947482794,3.306493446192858,inf,,0.8035035671682833
40,2.56587654724332,-2.56587654724332,0.0,1.6437882782752187,1.619538780796141,0.8557130469833393,3.3603900308657466,2.5018942496145167,,,0.47824363442641393,2.5658275207118173,inf,,0.7792831286603192
41,2.7530340100500834,1.8487972746724943,-4.601831284722578,1.6984482765524567,1.6773017604561766,0.8674735170541099,4.243313437928714,2.522572163426439,2.17721439828824,,0.4928685327679205,2.752873244710531,1.8556358425430748,inf,0.5953079352899324
42,3.695356488059327,-3.695356488059327,0.0,1.6713607838342992,1.6299802125900404,0.7496522072819015,3.0483038275495873,3.7772116045788886,,,0.524519217297268,3.6897687382988202,inf,,0.5929004481794573
43,5.703782474656201,-3.2321434023051805,0.0,1.5990483841186298,1.6132099598748504,0.7307896993197112,2.8991124913192476,3.396480380102038,,,0.5490601803369085,6.271766512262141,inf,,0.9388518214725254
44,4.0943445622220995,-4.0943445622220995,0.0,1.6176767485361916,1.5817359479949948,0.7517195194225006,2.8312820751412873,2.6495486117459284,,,0.524519217297268,4.0943445622221,inf,,0.7628369581825163
45,5.059155596735451,-5.059155596735451,0.0,1.6387332445257252,1.6292847999904965,0.7096604835177523,3.6002006020765287,2.4618009166564203,,,0.5451288209179292,5.046262471739407,inf,,0.6953421636584971
46,3.2296072280302544,-3.2296072280302544,0.0,1.4185119439268576,1.3919257923358541,0.7778499076148386,3.416653902696479,5.79906846305175,,,0.5641709578113449,3.229206783706566,inf,,0.8059875733057114
47,4.137621722124582,-4.137621722124582,0.0,1.7455529757615382,1.7122923664151144,0.6588776599484985,3.562096169147126,2.669514548606674,,,0.468121228110369,4.133778631467508,inf,,0.6708750751150004
48,3.757872325600888,-3.757872325600888,0.0,1.313759030470735,1.2710602434599232,0.8152578670703631,3.624329054729839,3.724505198360763,,,0.5567373465730988,3.757872325600888,inf,,0.7146565520843663
49,4.987658937970125,-4.987658937970125,0.0,1.5438961765688592,1.5430342262229382,0.7890638218439048,3.0177593968424263,3.5156865677859073,,,0.5604843169999094,4.982695925407015,inf,,0.8740133258263397
50,4.8835895602223625,-4.8835895602223625,0.0,1.376677841057162,1.3724078981705925,0.7484600603860604,2.9701051147135016,1.9034299777441044,,,0.468121228110369,4.865092988805597,inf,,0.7308397622559668
51,4.0943445622220995,-4.0943445622220995,0.0,1.5510297377138542,1.5149219167859362,0.7055604128198012,3.066938149145914,2.928341805075797,,,0.468121228110369,4.0943445622221,inf,,0.7232529880887526
52,4.767356229231357,-4.767356229231357,0.0,1.6573049980131942,1.6378994372262972,0.698381303983059,2.866715840085267,2.0535978997914737,,,0.5022576003740722,4.748271029628765,inf,,0.650604215556813
53,4.113683670002665,1.091069157875789,-5.204752827878454,1.3831344746906158,1.3461208231703914,0.6419130631322604,2.682159193746955,2.3646069043629003,,,0.4928685327679205,4.11182987656312,1.6862632775643223,inf,0.6982974532466801
54,,0.0,0.0,1.7623377235868638,1.735322787938298,0.6379446583195241,2.09542367205936,1.9621510479003073,,,0.47824363442641393,inf,,,0.929642131678506
55,2.9311937524164198,2.769249820974267,-5.700443573390687,1.676793313190529,1.67343197950768,0.6835786232026433,2.9245700004730075,2.2691605468330827,2.7692498209742666,,0.5068466436745385,2.9311937524164198,2.7759276235052956,inf,0.7274206156668923
56,3.45048984750246,-3.45048984750246,0.0,1.67977980419019,1.7000103018042934,0.7548179807843952,4.056107298474964,3.53112110117723,,,0.5287703885177266,3.4489880454985036,inf,,0.8184157294418881
57,3.757872325600888,-3.757872325600888,0.0,1.6530567709561255,1.6278407804635726,0.6981989454378642,4.112320613078826,4.432550455453469,,,0.5567373465730988,3.757872325600888,inf,,0.8247906116558501
58,4.292942322891747,-4.292942322891747,0.0,1.2131174439541705,1.1672114039909791,0.5984789227668408,2.2948490232039163,1.8849019940762726,,,0.5329562494928909,4.290359446148058,inf,,0.7168599479870992
59,,0.0,0.0,1.639938733497915,1.646317993514358,0.674533273569119,2.4137523301365436,1.922158803042251,,,0.5287703885177266,inf,,,0.5684819103475931
60,4.5351675483581575,-4.5351675483581575,0.0,1.6233740245544135,1.544099820319232,0.774280988100095,2.8089163799061123,2.876088757908133,,,0.4576907132971797,4.527180867126397,inf,,0.5594769055810933
61,3.401197381662155,-3.401197381662155,0.0,1.3486496199006779,1.3401070717259036,0.8717179425279205,4.03240009117814,6.26022082585016,,,0.5490601803369085,3.4011973816621555,inf,,0.6712482032195906
62,2.995732273553991,2.704711299836696,-5.700443573390687,1.5154236212681607,1.4803269232624392,0.6839254646433682,3.515323754353979,4.585621706264174,2.7080613867219774,,0.5113665138247345,2.995732273553991,2.7113891023677246,inf,0.5467174863336888
63,3.171117009289657,1.8361793835410847,-5.0072963928307415,1.5872150225437642,1.5356850597575713,0.769806428228156,3.7967079559559522,6.84337341634277,1.836946146867828,,0.5202020156036558,3.170350245962913,1.843623949398857,inf,0.7423666688987558
64,4.0943445622220995,-4.0943445622220995,0.0,1.4582600393392995,1.428941156237583,0.7583100880048234,2.3927654026569334,1.6696226918086818,,,0.5202020156036558,4.0943445622221,inf,,0.690703320810598
65,5.7037824746562,-5.7037824746562,0.0,1.3594294008132195,1.3249875876272181,0.6862216091785431,1.6233163641627992,1.752634321168519,,,0.38804190201132227,5.703782474656201,inf,,0.9049802976262487
66,,0.0,0.0,1.7904445975245142,1.7506470620685703,0.8854598348605055,1.2754418189749233,1.5244787657065,,,0.4302020962658841,inf,,,0.779142600753133
67,,0.0,0.0,1.6292635369425983,1.594702282970418,0.877352575657371,1.3515153442380996,1.5392282694006434,,,0.5202020156036558,inf,,,0.7505530359145826
68,,0.0,0.0,1.4922424061549295,1.4684005421052557,0.8847245451411245,1.380920743271634,1.7592230141856555,,,0.5677978065141052,inf,,,0.7690125814755528
69,,0.0,0.0,1.5033279536272843,1.499197629462149,0.8518657016963455,1.2705419135526081,1.667054587795488,,,0.47824363442641393,inf,,,0.79999918927466
70,,0.0,0.0,1.7378679862960733,1.7027222575148764,0.9048803870386395,1.272017398238058,1.6169827300940425,,,0.44694259446804574,inf,,,0.7942499056499803
71,,0.0,0.0,1.7395307687722603,1.7043404998113418,0.8770284942758914,1.429809412138171,1.954121853268522,,,0.48319206230712763,inf,,,0.8232365073738355
72,,0.0,0.0,1.5968434208106177,1.5835834497687091,0.9062368892583399,1.3293418135538726,1.7057253128777212,,,0.5068466436745385,inf,,,0.7820217001382563
73,,0.0,0.0,1.7233816313355397,1.6790139932015253,0.9097770794453797,1.4696203854872845,1.7917682400968622,,,0.4629450596409901,inf,,,0.7970201512335799
74,,0.0,0.0,1.592724064365966,1.5642805269495137,0.8726104929284089,1.449070773877279,2.0552869746703513,,,0.468121228110369,inf,,,0.8273376885569358
75,,0.0,0.0,1.705443104944938,1.6781361496062326,0.43458255924765193,1.6994757380216483,1.535943926091969,,,0.41268473150466,inf,,,0.8147512598117546
76,,0.0,0.0,1.5087337516280592,1.5080106412779073,0.7307515659752053,2.4966715900707803,2.3464037321350446,,,0.4732203808476458,inf,,,0.9054380344097719
77,,0.0,0.0,1.7851432549015764,1.7483526332118764,0.9683048494400588,2.9655909952815827,4.558721526099284,,,0.45235697871908603,inf,,,0.8478249108198107
78,4.0943445622220995,-4.0943445622220995,0.0,1.5229068637021133,1.4888852970248285,0.6916382088962483,2.8279430463391857,2.603355653286651,,,0.5022576003740722,4.0943445622221,inf,,0.6396110082657613
79,,0.0,0.0,1.64775910596759,1.62694045905979,0.6163101871651044,2.9800294627022836,3.8429248902436823,,,0.4302020962658841,inf,,,0.8164770790846876
80,5.010635294096255,-5.010635294096255,0.0,1.5611990772864242,1.5390307853242795,0.7716519183152056,2.7138438465113004,3.4025729978730466,,,0.5158180382284114,5.0106352940962555,inf,,0.6912427491352878
81,,0.0,0.0,1.3225572718098526,1.2760631430855593,0.7058443790540041,2.1236293799086208,2.94902253929507,,,0.524519217297268,inf,,,0.9087919630015363
82,,0.0,0.0,1.7421330398400992,1.7322889711038554,0.6944411353739053,1.5676684759464858,1.6194877891876303,,,0.47824363442641393,inf,,,0.9170092594721755
83,,0.0,0.0,1.428079594600919,1.4266234165564544,0.6716963653165569,1.9575568101039271,2.0066541578596007,,,0.5287703885177266,inf,,,0.6136236913576312
84,,0.0,0.0,1.5879196326282865,1.5856379430620615,0.8554543575484486,1.9262312605979313,1.6072529908314062,,,0.4732203808476458,inf,,,0.9138769009046337
85,,0.0,0.0,1.4595815711508267,1.359742607282771,0.501277219913284,1.9971015845483833,1.7993544914820787,,,0.5490601803369085,inf,,,0.8474667240235217
86,3.066948384205554,-3.066948384205554,0.0,1.487987139116591,1.4458391993483486,0.7203630498249509,3.135710961498094,2.5098121158439883,,,0.5068466436745385,3.0668703013873304,inf,,0.5589191793600552
87,2.6695476508959026,3.023941268509233,-5.6934889194051355,1.6172500356761574,1.591216041669276,0.9193131807036922,3.6466797568624907,2.6100856740250538,3.031293521246033,,0.5490601803369085,2.6691500521446536,3.027987879792879,inf,0.4513041655346495
88,3.19299534938709,2.5074482240035967,-5.700443573390687,1.737063031274725,1.6747407493514817,0.6687663162608375,3.7426560852068844,5.217030609747589,2.5081555830149163,,0.5451288209179292,3.19228799037577,2.5148333855459457,inf,0.6884732254268885
89,4.605170185988091,-4.605170185988091,0.0,1.7542064464235403,1.7550177792130546,0.5480272447958984,2.7315191926190776,2.2770748455242664,,,0.5370774965580548,4.605170185988091,inf,,0.5992161577487557
90,4.31748811353631,1.3829554598543767,-5.700443573390687,1.629824354483483,1.6052819548204174,0.578620245806537,3.007305231956453,2.9110337768099357,1.382955459854376,,0.44144624493110796,4.31748811353631,1.3896332623854053,inf,0.7583090289105514
91,3.757872325600888,-3.757872325600888,0.0,1.7030278401355077,1.6444780242432169,0.5962203017891962,3.8896434277176266,17.253798784417363,,,0.524519217297268,3.757872325600888,inf,,0.6683057760250474
92,4.090698131086221,-4.090698131086221,0.0,1.5696113133060154,1.553211927296576,0.7284832559420336,3.1385189644522766,2.3075125057406343,,,0.5713653840954815,4.090352540952563,inf,,0.6175773543425727
93,3.745409395622599,-3.745409395622599,0.0,1.4988439164951273,1.444296530409893,0.7168914259798144,3.027283032572702,2.1877624123311747,,,0.5915533975974677,3.744627098850867,inf,,0.6890787119611967
94,3.4734008171664255,-3.4734008171664255,0.0,1.6435820494953761,1.5920322457111833,0.5576277946241689,2.1652536424552866,1.9715285544292005,,,0.4880666971167561,3.468049688649996,inf,,0.7802226673405104
95,4.605170185988091,-4.605170185988091,0.0,1.784346122603958,1.7051345701120382,0.6059518912630146,1.9702636114726604,2.26302157785257,,,0.4732203808476458,4.605170185988091,inf,,0.7158115504275474
96,4.0943445622220995,-4.0943445622220995,0.0,1.6991920739733504,1.6587959564737813,0.604712577085238,3.4581425193627093,3.075501981291962,,,0.541134803179459,4.0943445622221,inf,,0.6344830071339403
97,,0.0,0.0,1.5632223778623486,1.5280265787613736,0.586945254062954,2.381901415509134,2.212354010196711,,,0.524519217297268,inf,,,0.7863374593059842
98,3.401197381662155,-3.401197381662155,0.0,1.5890706185117947,1.5623512556164656,0.7322624416579802,3.1940434533897637,2.076447709335396,,,0.5202020156036558,3.4011973816621555,inf,,0.6873889100036173
99,3.4184062658862664,-3.4184062658862664,0.0,1.719032523594472,1.7100132461958792,0.6342958502378494,3.376019591977152,8.149803195896572,,,0.552929491858785,3.4176655743694626,inf,,0.6911245762695093
100,3.73784261670721,-3.73784261670721,0.0,1.7505095120401246,1.7131432360920738,0.6393186845323306,3.770820204537538,2.5609504455729026,,,0.5158180382284114,3.736670117950285,inf,,0.7502029895834902
101,3.757872325600888,-3.757872325600888,0.0,1.3331810729866256,1.3137208652702501,0.7636278198437806,3.055642238675924,2.5698166753570666,,,0.4629450596409901,3.757872325600888,inf,,0.4544000133035069
102,3.144169297706233,2.5562742756844536,-5.700443573390687,1.4192002359637201,1.4124146290674249,0.6982487047798986,4.142490169377016,11.680757788630824,2.5564690566956036,,0.5022576003740722,3.1439745166950828,2.5631468592266327,inf,0.7644150595130509
103,3.8339199943156683,-3.8339199943156683,0.0,1.624408135650434,1.6284703985779043,0.6688598662317591,3.6622038341018124,4.383570156386656,,,0.4732203808476458,3.8309551823393644,inf,,0.7810090015143937
104,3.1788544710314324,-3.1788544710314324,0.0,1.561453813228627,1.4975851040718628,0.7825041474422046,3.3801227958531856,4.496072368576028,,,0.4576907132971797,3.1780538303479458,inf,,0.8254633898357673
105,3.757872325600888,-3.757872325600888,0.0,1.580272299317608,1.5476765422917187,0.6233396283538052,2.32345404205229,1.6644721623617387,,,0.581717464821069,3.757872325600888,inf,,0.5976534320086626
106,4.605170185988091,-4.605170185988091,0.0,1.628661663927848,1.6037528169227369,0.5429741083655644,2.7927095961863913,2.046602456504075,,,0.524519217297268,4.605170185988091,inf,,0.6313624151881418
107,3.757872325600888,-3.757872325600888,0.0,1.5384236976247974,1.4723678014530752,0.6091289308915678,2.6938790992322237,2.8125905760525773,,,0.5202020156036558,3.757872325600888,inf,,0.7163197813043664
108,3.8030898583502175,-3.8030898583502175,0.0,1.522179350474417,1.5024197745655594,0.7004619106145767,3.3245931347320825,6.926230025508799,,,0.4880666971167561,3.8006804180927722,inf,,0.8408749750247035
109,3.8193215145284225,-3.8193215145284225,0.0,1.5214189308532737,1.4879201085716007,0.7980651982964077,2.9089758245525115,1.9372765755135468,,,0.5567373465730988,3.81217767045843,inf,,0.559531505567014
110,3.6109921889353087,-3.6109921889353087,0.0,1.5959156061627047,1.5668276243051937,0.7066291586314485,2.988961640941778,5.207509154142043,,,0.5287703885177266,3.6102736757649296,inf,,0.7338101535360597
111,5.7037824746562,-5.7037824746562,0.0,1.7085536496726021,1.6861389410947802,0.5753536630827585,2.483946201676146,2.504186883126043,,,0.552929491858785,5.703782474656201,inf,,0.8790851163180958
112,3.5575972127710815,-3.5575972127710815,0.0,1.6194126262485011,1.610739511168048,0.6976437348547468,3.0258036280369796,1.5188021974291872,,,0.5604843169999094,3.5559037714231367,inf,,0.49035860732318176
113,4.605170185988091,-4.605170185988091,0.0,1.2482696936433295,1.2397229446992262,0.6427427542784726,2.9773021118077545,3.7710805143567048,,,0.5068466436745385,4.605170185988091,inf,,0.8640382791868116
114,3.8693746506759377,-3.8693746506759377,0.0,1.638191707879935,1.5901697837960374,0.7553153376515671,3.1384862527338377,2.270462032310633,,,0.5490601803369085,3.8669434206552498,inf,,0.6205037157442835
115,4.548592711739241,-4.548592711739241,0.0,1.4042184913315503,1.3737315509836328,0.6977273396688333,2.9960823937124488,1.3172265858192982,,,0.5287703885177266,4.541673874428964,inf,,0.5564717402667382
116,3.624340932976365,-3.624340932976365,0.0,1.3779515212474769,1.3867477754933915,0.6845007256390417,2.6330949833998907,1.31521461828053,,,0.48319206230712763,3.624340932976365,inf,,0.7704602848231288
117,4.103270304274668,-4.103270304274668,0.0,1.411985808877398,1.4099369666248323,0.6759945945184516,3.1614150762340922,2.2164133506149284,,,0.48319206230712763,4.102376733919365,inf,,0.657763743133478
118,4.605170185988091,-4.605170185988091,0.0,1.0122909981439288,0.9660369914520727,0.6291871623385656,1.8974009613019414,1.231559559835587,,,0.5113665138247345,4.605170185988091,inf,,0.563803879879983
119,3.8714299930736344,-3.8714299930736344,0.0,1.4256838252190218,1.4157215601272395,0.7777204576305499,2.7505009222477677,1.7931130262799235,,,0.5567373465730988,3.869069949898937,inf,,0.5638104577175724
120,3.1064908521405497,2.593952721250137,-5.700443573390687,1.6927329257366113,1.6865792879496933,0.7848418055628354,2.967412834996256,1.418120566244962,2.5951444189516524,,0.5748741956352443,3.105299154439034,2.601822221482682,inf,0.8556510751747799
121,3.1406083818185198,2.559835191572167,-5.700443573390687,1.6455870082778943,1.5924949303606803,0.7582233364977266,3.6618170166278974,4.661142895599495,2.561866833584941,,0.5677978065141052,3.1385767398057456,2.5685446361159703,inf,0.6468041578235525
122,3.125633683806002,-3.125633683806002,0.0,1.6982866549628162,1.6171478348527133,0.8386831060622308,4.338381052910546,3.742895406980801,,,0.5451288209179292,3.123565645063876,inf,,0.5346479632950524
123,2.597330076939996,2.4099663158907454,-5.0072963928307415,1.6133154542482502,1.6002295165952767,0.8157904875497884,3.5742338992692257,2.4787581953926687,2.906627971994149,,0.5068466436745385,2.5971053071504833,2.416868888211287,inf,0.7189711936556732
124,2.995732273553991,-2.995732273553991,0.0,1.6051916681139475,1.5951636105916431,0.7600394707648567,3.0795352125538593,1.9905110414494414,,,0.5783247308855777,2.995732273553991,inf,,0.6299092205337179
125,3.507735727676546,-3.507735727676546,0.0,1.385796919821606,1.3701267962710737,0.7418684895398956,2.982124952595718,2.813142248195319,,,0.49759852643134905,3.5076696261726723,inf,,0.7361091076556971
126,5.010635294096255,-5.010635294096255,0.0,1.4493069693341885,1.4050464039533033,0.7345306703903287,2.4911768370134357,2.2237131601108606,,,0.468121228110369,5.0106352940962555,inf,,0.6485861306806437
127,,0.0,0.0,1.7367609495403007,1.7034865581646315,0.6870663832467264,2.439093338424252,2.3913943900346646,,,0.49759852643134905,inf,,,0.6925409525551065
128,,0.0,0.0,1.2283548094525798,1.197208287688334,0.5808268967533918,2.608619185650029,4.905003834375782,,,0.4302020962658841,inf,,,0.8596299660590145
129,5.7037824746562,-5.7037824746562,0.0,0.8926849337751527,0.8551126657211154,0.6762663272950176,3.1150683488728683,2.8832980199955727,,,0.44694259446804574,5.703782474656201,inf,,0.6640142890107602
130,3.064265192564363,-3.064265192564363,0.0,1.6878648556279192,1.619981784542108,0.8905780090127067,3.9678143306457736,6.314086825639452,,,0.468121228110369,3.0642490679074563,inf,,0.8671175190648528
131,5.682988059239402,-5.682988059239402,0.0,1.2726242648823278,1.2508717483593292,0.8939279891277321,3.1386409537023656,3.083928276967482,,,0.468121228110369,5.674223672414657,inf,,0.8364399658345147
132,3.401197381662155,-3.401197381662155,0.0,1.6349751299654145,1.6035819101007154,0.7871716649588503,3.099063889838594,5.017193788424218,,,0.524519217297268,3.4011973816621555,inf,,0.8061418160391975
133,3.305887201857831,-3.305887201857831,0.0,1.3932256562441672,1.3763052161737648,0.9341476518450497,3.607787733629811,9.684600414576014,,,0.4302020962658841,3.3058872018578307,inf,,0.8857915605416443
134,4.756543826348472,-4.756543826348472,0.0,0.7680437755422606,0.6479619061337935,0.6175820013061115,3.1591112334334843,6.586970943384453,,,0.5329562494928909,4.7380668594545226,inf,,0.8963911928582747
135,5.7037824746562,-5.7037824746562,0.0,1.5735778603932116,1.4883989223654532,0.6426362534557605,3.127985242706649,1.9323375930413254,,,0.44694259446804574,5.703782474656201,inf,,0.7093203403345405
136,4.036864017890013,-4.036864017890013,0.0,1.739701058142395,1.7014493467401628,0.8867976114977585,3.4556207383067177,6.908376836196274,,,0.4928685327679205,4.026063054805695,inf,,0.8955626504002593
137,5.010635294096255,-5.010635294096255,0.0,1.7523893283494445,1.7449721097220197,0.9392082308685425,2.815180342497419,3.525554178677444,,,0.4302020962658841,5.0106352940962555,inf,,0.8743599500164756
138,4.670044603285397,-4.670044603285397,0.0,1.6533255149102897,1.6351010323218087,0.9116626382833811,3.0127861398156712,3.836944299291774,,,0.43586655696697996,4.6599784224830865,inf,,0.8789948787010841
139,5.7037824746562,-5.7037824746562,0.0,1.781488001447931,1.7661493089402314,0.6973045894849791,3.105392761063141,7.246997574013145,,,0.4928685327679205,5.703782474656201,inf,,0.8055211655154609
140,5.121538842985845,-5.121538842985845,0.0,1.7307020989373596,1.711390210388567,0.8853580260341101,3.117467898602462,3.304851860379511,,,0.4066654671944331,5.094016903035307,inf,,0.8866995265421964
141,5.7037824746562,-5.7037824746562,0.0,1.5821175999894397,1.5715130911118882,0.9243887918883755,3.060850866147941,4.803582055427313,,,0.43586655696697996,5.703782474656201,inf,,0.8899800393143251
142,,0.0,0.0,1.4270185903628647,1.3820710697710965,0.7054059039633385,2.778537265408522,2.8671123318714287,,,0.4880666971167561,inf,,,0.5920196180021176
143,,0.0,0.0,1.5326671379673733,1.4876920841838477,0.6803552940943449,2.7182565012441646,2.7344557982270095,,,0.47824363442641393,inf,,,0.9027412539694784
144,,0.0,0.0,1.6759067429184005,1.643450388757587,0.9708277031357903,2.6314409976596136,2.3218236715202205,,,0.3943459996787778,inf,,,0.8712301045221101
145,5.7037824746562,-5.7037824746562,0.0,1.6893509002691038,1.6397212236260152,0.5097992097284175,1.5446477156584728,1.4018264488405543,,,0.4576907132971797,5.703782474656201,inf,,0.8027064200329205
146,,0.0,0.0,1.7586446916467906,1.667837856451471,0.7525784486896775,1.5592239222922386,1.751454514983971,,,0.5113665138247345,inf,,,0.8945054440020043
147,,0.0,0.0,1.5304316252091712,1.5296051323600992,0.9301758013169765,1.757042369716514,2.1975842876933567,,,0.43586655696697996,inf,,,0.8216431416401417
148,,0.0,0.0,1.6631119564221561,1.6668514957642437,0.9380811165484156,1.681723612290014,2.0966063886450104,,,0.5202020156036558,inf,,,0.8125305618312205
149,,0.0,0.0,1.4588861140593221,1.4553354932851392,0.9551113413745198,1.8667126389166806,2.172045865401247,,,0.44694259446804574,inf,,,0.8544366179202645
150,,0.0,0.0,1.503162628957596,1.5075499818967737,0.9464827363496676,1.558900024914133,1.8434577590797223,,,0.4629450596409901,inf,,,0.8373000228200244
151,,0.0,0.0,1.4184526498838559,1.390379275546474,0.8904457954588183,1.639960953536868,2.1281427564943556,,,0.5370774965580548,inf,,,0.8212320791304595
152,,0.0,0.0,1.5638167481979233,1.5410702336074737,0.9071205255391991,1.7617405703838742,1.907899907406254,,,0.44694259446804574,inf,,,0.7697790625035843
153,,0.0,0.0,1.3197037289412858,1.2658347550661586,0.9272856610112468,1.754454414521387,2.076577276729421,,,0.44694259446804574,inf,,,0.7690307221412115
154,,0.0,0.0,1.265573035685431,1.2442392387653232,0.90806108642305,1.616570055529979,1.9862503571136,,,0.4732203808476458,inf,,,0.7982596516660931
155,,0.0,0.0,1.5575868132943045,1.54159072425678,0.8680121134194928,1.523470722356962,1.5705355019687428,,,0.43586655696697996,inf,,,0.8041157318637161
156,,0.0,0.0,1.4678690885210364,1.4562085438781875,0.8850505816112465,1.3288419208584614,1.539159946322281,,,0.4880666971167561,inf,,,0.7868074823993247
157,,0.0,0.0,1.6484690102374737,1.644044157743859,0.9127168227186637,1.232343708343969,1.3890533195184547,,,0.49759852643134905,inf,,,0.8032983023523221
158,,0.0,0.0,1.7126256406951093,1.705452187693623,0.7603800950643899,1.8072148193236233,1.9616969842642333,,,0.48319206230712763,inf,,,0.8117228281513582
159,,0.0,0.0,1.6378297154468613,1.5828951262751827,0.8831460380236401,2.2260199839458874,2.345143634316648,,,0.49759852643134905,inf,,,0.8256356116482664
160,,0.0,0.0,1.4072579453355076,1.3879919612562943,0.6010472307147388,1.627865216330977,1.840583826183727,,,0.4880666971167561,inf,,,0.8023712090880867
161,,0.0,0.0,1.7624415575611907,1.7491720017032564,0.9504280846987855,1.272007668432142,1.8157049393992293,,,0.40055318934786044,inf,,,0.8611873300046784
162,,0.0,0.0,1.469663890008817,1.4432094549737635,0.9454277069738516,1.6411414725347313,2.3832182163635407,,,0.47824363442641393,inf,,,0.8218387138354409
163,,0.0,0.0,1.343246859547118,1.3147331609392856,0.9458890288424456,1.484535097466938,1.9039905940469235,,,0.3751344627501719,inf,,,0.8206242763117824
164,,0.0,0.0,1.1117119657274699,1.0936451006157404,0.6869046603505036,1.3825390448224522,1.8257005729864872,,,0.40055318934786044,inf,,,0.8440895912704032
165,,0.0,0.0,1.59937612117812,1.589331062515725,0.8499988826164516,2.622513985215288,4.677165203638637,,,0.44144624493110796,inf,,,0.6742167418689119
166,,0.0,0.0,1.2819624033049404,1.2820813424124193,0.8315684573579637,2.5154365819727653,3.2220588252727236,,,0.4302020962658841,inf,,,0.8589141078121227
167,,0.0,0.0,1.2897782087382912,1.2466154881580322,0.9576545766456949,2.3957921774897883,2.962065014473582,,,0.3751344627501719,inf,,,0.8622378212335683
168,,0.0,0.0,1.4767574768034817,1.452297911151348,0.9535745426692912,2.2526708166038323,2.4635516412047735,,,0.44694259446804574,inf,,,0.8670736514295616
169,,0.0,0.0,1.4334283829128602,1.4225842234787875,0.8068719521323171,2.1311545380777748,2.231827334144245,,,0.38163879478178075,inf,,,0.865265420170577
170,,0.0,0.0,1.7473996884381295,1.7046101479297848,0.8738227054263834,2.1135069340415455,3.0404396406489984,,,0.38804190201132227,inf,,,0.8385232565536465
171,,0.0,0.0,1.5773791168535607,1.5476354194113864,0.9365828905659086,2.4006466447446684,2.8571315490998153,,,0.4880666971167561,inf,,,0.8120426143019889
172,,0.0,0.0,1.7017024951018906,1.6888980178507949,0.9138883952950103,2.2668357819543483,2.490683995000245,,,0.4732203808476458,inf,,,0.8456620810150307
173,,0.0,0.0,1.642953012776794,1.6160195669976052,0.9386759319428316,2.258060212075497,2.3208615136587407,,,0.38804190201132227,inf,,,0.8333515933979305
174,,0.0,0.0,1.7266717677001269,1.7014435081701582,0.9308213541489359,2.2628439339907747,2.708014458839124,,,0.41861278947482794,inf,,,0.836545345027997
175,,0.0,0.0,1.7226400160572921,1.6956171677625993,0.9524896433493171,2.5389918304207484,3.2170076951724833,,,0.43586655696697996,inf,,,0.792613437506112
176,,0.0,0.0,1.670361131762646,1.651712997382125,0.9323019320046443,2.328037172923311,2.3041269310230947,,,0.4302020962658841,inf,,,0.8159304671632579
177,,0.0,0.0,1.637590625404716,1.6355125986744052,0.948653776899526,2.695775621527164,3.8839384976594284,,,0.35499006010413947,inf,,,0.8227590569472706
178,5.525739187978697,-5.525739187978697,0.0,1.5357320194734618,1.3973924894211192,0.8738413123103301,2.465854901001665,2.3345062256778326,,,0.47824363442641393,5.43630310952194,inf,,0.8694787686434412
179,4.605170185988091,-4.605170185988091,0.0,1.6316943912567696,1.614435666025159,0.6164130395508439,3.1234041904075025,2.252510276801442,,,0.41268473150466,4.605170185988091,inf,,0.6372194685692885
180,5.7037824746562,-5.7037824746562,0.0,1.3204411190420937,1.2966965797034542,0.8368574554448728,2.784409363565683,2.2570550716697504,,,0.48319206230712763,5.703782474656201,inf,,0.6100510576712399
181,,0.0,0.0,1.5294275806246078,1.4778819568579735,0.9408045413398748,2.4230706530663104,2.4807551333375097,,,0.44144624493110796,inf,,,0.8559056437397282
182,,0.0,0.0,1.6999986697760976,1.6522315460927073,0.5467262287053238,2.1073709307089934,2.0300494595023593,,,0.5451288209179292,inf,,,0.8615627678896444
183,,0.0,0.0,1.690431563138779,1.6454601670671598,0.9440315351479821,3.1632165213383456,7.769179564379018,,,0.4732203808476458,inf,,,0.8869317615771393
184,,0.0,0.0,1.767508312412428,1.7513188471902557,0.8319674473893338,2.5217543208119877,3.3566442109208654,,,0.468121228110369,inf,,,0.8846951021261382
185,,0.0,0.0,1.5440340053036752,1.5155161134475201,0.5475163646526072,2.234458847407914,2.466125714140982,,,0.5113665138247345,inf,,,0.8147455018185057
186,,0.0,0.0,1.5973138350963194,1.549886947126731,0.9379667199674028,2.15095048016482,3.1284907988207,,,0.38804190201132227,inf,,,0.8402669426476361
187,,0.0,0.0,1.5588623811872528,1.5093456971032182,0.9666576528904297,1.869215564747795,2.3671908677752156,,,0.41861278947482794,inf,,,0.8384845925674655
188,,0.0,0.0,1.6428753862026353,1.6108295043137784,0.9523384282360328,2.0057861494847273,2.325012448112738,,,0.43586655696697996,inf,,,0.8566155195920223
189,,0.0,0.0,1.644542732075553,1.6412740807937034,0.7783020648335285,1.9494930841373708,2.114144246130451,,,0.4066654671944331,inf,,,0.8445286336188785
190,,0.0,0.0,1.5090351253840664,1.4679853450029448,0.935184256455717,1.7378694302271025,2.290225492265209,,,0.44694259446804574,inf,,,0.8298295964114764
191,,0.0,0.0,1.6135613264022215,1.5727606853921188,0.969168527358664,1.6535704894529732,2.1591849866764754,,,0.4732203808476458,inf,,,0.8405532009108726
192,,0.0,0.0,1.3099761101103362,1.3023680754317524,0.40495584226094833,2.165132925197978,2.385301937514467,,,0.42445136339222655,inf,,,0.6310654094147004
193,,0.0,0.0,1.6370904507435957,1.605099287501497,0.9561509618123357,3.375534776870451,3.8376300858825245,,,0.44694259446804574,inf,,,0.8390288090497761
194,,0.0,0.0,1.7422346794047034,1.724211435974305,0.9632521919698868,3.036194524225098,2.246255323823175,,,0.4880666971167561,inf,,,0.8569027696059661
195,5.7037824746562,-5.7037824746562,0.0,1.674779527237542,1.6733604904653172,0.6623887940614986,2.4912742091637665,2.7363076708834355,,,0.4880666971167561,5.703782474656201,inf,,0.7833728830778152
196,,0.0,0.0,1.7465864210530095,1.6867117326722405,0.9433493053198656,2.473416050776401,2.728118787157916,,,0.4880666971167561,inf,,,0.8779341051686249
197,,0.0,0.0,1.6683769887562105,1.6506238541263472,0.9613544847743372,2.5107485574595234,2.863982575429926,,,0.41861278947482794,inf,,,0.8687732864280364
198,,0.0,0.0,1.630814862001887,1.619785041973037,0.9349064909990763,2.364377828086722,2.353216958562872,,,0.48319206230712763,inf,,,0.8715610509202255
199,,0.0,0.0,1.7639833613578146,1.7354362310810747,0.9494888505637397,2.3344943737445076,2.104638750573575,,,0.5113665138247345,inf,,,0.8569962655064883
200,,0.0,0.0,1.6540988629567943,1.6321742478066767,0.7534820897945479,2.1375617959285584,2.273991335541139,,,0.47824363442641393,inf,,,0.8575444278972976
201,,0.0,0.0,1.6943485727239982,1.6636998952073432,0.5844439441112288,1.9820059316540102,1.74758234530431,,,0.5113665138247345,inf,,,0.8497354081013967
202,,0.0,0.0,1.6563365489107071,1.6281585074974056,0.8175789159339144,1.9635126306661503,2.5986320277473283,,,0.40055318934786044,inf,,,0.8659754371076824
203,,0.0,0.0,1.6537008971618545,1.5689470926340867,0.48348503078419464,2.0509392271572526,1.8986045877022848,,,0.47824363442641393,inf,,,0.6888933776205665
204,5.7037824746562,-5.7037824746562,0.0,1.3476886416651608,1.2007091462990334,0.6330141346336325,2.3624272471719734,1.4462672419700664,,,0.44694259446804574,5.703782474656201,inf,,0.6086740258867605
205,,0.0,0.0,1.6289099866104368,1.6063679423108186,0.9438401504499235,2.5325828837987445,2.2323609993548237,,,0.4066654671944331,inf,,,0.8528668314313207
206,,0.0,0.0,1.7414443597329952,1.6938160636221287,0.9574458923712337,2.3046730161666487,2.5088303399205087,,,0.468121228110369,inf,,,0.8557292681919458
207,,0.0,0.0,1.770011127343193,1.7322784445011374,0.9331072619571856,2.347320215448368,2.230983649278868,,,0.47824363442641393,inf,,,0.8259850329367866
208,,0.0,0.0,1.7446116555588755,1.7241259448243966,0.5902605678805712,2.127868852690312,2.050931324367336,,,0.5329562494928909,inf,,,0.6498486434187238
209,,0.0,0.0,1.5157010055431694,1.4768505291088216,0.4124791676392768,1.180169583013075,1.0154739148316603,,,0.49759852643134905,inf,,,0.778634728400265
210,4.81125555066682,-4.81125555066682,0.0,1.711283630991582,1.6539638299981378,0.47483590021512034,1.7903545645313188,2.140227293064708,,,0.5567373465730988,4.772931591450717,inf,,0.744950776405016
211,,0.0,0.0,1.759403999339888,1.7189168834599444,0.8147329298991616,1.629733027427669,2.1038790112477033,,,0.36181263880445963,inf,,,0.8101786495817974
212,,0.0,0.0,1.7041378705658272,1.66748181415917,0.7857728474486281,1.5451552832982318,2.5377488651299744,,,0.468121228110369,inf,,,0.7860921276991737
213,3.037587948922741,-3.037587948922741,0.0,1.4495818415235886,1.422724807723225,0.8374986500546475,4.107753943461784,6.563301149294429,,,0.5783247308855777,3.0370173382376495,inf,,0.5366862737585901
214,3.0534309371531214,-3.0534309371531214,0.0,1.5964177558808714,1.52823352635174,0.8381705180534189,2.886607361581701,0.921651775362323,,,0.27183033608702345,3.0528906873939397,inf,,0.6849816608575527
215,3.2186090158426213,-3.2186090158426213,0.0,0.8012554284817783,0.793001910683667,0.7272765730335161,3.5133194605594658,3.1469741375755107,,,0.468121228110369,3.218598085663527,inf,,0.6782831866277248
216,4.219304950958058,-4.219304950958058,0.0,1.6678391501726448,1.637929416684155,0.6089581090208063,3.03518472015222,3.846713106167245,,,0.5713653840954815,4.213128098212068,inf,,0.7267932252103777
217,4.771410880312438,-4.771410880312438,0.0,1.692300263050688,1.622915859049517,0.6331590466703764,2.684103640566161,3.0553966795221092,,,0.5158180382284114,4.7521245989447545,inf,,0.9072109226399332
218,,0.0,0.0,1.5656780296104433,1.5096563856911183,0.5219946843642397,2.380150417842231,2.8518832490374386,,,0.5287703885177266,inf,,,0.9351655775788907
219,3.5065578973199822,-3.5065578973199822,0.0,1.6813128130795123,1.652666806938178,0.8043048822645319,3.6367057540684296,3.4007827601490677,,,0.5490601803369085,3.506557897319982,inf,,0.5719941411898662
220,3.064972171614788,-3.064972171614788,0.0,1.757827411763352,1.708083967712407,0.8302253449495997,4.053772902301195,6.134592475657006,,,0.5713653840954815,3.0649632686282087,inf,,0.771636765045443
221,3.1423016345271835,-3.1423016345271835,0.0,1.2148335200334155,1.1906653808200616,0.7360355142986879,4.250152376016143,3.242368835796956,,,0.5567373465730988,3.142172018460179,inf,,0.8215252635501284
222,3.388807058287593,-3.388807058287593,0.0,1.16519129586995,1.1648898506739234,0.8192762034562537,4.622808048884996,19.82016561255935,,,0.5451288209179292,3.388281156395609,inf,,0.6887544711063567
223,3.5065578973199822,-3.5065578973199822,0.0,1.3675961142853172,1.3345336782329977,0.683283478780945,2.7706745823286782,1.462751619769262,,,0.5713653840954815,3.506557897319982,inf,,0.7091216796131411
224,4.262446037545472,-4.262446037545472,0.0,1.6077602679916478,1.5927908618444924,0.7718245466169767,3.2398290367601597,2.7831758959437254,,,0.5370774965580548,4.257648113180293,inf,,0.7282105547861326
225,3.2167413526635724,-3.2167413526635724,0.0,1.2077507031636205,1.1962816262721252,0.7835381190098241,4.351152604822469,3.4539419727799014,,,0.5915533975974677,3.216656068129888,inf,,0.7917026095989403
226,3.6372489675967365,-3.6372489675967365,0.0,1.2999785547787355,1.2564183208886635,0.7682311553206325,3.265654152714375,2.4681683312450926,,,0.4880666971167561,3.6364978632469964,inf,,0.7748183053498967
227,3.903801635837359,-3.903801635837359,0.0,1.5510070451895166,1.5312719348257915,0.7271564868687415,3.322258727872606,3.281816564389284,,,0.5329562494928909,3.9031733901511636,inf,,0.6923740566492196
228,3.363391010339773,-3.363391010339773,0.0,1.6995790027111966,1.6808298357573128,0.7790781367864406,3.3703584939523177,2.0215845018601595,,,0.541134803179459,3.362297232704599,inf,,0.4501901831522103
229,2.8841086294723226,-2.8841086294723226,0.0,1.718510612938767,1.6691894057981262,0.8433626398456631,3.9569313775887647,6.347074846247047,,,0.5567373465730988,2.8837934425360423,inf,,0.8620883346028188
230,3.401197381662155,-3.401197381662155,0.0,1.6827642219761185,1.6795837824410738,0.7706770086078955,3.9642395381837683,11.971292183490931,,,0.4629450596409901,3.4011973816621555,inf,,0.8450622364067509
231,3.253350872287957,-3.253350872287957,0.0,1.6279495171088814,1.5805523479112493,0.7546244583993682,3.6427539610898623,1.9687661133121321,,,0.4928685327679205,3.2487624586184003,inf,,0.8648965153497361
232,3.4354498846568733,-3.4354498846568733,0.0,1.2274971818569842,1.2171567276664348,0.8014656609506736,3.6923744054233465,2.1082189072883524,,,0.48319206230712763,3.433032105182174,inf,,0.7257166372034057
233,3.9120230054281455,-3.9120230054281455,0.0,1.4579118043345702,1.3921374651276535,0.7774134225214993,3.175659890674525,2.1682678166373215,,,0.552929491858785,3.912023005428146,inf,,0.7884356179017527
234,5.548979604331146,-5.548979604331146,0.0,1.442974092335369,1.4244504423799391,0.7958326355625465,4.45669445864316,13.167430527388074,,,0.5490601803369085,5.502203101257832,inf,,0.7078346446179893
235,3.757872325600888,-3.757872325600888,0.0,1.7359383298045838,1.6867855576726316,0.7392671989160575,3.5425236049602122,4.83397906548762,,,0.5113665138247345,3.757872325600888,inf,,0.7439326518588422
236,,0.0,0.0,1.7109345002781353,1.7104145805482056,0.6479851481808198,2.95229390957918,3.7673959749125965,,,0.5329562494928909,inf,,,0.8502396795507006
237,5.548979604331146,-5.548979604331146,0.0,1.6262490531460942,1.578133662580001,0.6514063855708663,2.5807032371832666,2.7236859493186185,,,0.5202020156036558,5.502203101257832,inf,,0.9180003489587822
238,4.605170185988091,-4.605170185988091,0.0,1.6499836471232423,1.662700601460808,0.7062071887093122,2.905406710296323,3.56797993828549,,,0.5641709578113449,4.605170185988091,inf,,0.5673489008272216
239,5.7037824746562,-5.7037824746562,0.0,1.5175836937782998,1.5075388648233765,0.533677989807923,2.3687780023405396,2.5129159961644585,,,0.585052858160615,5.703782474656201,inf,,0.6077796058556119
240,4.34337950005697,-4.34337950005697,0.0,1.6560498291780177,1.6172326538389572,0.680751070901199,3.6661492737619557,1.5089707314039256,,,0.5713653840954815,4.340245100658927,inf,,0.563855319130597
241,4.320364934260828,-4.320364934260828,0.0,1.5296593136967434,1.4852685331066242,0.6571752570384009,3.2547159736213938,2.3797706735652655,,,0.5370774965580548,4.319991243754429,inf,,0.8207560379832358
242,,0.0,0.0,1.719139855312799,1.7276017196822422,0.6385494585699418,2.396150356940674,2.748119641523401,,,0.5287703885177266,inf,,,0.6714283503374164
243,,0.0,0.0,1.6500724617081313,1.6478095796279655,0.5683104237388905,2.4983465046946542,2.4563714545051982,,,0.6125606311107803,inf,,,0.6691855258444813
244,5.010635294096255,-5.010635294096255,0.0,1.0830595642061893,1.0451599290865983,0.5074877846122172,2.3761432451601068,1.8379056636679176,,,0.5202020156036558,5.0106352940962555,inf,,0.6328910479361324
245,3.624340932976365,-3.624340932976365,0.0,1.3521464472926499,1.2985430309330104,0.7338236930122595,3.2989960906007516,4.453497510849443,,,0.5677978065141052,3.624340932976365,inf,,0.5387648185900901
246,,0.0,0.0,1.5279751871259075,1.4716178734532195,0.7002038921511885,2.1263197174165724,1.4224408790553293,,,0.524519217297268,inf,,,0.9321628882606199
247,4.012907600187467,-4.012907600187467,0.0,1.4896152822956694,1.4854438397937624,0.6099316047054616,2.3069462932620026,1.1863522247306721,,,0.5287703885177266,4.008778673892454,inf,,0.5775172357942359
248,3.851965365088865,-3.851965365088865,0.0,1.6044968087079867,1.5455776970423039,0.8098663932092599,3.7276351828976084,1.8188868003436274,,,0.5451288209179292,3.8360913004611317,inf,,0.6245321952740055
249,3.36243790854173,-3.36243790854173,0.0,1.690706039643117,1.6609054913326682,0.8527415158626175,3.6172031362930297,1.9486192502816833,,,0.5370774965580548,3.3613358482370246,inf,,0.7767842531835898
250,,0.0,0.0,1.732584765469567,1.6716327113820908,0.5758841823574226,2.458803663186274,1.6276687920110056,,,0.5202020156036558,inf,,,0.8713246729372777
251,4.321323874502334,-4.321323874502334,0.0,1.5483259592121015,1.5396360100944637,0.6610489327449507,2.8108150259446423,2.4056065641219155,,,0.5748741956352443,4.320827014801825,inf,,0.8196401478920653
252,5.7037824746562,-5.7037824746562,0.0,1.6235401460983105,1.5842898048754035,0.719133672913791,2.284107241206504,2.2969499215816387,,,0.5451288209179292,5.703782474656201,inf,,0.921520369867768
253,,0.0,0.0,1.7173759940778002,1.6986918849666863,0.7695277733528103,2.532803355993206,2.6306834206721748,,,0.5370774965580548,inf,,,0.9092205777422218
254,,0.0,0.0,1.6485861251754224,1.6275789284719047,0.6951559945509301,3.2463268727512635,2.9027178614255087,,,0.5883313578629602,inf,,,0.8540456683801996
255,4.316744301698596,-4.316744301698596,0.0,1.6449452867043561,1.6212857222130177,0.5366739560059273,2.8985395520859893,2.2005023301334705,,,0.6153451465759925,4.316655127232418,inf,,0.9110792140351555
256,3.7879923125787536,-3.7879923125787536,0.0,1.497588293847421,1.428627654265752,0.6198431034086255,3.343573922431927,3.1500302483757334,,,0.5329562494928909,3.7834343636511125,inf,,0.6856036877972593
257,4.109964610814095,-4.109964610814095,0.0,1.510641943939064,1.4998020648483141,0.5523925997365322,2.9746236449056336,1.7363409847786637,,,0.6125606311107803,4.108443486601602,inf,,0.6190958115847126
258,5.7037824746562,-5.7037824746562,0.0,1.5654912406396266,1.5657374609560957,0.6024666680515003,2.7838965500486563,2.01421199719093,,,0.5022576003740722,5.703782474656201,inf,,0.6300834155501676
259,4.196990595826637,-4.196990595826637,0.0,1.5477621094727665,1.5283350115028116,0.6601104782309376,3.5159839445186507,7.601819482093854,,,0.5783247308855777,4.190855462602944,inf,,0.7061238121073595
260,4.991713589051207,-4.991713589051207,0.0,1.6535274788776888,1.6578448245909478,0.7005851144134801,3.040157012544323,4.438158121180983,,,0.5490601803369085,4.98757002116526,inf,,0.5138171772131718
261,3.401197381662155,-3.401197381662155,0.0,1.6010250094150855,1.5864851474616783,0.721521363688487,2.5823873374829596,1.7652856385390914,,,0.5490601803369085,3.4011973816621555,inf,,0.5480719437761474
262,3.3994654040957855,-1.0149829184946682,0.19641557036609614,1.766566500504554,1.7190259432004817,0.7313229015468732,3.4882330729960356,2.6746490475396194,3.3328430023348585,,0.5915533975974677,3.395215309984608,2.406547573031797,0.7005272878575678,0.5386528494475991
263,3.4119227630580817,-3.4119227630580817,0.0,1.5663791634466726,1.533615489238455,0.7849137145499516,3.4202971288135724,3.507122389242341,,,0.541134803179459,3.4112477175156566,inf,,0.5307546884155041
264,3.412084634946797,-3.412084634946797,0.0,1.5851443236298506,1.5542446379760673,0.8198865702609364,3.3046088480617737,3.1025720265524623,,,0.5490601803369085,3.4115844745486426,inf,,0.46686694209100676
265,2.833569563149233,2.866874010241454,-5.700443573390687,1.7275706088797813,1.6849556614320245,0.8663413449011985,4.087114950759385,2.3421461673540236,2.8681520265710465,,0.6233814453054027,2.83229154681964,2.8748298291020755,inf,0.5237543974109707
266,5.7037824746562,-5.7037824746562,0.0,1.720794518391889,1.7312600255636594,0.8397984987030916,3.1456984716764587,2.1907460730326225,,,0.5158180382284114,5.703782474656201,inf,,0.7867568471959121
267,4.447903986381117,-4.447903986381117,0.0,1.7731229179100032,1.7532092331011182,0.6796901158461942,3.6486958224660295,14.48956036002997,,,0.4732203808476458,4.437774279410813,inf,,0.7868225431457896
268,4.605170185988091,-4.605170185988091,0.0,1.6743070575963415,1.6692978925217334,0.790551787806063,3.5103991798717957,2.698289322602872,,,0.5370774965580548,4.605170185988091,inf,,0.6895120514479505
269,4.605170185988091,-4.605170185988091,0.0,1.7134325512564808,1.7044198960157155,0.6523847556551817,2.9385487920445974,6.110010554100748,,,0.5451288209179292,4.605170185988091,inf,,0.6513974204566296
270,3.74318387241219,-3.74318387241219,0.0,1.703009367257848,1.6843865987464526,0.7090294790738793,3.5559346739844213,3.3936554386553834,,,0.468121228110369,3.7422802308410517,inf,,0.7804126450927681
271,3.9120230054281455,-3.9120230054281455,0.0,1.469227513780217,1.4049291001050879,0.7716187925089151,3.9910002618552514,10.320790684054407,,,0.4880666971167561,3.912023005428146,inf,,0.5643936787926934
272,2.824080287343493,-2.824080287343493,0.0,1.6346279467873392,1.602125464910499,0.8307927249590035,5.043729586150215,6.51631981499195,,,0.5641709578113449,2.8238352340959203,inf,,0.49166963539955866
273,2.9750357336793303,2.7254078397113566,-5.700443573390687,1.5477591220180025,1.5051822443123217,0.7542084890795379,3.9176422317886006,5.291870113387886,2.726255329401411,,0.5490601803369085,2.9741882439892753,2.7329331319324406,inf,0.46620169745618634
274,3.1237644961900743,2.5766790772006125,-5.700443573390687,1.6063908977041836,1.5983436665243111,0.7818243720535909,4.20523646310866,16.4355223129787,2.577130421700201,,0.6008849035917525,3.1233131516904855,2.5838082242312304,inf,0.6629231827622957
275,3.5772060413478037,-3.5772060413478037,0.0,1.191557916757839,1.1506110255068636,0.8727207909666167,3.5728876042125233,7.084133512931928,,,0.541134803179459,3.5660720248523896,inf,,0.7368780470398072
276,4.0943445622220995,-4.0943445622220995,0.0,1.3897189136435857,1.34851785014613,0.7034045803978957,3.1820337833971584,2.213716811291051,,,0.5490601803369085,4.0943445622221,inf,,0.7245914601376415
277,3.4654672962134296,-3.4654672962134296,0.0,1.48566012522084,1.4418035074076756,0.6686275114451466,2.71765711290438,1.3804513537568321,,,0.5329562494928909,3.4641371814360293,inf,,0.7047233174735263
278,2.7511365683877522,2.2561598244429892,-5.0072963928307415,1.6304560927163765,1.6258545627412933,0.7422110179512104,4.6438041078655585,3.252901837954359,2.9494858712772,,0.5370774965580548,2.7509577021134866,2.263016493248284,inf,0.683709664644004
279,3.119122614004596,0.40790769060168186,-3.527030304606278,1.6979535659402294,1.6499544446378354,0.708570245889961,3.126258266695195,2.8866149447036715,6.674176876259186,,0.5158180382284114,3.1172723580880866,3.0699367661459904,inf,0.6788247146226143
280,2.660723741857861,-2.660723741857861,0.0,1.4081695163289383,1.3866052027706888,0.7781706302036054,3.7955828220987975,56.496370190383814,,,0.5202020156036558,2.6606896297423726,inf,,0.6051655385913102
281,5.010635294096255,-5.010635294096255,0.0,1.6904389392400962,1.6680426942349431,0.6034811975081827,3.5563901505111573,9.360735357622273,,,0.524519217297268,5.0106352940962555,inf,,0.7084697268962756
282,,0.0,0.0,1.6608979634790695,1.6191162464462918,0.8726715703945738,3.0288182376961976,14.154106072670205,,,0.5748741956352443,inf,,,0.9127149381841309
283,5.500459301691949,-1.3751148254229872,0.0,1.6674575671108056,1.6501382895729788,0.6319991221498326,3.053096843074988,4.9666505313214735,,,0.5329562494928909,6.832853970809019,inf,,0.7635498965902227
284,2.70805020110221,2.992393372288477,-5.700443573390687,1.5293644542953642,1.5040516614639678,0.7749418187551661,3.6444553877910755,2.259034699223926,2.9923933722884763,,0.5287703885177266,2.70805020110221,2.999071174819506,inf,0.7581198268497258
285,2.696321703894836,3.004121869495851,-5.700443573390687,1.2500390502654641,1.2085077361698093,0.7364695728127213,3.760689421056698,4.636795683695437,,,0.47824363442641393,2.695956953414827,3.011164422506889,inf,0.8411849689273497
286,2.9273738985901887,-2.9273738985901887,0.0,1.6027856525722741,1.5618567812255821,0.7751858889119787,3.866286052411003,2.255009491914993,,,0.5451288209179292,2.927035742267756,inf,,0.6892247202471149
287,3.483729785594119,-3.483729785594119,0.0,1.7422083758265272,1.723612019087295,0.8442581368642431,3.715264112769666,4.4152820687315915,,,0.5370774965580548,3.482769035355967,inf,,0.6282228269795591
288,2.6243806277770356,3.0760629456136512,-5.700443573390687,1.596057359931733,1.5742897873551853,0.8738037918374988,4.567160581971527,8.148457374002573,,,0.5022576003740722,2.6234027270419253,3.08371864887979,inf,0.6029596145436866
289,4.0943445622220995,-4.0943445622220995,0.0,1.2561040820770004,1.2195320209812264,0.6890822039140928,3.8679850426578906,7.29574097866403,,,0.4880666971167561,4.0943445622221,inf,,0.750935555160857
290,5.200095523449306,-5.200095523449306,0.0,1.750206241080679,1.7054507117495712,0.7600513984430959,3.9243390662729767,5.898345427756782,,,0.5604843169999094,5.157589707052919,inf,,0.7723912288684539
291,3.0647251450409425,-3.0647251450409425,0.0,1.3605064756471523,1.3647428938934576,0.8797814235480352,3.7142875356884733,5.35063651992041,,,0.5068466436745385,3.0647251450409425,inf,,0.6608113947887847
292,4.397800560881595,-4.397800560881595,0.0,1.6697633328529584,1.6703892591783929,0.7339833139315466,3.9138179948083827,22.9245674764099,,,0.4732203808476458,4.336840842052125,inf,,0.6856913787643529
293,5.7037824746562,-1.597059092903736,0.0,1.7813146441560046,1.711327323242142,0.6638340979037715,2.93269952986919,3.690034888902719,,,0.48319206230712763,6.9767481504690885,inf,,0.735564935830437
294,2.96066634373591,2.7397772296547767,-5.700443573390687,1.455110742317691,1.415950179798982,0.8784372344427137,4.181051032467046,14.19830569468414,4.236043874886326,,0.5451288209179292,2.960150652504081,2.7469707234176344,inf,0.8484666572792423
295,3.307158004255222,-3.307158004255222,0.0,1.4284741087847126,1.4323132650166432,0.8223701238683997,4.441997997703233,32.4970258326877,,,0.581717464821069,3.30710005828304,inf,,0.7708839449642924
296,4.0943445622220995,-4.0943445622220995,0.0,1.6837992414608158,1.6524762952516454,0.7572357312990694,3.8814176722687828,16.646827373417832,,,0.4928685327679205,4.0943445622221,inf,,0.8125792451638194
297,3.4731937340283365,-3.4731937340283365,0.0,1.6904352042966933,1.6582281742059448,0.7892954145663994,4.150282476866244,15.47770347489136,,,0.5158180382284114,3.4719775637232027,inf,,0.7833379681290022
298,3.3091799006580898,-3.3091799006580898,0.0,1.390947166020186,1.3666565966887534,0.7173399827092066,3.9536973225206777,7.497525092319693,,,0.5287703885177266,3.305281324832329,inf,,0.747433332699294
299,3.427186308857752,-3.427186308857752,0.0,1.6107157052362677,1.581302109320012,0.7280604369562368,4.286241121820872,8.163891630014366,,,0.41861278947482794,3.4261733677323325,inf,,0.7337718164628896
300,3.757872325600888,-3.757872325600888,0.0,1.7331613840923463,1.7488911072600635,0.8025595533520488,4.045084595392802,7.908404462727536,,,0.49759852643134905,3.757872325600888,inf,,0.7902848457580082
301,2.870569130599985,2.8298744427907017,-5.700443573390687,1.6347201806036342,1.594149829243939,0.7982529908341233,3.1736050896686177,2.6533044165467934,2.829874442790701,,0.5158180382284114,2.870569130599985,2.8365522453217307,inf,0.8381975087820405
302,3.1388331171946646,-3.1388331171946646,0.0,1.6510416107371084,1.6059722199446878,0.7999240330836331,3.805531882917641,3.5348716477573023,,,0.5287703885177266,3.138833117194664,inf,,0.8189214781783871
303,2.69162021603231,-2.69162021603231,0.0,1.7600592632441792,1.741696133149329,0.8466843864232937,4.703286511106194,5.5150185021722065,,,0.5068466436745385,2.690865376348109,inf,,0.5432348781578895
304,3.2452599245269647,-3.2452599245269647,0.0,1.5484918568539825,1.533144180942849,0.8269733725780648,4.867921091718658,19.9437181631976,,,0.5113665138247345,3.2424856905073347,inf,,0.6828830959575608
305,3.3951610702745474,-3.3951610702745474,0.0,1.7098732474983755,1.666247544552486,0.8504641686564229,4.348378803400918,7.952021960481802,,,0.5329562494928909,3.394884019605563,inf,,0.6839197497274854
306,2.930587506198256,-2.930587506198256,0.0,1.6427815653648044,1.633369864938386,0.8978824045560991,4.3546236026136595,31.40281599241105,,,0.42445136339222655,2.930568947647578,inf,,0.8150880931371547
307,3.2744482548457836,-3.2744482548457836,0.0,1.4807622046362523,1.435004268429342,0.8702415179578127,4.427615793857992,10.42766833410914,,,0.43586655696697996,3.272511040700832,inf,,0.7474801625988347
308,5.010635294096255,-5.010635294096255,0.0,1.7022322723507486,1.6635831395929583,0.7333478320830273,3.870910651517615,2.6096640235081714,,,0.5287703885177266,5.0106352940962555,inf,,0.7283509940982551
309,5.414971149422889,-5.414971149422889,0.0,1.457150317258009,1.370709713793194,0.733274819914263,4.235989449879432,5.348404846634096,,,0.5748741956352443,5.3554757803879856,inf,,0.5441436458990067
310,5.7037824746562,-5.7037824746562,0.0,1.7234147115161385,1.6845461086093454,0.656586987769284,4.347419905391516,13.614298526792615,,,0.4732203808476458,5.703782474656201,inf,,0.9323484696607512
311,3.624340932976365,-3.624340932976365,0.0,1.4446673757147428,1.417463228548789,0.8292542984975493,3.21988614604067,2.7174025472015932,,,0.5068466436745385,3.624340932976365,inf,,0.7924634880131894
312,4.0225955196583785,-4.0225955196583785,0.0,1.3020925356752884,1.286162041770059,0.8236829328426802,3.4467107260403163,8.850574346595133,,,0.5068466436745385,4.014301854548564,inf,,0.9370425892063153
313,4.863316304816955,-4.863316304816955,0.0,1.7789482503110177,1.7406520600171933,0.8181251256139793,3.0356825440568005,7.59042655504105,,,0.5677978065141052,4.843709422780274,inf,,0.9237769915472401
314,5.7037824746562,-5.7037824746562,0.0,1.7043872857669682,1.6428960271297388,0.8404615410384535,3.7056849589737935,19.654997719017725,,,0.3751344627501719,5.703782474656201,inf,,0.812608785742976
315,,0.0,0.0,1.687508709228516,1.659086565059624,0.8789307557641195,3.326787499686081,4.083474021295677,,,0.43586655696697996,inf,,,0.8737698706736362
316,5.7037824746562,-5.7037824746562,0.0,0.9798537053180318,0.9622332673868196,0.8484916953471371,3.2892670668832964,3.8660755772078783,,,0.4302020962658841,5.703782474656201,inf,,0.9264531129964929
317,,0.0,0.0,1.6266263942164412,1.6312514927022068,0.7367781183761719,2.7632574118273525,2.874405650300266,,,0.5068466436745385,inf,,,0.7076594105232741
318,4.605170185988091,-4.605170185988091,0.0,1.5177501063004988,1.503057052111861,0.5873881644492323,2.8799413132334433,4.031728894552003,,,0.4732203808476458,4.605170185988091,inf,,0.727340341757213
319,5.703782474656201,-2.7948534125815385,0.0,1.593631416335255,1.595956107994542,0.7437045873316991,2.9736973631256065,2.103965433295285,,,0.4576907132971797,6.417132362533666,inf,,0.8950715894923098
320,3.9120230054281455,-3.9120230054281455,0.0,1.6572221440185892,1.6156866174917044,0.7510535480925872,3.267973875713362,5.1608500165655915,,,0.5022576003740722,3.912023005428146,inf,,0.8049454137584773
321,3.7569821163167245,-3.7569821163167245,0.0,1.28700705114428,1.2651261383216148,0.6997617939903202,3.5444220756439786,2.4422501181959912,,,0.5068466436745385,3.7569203978755055,inf,,0.7830919627741472
322,5.7037824746562,-5.7037824746562,0.0,1.4736244027390613,1.447180905693567,0.7021068953733363,2.9997498102669313,3.159012703964722,,,0.5370774965580548,5.703782474656201,inf,,0.6730698966020624
323,4.0943445622220995,-4.0943445622220995,0.0,1.299277993790822,1.2651581238705392,0.7303238956346778,3.2021186670979382,3.6964832669549947,,,0.524519217297268,4.0943445622221,inf,,0.8683149531499962
324,5.010635294096255,-5.010635294096255,0.0,1.485418473698884,1.4738662316247173,0.7015569310651502,2.9144045459905406,3.5787991327890643,,,0.541134803179459,5.0106352940962555,inf,,0.8876618823355148
325,5.7037824746562,-5.7037824746562,0.0,1.5953437632372756,1.5734621732063576,0.7334787155996395,2.9638372573026457,2.3152886536314754,,,0.5022576003740722,5.703782474656201,inf,,0.8920625305113878
326,4.924400131259499,-4.924400131259499,0.0,1.5472571587687478,1.5485672619441544,0.5771542216096363,2.1230396514465775,1.7843728304144162,,,0.5451288209179292,4.9047749033967785,inf,,0.6548807928193484
327,5.7037824746562,-5.7037824746562,0.0,1.5012359697744402,1.4470211490797595,0.490184531030302,2.0984031971362356,1.9883019937838364,,,0.4880666971167561,5.703782474656201,inf,,0.7654350803204241
328,4.5629768153618295,-4.5629768153618295,0.0,1.5681615656851005,1.5182624685130943,0.5050025666108033,2.4123247924923206,2.4759185364053184,,,0.524519217297268,4.557438783166901,inf,,0.804240772568829
329,5.7037824746562,-5.7037824746562,0.0,1.0738678296280078,1.060761877138801,0.5473600454735411,1.807149953462792,1.5388700187405873,,,0.5113665138247345,5.703782474656201,inf,,0.6451816572359428
330,5.560532057340478,-5.560532057340478,0.0,1.656431931308815,1.6462403801520407,0.46005043731222095,1.8099228327359078,1.636068213608144,,,0.5567373465730988,5.515920737486631,inf,,0.729975162075091
331,5.7037824746562,-5.7037824746562,0.0,1.6146630164062619,1.5862609489424024,0.3146731543311805,1.511669007814967,1.3543401950536236,,,0.5202020156036558,5.703782474656201,inf,,0.6364655267453125
332,,0.0,0.0,1.6351044140377478,1.6283094481188412,0.7117024999565178,1.2609089261159654,1.4581348055860524,,,0.47824363442641393,inf,,,0.7937893615252314
333,,0.0,0.0,0.8351072583656409,0.7548445018095921,0.5954788423064251,1.5386537521454522,1.653837442322639,,,0.524519217297268,inf,,,0.6816888049624447
334,,0.0,0.0,0.9670920955946346,0.9471486719763201,0.6601953153201758,1.1843668933382723,1.4743560101585382,,,0.4732203808476458,inf,,,0.7780210162736882
335,,0.0,0.0,1.7174565122047998,1.6972506476541496,0.6147995428945279,1.3191679335192024,1.4150220781102687,,,0.468121228110369,inf,,,0.8673437547804707
336,5.7037824746562,-5.7037824746562,0.0,1.5570269463805169,1.5258678167958284,0.5864552275391356,1.5337073719991723,1.4314749258389412,,,0.4928685327679205,5.703782474656201,inf,,0.5580394460006899
337,,0.0,0.0,1.6296521283104244,1.5674316341853358,0.5743765096082761,1.8821915027882397,1.902832905093521,,,0.41861278947482794,inf,,,0.7189625705718004
338,,0.0,0.0,1.7469072566559576,1.7077551948399445,0.5695183992364888,1.5890763691214245,1.6844892395209101,,,0.4302020962658841,inf,,,0.7788577574409539
339,4.285504204514607,-4.285504204514607,0.0,1.2078639462560266,1.1817482371485761,0.6211583680757682,2.272408112733433,2.290166777214625,,,0.44144624493110796,4.282281857801691,inf,,0.7075741618423708
340,5.7037824746562,-5.7037824746562,0.0,1.6345999336283776,1.561286290065285,0.5298348060212305,1.2466800086977383,0.9887191487827638,,,0.41861278947482794,5.703782474656201,inf,,0.7633341617914178
341,5.7037824746562,-5.7037824746562,0.0,1.584534985361436,1.5297318395575936,0.8513898457393084,2.05738028275327,1.6086459066470753,,,0.43586655696697996,5.703782474656201,inf,,0.7820903852447844
342,3.630127293323427,-3.630127293323427,0.0,1.2272323234466824,1.1577963731209875,0.8230402713753023,3.0919370099405934,2.1180942767183337,,,0.5158180382284114,3.629772322973572,inf,,0.7800110984087738
343,3.305887201857831,2.3945563715328557,-5.700443573390687,1.6106453000235403,1.5662293687560047,0.7299238231121434,4.175632540172793,5.521297860968141,2.3945563715328557,,0.5158180382284114,3.3058872018578307,2.401234174063885,inf,0.7753452421954764
344,2.6118509860464685,-2.6118509860464685,0.0,1.5850501689055805,1.5696916584121137,0.8938021029457954,3.79163041229614,1.7958066772150691,,,0.5604843169999094,2.611831343361667,inf,,0.6652736886481946
345,2.458236564843769,-2.458236564843769,0.0,1.651729538107732,1.6132684990608679,0.8109664313307795,3.7990209913026427,2.6308719688877216,,,0.585052858160615,2.4580699958344407,inf,,0.4948834362186905
346,3.2188758248681997,-3.2188758248681997,0.0,1.7289432740315251,1.7204219380985308,0.7826984193945469,2.9060081292073177,2.3448365005110965,,,0.5158180382284114,3.2188758248682006,inf,,0.60283189391973
347,3.8282678027220025,-3.8282678027220025,0.0,1.7115060728928428,1.636006211420318,0.5793968379611216,3.3168961165139454,3.3478478842906463,,,0.5604843169999094,3.8253357550359413,inf,,0.6906066494615102
348,2.9593755733131593,-2.9593755733131593,0.0,1.6914620078651514,1.6530885150885335,0.8321228556231172,4.3414881192950565,4.118491983165452,,,0.581717464821069,2.958864754341465,inf,,0.6791720070207357
349,2.9469961094351276,-2.9469961094351276,0.0,1.7123857280649235,1.6416356161242507,0.8066704226279996,4.1458881338512015,7.868272697889895,,,0.581717464821069,2.946307390226468,inf,,0.46467271195301363
350,3.9772583596272875,-3.9772583596272875,0.0,1.5185507243851948,1.507075278473819,0.7459982503217528,2.8424419539795647,1.7094008575884052,,,0.5329562494928909,3.963901266196811,inf,,0.6129257376955453
351,3.6011769359639434,-3.6011769359639434,0.0,1.7569593994224424,1.7298909784658136,0.7853794225198852,3.2295815348147214,8.154837968473107,,,0.468121228110369,3.6000549070962093,inf,,0.682005876316752
352,3.1388331171946646,-3.1388331171946646,0.0,1.4137202417549708,1.3303202821471514,0.7610739001544087,3.5640318183221176,3.0214129752715935,,,0.5068466436745385,3.138833117194664,inf,,0.6982957921237948
353,3.305887201857831,2.3945563715328557,-5.700443573390687,1.4448863280766493,1.415817399126826,0.7942540599778887,3.697359477378628,17.016728886891986,2.3945563715328557,,0.5113665138247345,3.3058872018578307,2.401234174063885,inf,0.7209193388924808
354,2.9935156610286846,-2.9935156610286846,0.0,1.634283318530067,1.624180554022529,0.7670700101452019,4.32788184588048,13.795856287858808,,,0.5287703885177266,2.9915189399011224,inf,,0.6851900782051306
355,2.75934349548976,-2.75934349548976,0.0,1.6315006981724878,1.6441569015364323,0.7268254152210036,4.015906732560412,11.568061586868144,,,0.5451288209179292,2.7593434954897607,inf,,0.5794607781074348
356,3.5065578973199822,-3.5065578973199822,0.0,1.3302914100546654,1.2958103445051956,0.8304535747338841,4.02777041517014,6.205700691492601,,,0.44144624493110796,3.506557897319982,inf,,0.6663136782632899
357,4.299636629431173,-4.299636629431173,0.0,1.632977316463063,1.63228165121599,0.6791778852586072,3.888192727496064,9.805398032070922,,,0.45235697871908603,4.29768548624013,inf,,0.7537683174886656
358,3.6701867111107846,-3.6701867111107846,0.0,1.5945826745701701,1.573605543612023,0.7887092249307657,3.926994962839208,3.457274217642555,,,0.5567373465730988,3.668205746623304,inf,,0.5333340562893029
359,3.477056952935791,1.5302394398949506,-5.0072963928307415,1.4108195278936233,1.3931939707774568,0.8089310290869914,4.002579074424409,4.740594497278416,1.5313754649726494,,0.5604843169999094,3.475920927858092,1.5380532675036784,inf,0.4575029809302774
360,3.3633910103397726,-3.3633910103397726,0.0,1.5976745437866158,1.5197040185330566,0.7147840391755043,2.807890275149072,4.039849740359147,,,0.4928685327679205,3.362297232704599,inf,,0.5026611083714225
361,3.433859141516081,-3.433859141516081,0.0,1.7308737881892202,1.7272009030697182,0.794497130646167,3.909279635638285,4.006977902017198,,,0.49759852643134905,3.4326880487535263,inf,,0.7541054276026292
362,2.934850935280882,2.0724454575498594,-5.0072963928307415,1.281420608213652,1.2656224040050414,0.7948278209689992,4.2450171687459655,60.23689425821405,2.6978244453554954,,0.541134803179459,2.934741705632105,2.079232489729665,inf,0.49912240035862615
363,3.015791357291874,-3.015791357291874,0.0,1.410381325140115,1.4108872308521676,0.8844097592323724,4.015572161436385,45.841363689252475,,,0.5113665138247345,3.0152549400428548,inf,,0.6285326775721308
364,3.624340932976365,-3.624340932976365,0.0,1.6543490968304564,1.5703338786221932,0.8342384237375048,3.4621457150925155,9.532961462339365,,,0.5068466436745385,3.624340932976365,inf,,0.47345011028766526
365,5.447318017849021,-5.447318017849021,0.0,1.5806324599640047,1.4948505195530113,0.6965516748808388,2.570859431844505,2.134799161428722,,,0.4928685327679205,5.388971734816168,inf,,0.8828712570685802
366,,0.0,0.0,1.3603737038154615,1.3631643336686272,0.7714029235689656,2.455112675584655,3.477125005112183,,,0.4302020962658841,inf,,,0.639807226587001
367,5.7037824746562,-5.7037824746562,0.0,1.0421168938194447,0.998718468099888,0.7102720357358808,2.938297755882648,2.248876515315551,,,0.4880666971167561,5.703782474656201,inf,,0.5860739593895311
368,,0.0,0.0,1.5122536565055438,1.4838404660261784,0.7743343690582124,2.6918435524429567,3.221275556258684,,,0.3685265678147087,inf,,,0.7319731752003237
369,5.703782474656204,-2.2434877733647736,0.0,1.6877263228354797,1.6800649566909616,0.7545216121478003,2.168881699037317,1.7892771924443753,,,0.45235697871908603,6.636880324846738,inf,,0.7419541374578893
370,5.7037824746562,-5.7037824746562,0.0,1.6231073864496097,1.5661509782343452,0.6127665204082016,2.25172502452251,2.515635243135416,,,0.468121228110369,5.703782474656201,inf,,0.6679168210806175
371,5.7037824746562,-5.7037824746562,0.0,1.6984223811832746,1.6857737637884855,0.5905341932760969,2.2641295665168597,1.945596128240338,,,0.43586655696697996,5.703782474656201,inf,,0.8732814264266987
372,,0.0,0.0,1.55162624490098,1.525783017629483,0.8151162624740045,1.7289021132194153,1.8655671727307774,,,0.5451288209179292,inf,,,0.8082232546684378
373,,0.0,0.0,1.4956169092951521,1.4795110776275948,0.6505121843404967,2.1231450453266536,2.1096604733595288,,,0.43586655696697996,inf,,,0.7369754784518662
374,4.31748811353631,-4.31748811353631,0.0,1.4291557141807993,1.3519755985232533,0.7631956228374212,3.42953235514045,2.6426093222499403,,,0.5202020156036558,4.31748811353631,inf,,0.6725159662026067
375,2.798271894804359,2.902171678586328,-5.700443573390687,1.6290169555813498,1.592337811659159,0.7813038191139107,4.378390003387601,6.5634820966264495,2.902468664760489,,0.5567373465730988,2.7979749086301973,2.9091464672915186,inf,0.639478036623584
376,2.876631592781629,2.823811980609058,-5.700443573390687,1.509318615371146,1.4963350702379181,0.8569381387127104,4.525287148055198,6.842562275229963,2.823974720663513,,0.5113665138247345,2.8764688527271733,2.8306525231945425,inf,0.7478845872099625
377,2.6060848712332736,3.0943587021574133,-5.700443573390687,1.6438215442998851,1.6335242687860538,0.8348863915626517,4.159982575768744,47.32512894265386,3.09449859522563,,0.5641709578113449,2.6059449781650565,3.1011763977566593,inf,0.6125425347898453
378,2.7825924006359792,2.9178511727547076,-5.700443573390687,1.6843857566759572,1.6279352102811768,0.8719952938940647,4.523379679980357,8.170899090591135,2.9182084740991,,0.5783247308855777,2.7822350992915865,2.924886276630129,inf,0.6305895222498437
379,3.8565287606903333,-3.8565287606903333,0.0,1.7632297509955528,1.7355263435277333,0.8063907968913594,3.7013681594206664,4.325137132074888,,,0.581717464821069,3.8537540973041704,inf,,0.6060723055205238
380,2.679627107812284,2.849231207516476,-5.52885831532876,1.3187334455919286,1.296314224602219,0.8254325098555668,3.8543903883643775,4.996862634370633,,,0.5915533975974677,2.6793007878162243,3.0583832385156584,inf,0.5262731539507264
381,3.22119612825459,-3.22119612825459,0.0,1.6010860286728739,1.5713137327184659,0.7976844137115856,3.393192515779744,3.170250316648888,,,0.62595550513784,3.221100519890312,inf,,0.6543724469060054
382,3.4757403818269057,-3.4757403818269057,0.0,1.6071752160502006,1.519509066955075,0.668074213268867,1.7428735459671525,1.3241227705877592,,,0.585052858160615,3.4709047940869757,inf,,0.8108184436143827
383,,0.0,0.0,1.7681065185932423,1.7497022481743993,0.8226941794915045,1.0607691054065158,1.4600823793647733,,,0.5068466436745385,inf,,,0.7864989207555634
384,,0.0,0.0,1.535624072354322,1.4997606149632576,0.559406797788841,1.2962514574487385,1.5771417303756412,,,0.541134803179459,inf,,,0.9171351956194314
385,,0.0,0.0,1.7684928581077464,1.7161199193050962,0.8897435613020491,1.2141136223564313,1.4310514808502068,,,0.4629450596409901,inf,,,0.8044969337798505
386,,0.0,0.0,1.7648193686593525,1.7571546665249842,0.863126561437439,1.2576419211340697,1.5792362123661168,,,0.4576907132971797,inf,,,0.8293227681248133
387,4.605170185988091,-4.605170185988091,0.0,1.5474740027558525,1.5023964942985468,0.4351462026765826,1.631217078511477,1.6247439324561008,,,0.468121228110369,4.605170185988091,inf,,0.6029574244016922
388,,0.0,0.0,1.5523116292683867,1.5474793456981901,0.49701503412357617,1.2202242129222083,1.437159656844189,,,0.4629450596409901,inf,,,0.6644677393392425
389,,0.0,0.0,1.790625633061997,1.7562458963429,0.9137329980071055,1.536443572149985,1.6742731775176287,,,0.44694259446804574,inf,,,0.7963496272367108
390,,0.0,0.0,1.7590689108260291,1.7233167677194359,0.8922219472499582,1.7575844170284927,1.7609130179380392,,,0.38804190201132227,inf,,,0.7734009847913567
391,,0.0,0.0,1.7623352311269784,1.7679388684435755,0.8338411118332487,1.687076776361804,1.7479470809391717,,,0.5158180382284114,inf,,,0.7796182162314135
392,,0.0,0.0,1.7324607292008585,1.712152149144578,0.8591154416015673,1.5235185422625286,1.86715905934862,,,0.42445136339222655,inf,,,0.7764343331585204
393,,0.0,0.0,1.7170248442020977,1.6972756849104946,0.8311295694356704,1.5265395786739848,1.6894732480332277,,,0.4302020962658841,inf,,,0.7659832088365256
394,,0.0,0.0,1.5812971513792937,1.5516236357369213,0.8077269833965309,1.4426184777182303,1.5366365794433343,,,0.44694259446804574,inf,,,0.8007195718899373
395,,0.0,0.0,1.5498598315660717,1.5286397868424386,0.8477064671295248,1.386396510545347,1.8481681033228414,,,0.41861278947482794,inf,,,0.7570344261535424
396,,0.0,0.0,1.498739581556657,1.454342805097799,0.8592188276045891,1.451711179523251,1.5940018892755836,,,0.45235697871908603,inf,,,0.7749999474647926
397,,0.0,0.0,1.4853888191093942,1.4711186997689965,0.766327270440927,1.5897286925222303,1.6714192460080246,,,0.524519217297268,inf,,,0.8668006256765364
398,,0.0,0.0,1.582684848243159,1.5868404213830427,0.711465108749892,2.0686902538651046,1.630783254462714,,,0.5202020156036558,inf,,,0.8374246024673984
399,,0.0,0.0,1.2059772039901244,1.2054864363274556,0.8580644026667136,2.718735968038054,2.4898527112287443,,,0.4928685327679205,inf,,,0.7388014289797921
400,,0.0,0.0,1.752129910804988,1.718827246675662,0.9572704375499419,3.293807150586226,7.590894836050531,,,0.42445136339222655,inf,,,0.8420939431371934
401,,0.0,0.0,1.7109933850361123,1.6672635536074871,0.9440326388302165,2.713527776374212,2.753059171969274,,,0.4629450596409901,inf,,,0.8863021626616586
402,,0.0,0.0,1.6431904715918837,1.6154570476753678,0.9608862533721828,3.243915041450304,2.8746874486345706,,,0.468121228110369,inf,,,0.8653816632735136
403,,0.0,0.0,1.549337804233931,1.5410775912767836,0.9706465179146769,3.131079666391217,2.726106100026856,,,0.4880666971167561,inf,,,0.8530817721648933
404,,0.0,0.0,1.5160824157254813,1.4850227790832518,0.9448867348146827,2.82798668729525,1.9469991532482962,,,0.35499006010413947,inf,,,0.8574882090492125
405,,0.0,0.0,1.5962857399581536,1.5845183551924114,0.918998031925129,2.8606298784745334,2.667077751059138,,,0.3480560589391537,inf,,,0.8311081568532755
406,,0.0,0.0,1.3092980068684987,1.2829949090904538,0.9714696638114255,2.6552734484058536,2.3217224742323355,,,0.44144624493110796,inf,,,0.8407872863230538
407,,0.0,0.0,1.2893641446746515,1.2544393688271103,0.9802414072487743,2.757423814406601,3.526889171200337,,,0.4576907132971797,inf,,,0.8422250696742576
408,,0.0,0.0,1.5496239965849388,1.504065312484839,0.9516568808179041,2.7346241625995367,3.450498150792744,,,0.3943459996787778,inf,,,0.8666543135796598
409,,0.0,0.0,1.559805074828145,1.5407090973351427,0.9682272192169691,3.122658667864126,4.6541720138535645,,,0.524519217297268,inf,,,0.8703452901387472
410,,0.0,0.0,1.5284746846131092,1.511372642471601,0.9612132804118119,3.2306822396106893,2.7557985297613556,,,0.4880666971167561,inf,,,0.8365079858545142
411,,0.0,0.0,1.2695401945698508,1.2840607910472648,0.958575104370739,3.0374461457868147,3.0483883429991234,,,0.43586655696697996,inf,,,0.8012996426742379
412,,0.0,0.0,1.2781063836614563,1.2831521901365497,0.9649650228204921,3.1616525827316466,3.9730821648525807,,,0.4302020962658841,inf,,,0.8761739747125524
413,,0.0,0.0,1.5037138201953328,1.4743385576109636,0.7983760915925996,2.9152756259655814,6.292705130308859,,,0.48319206230712763,inf,,,0.8106632736273309
414,,0.0,0.0,1.3958684565558463,1.3872178577447432,0.9558821019591484,3.1457454978811206,8.57889737923229,,,0.4066654671944331,inf,,,0.9137498008403141
415,5.7037824746562,-5.7037824746562,0.0,1.7480007596314107,1.7548898474404246,0.4850253746436914,2.953210109398921,2.749056733340299,,,0.3943459996787778,5.703782474656201,inf,,0.6305952076495751
416,,0.0,0.0,1.684809383933471,1.6546913981799274,0.9482003853637987,3.2526035799593025,2.633382445375444,,,0.43586655696697996,inf,,,0.8794311397747622
417,,0.0,0.0,1.1840853971710692,1.1565110164273111,0.8478986568324673,3.144784374802743,4.5572195528346935,,,0.44694259446804574,inf,,,0.7839357819722973
418,,0.0,0.0,1.3771996302681764,1.3502873224791625,0.9379877537912695,3.8311184812160235,7.725208561111105,,,0.45235697871908603,inf,,,0.870048829638665
419,5.7037824746562,-5.7037824746562,0.0,1.5727699661184038,1.575420825509955,0.698414504431338,3.3840296237314567,2.675439898758193,,,0.4732203808476458,5.703782474656201,inf,,0.7828590252420317
420,,0.0,0.0,1.4723070359464072,1.453747042920211,0.9524794434610899,2.4583647623170872,2.614045269561532,,,0.3751344627501719,inf,,,0.852292870584987
421,,0.0,0.0,1.590996550363995,1.5359954183124043,0.949611133286402,2.381942167689004,2.629846377462582,,,0.45235697871908603,inf,,,0.8418606690927063
422,,0.0,0.0,1.7021318921658621,1.6651120112412072,0.9321166803517045,2.466488394998759,3.4445529608483576,,,0.468121228110369,inf,,,0.8373044331637571
423,,0.0,0.0,1.703198245226572,1.6787738913457082,0.9612524600293527,2.698660273547024,3.219906277790834,,,0.47824363442641393,inf,,,0.7877480955191125
424,,0.0,0.0,1.734512374983613,1.7063921133434843,0.9424824831158635,2.365666838539039,2.304744009147209,,,0.41861278947482794,inf,,,0.8315894441387522
425,,0.0,0.0,1.6072727779634621,1.57435468349814,0.968400773388535,2.4523031410823632,2.8150636673676206,,,0.47824363442641393,inf,,,0.8007444895134759
426,,0.0,0.0,1.670054964147654,1.6572336182324057,0.9499400199115214,2.4901698959671297,2.4315718199416523,,,0.4576907132971797,inf,,,0.8588282049773757
427,,0.0,0.0,1.6489092538838845,1.6146278163044725,0.9253733569884119,2.474795271099468,2.4191505476246955,,,0.45235697871908603,inf,,,0.8312125758017019
428,,0.0,0.0,1.6349116596574964,1.6140107693160288,0.963086639299186,2.2297624308446005,2.2127828219726067,,,0.45235697871908603,inf,,,0.8221504542308881
429,,0.0,0.0,1.5376291925972718,1.5328708791527963,0.9406739806386405,2.4881608325775844,2.4980398893321447,,,0.38163879478178075,inf,,,0.8396728132798562
430,,0.0,0.0,1.5883306792066239,1.5523956410731832,0.9548368540829748,2.5364985100247344,2.5901367499599686,,,0.468121228110369,inf,,,0.8331655938319995
431,,0.0,0.0,1.6956536862677067,1.6786690953541303,0.9340389021189877,2.3354655263950113,3.0914368363510856,,,0.43586655696697996,inf,,,0.8106478001034326
432,,0.0,0.0,1.3764441706454442,1.3680816652846295,0.9073158089216771,2.3215980659388293,2.376515928850581,,,0.468121228110369,inf,,,0.831940387588062
433,,0.0,0.0,1.5398098225849433,1.5293707947982251,0.7602899674674153,2.5980721476096,2.0484001668888467,,,0.45235697871908603,inf,,,0.8152476660643735
434,,0.0,0.0,1.540559538297369,1.5234503939859616,0.9671878439562078,3.2242955325444145,3.0431872028913265,,,0.49759852643134905,inf,,,0.8902504200392171
435,,0.0,0.0,1.6495490850598087,1.6483951444777334,0.535538101120227,3.621945020442082,7.147379576524644,,,0.49759852643134905,inf,,,0.6421447863983016
436,,0.0,0.0,1.6892222696847976,1.6232977303407536,0.870200086469735,2.9829116909436215,13.499562542368476,,,0.3480560589391537,inf,,,0.6898641809496735
437,,0.0,0.0,1.6188258558100863,1.570595936185938,0.970920192825979,3.171900018858979,17.309336647730447,,,0.4066654671944331,inf,,,0.8739454550857848
438,,0.0,0.0,1.720602397627999,1.7017971614807454,0.9643916532015461,3.8176332314810018,18.399999708380108,,,0.468121228110369,inf,,,0.8089206546634061
439,,0.0,0.0,1.7051244344183853,1.7014180786986501,0.9567307376500934,2.858428605567229,2.2337385204131257,,,0.3751344627501719,inf,,,0.8492735080531074
440,,0.0,0.0,1.4640519356069077,1.4014700541352951,0.9496935282408168,2.4089591123566323,2.3131125272905124,,,0.4066654671944331,inf,,,0.850232867000852
441,4.31748811353631,-4.31748811353631,0.0,1.227616177083205,1.1906620238326746,0.8342554174854334,2.397789158061996,2.6580599149629873,,,0.5022576003740722,4.31748811353631,inf,,0.8783204282510961
442,3.624340932976365,-3.624340932976365,0.0,1.5069248578975525,1.513444400845891,0.944910796697989,3.3370142651302412,5.45488805352531,,,0.5022576003740722,3.624340932976365,inf,,0.8400564731612737
443,3.5065578973199822,-3.5065578973199822,0.0,1.7611357251044562,1.7451170191545677,0.8706333139634893,2.8349135606740017,2.3160270487413124,,,0.468121228110369,3.506557897319982,inf,,0.8553485124210447
444,4.31748811353631,-4.31748811353631,0.0,1.447117834725355,1.4195764734937149,0.9285919511088662,2.8968535850834876,3.227167678934559,,,0.3943459996787778,4.31748811353631,inf,,0.8383037934937141
445,4.605170185988091,-4.605170185988091,0.0,1.5550643997361044,1.517452116725881,0.9460472576991148,3.102809759370882,5.271104321885812,,,0.41268473150466,4.605170185988091,inf,,0.8456561946413133
446,4.605170185988091,-4.605170185988091,0.0,1.271132581548013,1.2645806942098823,0.9248306927172277,2.4685630569080477,2.4949404704980562,,,0.4732203808476458,4.605170185988091,inf,,0.8581531693707221
447,4.31748811353631,-4.31748811353631,0.0,1.508694858871454,1.495707890254028,0.9184902188517355,2.8563390680438654,3.294741499030807,,,0.41268473150466,4.31748811353631,inf,,0.8614930191749288
448,4.31748811353631,-4.31748811353631,0.0,1.5723514648496248,1.5596630348764677,0.9219503669790746,3.0458543175151833,4.189824566230351,,,0.4880666971167561,4.31748811353631,inf,,0.8612515218713804
449,3.7307209424339014,-3.7307209424339014,0.0,1.2325803154073818,1.2245936209911397,0.9348882478274488,2.626858973463971,3.053253682328309,,,0.4880666971167561,3.7292385928055163,inf,,0.8634722722250059
450,5.010635294096255,-5.010635294096255,0.0,1.1238039452102107,1.1119824111241072,0.9158526935901398,2.8722765464013267,2.655846617771461,,,0.41268473150466,5.0106352940962555,inf,,0.8567799244292839
451,3.305887201857831,-3.305887201857831,0.0,1.5075391257822666,1.4293321558059628,0.8781445323131495,3.2537487286610975,3.3787040462371496,,,0.48319206230712763,3.3058872018578307,inf,,0.7787592920100748
452,3.757872325600888,-3.757872325600888,0.0,1.7359441608675725,1.6601778653669748,0.8405832464091217,3.1918137340064376,3.8791398013294325,,,0.468121228110369,3.757872325600888,inf,,0.8645216090745286
453,,0.0,0.0,1.4934622510859472,1.4943740763714983,0.7469567067150786,3.0680657589820197,2.3618130568019953,,,0.4576907132971797,inf,,,0.830785824008668
454,5.703782474656201,-2.4716390723510204,0.0,1.7071422694957248,1.6784000700455624,0.869509545460209,2.7735572939747093,3.1809402532438305,,,0.44694259446804574,6.54003049885682,inf,,0.809788806477913
455,4.604211245746585,-4.604211245746585,0.0,1.6930118365058457,1.5834361836821471,0.8569576958683716,3.3564141756598156,4.023505170791076,,,0.4732203808476458,4.604059691704064,inf,,0.9010305139662509
456,,0.0,0.0,1.5426854237615193,1.532854198239251,0.7782938466773138,2.392907462466029,2.524017539114846,,,0.4880666971167561,inf,,,0.8944427787072358
457,,0.0,0.0,1.751757176895015,1.7300968563876582,0.9493428432856381,2.6735941791675017,3.0731086192061317,,,0.49759852643134905,inf,,,0.850104561056389
458,,0.0,0.0,1.3627177922126186,1.3542965886740432,0.9152917260737338,1.9669598956821612,2.1665600544573493,,,0.35499006010413947,inf,,,0.8393889832047642
459,,0.0,0.0,1.3256002782256024,1.2991973173033784,0.9538430097310687,2.1653205425906172,2.394138470530355,,,0.468121228110369,inf,,,0.8160905901746126
460,,0.0,0.0,1.4602497900866604,1.4546977031875687,0.9482082685690205,2.1323960638739248,2.1012353231112764,,,0.42445136339222655,inf,,,0.8141947637580977
461,,0.0,0.0,1.6670513742020139,1.6146483186151817,0.9293719966695123,1.759985741328953,1.8733041126306245,,,0.44144624493110796,inf,,,0.8083189231892708
462,,0.0,0.0,1.6202956275123666,1.591544214262097,0.9406516999163023,2.1619751231391864,2.5051779194543293,,,0.42445136339222655,inf,,,0.8432712680973365
463,,0.0,0.0,1.6247963843320237,1.5822775083926168,0.8678750989571353,2.142413777232936,2.064509523922544,,,0.43586655696697996,inf,,,0.8651115905754406
464,,0.0,0.0,1.7556347834830588,1.7417498925106467,0.9046532813166392,1.9214914149865117,2.0671975178924624,,,0.44144624493110796,inf,,,0.8175070201140021
465,,0.0,0.0,1.648683777518698,1.6301830818308831,0.9434034277969234,1.8551118753028477,2.0784787295488933,,,0.4576907132971797,inf,,,0.8407877083312736
466,,0.0,0.0,1.619177522173763,1.5975005035608851,0.9032576567418557,1.8936491022623279,1.8263800260569067,,,0.4732203808476458,inf,,,0.8348714077788493
467,,0.0,0.0,1.646277976001259,1.600955858933605,0.7762169933756328,2.134948035489465,2.5667172651334305,,,0.43586655696697996,inf,,,0.7565065737949219
468,,0.0,0.0,1.757945692346659,1.7296948492599253,0.6126870136025443,1.3899628753525133,1.7894046722817445,,,0.5677978065141052,inf,,,0.6826677162873197
469,,0.0,0.0,1.7664309851773035,1.7281389991721954,0.9254374467216354,1.7773887394147156,2.062391951673238,,,0.43586655696697996,inf,,,0.8110862119565485
470,,0.0,0.0,1.6740901322513828,1.6668251140915125,0.8294817781521391,2.100703403647164,2.3808866247608775,,,0.4576907132971797,inf,,,0.650124133039177
471,,0.0,0.0,1.4616631315391597,1.3983773389041458,0.9213316601103106,2.0497297452772485,1.8892207043043845,,,0.468121228110369,inf,,,0.8486961979054581
472,,0.0,0.0,1.6312336601378958,1.5719096349406163,0.9426879377981279,2.0482405420243586,2.158971332615559,,,0.4928685327679205,inf,,,0.8369952836056539
473,,0.0,0.0,1.5170741605348912,1.5037311338479922,0.9295732736215896,2.13947398900105,2.0181344623346638,,,0.4928685327679205,inf,,,0.8336857971961128
474,,0.0,0.0,1.5785295305485871,1.5690106586603692,0.9246546315379554,2.0743470381438343,2.0476830432100566,,,0.41268473150466,inf,,,0.857173719135871
475,,0.0,0.0,1.439204343230056,1.4281499390344925,0.5042490290845056,2.56386365236583,6.307422658101396,,,0.4629450596409901,inf,,,0.6621449184617026
476,5.7037824746562,-5.2855050931814125,0.0,1.2375732595048659,1.173268968409957,0.7035625130622248,2.311613673323739,3.1344194212247687,,,0.4880666971167561,5.779943835621765,inf,,0.930095592324081
477,,0.0,0.0,1.3997103195144533,1.390292814647812,0.9175530336222791,2.2550102097608566,2.804629762379002,,,0.44144624493110796,inf,,,0.8946841733839577
478,,0.0,0.0,1.5842961404173213,1.5444081044376128,0.7530704624270532,2.3573632121913226,1.5630688102757837,,,0.4629450596409901,inf,,,0.9049853047431713
479,,0.0,0.0,1.5701538565670292,1.5331734361477893,0.9042869182725469,2.2863317723383325,2.9951201591279237,,,0.4576907132971797,inf,,,0.8708949373047749
480,,0.0,0.0,1.5441863040220634,1.5315170105734994,0.39420446812013377,2.3439727103804535,2.6357929212543216,,,0.4629450596409901,inf,,,0.9255687828990369
481,,0.0,0.0,1.345440705450446,1.3140169702683042,0.7472639537737081,2.820635147815203,3.282922654611086,,,0.4732203808476458,inf,,,0.7068505575824238
482,3.757872325600888,-3.757872325600888,0.0,1.5318518996578665,1.4333611236025539,0.6652321406416087,2.9971517196662205,2.402366174046534,,,0.4302020962658841,3.757872325600888,inf,,0.7796774726327079
483,4.015338554278053,-4.015338554278053,0.0,1.7259029604740834,1.626328681029789,0.6618341302480664,2.132175802005981,2.4687082061688828,,,0.4928685327679205,4.011229655511594,inf,,0.7886172332509952
484,,0.0,0.0,1.648443037344438,1.6060052631111659,0.8645138693941055,1.9674440696611184,3.3164611973783904,,,0.5370774965580548,inf,,,0.7384984011948019
485,,0.0,0.0,1.199581528946683,1.1491948390173135,0.40786360438650315,1.95035740557022,2.5778380707820903,,,0.5068466436745385,inf,,,0.5723008295413939
486,,0.0,0.0,1.5672011592994104,1.5556372684415205,0.8129978848318875,2.55734957041599,2.538942071553786,,,0.4576907132971797,inf,,,0.7694734373081583
487,,0.0,0.0,1.7598365003105498,1.6665689428290915,0.8345868863103062,2.17256840459652,2.3379556270245563,,,0.4928685327679205,inf,,,0.7547940533020758
488,5.010635294096255,-5.010635294096255,0.0,1.7703978196679349,1.744512070758642,0.8876693244326302,3.050858454615688,4.744438731646415,,,0.468121228110369,5.0106352940962555,inf,,0.8355230444382521
489,5.685298549841268,-5.685298549841268,0.0,1.772176703556061,1.7477945365893999,0.9427467847454692,3.320526221896659,3.3825177416771286,,,0.48319206230712763,5.677465166338828,inf,,0.8097693885371207
490,5.010635294096255,-5.010635294096255,0.0,1.5708942145984448,1.5285405335283406,0.7163542147984977,2.3837422198782687,2.1351940536701095,,,0.3751344627501719,5.0106352940962555,inf,,0.6584108559323334
491,,0.0,0.0,1.3729130124601774,1.3528152410884986,0.9148852431863126,2.36874579135887,3.010812652422566,,,0.5022576003740722,inf,,,0.7629937413691962
492,,0.0,0.0,1.5406864399703568,1.5135979393951837,0.903542293713836,2.272960753241638,2.837687245251731,,,0.4066654671944331,inf,,,0.7595632653722482
493,,0.0,0.0,1.2929287284537683,1.2895719658965847,0.7697299043210093,2.3663446893092437,2.7445393713538992,,,0.468121228110369,inf,,,0.8261833880159228
494,3.9217468217904896,-3.9217468217904896,0.0,1.609910203446193,1.5473565849385296,0.7431871166971051,2.4647999122114945,2.1916024127265534,,,0.5202020156036558,3.9209516361724472,inf,,0.5673225055528494
495,5.024498237707453,-5.024498237707453,0.0,1.7045729730302823,1.547289587807492,0.5150218409818257,1.936150133939517,1.8240536571691313,,,0.41861278947482794,5.0206856299497575,inf,,0.6373217938085846
496,2.69355089359699,1.9557428619743695,-4.649293755571359,1.5862507877212055,1.493809501472296,0.856063317769382,2.5320088212748777,0.971509232708327,1.950957359057902,,0.5113665138247345,2.6929973984759172,1.9553122801727914,inf,0.7468476263680321
497,3.3856735122638444,2.312451843131659,-5.698125355395503,0.4776043535966804,0.4704596994499845,0.8154574353289781,3.3070503740395836,3.291387814572017,2.319375563023697,,0.22807408875533447,3.3810680103669895,2.3227144642892115,inf,0.8202060001214418
498,2.4449311933674833,3.2555123800232035,-5.700443573390687,1.2127394963913196,1.2013512017425503,0.9276105663819294,4.485543969578254,1.6733380765061652,3.255782752171213,,0.5329562494928909,2.4446608212194736,3.262460554702242,inf,0.6484437258906233
499,2.7362615130153625,2.271034879815379,-5.0072963928307415,1.6787490126460396,1.6233330248144475,0.8268184652593383,3.2491171350353523,1.7953373613541719,2.964508168798941,,0.6357360191111145,2.7359354045917454,2.2780387907700246,inf,0.6237010139903574
500,2.9307895882709762,2.0683703809856877,-4.999159969256664,1.4968311270586252,1.483734411835965,0.8260184933650001,3.346787211404566,1.9078882847743182,2.769666400859483,,0.5978297680564633,2.9307771725312035,2.0732135788463837,inf,0.535331800692037
501,3.051978802631633,-1.183605992623983,-1.8683728100076498,1.6262612980045998,1.5935188896295003,0.8065578508994651,3.801887344217682,3.2287380049645398,6.405609508339437,,0.5068466436745385,3.0493674893866225,3.7732299812552075,inf,0.6378236261607829
502,3.0053912755621637,-3.0053912755621637,0.0,1.5905038256230473,1.5978864883628054,0.7265023533434304,3.8182207270792534,9.716037493551298,,,0.5287703885177266,3.005109435366588,inf,,0.674775708350971
503,3.441936781049847,-3.441936781049847,0.0,1.6104140315590574,1.5852838923120944,0.8550325674764342,3.076026619170072,2.9440607866060033,,,0.5370774965580548,3.4406314509075626,inf,,0.8730844110936138
504,5.2763417133109005,-5.2763417133109005,0.0,1.6131075116734703,1.5859010700638807,0.4814358207201252,2.8542675834738267,3.208613393907562,,,0.5915533975974677,5.2234160583749185,inf,,0.7379652751360981
505,2.684538543511855,-2.684538543511855,0.0,1.5787499432883205,1.566467329526068,0.8598824509041394,3.8853021217982597,6.96695446819804,,,0.6068309995095971,2.6831950001040337,inf,,0.8481122262814942
506,2.9311937524164198,-2.9311937524164198,0.0,1.6721478388937805,1.6449627232529842,0.8894285710062002,4.166254516226086,10.86947808872063,,,0.5370774965580548,2.9311937524164198,inf,,0.6569546152892897
507,2.305480129980581,2.5187467324334314,-2.224211043069265,1.4774592919559073,1.4412314885458022,0.8407399663106769,4.444863873077998,6.409749507674133,3.395522420599093,,0.5713653840954815,2.3049211527915934,2.505498094634157,1.6844908161505996,0.5010218088970619
508,3.2388884415758152,2.3090349024264922,-5.5479233440023075,1.5788305997013274,1.5756862611864388,0.8594049517018083,4.051662082525504,20.869013796226227,2.5207515224592436,,0.585052858160615,3.238228553384016,2.4960131287568936,inf,0.5790063569221039
509,2.8788544955815647,2.821589077809122,-5.700443573390687,1.416441827588238,1.4093329884444448,0.7790875365385814,3.6276976188974412,3.0391153493231684,2.8218027383702204,,0.5783247308855777,2.878640835020466,2.82848054090125,inf,0.5827252871948725
510,3.3825092120031663,2.3179343613875205,-5.700443573390687,1.535406024653914,1.5011027360076736,0.6092710854382479,3.5478588607317576,6.491749960587597,2.319375563023697,,0.541134803179459,3.3810680103669895,2.326053365554726,inf,0.5137431118891028
511,3.129446107388526,2.570997466002161,-5.700443573390687,1.5585299571830518,1.5382707890215606,0.8704930035184608,4.111487111718401,3.8600953735345014,,,0.6528756675646988,3.1291366901133313,2.5779846858083846,inf,0.8131311817812392
512,3.624340932976365,-3.624340932976365,0.0,1.4037106749192532,1.4027489616850792,0.6775976661345487,2.840938213092949,1.9832581020745539,,,0.5567373465730988,3.624340932976365,inf,,0.6873599729799692
513,2.9316240092240036,2.7688195641666833,-5.700443573390687,1.541502142611964,1.4940761625623822,0.6508564583298667,3.1096770860283063,1.5560564226993998,2.827369569930497,,0.5783247308855777,2.9316105059127624,2.7755108700089535,inf,0.7934735984168606
514,2.870569130599985,2.8298744427907017,-5.700443573390687,1.3694056721736472,1.2929823081590073,0.7471979295489718,3.1794596204069547,2.26098648713405,2.829874442790701,,0.5978297680564633,2.870569130599985,2.8365522453217307,inf,0.5536586286582648
515,2.922706305362119,-2.922706305362119,0.0,1.342606870285663,1.2743113600296037,0.7820795816325945,3.8116901150665106,18.64338856798608,,,0.5604843169999094,2.9224818118143983,inf,,0.5425453661683592
516,3.2188758248681997,1.7884205679625418,-5.0072963928307415,1.4873247752312224,1.4621990347915659,0.6248211610822295,3.477564982564237,2.9497547738343854,1.7884205679625405,,0.552929491858785,3.2188758248682006,1.7950983704935697,inf,0.7682117752675448
517,3.757872325600888,-3.757872325600888,0.0,1.6592938371274304,1.641230040347147,0.7869172334261509,3.339738838306928,2.635542139724309,,,0.5783247308855777,3.757872325600888,inf,,0.6272520176387038
518,3.5685902960990097,1.9834873255999161,-5.552077621698926,1.6050875119503965,1.5071721569188843,0.6778528925833034,1.9526558778585463,1.2175208205572348,1.9534956628176696,,0.5978297680564633,3.5668584975630027,1.9463036174845487,inf,0.560987976081132
519,,0.0,0.0,1.7602473589498098,1.7462893253639151,0.5316335817375641,0.9148671425845278,1.0549881255863558,,,0.5451288209179292,inf,,,0.8951367959445358
520,5.010635294096255,-5.010635294096255,0.0,1.1996173998614221,1.1328698417520675,0.3245542750055373,1.392834866200891,1.214242230243585,,,0.524519217297268,5.0106352940962555,inf,,0.5065146913888956
521,,0.0,0.0,0.852172127098449,0.7843065161358892,0.334375153930007,1.0056911165074827,1.1256543973489115,,,0.4732203808476458,inf,,,0.7180923758567253
522,2.583253685459232,-2.583253685459232,0.0,1.7064773372902617,1.5999406260070854,0.8195599799633174,2.4195175748891344,1.1551739578410154,,,0.6008849035917525,2.5830341277859423,inf,,0.6792794293710379
523,2.38905731174655,3.3113862616441367,-5.700443573390687,1.5421877702882605,1.5289713867534753,0.8052028284575653,4.1279720177839705,2.7395102708314916,,,0.5915533975974677,2.388869461591058,3.3182519143306575,inf,0.6966727233757698
524,2.7771856785089515,2.9232578948817354,-5.700443573390687,1.6624388067802647,1.6649158888134399,0.8030224006578285,4.431701706939388,4.534450394830627,2.9235790562881165,,0.5947193981915972,2.77686451710257,2.930256858819146,inf,0.7743424070342031
525,2.5042290605275883,3.09884935706538,-5.603078417592968,1.6851036518964613,1.655674881786369,0.8510888113817459,4.945685545990719,4.460030371538186,3.196422059743004,,0.5451288209179292,2.5040215136476824,3.071660958381203,inf,0.7773123722784839
526,2.9266246869657317,-2.9266246869657317,0.0,1.6805601788193698,1.6466380785044508,0.8175541818816824,4.314235607058096,12.061350842076042,,,0.5329562494928909,2.925584513651909,inf,,0.6085937599129108
527,2.9311937524164198,-2.9311937524164198,0.0,1.628292992711453,1.6185797725832414,0.8477733851394295,4.03926378740289,6.84879097354651,,,0.5604843169999094,2.9311937524164198,inf,,0.69956462868256
528,3.546211519324297,-3.546211519324297,0.0,1.723960299129492,1.5779755660565764,0.7332129583410497,3.415836087667433,2.8756558309292974,,,0.5158180382284114,3.544682914670912,inf,,0.8113460304614903
529,4.124097035730661,-4.124097035730661,0.0,1.7260669316166362,1.6872270408867551,0.7762333476551837,3.072611306248202,6.228952106405686,,,0.48319206230712763,4.1213732346100205,inf,,0.793022879515871
530,5.327172506551963,-5.327172506551963,0.0,1.7262958015959489,1.6656176335275776,0.7775439416434933,3.5155053592935763,8.560812747518568,,,0.5068466436745385,5.269837895226168,inf,,0.897686736367816
531,3.0028956376120877,-3.0028956376120877,0.0,1.5867207577134885,1.5305878439466725,0.8470398543724401,3.831737549184768,18.325268328557186,,,0.541134803179459,3.0026450003789504,inf,,0.6082691164450005
532,2.5522748468282903,3.1481687265623965,-5.700443573390687,1.613579819811404,1.5851806055501665,0.9079522619477362,4.983608068261019,15.78207966021689,3.148399472615195,,0.581717464821069,2.5520441007754915,3.155077275146224,inf,0.6976464432382922
533,2.665978088640296,3.034465484750391,-5.700443573390687,1.5381811164208945,1.504894704097488,0.8410049006907114,4.680398924443928,26.058706808646814,3.0346543310029856,,0.6038851895711802,2.6657892423877008,3.041332133534015,inf,0.8052837547559759
534,2.813410716760036,2.1938856760707055,-5.0072963928307415,1.6958155738211,1.6881626554901386,0.8123515886598915,4.307394836666849,10.166498612236825,2.1938856760707046,,0.5641709578113449,2.8134107167600364,2.200563478601734,inf,0.7077845678677392
535,2.870569130599985,2.1367272622307563,-5.0072963928307415,1.6482779822365006,1.6689874866129228,0.8640208139363295,5.297608181661636,43.959096889068384,2.136727262230756,,0.6357360191111145,2.870569130599985,2.1434050647617853,inf,0.7398425628722989
536,2.666741195438757,3.0337023779519297,-5.700443573390687,1.4123492894911411,1.405514698722644,0.8387521231566055,5.697728399204995,10.071259617628371,3.124826940301798,,0.524519217297268,2.6665884112946157,3.0405329646271,inf,0.7699631060646706
537,2.654452968650506,2.3528434241802354,-5.0072963928307415,1.656471699849347,1.6276324700738274,0.7892106941494744,4.456149528844348,7.7545085253850345,3.046092104622411,,0.5915533975974677,2.6543514687682754,2.3596227265934946,inf,0.6072200833569769
538,2.659260036932778,-2.659260036932778,0.0,1.6611711289415632,1.6657608393595587,0.8434390330676693,4.895651010325999,39.61751068378233,,,0.5451288209179292,2.659260036932778,inf,,0.7131666437606148
539,2.092864562011976,2.5089667227106016,-4.601831284722578,1.7262039466095256,1.7015595695144372,0.9240749830643875,5.76557757909891,9.08185792896116,2.8403238586650428,,0.5947193981915972,2.0928645620119766,2.5156445252416293,inf,0.5588019019681391
540,2.4662262470366407,2.9096668070283185,-5.375893054064959,1.6887643609513832,1.6691270847900552,0.8765495159102339,4.007827947370801,1.772907419820986,,,0.6008849035917525,2.466019474069518,2.8570460621677127,inf,0.7295636850379502
541,2.3633304787221054,-2.3633304787221054,0.0,1.6875981644031093,1.6596995293978964,0.859839739513279,4.575437513859281,95.53487236291218,,,0.5604843169999094,2.3630430620311595,inf,,0.5479320827189508
542,2.7966498781662508,-2.7966498781662508,0.0,1.4692557102196055,1.4438745682382286,0.8360752055142076,4.282098403933744,4.53704689136198,,,0.5978297680564633,2.796335115969782,inf,,0.6141393345198398
543,2.6127400212978853,2.394556371532856,-5.0072963928307415,1.764850497127121,1.7708980290668976,0.8851660737495693,4.367635856365184,17.584816885837768,2.3945563715328557,,0.6207552362147116,2.6127400212978853,2.401234174063885,inf,0.6702101883603543
544,2.5068144535138708,3.193629119876816,-5.700443573390687,1.6541979163377971,1.600486571602105,0.8075848530464499,4.336634823007456,58.733162373280585,3.193836496623347,,0.6097226960127671,2.5066070767673394,3.2005142991543765,inf,0.5988169202324513
545,2.349587404065934,2.6577089887648073,-5.0072963928307415,1.5962411986272849,1.5619188344092316,0.7993118084085593,5.25315866529511,8.275911625820832,2.6578526025170106,,0.5287703885177266,2.3494437903137304,2.66453040504804,inf,0.6894955466868357
546,2.4921185354865787,-2.4921185354865787,0.0,1.2562108565147787,1.2469943616507075,0.9075525865241902,4.477353449484337,11.09487326676364,,,0.6038851895711802,2.4919984036017566,inf,,0.7249659948907978
547,2.7784472470052575,2.228849145825484,-5.0072963928307415,1.5526224168636855,1.4995669491384345,0.8151880611011134,5.1027217316523,5.787877916177716,2.643886306329754,,0.5451288209179292,2.778115075550497,2.2358591198112734,inf,0.8162997522060819
548,2.703734180233505,0.6326458376372979,-3.3363800178708027,1.6322151675616143,1.6421836927134317,0.8418678349129405,4.923434100902682,13.482337231290273,4.302877696279576,,0.5915533975974677,2.7035602958293583,3.53921867955953,inf,0.7772603524745337
549,2.849039688172085,-2.849039688172085,0.0,1.4669719053590813,1.4025401879589134,0.7697556707134039,3.416128355572132,1.600811645613235,,,0.5287703885177266,2.848270581877529,inf,,0.6921571021886953
550,3.1959302486684527,-3.1959302486684527,0.0,1.628949457653325,1.5807946940067032,0.8369487548708455,3.469951845206633,3.590695630120178,,,0.541134803179459,3.1952678110826334,inf,,0.6491997422685571
551,3.983736151100434,-3.983736151100434,0.0,1.637412896112075,1.6138689278133838,0.8147318990075287,4.088391276408287,8.77109630054543,,,0.5329562494928909,3.9798261087795086,inf,,0.8917254986064406
552,3.401197381662155,-3.401197381662155,0.0,1.4212220196926113,1.396796295934799,0.8071511982138061,3.483473012958057,18.482099337192437,,,0.5567373465730988,3.4011973816621555,inf,,0.5198285536836608
553,3.5177595620100868,-3.5177595620100868,0.0,0.8530499356260766,0.8269162246859656,0.7806622952613699,3.3501401047369805,7.44849995127205,,,0.45235697871908603,3.5162341916505135,inf,,0.8491618202640966
554,3.253680375664053,-3.253680375664053,0.0,1.7722171463590934,1.740491059615179,0.698131044621322,3.0392903521088575,3.4126788114728845,,,0.5490601803369085,3.252777376543882,inf,,0.6613800597316405
555,4.31748811353631,-4.31748811353631,0.0,1.6117342611193974,1.5691612840059324,0.5159969474005708,2.070501319830589,2.3474782195608426,,,0.4629450596409901,4.31748811353631,inf,,0.7689643442886867
556,4.0943445622220995,-4.0943445622220995,0.0,1.6565229729451052,1.6183592546063603,0.7125270609498664,3.19334676441103,2.8140492905281067,,,0.49759852643134905,4.0943445622221,inf,,0.9496350382993681
557,3.8935249238488745,-3.8935249238488745,0.0,1.5969709945414676,1.4721111886735012,0.7925178196486425,3.4010469805446943,4.266688160432099,,,0.5202020156036558,3.892220378131966,inf,,0.5928322403482044
558,3.0644951688026527,-3.0454301401291053,-0.019065028673547448,1.7352821158628402,1.7224313733070402,0.8113950856217332,3.6656015851428014,10.681558896385923,,,0.524519217297268,3.0644870781430202,8.343077871169383,inf,0.8133039197253489
559,3.029308804344307,-3.029308804344307,0.0,1.2938242148386296,1.2725282833786018,0.8283008491223356,3.1650893380531233,2.661490399798318,,,0.4928685327679205,3.0287147075179095,inf,,0.9058748654465725
560,3.305887201857831,-3.305887201857831,0.0,1.4056557661028444,1.376621539391268,0.8185259796805905,3.7451265839098276,3.8852757969688403,,,0.1687963801566332,3.3058872018578307,inf,,0.8279543775867019
561,4.0943445622220995,-4.0943445622220995,0.0,1.2882779018864217,1.2791891714791732,0.7088657114124853,3.3438286552879277,4.869853623300379,,,0.4302020962658841,4.0943445622221,inf,,0.7265137957575606
562,4.67815390544756,-4.67815390544756,0.0,1.2934071891751935,1.2858868020817782,0.7740444974089643,3.347465276839421,5.1779907479156755,,,0.11132690331650678,4.667045589706179,inf,,0.8527631214370185
563,3.1388331171946646,-3.1388331171946646,0.0,1.2934071891751935,1.2744959464977572,0.8032512575488556,3.8593625680212313,1.8660380183651228,,,0.18952474069199465,3.138833117194664,inf,,0.47539434507773565
564,2.813410716760036,-2.813410716760036,0.0,1.5830667392760547,1.5622856601615591,0.7865497374269429,4.559083984750944,1.2306973013773126,,,0.5783247308855777,2.8134107167600364,inf,,0.6759680156236572
565,3.6215926621443826,-3.6215926621443826,0.0,1.6626529044031875,1.66224970617822,0.8355084802222714,3.168189512012231,2.7712317607831793,,,0.31914402280573173,3.6214285115293303,inf,,0.7443814071378508
566,5.010635294096255,-5.010635294096255,0.0,1.6626529044031875,1.603768568851991,0.5717761832533135,1.2894423483376454,0.6646190094472186,,,0.23718601089358102,5.0106352940962555,inf,,0.7197954316135571
567,3.5065578973199822,-3.5065578973199822,0.0,1.6626529044031875,1.6764663193713851,0.7627191829090371,3.4568001815903195,2.505277304369979,,,0.28007874463063287,3.506557897319982,inf,,0.6430600033529633
568,5.010635294096255,-5.010635294096255,0.0,1.744607334236141,1.7269707286266482,0.6242040707520812,2.4678528607679238,1.7648813214627515,,,0.5748741956352443,5.0106352940962555,inf,,0.6679654677103467
569,3.624340932976365,-3.624340932976365,0.0,1.5273364386465857,1.492508306025969,0.7844305333375144,3.087908914486375,2.666201185219349,,,0.6125606311107803,3.624340932976365,inf,,0.8176286283434778
570,4.135254213296372,-4.135254213296372,0.0,1.7386245572833778,1.7241833326908562,0.6129408820713194,2.434104405455225,1.6077808548035577,,,0.5287703885177266,4.13170034876587,inf,,0.6788299478133957
571,3.3063583077010947,-3.3063583077010947,0.0,1.6018202771252907,1.5734284963646037,0.7555223926718485,3.767658595316037,4.587457163776563,,,0.5915533975974677,3.305281324832329,inf,,0.6438882470668392
572,3.201800047231179,-3.201800047231179,0.0,1.6871192580311034,1.6350657243395548,0.8390360644702576,3.792514823778746,5.319013086804846,,,0.6008849035917525,3.201254223518381,inf,,0.5365638564498083
573,,0.0,0.0,1.647772756553017,1.580993632746556,0.6817134696901818,2.561054571672152,1.9079830646250593,,,0.4880666971167561,inf,,,0.8112932364017982
574,5.7037824746562,-5.7037824746562,0.0,1.6695365080579145,1.6647701860863928,0.6931820904835204,2.626462212782377,2.718685960951326,,,0.5370774965580548,5.703782474656201,inf,,0.6540358631464271
575,3.851390404696091,-3.851390404696091,0.0,1.6522404676824212,1.5769721520284172,0.7251458147057185,2.9924234207722793,1.9531034163091312,,,0.5677978065141052,3.848526693869019,inf,,0.6626010893614397
576,3.2188758248681997,-3.2188758248681997,0.0,1.5510234198410182,1.5160959734327104,0.7260683727749718,4.601783855277611,7.010372392870645,,,0.5567373465730988,3.2188758248682006,inf,,0.8008041771567406
577,3.2188758248681997,-3.2188758248681997,0.0,1.4236368513223945,1.3771093868897553,0.7397566369793311,3.3094137130508945,3.852474092671937,,,0.5713653840954815,3.2188758248682006,inf,,0.6026754488636419
578,2.694551589015334,3.005891984375353,-5.700443573390687,1.5718591248124705,1.5173810376943946,0.8308059971521977,4.542377763797514,9.920406886544987,3.0061318983989898,,0.552929491858785,2.6943116749916967,3.0128097009300188,inf,0.6134666968573887
579,3.2188758248681997,-3.2188758248681997,0.0,1.6563524557504097,1.6606366270902693,0.7043723843502726,3.2932439810638656,4.3608059455987185,,,0.5329562494928909,3.2188758248682006,inf,,0.6617043879284839
580,3.6168813407181277,-3.6168813407181277,0.0,1.7314662379047512,1.7312438856930346,0.7241046293637596,3.215965053310425,2.07337722957599,,,0.5113665138247345,3.616455438702375,inf,,0.7023782094242788
581,3.222356279947785,2.478087293442902,-5.700443573390687,1.4057358989739386,1.3350191926684176,0.750521167024133,3.217169006006864,2.3985362555943954,,,0.5451288209179292,3.2222147261337155,2.4849066497880004,inf,0.7138461369806903
582,4.588868201882491,-4.588868201882491,0.0,1.436445158610941,1.420039020010125,0.674614610710072,3.245866491823429,9.405959248395062,,,0.5713653840954815,4.586457477055937,inf,,0.44836389366850055
583,2.870569130599985,0.9043065467624092,-3.7748756773623944,1.6350660775317252,1.635594803905781,0.7291051411896193,3.9797065562214917,1.9505298776928295,,,0.552929491858785,2.870569130599985,3.248728788017882,inf,0.6082202558030962
584,3.004931323085584,-3.004931323085584,0.0,1.6298497277828488,1.557351087145677,0.753329050762034,3.761456284761694,3.8385211485677706,,,0.5883313578629602,3.0046609042982926,inf,,0.39735369634818785
585,3.4134894418222346,-3.4134894418222346,0.0,1.5714393259817645,1.5346151022459353,0.6726959081847245,3.5348199367471858,2.39898394484096,,,0.5641709578113449,3.4129326378805764,inf,,0.562754724756036
586,3.758899996799737,-3.758899996799737,0.0,1.6545213413964777,1.6540004809441111,0.8854170551547598,3.8112911478933116,14.297186582620164,,,0.585052858160615,3.7588251603561598,inf,,0.6803821030426107
587,4.020808200981872,-4.020808200981872,0.0,1.2985054635511044,1.304381788512819,0.626931566811335,3.5078773622517376,1.8247996868399827,,,0.5883313578629602,4.0167664275767265,inf,,0.5732166333826029
588,3.0621954064197543,-2.852480091010732,-0.2097153154090219,1.594379962487527,1.5547692172278638,0.7469880278556268,4.975640369371325,2.820311653824689,,,0.6008849035917525,3.0621095211504743,5.947560155363557,inf,0.8014423630475386
589,3.5065578973199822,2.1938856760707046,-5.700443573390687,1.6305914983281162,1.599240541465259,0.7669732090355383,3.6910164398013032,5.367048399127133,2.1938856760707046,,0.6038851895711802,3.506557897319982,2.200563478601734,inf,0.6953878878308495
590,3.9120230054281455,-3.9120230054281455,0.0,1.5387551875469734,1.50550525510996,0.7931593113587277,3.4195693227823214,4.0277291172671426,,,0.5604843169999094,3.912023005428146,inf,,0.7766423355896508
591,5.010635294096255,-5.010635294096255,0.0,1.6581377964650605,1.6170541322573826,0.7018174074148001,3.0443453467955117,4.6821692858004464,,,0.524519217297268,5.0106352940962555,inf,,0.4744957895217116
592,4.316744301698596,-4.316744301698596,0.0,1.6784259830218227,1.6376485767046172,0.5419704808926842,2.54048122159324,1.7967848815589975,,,0.5677978065141052,4.316655127232418,inf,,0.8207399864699132
593,2.9167101201762895,1.7732869335163821,-4.689997053692672,1.5523066744883147,1.5635614360808758,0.7244250056101412,3.7852834029479636,2.0573494307852145,,,0.5677978065141052,2.9134356974947164,2.988797715885323,inf,0.6219663812237313
594,4.605170185988091,-4.605170185988091,0.0,1.6781489909682084,1.6181349890186536,0.6065317493774559,1.977371440827482,0.9577448979754666,,,0.5451288209179292,4.605170185988091,inf,,0.553758613146667
595,,0.0,0.0,1.5705041239498758,1.532518928085998,0.3686791100064844,1.0724870186187692,0.9960023842535011,,,0.581717464821069,inf,,,0.7140090162142935
596,,0.0,0.0,1.7118666965354312,1.7093343952955888,0.7697063602835619,1.0392857642197217,1.3514403961716228,,,0.5022576003740722,inf,,,0.8104774152198967
597,,0.0,0.0,1.6680991685736708,1.6359666656843923,0.9055888893204839,1.3447936327279553,1.559907420058518,,,0.524519217297268,inf,,,0.8460590088556534
598,,0.0,0.0,1.547627974606617,1.543324031077747,0.8977572974590456,1.3663877208429533,1.3806807662353604,,,0.5113665138247345,inf,,,0.8629768799853553
599,,0.0,0.0,1.5324530206724858,1.48070150502433,0.931666083026419,1.2810848939516564,1.4782115021660773,,,0.45235697871908603,inf,,,0.8164996211389908
600,,0.0,0.0,1.4495088707162782,1.4383225945521123,0.9132876116759642,1.1686646631270143,1.4038540001210043,,,0.5022576003740722,inf,,,0.8009741420872585
601,,0.0,0.0,1.3651927255141074,1.3365036311456469,0.9399817763759254,1.0447847199881262,1.2063895827184934,,,0.47824363442641393,inf,,,0.8294394659319047
602,,0.0,0.0,1.5147224790495697,1.492541634138453,0.9267995034115799,0.9514941915513127,1.210177987967905,,,0.552929491858785,inf,,,0.8555975479685468
603,,0.0,0.0,1.440618983617484,1.4220249183367022,0.9303985332211997,1.0901386385365408,1.2120262408356006,,,0.5158180382284114,inf,,,0.8518097930942661
604,,0.0,0.0,1.2425312636567631,1.2244843529362066,0.6395190488731265,0.8232474617408431,0.922259659364018,,,0.44694259446804574,inf,,,0.8947312743188478
605,,0.0,0.0,1.4238174118035212,1.4017510115856249,0.46176775378215634,1.1880628924436638,0.9767084410878177,,,0.44694259446804574,inf,,,0.6792031861954103
606,3.5065578973199822,-3.5065578973199822,0.0,1.6739297256987942,1.5733279382040732,0.7301547344437521,2.314828591119311,1.4614550702772284,,,0.5947193981915972,3.506557897319982,inf,,0.5897409414170032
607,2.9311937524164198,2.769249820974267,-5.700443573390687,1.5686693828982081,1.5406851034025275,0.829896525548097,3.736385577868839,8.138200009520322,2.7692498209742666,,0.6038851895711802,2.9311937524164198,2.7759276235052956,inf,0.8061946590306663
608,3.5065578973199822,-3.5065578973199822,0.0,1.7010405984915975,1.6264447951617096,0.7917329287047827,3.514502841718639,3.1810511022790355,,,0.5202020156036558,3.506557897319982,inf,,0.6426619701335244
609,3.2261287127399005,-3.2261287127399005,0.0,1.4720310481996088,1.421125375613269,0.7738588350377302,3.5492237547241237,2.4489050533548675,,,0.5370774965580548,3.2241675793139692,inf,,0.4820115998635151
610,2.98777252261369,2.7126710507769967,-5.700443573390687,1.6980138590036513,1.6820739518942904,0.8972927514479246,3.7424099168918055,3.0098674671417096,2.7128999037422483,,0.585052858160615,2.987543669648438,2.7195777062732778,inf,0.4452024888722841
611,2.327343163252385,2.1898191503138156,-4.5171623135662005,1.6676260594556729,1.6618233804828173,0.9011499313848292,4.988778060044525,10.567631546172482,2.6801908946400017,,0.5567373465730988,2.3271054981907393,2.187817809949574,inf,0.3589900086019295
612,2.523143251321973,-2.523143251321973,0.0,1.607201805497206,1.6079718818757596,0.8868811330625456,5.476261922134237,19.358562321170368,,,0.6180765742263259,2.5230932311732412,inf,,0.3293122474731962
613,3.7440740816963536,-3.7440740816963536,0.0,1.7292614307041503,1.7360958733648233,0.7788480950990412,3.332710272814023,3.130408327901567,,,0.5068466436745385,3.743218317213785,inf,,0.41348786650963687
614,3.745389849369726,-3.745389849369726,0.0,1.6312166056104271,1.595359287045396,0.652884831399505,3.0986783089004066,7.1599052829952985,,,0.541134803179459,3.7404066939932545,inf,,0.5767288912261799
615,3.185791505696472,2.514652067694215,-5.700443573390687,1.7425779726205635,1.7359887569113224,0.7386051427187509,3.188943582367013,3.961445734916408,,,0.4880666971167561,3.1850113109154443,2.522110065006271,inf,0.5669331259537569
616,2.568004527964259,3.1324390454264277,-5.700443573390687,1.593168527487031,1.5655573838295491,0.8887438526623644,4.4982047521810316,24.69175579359364,3.1324451277362333,,0.5915533975974677,2.5679984456544536,3.1391229302672623,inf,0.30954735093087643
617,3.0802878191932237,-3.0802878191932237,0.0,1.6675012973685022,1.6501471449248815,0.8332453386133415,3.4446635891655255,2.475573618140304,,,0.5783247308855777,3.0798387828509903,inf,,0.6197855734831972
618,3.4576587857077827,-3.4576587857077827,0.0,1.3539080896865967,1.3159566701304621,0.7387102073674758,3.836908565446513,3.351583824422982,,,0.48319206230712763,3.4553016406553563,inf,,0.5258273161760243
619,3.747634918833008,-3.747634918833008,0.0,1.6646745587278917,1.6392126934068223,0.840521487950129,3.40569559034751,7.735233409200388,,,0.5947193981915972,3.746979487609146,inf,,0.5105901472603611
620,3.713806966034796,-3.713806966034796,0.0,1.653176579054615,1.6480101242636298,0.8464199452374085,3.344877697403975,2.58536818748207,,,0.541134803179459,3.711806958757641,inf,,0.529780356462148
621,3.2354079864962295,-3.2354079864962295,0.0,1.6165415059804853,1.5454574523155695,0.711047263114017,3.0083865526004088,1.7510036954764168,,,0.5068466436745385,3.23483584444693,inf,,0.5070577487876098
622,3.3047342246499043,-3.3047342246499043,0.0,1.6831611232288979,1.6415090205837026,0.7308212149438587,2.9443307336541658,3.045211663381561,,,0.5451288209179292,3.3034658931688203,inf,,0.521833749036255
