,bvp+temp_XAp0,bvp+temp_XAp1,bvp+temp_XAp2,bvp+temp_XCond1,bvp+temp_XCond2,bvp+temp_XDist,bvp+temp_XFuzz1,bvp+temp_XFuzz2,bvp+temp_XK2_1,bvp+temp_XK2_2,bvp+temp_XPermEn,bvp+temp_XSamp0,bvp+temp_XSamp1,bvp+temp_XSamp2,bvp+temp_XSpec
0,,0.0,0.0,1.7523649884150772,1.6328099301997772,0.831644784119156,2.1008923399981483,1.0763848036264192,,,0.5287703885177266,inf,,,0.8815785796520884
1,,0.0,0.0,1.4697447783513191,1.4539490666465282,0.654649055882112,2.6117094889620387,1.5424496575940214,,,0.5329562494928909,inf,,,0.9496620569425755
2,,0.0,0.0,1.4384942113654131,1.430122884565184,0.6237941445168453,2.602789949552616,2.364263537851425,,,0.48319206230712763,inf,,,0.9075905224914879
3,,0.0,0.0,1.4913843797810542,1.4903608368057957,0.6864514821681846,2.5343488306433617,1.162504488257198,,,0.541134803179459,inf,,,0.8430121193153592
4,,0.0,0.0,1.6867758943039786,1.6687837214098327,0.44630240879283184,2.538098577987535,3.5249970791566634,,,0.5287703885177266,inf,,,0.9314022046365594
5,,0.0,0.0,1.7241469377854326,1.706452344061348,0.7026700127648755,2.5466150580408873,3.810688433081929,,,0.5641709578113449,inf,,,0.891504656314203
6,,0.0,0.0,1.7308882753340855,1.7327659778316316,0.6064400578389912,2.3238543373182527,2.857837184028675,,,0.5158180382284114,inf,,,0.904468519792974
7,,0.0,0.0,1.5557610463391607,1.540966571447713,0.41852551450698594,1.8868153893238224,1.410308334055824,,,0.541134803179459,inf,,,0.6544722717553361
8,,0.0,0.0,1.6025370578734501,1.5330446726199307,0.6329775125677448,2.1588199210935017,1.5593108076885054,,,0.5748741956352443,inf,,,0.9155059552786124
9,,0.0,0.0,1.5980562821715294,1.568452489182454,0.7805980951653991,2.5527616860362783,2.5435698379329827,,,0.5748741956352443,inf,,,0.8984645071636624
10,,0.0,0.0,1.6405286025997132,1.6334090435508168,0.6373954810265613,2.2508117564706933,2.0540529963305008,,,0.49759852643134905,inf,,,0.9353447147365924
11,,0.0,0.0,1.5827380750710351,1.5545423463141035,0.4771379307677392,2.0618718451856166,1.7981320600724922,,,0.5641709578113449,inf,,,0.904140523041586
12,,0.0,0.0,1.6723025411675005,1.6565542436494416,0.6986109183494629,2.0113167309520446,1.6153125217932338,,,0.5022576003740722,inf,,,0.792968583735965
13,,0.0,0.0,1.1973629496978777,1.1858220705846239,0.7008476877430099,2.685226121181331,2.02164694529785,,,0.5451288209179292,inf,,,0.9447250977414817
14,5.7037824746562,-5.7037824746562,0.0,1.5029997356502105,1.4492226328461524,0.5141370734685268,2.121131848173032,1.209705222519939,,,0.44694259446804574,5.703782474656201,inf,,0.950741344001438
15,5.010635294096255,-5.010635294096255,0.0,1.458076050425069,1.3762957393838933,0.4343175059572476,3.0015079768382864,2.077660904348917,,,0.44694259446804574,5.0106352940962555,inf,,0.632431262534939
16,,0.0,0.0,1.6288461164050132,1.6131315821275949,0.7766806765583258,2.898493331056613,2.8695686770499,,,0.552929491858785,inf,,,0.9328376415724301
17,,0.0,0.0,1.7670705322279634,1.7158356398619865,0.7312014883976989,2.6299563603281193,3.6372863829763187,,,0.5022576003740722,inf,,,0.9228470402925832
18,,0.0,0.0,1.5360590807938643,1.4939806150955575,0.7654737109350789,2.819422410149371,2.7799732436467655,,,0.4732203808476458,inf,,,0.9427043305650973
19,,0.0,0.0,1.2793046090543125,1.196544638719253,0.6455248950829572,1.861507621852475,1.2451183536948192,,,0.524519217297268,inf,,,0.6681368696298703
20,5.010635294096255,-5.010635294096255,0.0,1.5848102195514133,1.518534401574097,0.7917471529703871,2.6658462564276055,1.570503812151041,,,0.552929491858785,5.0106352940962555,inf,,0.8841432087976983
21,4.605170185988091,-4.605170185988091,0.0,1.708925311674903,1.6697136165229998,0.6409667617458905,2.4334847121917162,1.9313002181101315,,,0.5022576003740722,4.605170185988091,inf,,0.9459632502130277
22,,0.0,0.0,1.3400823950590763,1.318991859759364,0.7873718028180042,1.7974920248742254,1.5114227107546403,,,0.5202020156036558,inf,,,0.9288491197456743
23,,0.0,0.0,1.5208812095462472,1.5251466491362455,0.9194697113596048,1.7573908568916297,1.5881553797212382,,,0.5113665138247345,inf,,,0.896406039318016
24,,0.0,0.0,1.6100757778441985,1.5918602289835364,0.4676810820172508,1.9336582898603176,2.580838819145773,,,0.4629450596409901,inf,,,0.953725135300218
25,,0.0,0.0,1.374706848891462,1.2541075963813126,0.5933503393052049,2.1389750023610734,1.7940530164976947,,,0.5113665138247345,inf,,,0.9442447738191333
26,,0.0,0.0,1.584617542514056,1.5883095788587247,0.7775145514804342,2.9963053300639286,3.32673804518635,,,0.5748741956352443,inf,,,0.9293512411871133
27,,0.0,0.0,1.7466089148413408,1.7155426852524962,0.6901796144195891,3.408313731360467,17.66039257843923,,,0.4928685327679205,inf,,,0.8790240416301087
28,,0.0,0.0,1.5347120698388879,1.466787448839965,0.7825681408518648,2.8611277224593583,3.025247990229389,,,0.468121228110369,inf,,,0.9344361604242747
29,,0.0,0.0,1.4753668175345904,1.481698782976309,0.5737408501027289,2.572946949057214,5.117962039367858,,,0.4880666971167561,inf,,,0.9364870051209732
30,,0.0,0.0,1.7086268180747792,1.6887505289423146,0.5370750292862678,2.394557775661797,5.514222714071531,,,0.5287703885177266,inf,,,0.9268598148590454
31,,0.0,0.0,1.450029556008463,1.4486893567841832,0.4887925763732855,2.327646593887228,3.553079517659359,,,0.4928685327679205,inf,,,0.9464743334308774
32,,0.0,0.0,1.6492891537206416,1.6295685043318737,0.9566746047995596,2.91736162855861,3.880093432692925,,,0.5158180382284114,inf,,,0.8808827980068703
33,,0.0,0.0,1.5137960990350992,1.4683831660568476,0.5090026754613522,2.6245279209769707,3.014845176038234,,,0.49759852643134905,inf,,,0.7439703927916745
34,,0.0,0.0,1.7071928552189268,1.7028231042014659,0.6942547692926879,2.7408801445876922,2.1000505497063946,,,0.4928685327679205,inf,,,0.9526386043928665
35,,0.0,0.0,1.7233664571844085,1.7341466667319767,0.7812803389835147,2.63939759354639,1.5226477323154861,,,0.5641709578113449,inf,,,0.9452800565956861
36,,0.0,0.0,1.7050470135271958,1.7207290609144872,0.6451118228262436,2.043459688596929,1.9680558594411837,,,0.4629450596409901,inf,,,0.7599167080724922
37,,0.0,0.0,1.7393031660092781,1.7108900655308887,0.641172329021718,2.2934496768681902,1.688210503346693,,,0.5202020156036558,inf,,,0.9514986997253915
38,,0.0,0.0,1.653388640759736,1.6230340310211864,0.7010819538095897,2.065842916616201,1.5174336940313427,,,0.5567373465730988,inf,,,0.9432328895133179
39,,0.0,0.0,1.61104288124453,1.604051425954464,0.720845738258149,2.483918519333524,2.7344597540483506,,,0.44694259446804574,inf,,,0.9500780890423043
40,,0.0,0.0,1.615351795852678,1.5861067101328974,0.6026966905312136,2.883154904536184,2.564682844857478,,,0.5068466436745385,inf,,,0.939687943900444
41,,0.0,0.0,1.5329487037319884,1.5395482154980475,0.786460226563361,2.578460283755108,3.384235328748353,,,0.552929491858785,inf,,,0.9459105760081304
42,,0.0,0.0,1.6475694785244621,1.6349993513182761,0.6864775384101374,2.940734770034442,3.694967354455333,,,0.5022576003740722,inf,,,0.933715161133803
43,,0.0,0.0,1.6663381213853352,1.6519245353345897,0.6742359376552952,3.3045054038134802,3.241108896530669,,,0.5202020156036558,inf,,,0.9455069694421013
44,,0.0,0.0,1.4494465325110943,1.4032782231141099,0.6147634876944326,3.4430762432607884,4.551939659436719,,,0.524519217297268,inf,,,0.9473447432135552
45,,0.0,0.0,1.437249448303367,1.4249596529591373,0.7249359020800648,2.8230506005538327,4.1908390327233604,,,0.48319206230712763,inf,,,0.6797852596007574
46,3.9120230054281455,-3.9120230054281455,0.0,1.5939736362357724,1.5616726109245955,0.6691706069543943,2.552454820307592,2.3218365973594994,,,0.6153451465759925,3.912023005428146,inf,,0.6378048844208305
47,4.605170185988091,-4.605170185988091,0.0,1.4689517721120855,1.4830346206631926,0.6148903997986388,2.6464570734829027,1.844035755880193,,,0.47824363442641393,4.605170185988091,inf,,0.7529135198804142
48,,0.0,0.0,1.4243365298652948,1.3575452639349235,0.38321389144395607,3.137407167319105,3.374236360658005,,,0.5370774965580548,inf,,,0.5965426988332908
49,4.0943445622220995,-4.0943445622220995,0.0,1.5621549663945733,1.4797459904740142,0.6616992885874362,3.3676723560841855,3.3703099218109083,,,0.5329562494928909,4.0943445622221,inf,,0.8540194758433111
50,4.790332585357485,-4.790332585357485,0.0,1.5864039488515096,1.4674366240566032,0.5663664296291344,2.6712266155034037,2.0209197146354563,,,0.468121228110369,4.770306918027945,inf,,0.9042734304641283
51,5.010635294096255,-5.010635294096255,0.0,1.4998874397632982,1.4800143718946945,0.7505192463140105,2.914448157992222,3.5420692663388724,,,0.5113665138247345,5.0106352940962555,inf,,0.9239455829180911
52,5.535116660719948,-5.535116660719948,0.0,1.7554457493493816,1.701030640733108,0.65541852389347,2.600357727659393,2.317581268851107,,,0.47824363442641393,5.485986529668587,inf,,0.8639491705748085
53,,0.0,0.0,1.5183581362148564,1.4927140103869747,0.7458737604132946,2.4262707493245195,1.7302841475766804,,,0.41268473150466,inf,,,0.7407652988428045
54,5.7037824746562,-5.7037824746562,0.0,1.628328209818258,1.6141914513280737,0.762216433064861,3.0823735504423806,2.259746865153188,,,0.468121228110369,5.703782474656201,inf,,0.815237308229644
55,,0.0,0.0,1.7591788392285341,1.7414526105725303,0.77923881269283,2.774241334652279,3.2149177186236155,,,0.38804190201132227,inf,,,0.9274513361434735
56,,0.0,0.0,1.7285790467098165,1.7031873062743623,0.7849317558602096,2.939020213953558,3.343800367914219,,,0.5113665138247345,inf,,,0.9334084623485209
57,,0.0,0.0,1.5457716631076526,1.5305323055737845,0.8552194684045223,3.567790451717173,2.7646224307014777,,,0.5370774965580548,inf,,,0.9053313112457873
58,,0.0,0.0,1.6498882200324165,1.5973778459646362,0.7226781258572933,2.89784475775465,2.958647639467715,,,0.5713653840954815,inf,,,0.9462414773639737
59,,0.0,0.0,1.5799808494507794,1.5503527334030818,0.6020900481674487,3.1499515324113663,3.233224094272691,,,0.5113665138247345,inf,,,0.7084306164931891
60,,0.0,0.0,1.7102072123044865,1.6869067410022014,0.5127972882329586,2.9098958857027153,3.0714032372584894,,,0.5113665138247345,inf,,,0.950977453642471
61,,0.0,0.0,1.719587708566541,1.704286748477521,0.5485513646763123,2.7857690135125974,4.481452220972483,,,0.6008849035917525,inf,,,0.9300513564230143
62,,0.0,0.0,1.570064254432913,1.5155551951877428,0.523548955749924,3.297638167799467,3.7982542355455142,,,0.5202020156036558,inf,,,0.8520744627303163
63,,0.0,0.0,1.694817698939382,1.6708995706873644,0.7436900991482802,2.275782552596638,1.4671588103658562,,,0.5113665138247345,inf,,,0.9324520640863225
64,,0.0,0.0,1.5049569641820808,1.4918389657958544,0.5673194144005511,2.196531726792186,2.1009504225212488,,,0.5604843169999094,inf,,,0.9321220343017071
65,,0.0,0.0,1.67323201437536,1.6493063551139788,0.69963937767162,2.04448612530112,1.9470975724816801,,,0.5158180382284114,inf,,,0.9343854094349802
66,,0.0,0.0,1.717560515226324,1.6989911426510016,0.6724774980903867,2.5689365754364992,3.237188200552951,,,0.43586655696697996,inf,,,0.9450453351956282
67,,0.0,0.0,1.6305923154685824,1.6489387277699226,0.5750890303717344,2.3505817022985473,2.717918018860997,,,0.5068466436745385,inf,,,0.9555707572920996
68,,0.0,0.0,1.5684038496799446,1.5602789728080397,0.6122507909701841,2.1468251796966173,1.9794069462359416,,,0.44694259446804574,inf,,,0.9487458661554519
69,,0.0,0.0,1.4667341861532548,1.452488649205246,0.7499733549256203,3.064499202727908,4.10320500034196,,,0.5490601803369085,inf,,,0.9482877956645709
70,,0.0,0.0,1.0437000931312441,1.0244890426842233,0.6022701505451399,2.357260197921781,2.1129980912864945,,,0.5287703885177266,inf,,,0.9308029462494766
71,,0.0,0.0,1.6305794958275306,1.6293183393310384,0.8816961405694899,2.545719775393367,2.9532549426446812,,,0.4066654671944331,inf,,,0.8707339614799762
72,,0.0,0.0,1.7233693188644064,1.7124052216875085,0.6988732353976462,2.3086328467349153,2.3154891676379803,,,0.44694259446804574,inf,,,0.9358788440022606
73,,0.0,0.0,1.668822422871989,1.6410664783335225,0.717429925617164,2.1976549263678553,2.416390947027205,,,0.5329562494928909,inf,,,0.89794293487495
74,,0.0,0.0,1.4244083112781436,1.3987471893258792,0.7349041980335146,2.4266331905470615,2.495523619273968,,,0.5113665138247345,inf,,,0.910027343175129
75,,0.0,0.0,1.6894272069471359,1.6689636721094292,0.6645464750599985,2.6230848364433976,4.361433252030995,,,0.5329562494928909,inf,,,0.9308620758865587
76,5.703782474656201,-1.5210086599083203,0.0,1.733449522772557,1.6577791564895652,0.6329769536323564,1.5228107453835182,0.6898225568103196,,,0.5641709578113449,7.025538314638521,inf,,0.9288525246700946
77,5.7037824746562,-5.7037824746562,0.0,1.5351189470759805,1.4992748278431243,0.3386192464718967,1.5259895481392194,0.900568687254288,,,0.4302020962658841,5.703782474656201,inf,,0.9448197491945667
78,,0.0,0.0,1.5360314636996895,1.5231890264028254,0.7122446088180285,2.5388357383030145,3.049860800529511,,,0.552929491858785,inf,,,0.9445245103340816
79,,0.0,0.0,1.5385078998037325,1.5525940031134962,0.7090196662103245,2.650007924842774,3.0082397750701255,,,0.49759852643134905,inf,,,0.9349936374109907
80,,0.0,0.0,1.7170543221971182,1.6916817570472575,0.6769574026624534,1.9066765949213296,1.1322228948372635,,,0.5329562494928909,inf,,,0.9239338524863603
81,,0.0,0.0,1.6504587570281712,1.5617071727605545,0.5276726135970599,1.9566705322868725,1.8732715747014466,,,0.5370774965580548,inf,,,0.9084035487062101
82,,0.0,0.0,1.4583739674906178,1.4687131941213563,0.6649054202549569,1.7348189982012054,2.6755118663352073,,,0.5287703885177266,inf,,,0.9338406810258362
83,,0.0,0.0,1.4605142167342073,1.4502754739715946,0.869933807200281,1.6398352736738306,2.3249621204193778,,,0.4629450596409901,inf,,,0.8888201478947596
84,,0.0,0.0,1.5901862786187602,1.5369353051323988,0.5808775804849984,1.9106758415030614,1.8792202048333597,,,0.5022576003740722,inf,,,0.9520584992495063
85,,0.0,0.0,1.4408399843086153,1.4047323949014472,0.6239852932855833,2.123666728879466,1.9067213695732828,,,0.5022576003740722,inf,,,0.9518699395057694
86,,0.0,0.0,1.6621811326000224,1.6603168065128195,0.5631741359461949,2.2444294353728624,2.083062806383092,,,0.5604843169999094,inf,,,0.9547994401108619
87,,0.0,0.0,1.6626316628383753,1.593030659291719,0.7023182306303319,2.252576292486215,1.3937685328801401,,,0.4928685327679205,inf,,,0.9361309793201891
88,,0.0,0.0,1.6223638485465726,1.549768536045372,0.6327414975585015,2.2052991610930945,1.7402500252700857,,,0.5022576003740722,inf,,,0.9528976231619697
89,,0.0,0.0,1.27887363899023,1.269269206442405,0.6403406850429302,2.433022529041224,2.040272855533269,,,0.5202020156036558,inf,,,0.8937780943192727
90,,0.0,0.0,1.4570776852842204,1.453857117074118,0.6699491265976518,2.5372200042501802,2.690626304155465,,,0.5370774965580548,inf,,,0.8487503947972831
91,,0.0,0.0,1.7765340110131094,1.7456436463987255,0.9284041150659987,2.568309077285876,10.97349036780598,,,0.49759852643134905,inf,,,0.88088200299209
92,,0.0,0.0,1.5995289079131862,1.5848844894860854,0.7790285391281361,2.5221645095098015,4.201423225755481,,,0.524519217297268,inf,,,0.9185116982398276
93,,0.0,0.0,1.4025691210687654,1.3901566700995773,0.8925572239755665,2.4976612062114647,3.257036408051352,,,0.5370774965580548,inf,,,0.9187969946393911
94,,0.0,0.0,1.4475397356760866,1.4192374713919809,0.7539761892228591,2.7184449897301484,5.366199680082127,,,0.5158180382284114,inf,,,0.9074186549383263
95,,0.0,0.0,1.5874554174305038,1.5699083238656402,0.7939848460086607,2.3065674710417223,2.3224834617364256,,,0.5158180382284114,inf,,,0.9067571818388677
96,,0.0,0.0,1.3409690542112405,1.3050125993336135,0.8385403578881231,2.3220850180314714,2.4270880546060365,,,0.5370774965580548,inf,,,0.9301680862962624
97,,0.0,0.0,1.6629815751395804,1.6374409688501008,0.8658259238738941,2.5139726332380175,2.690868263091612,,,0.5068466436745385,inf,,,0.9243196453822479
98,,0.0,0.0,1.6411754796523415,1.5843885987145936,0.8550534372101907,2.6544351813661753,2.8313474481508405,,,0.4576907132971797,inf,,,0.922560717083152
99,,0.0,0.0,1.419550772433428,1.4112508484234616,0.797484512782112,2.83087122343093,3.1154970320100803,,,0.5748741956352443,inf,,,0.8600870774977611
100,,0.0,0.0,1.528175212865057,1.495051949826874,0.9518359336105489,3.0998642313418996,4.994699735509916,,,0.5567373465730988,inf,,,0.8952542807520498
101,,0.0,0.0,1.6194505588376347,1.5858469697987423,0.7901119675042102,2.5095576855271684,2.5102496277287485,,,0.47824363442641393,inf,,,0.8899320521585118
102,5.703782474656202,-0.7034665052075982,0.0,1.5158514902214717,1.5254756902288356,0.6934292527005116,2.8478139199814216,2.3961295925692054,,,0.5883313578629602,7.796647036668178,inf,,0.9089706238082976
103,4.489138416765872,-4.489138416765872,0.0,0.8457074332376504,0.7195582842281931,0.7038036858369127,2.981665354528753,2.553969771880692,,,0.47824363442641393,4.4790271311477365,inf,,0.6875886467798116
104,5.703782474656201,-1.2358195361755102,0.0,1.7681211564457548,1.746288842546302,0.6331034353697447,2.5240916847341595,1.864615661330217,,,0.5329562494928909,7.233177679416765,inf,,0.7422339931842935
105,,0.0,0.0,1.6322817744689395,1.5967766393020522,0.4942777832105398,2.880993216568002,3.5822690034171827,,,0.48319206230712763,inf,,,0.7116351282428036
106,,0.0,0.0,1.5654865480419347,1.5526511058088188,0.5134910486074377,2.622275601819478,6.437202537498628,,,0.4732203808476458,inf,,,0.9429462177745562
107,,0.0,0.0,1.7752594044296734,1.7398328164307624,0.48080252617185526,2.809893157753306,4.479730709247265,,,0.44694259446804574,inf,,,0.9266413225980904
108,,0.0,0.0,1.6368240364534792,1.6308114734580783,0.5230723413374535,2.806916638757368,3.118469883130185,,,0.5068466436745385,inf,,,0.721637354079134
109,,0.0,0.0,1.682636643166898,1.6589830937967809,0.48595705021000374,2.7999827216289037,1.3490064955955594,,,0.5287703885177266,inf,,,0.9440378298549525
110,,0.0,0.0,1.7489768373203223,1.7224276100335565,0.7567090963509016,2.6367157280718585,3.3845978907217034,,,0.5113665138247345,inf,,,0.9404620383040391
111,,0.0,0.0,1.5704635370316982,1.5498482010669046,0.866704516062293,2.1359222153873465,2.560888112148945,,,0.41268473150466,inf,,,0.9523531532399222
112,,0.0,0.0,1.6404118321963845,1.5892983342044391,0.6314134170287881,2.388145464296732,2.5775535524670423,,,0.5158180382284114,inf,,,0.9397784461044609
113,,0.0,0.0,1.775697727010731,1.7630610061982168,0.7136718734443915,2.3361949333504155,3.2571393761980794,,,0.5068466436745385,inf,,,0.9292403524917847
114,,0.0,0.0,1.6956412134040644,1.678887604226255,0.9358050646332158,2.3400255492007522,4.55810140342931,,,0.468121228110369,inf,,,0.9238442046494011
115,,0.0,0.0,1.5878024946791887,1.553167800314774,0.9376350100282377,2.535546649709111,5.714982508999509,,,0.5158180382284114,inf,,,0.8904203769390835
116,,0.0,0.0,1.7266842046609896,1.7224848149310104,0.8950294781039932,2.50217183656659,3.2363594113343708,,,0.43586655696697996,inf,,,0.8802709471638244
117,,0.0,0.0,1.673726862896832,1.65967471899634,0.8672853810896625,2.6944653472952176,3.6710851961964033,,,0.5287703885177266,inf,,,0.908010730328421
118,,0.0,0.0,1.6516537427839952,1.615648854134372,0.8360775169352936,2.935235662127723,4.79411057595676,,,0.48319206230712763,inf,,,0.9028697356230202
119,,0.0,0.0,1.2198166185695511,1.1733808523708897,0.8864822155886541,2.3033918557868875,3.876674939144264,,,0.43586655696697996,inf,,,0.9070257429709059
120,,0.0,0.0,1.6964151713053957,1.6639741395545233,0.6289926501909296,2.3409300990377186,2.6590215838143347,,,0.5068466436745385,inf,,,0.9237055161180979
121,,0.0,0.0,1.7210115199646614,1.6777580109479702,0.8766514885969993,2.376525601840022,6.410093246261479,,,0.4066654671944331,inf,,,0.9029819940226067
122,,0.0,0.0,1.7245769059085019,1.7233830255438878,0.8979200515135566,2.6847158858110265,6.190798849442155,,,0.5883313578629602,inf,,,0.9082998975155293
123,,0.0,0.0,1.5356184198628715,1.5287808728103855,0.5925003531388664,2.639507406126438,2.056355820735633,,,0.4576907132971797,inf,,,0.9117528531788576
124,5.010635294096255,-5.010635294096255,0.0,1.3726087595706526,1.3309975502359852,0.5692738082971638,2.8411195250536943,2.796151826882962,,,0.5022576003740722,5.0106352940962555,inf,,0.9249582460320085
125,,0.0,0.0,1.6296606637466873,1.6312457632182251,0.6948010115635053,2.5199956207753,2.271258714865846,,,0.5202020156036558,inf,,,0.899254668221758
126,,0.0,0.0,1.7024533349677229,1.6511697318826897,0.7128356733238805,2.6370200895397087,3.3587642569715577,,,0.5287703885177266,inf,,,0.9078617888584253
127,,0.0,0.0,1.5830800783074337,1.5561077947829884,0.9626673193498873,2.6169070174070588,3.070310568786027,,,0.48319206230712763,inf,,,0.8813010955334448
128,,0.0,0.0,1.7497663375830284,1.714074685274178,0.9743945598855734,2.4569986841149345,3.0508153728345366,,,0.5287703885177266,inf,,,0.8899166300050494
129,,0.0,0.0,1.5130664377536318,1.498482408608338,0.7785331588795766,2.90803312107579,4.460950325212595,,,0.5641709578113449,inf,,,0.9285610421234926
130,,0.0,0.0,1.649504332870056,1.6302806176668656,0.7132961666945578,2.55605801383882,2.7362416574496007,,,0.48319206230712763,inf,,,0.9232172506191519
131,,0.0,0.0,1.7461247345954563,1.7154134083946728,0.9858726854415728,2.0899239414271458,2.7063478184082204,,,0.3943459996787778,inf,,,0.9285842899083818
132,,0.0,0.0,1.7094209773363667,1.6644362970548316,0.9662395838692488,1.7864508177282092,1.9254897877618826,,,0.4302020962658841,inf,,,0.9161313040676867
133,,0.0,0.0,1.6450778302962263,1.624310061825479,0.9749055636679094,1.8202178699672553,2.1972807991740986,,,0.48319206230712763,inf,,,0.9229418626957202
134,,0.0,0.0,1.648292511735945,1.6178005043022452,0.9633130691896675,1.6139225593807578,1.5518446402004702,,,0.4732203808476458,inf,,,0.9237847587107975
135,,0.0,0.0,1.6478978712822365,1.6008288434910083,0.9699691535175965,1.6178686751016813,1.7027847714906938,,,0.5202020156036558,inf,,,0.9150393446617237
136,,0.0,0.0,1.5362532067631727,1.4992529035941313,0.9509369095929039,1.6680812003543104,1.5074815196567741,,,0.4066654671944331,inf,,,0.9167738498060164
137,,0.0,0.0,1.7683550983014864,1.7252953699447702,0.8876970045782703,1.7518230591734156,1.592758185534641,,,0.4880666971167561,inf,,,0.9106317388037294
138,,0.0,0.0,1.738337922053363,1.6675721767735654,0.9319482388042646,1.6583567233641507,1.5960867967226335,,,0.41861278947482794,inf,,,0.9036815246731255
139,,0.0,0.0,1.3478574793074072,1.3539444668628562,0.6430670229571352,2.2634217709346083,2.164325734534673,,,0.47824363442641393,inf,,,0.9457323861937269
140,,0.0,0.0,1.6210313798791556,1.5972690062685215,0.9402938037991702,2.346133020667568,2.6983135877170903,,,0.3751344627501719,inf,,,0.931593890583327
141,,0.0,0.0,1.774150880003171,1.751337775563067,0.9707106422934199,2.172087037767391,2.121343782524146,,,0.48319206230712763,inf,,,0.9030630202233093
142,,0.0,0.0,1.7842286879377183,1.742986064547276,0.961417382345234,2.291781322728234,2.556601575623709,,,0.44694259446804574,inf,,,0.8948280560562432
143,,0.0,0.0,1.7056874224337473,1.6804246501970437,0.6564538970792161,2.0893908284421623,2.216476898336976,,,0.5490601803369085,inf,,,0.9002270883229108
144,,0.0,0.0,1.6493981540941451,1.6360039826504424,0.9690372778971033,2.0780843662013706,2.9520162426867462,,,0.541134803179459,inf,,,0.9059317797928792
145,,0.0,0.0,1.5577771666899556,1.5189323169860791,0.9548264854774878,1.9336446780943173,2.3452627963336266,,,0.47824363442641393,inf,,,0.8976688603043079
146,,0.0,0.0,1.748849883654585,1.7229461182589216,0.9573268678440617,1.6533340826050595,2.043467461156793,,,0.43586655696697996,inf,,,0.9067087891687652
147,,0.0,0.0,1.7452737989199882,1.7246449648669488,0.966639145471966,1.43643271120454,1.9336518000212146,,,0.4302020962658841,inf,,,0.8580052246804412
148,,0.0,0.0,1.051092178219433,1.03554911276925,0.963764867955322,1.5948303174208802,1.736492896635425,,,0.44694259446804574,inf,,,0.8610388292044954
149,,0.0,0.0,1.4238003938714843,1.3893509934584949,0.9586037132041592,1.573392609386622,2.0531829639840344,,,0.5022576003740722,inf,,,0.8948533549086077
150,,0.0,0.0,1.4213069585561986,1.403119507279616,0.9835746156121244,1.8428109266148416,2.1135219901466495,,,0.4928685327679205,inf,,,0.9003637236523199
151,,0.0,0.0,0.9002366156521604,0.8887957867380731,0.959330773105683,1.8935552495137198,2.444904807828725,,,0.4732203808476458,inf,,,0.9016462390351201
152,,0.0,0.0,1.5502697219290063,1.5224853568762888,0.8222521528545848,1.3834178197419786,1.5214903010144025,,,0.4880666971167561,inf,,,0.9184493797022545
153,,0.0,0.0,1.529148624722469,1.4990392485915787,0.9646256843921688,1.052223688198621,1.1825032990044566,,,0.41268473150466,inf,,,0.8657419796577658
154,,0.0,0.0,1.6655122227616466,1.6176712728524023,0.9269179540948697,0.7612530150620477,0.7883943140043761,,,0.5113665138247345,inf,,,0.8826296623207378
155,,0.0,0.0,1.5290112221274281,1.494670516554818,0.9487226360856096,1.2598196153033043,1.122628313880487,,,0.41268473150466,inf,,,0.9113082983015769
156,,0.0,0.0,1.3063458822328136,1.2689643755407336,0.3466027704713322,0.9850003369241336,1.0462633227289824,,,0.4302020962658841,inf,,,0.9169483957963535
157,,0.0,0.0,1.6716376008415317,1.6513378622232735,0.49763355361576744,1.2892622808886935,1.3613071301190152,,,0.4880666971167561,inf,,,0.8927952273788988
158,,0.0,0.0,1.7382785529481164,1.7153443252876543,0.9101302448412689,1.1146858549905045,1.3027396252461902,,,0.4629450596409901,inf,,,0.841838802677088
159,,0.0,0.0,1.7298677024038969,1.704913692437419,0.9466659558275347,1.2702014707506155,1.3585735078603183,,,0.38804190201132227,inf,,,0.857339744675576
160,,0.0,0.0,1.7197586858496603,1.688887536805133,0.9655887099178082,1.4198779728462576,1.5558689522079072,,,0.5202020156036558,inf,,,0.8669557061075013
161,,0.0,0.0,1.773288194583599,1.7414456412232855,0.964667930942049,1.3306107636941564,1.506340575687984,,,0.44144624493110796,inf,,,0.8763840631448568
162,,0.0,0.0,1.77071755667519,1.740297786424016,0.9530724594832145,1.6538481244502976,1.8973369498091333,,,0.4576907132971797,inf,,,0.9026747272994126
163,,0.0,0.0,1.3235692786549955,1.3393957558338327,0.9253289184147162,1.4343054751831736,1.7309992936551724,,,0.45235697871908603,inf,,,0.8734896868735853
164,,0.0,0.0,1.6206334122790527,1.6020752362081014,0.9812186516940777,1.4277098474781895,1.6632609159987672,,,0.468121228110369,inf,,,0.8732373208654826
165,,0.0,0.0,1.6899100181223843,1.6428574475628435,0.7429338876587177,1.3053712983492036,1.3757260804666873,,,0.45235697871908603,inf,,,0.913298087868276
166,,0.0,0.0,1.6175902318289275,1.5943456254936625,0.9381311004878025,1.4013222785873791,1.3392077784723735,,,0.4880666971167561,inf,,,0.8986497841479669
167,,0.0,0.0,1.4928623828414864,1.472137032929287,0.9353607993777591,1.6325784130938643,1.7659217501332338,,,0.41861278947482794,inf,,,0.8716811898959873
168,,0.0,0.0,1.5393183222609477,1.4852080399113354,0.9743623168710897,1.641168942999112,1.8670686382442165,,,0.45235697871908603,inf,,,0.8962627176137602
169,,0.0,0.0,1.3569683159429484,1.3161278635328704,0.8126802928228593,1.5403764694756992,1.2288945939728255,,,0.4302020962658841,inf,,,0.8273590249405083
170,,0.0,0.0,1.6055946520225701,1.5566088099240882,0.8730865254577377,1.4639053617431654,1.3616418327668982,,,0.4732203808476458,inf,,,0.830497317829155
171,,0.0,0.0,1.474451264202612,1.432519476167734,0.8517259282966475,1.4731466069267725,1.638982067954674,,,0.47824363442641393,inf,,,0.9172083812425283
172,,0.0,0.0,1.649921876932677,1.6325103675688966,0.934705676919998,1.1904997320470956,1.1566892042470565,,,0.541134803179459,inf,,,0.8878215725799494
173,,0.0,0.0,1.6070804653061845,1.572837611252616,0.8511124308060098,1.1174206214575824,1.2902647430919831,,,0.468121228110369,inf,,,0.864845060200109
174,,0.0,0.0,1.4684483583056562,1.3608185229564362,0.6675232261673468,1.26152333000639,1.6389654909165974,,,0.4732203808476458,inf,,,0.8536851341789954
175,,0.0,0.0,1.7354361659579847,1.6956963295634164,0.8941008293571068,1.1577216478214047,1.4104009116907164,,,0.5370774965580548,inf,,,0.8557469280552406
176,,0.0,0.0,1.476969741326916,1.467973048387114,0.9437825647615308,1.3728577168350562,1.4862044529489344,,,0.44144624493110796,inf,,,0.8530152795599527
177,,0.0,0.0,1.598452036917576,1.5777640243656934,0.945868473353195,1.4881269326300728,1.4429568419535974,,,0.4302020962658841,inf,,,0.8989183060436206
178,,0.0,0.0,1.457550799704676,1.4449166519937233,0.9591611875259005,2.0156073940253147,1.842640900201113,,,0.5113665138247345,inf,,,0.9146728374145863
179,,0.0,0.0,1.6026807015130173,1.5699286017073928,0.9706256110719804,2.1855358911875333,2.0178539646896647,,,0.5158180382284114,inf,,,0.878157123731058
180,,0.0,0.0,1.710863479820283,1.7127057196902384,0.7845260607390363,1.7775670260371146,1.7884395293220552,,,0.49759852643134905,inf,,,0.8875887944451519
181,,0.0,0.0,1.6326881848732917,1.598851606382396,0.9750828210797744,1.901848270116761,2.0363262523536045,,,0.4302020962658841,inf,,,0.8712573060171679
182,,0.0,0.0,1.5033268277467442,1.461647281082709,0.9692147722771974,1.703973495361265,2.139843081733648,,,0.5329562494928909,inf,,,0.8940445752068327
183,,0.0,0.0,1.632753091263858,1.5975569852921099,0.9628204471865073,1.9010498488942256,1.7783447719488847,,,0.5113665138247345,inf,,,0.8978623305244974
184,,0.0,0.0,1.5486997692596933,1.517715655822002,0.9647019095037541,1.9215399638989439,2.302914283628099,,,0.552929491858785,inf,,,0.8828505284497474
185,,0.0,0.0,1.4484481953866,1.4487287712273604,0.9595074690988386,1.6503430626497013,1.8452141332794254,,,0.44694259446804574,inf,,,0.8799082220036901
186,,0.0,0.0,1.3456589379193207,1.3034417298611942,0.6376689435875433,1.6582123590362956,1.608709074895409,,,0.41861278947482794,inf,,,0.9272857226442364
187,,0.0,0.0,1.7327659938378055,1.7151872953254688,0.8584092561108857,1.9144284844794517,2.2370521244859702,,,0.4732203808476458,inf,,,0.9170542527486628
188,,0.0,0.0,1.4597204910219777,1.4394784517677812,0.9539762194573449,1.525462663616105,1.6613354459620575,,,0.5202020156036558,inf,,,0.9151616809379061
189,,0.0,0.0,1.5922485423522705,1.52578546849988,0.9378756211631367,1.6521760438395057,1.6291279921731192,,,0.41268473150466,inf,,,0.9283903127395423
190,,0.0,0.0,1.603549940330101,1.5609855457985,0.8883810230986865,1.287574098198772,1.618725695758154,,,0.4629450596409901,inf,,,0.9087111286282172
191,,0.0,0.0,1.7011208821400563,1.674959256616804,0.9405605661907712,1.4033641018827079,1.6119947723687351,,,0.42445136339222655,inf,,,0.8449879966527127
192,,0.0,0.0,1.7521546952227773,1.6914386965606176,0.874326037837731,1.9754534398695807,1.8851163177466232,,,0.47824363442641393,inf,,,0.9155760157247831
193,,0.0,0.0,1.3609891496072013,1.3427461159900718,0.9367682365390119,2.2724587084218353,2.070007080291152,,,0.5677978065141052,inf,,,0.9004199010639965
194,,0.0,0.0,1.7738379719972799,1.767810388670341,0.8558750417785964,2.0903130774856575,1.3062979787527103,,,0.48319206230712763,inf,,,0.930057625649218
195,,0.0,0.0,1.6450986562282433,1.6099399900584264,0.9122560009867731,2.2598828751507885,2.229567568369049,,,0.5068466436745385,inf,,,0.9226672209695341
196,,0.0,0.0,1.5128742559560606,1.501217841888423,0.8247559448731863,1.9837021293540942,2.456665986251261,,,0.4880666971167561,inf,,,0.9173389318011382
197,,0.0,0.0,1.7164113495938147,1.6812659253014086,0.9386586793198419,2.532156928863553,2.510910378482786,,,0.5068466436745385,inf,,,0.9031876066454325
198,,0.0,0.0,1.6471176152134068,1.6193067324892096,0.9668739999339977,2.4206353034406973,4.085104506634545,,,0.47824363442641393,inf,,,0.8858717585547524
199,,0.0,0.0,1.3962839023337998,1.3520922045617898,0.7888797236874274,1.771300349878459,1.842369915319375,,,0.5329562494928909,inf,,,0.9037654471507887
200,,0.0,0.0,1.7601920803219664,1.7087671478909368,0.9406080777770082,1.3188640421575166,1.4205554247717889,,,0.5202020156036558,inf,,,0.8689993754336388
201,,0.0,0.0,1.7638895430335646,1.7227087379946764,0.9587194429094446,1.6252241819605455,1.7033049381555052,,,0.5022576003740722,inf,,,0.8741462503228322
202,,0.0,0.0,1.658314665642435,1.6305793751918416,0.9542162535399625,1.5056347106592576,1.589370493097181,,,0.47824363442641393,inf,,,0.8808879867158298
203,,0.0,0.0,1.6166505454983437,1.589969345137683,0.9637898422689157,1.607129125926786,1.6003277159052152,,,0.49759852643134905,inf,,,0.8862523060222329
204,,0.0,0.0,1.5520643452969638,1.5017746378586767,0.9619166561968319,1.5824398267770334,1.6427533431492198,,,0.4629450596409901,inf,,,0.8884759776111557
205,,0.0,0.0,1.2955193849165454,1.2713181696584759,0.9688830074324576,1.5999790487227852,1.772551950478141,,,0.47824363442641393,inf,,,0.9097813643696204
206,,0.0,0.0,1.6386109430275841,1.5845864783156443,0.9758779956308896,1.7018134483901077,1.7453510365925649,,,0.44144624493110796,inf,,,0.8845009012903952
207,,0.0,0.0,1.6463506631627116,1.63073372243886,0.9782627124439136,1.696841870104697,1.3550415778304303,,,0.44694259446804574,inf,,,0.8821825565569538
208,,0.0,0.0,1.3373536548453435,1.274775748068496,0.9582729551053938,1.6529028144735876,1.6361554500408761,,,0.4629450596409901,inf,,,0.9099241406194161
209,,0.0,0.0,1.6796112202214803,1.6222939392547486,0.9267891574973268,1.2925606509804584,1.1981019512153006,,,0.49759852643134905,inf,,,0.913075836639943
210,,0.0,0.0,1.7244387679669468,1.6589998496441425,0.7575608970259535,1.1467566091415269,1.1291605392375978,,,0.48319206230712763,inf,,,0.893597206763858
211,,0.0,0.0,1.6458322439186988,1.6604013504835373,0.8488359197685791,1.0554486390831335,0.9580830494237513,,,0.5287703885177266,inf,,,0.8715997128770031
212,,0.0,0.0,1.620307341977826,1.6240367898729482,0.7424439791197665,0.7666817200451573,0.8672121249777016,,,0.541134803179459,inf,,,0.8454375352915009
213,,0.0,0.0,1.7344615119133322,1.7338765360873154,0.9541024247284817,1.041357415867761,0.928552305158356,,,0.4302020962658841,inf,,,0.8756661642085823
214,,0.0,0.0,1.4551606100969845,1.4299841734294325,0.875902028152105,1.2751525964667427,1.4137355749703768,,,0.5022576003740722,inf,,,0.894625219498802
215,,0.0,0.0,1.6735695920500877,1.6476787579246863,0.9067278107166009,1.3745938426870021,1.3184099385537067,,,0.5451288209179292,inf,,,0.8922961165770738
216,,0.0,0.0,1.6219203566291096,1.6004376195766685,0.9198291694819141,1.3043082020035122,1.0262188630057667,,,0.468121228110369,inf,,,0.8900677766559093
217,,0.0,0.0,1.524993899988681,1.4956206842848792,0.8982551053796592,1.2916732724068014,1.6484777810941473,,,0.5490601803369085,inf,,,0.84123309784743
218,,0.0,0.0,1.519668756838399,1.5063030993673205,0.8685812347864518,1.9164938542891428,1.758511817531368,,,0.41268473150466,inf,,,0.9130076021480986
219,,0.0,0.0,1.7363659757947048,1.6859069840096266,0.8281569477375041,2.7169472944815762,3.167368763709896,,,0.5604843169999094,inf,,,0.920278273690521
220,,0.0,0.0,1.5383750140657542,1.4842412390257256,0.5572984798638632,1.6943606510669802,1.4084710838979324,,,0.5113665138247345,inf,,,0.8989354416853614
221,,0.0,0.0,1.5025968275043415,1.494824077768586,0.6597509524443881,1.9134139761950246,1.0905024730228539,,,0.4066654671944331,inf,,,0.932832499426257
222,,0.0,0.0,1.4082810907605934,1.3822842384464673,0.7858620787560169,1.625344873837351,0.9343521502589236,,,0.5068466436745385,inf,,,0.9480088207548174
223,5.7037824746562,-5.7037824746562,0.0,1.6168451168656335,1.602654161169025,0.7031257589178729,1.7119302870423738,1.1462764292019931,,,0.4302020962658841,5.703782474656201,inf,,0.9518928350369646
224,,0.0,0.0,1.5843751268684385,1.5342086339087797,0.4859083034311017,1.4791310431453448,1.243162898069798,,,0.4576907132971797,inf,,,0.9486277652555042
225,,0.0,0.0,1.6487090652276493,1.5943322696813376,0.809590433427427,2.2494347492891897,2.326912064434398,,,0.5490601803369085,inf,,,0.9299538018421969
226,,0.0,0.0,1.6045827138196171,1.5774848422971197,0.6020540857845902,1.879501860458689,1.5891475853446682,,,0.581717464821069,inf,,,0.6743616373185376
227,,0.0,0.0,1.5199377195630954,1.464980295835025,0.6348765478257249,1.7877024002854163,1.2742561771576344,,,0.552929491858785,inf,,,0.9492750931095618
228,,0.0,0.0,1.704593708912796,1.6512651198050419,0.47795914027679126,1.0333025239521625,0.9136763013065594,,,0.5068466436745385,inf,,,0.8399411810341149
229,5.7037824746562,-1.444958226912904,0.0,1.5343429850220833,1.5388158433261392,0.41637594722652166,1.4646887800093802,1.0530187692456807,,,0.524519217297268,7.076831609026071,inf,,0.9053331848827489
230,,0.0,0.0,1.7465566307698617,1.7228889173142257,0.5162309185837818,1.025217128248377,0.9005378417025014,,,0.48319206230712763,inf,,,0.9499780160705321
231,,0.0,0.0,1.7335472692913374,1.7278798381053273,0.2730812312246813,0.7925825414253742,0.9286074798534446,,,0.45235697871908603,inf,,,0.9620310649348836
232,,0.0,0.0,1.521738795667365,1.4864107199269074,0.6587550976665889,0.7434097188988849,0.687292699848743,,,0.5202020156036558,inf,,,0.9511340592887292
233,,0.0,0.0,1.6138435396467512,1.5866491372450682,0.4104271595274445,1.2493804753976827,1.236934487851502,,,0.4629450596409901,inf,,,0.9523709418933662
234,,0.0,0.0,1.662771023910115,1.6485547329002253,0.7759898254788915,0.7546918829693979,0.8482558671403159,,,0.49759852643134905,inf,,,0.9384967649911758
235,,0.0,0.0,1.7120006423984737,1.656803528123914,0.29685358850188887,0.8436447424050588,0.7542650945817306,,,0.4928685327679205,inf,,,0.9521236614958253
236,,0.0,0.0,1.6106393263381302,1.5973636029253167,0.7300913692748154,2.3055894521548956,1.4648073053605284,,,0.5370774965580548,inf,,,0.9322809232516752
237,,0.0,0.0,1.6461522262538981,1.6266316731300936,0.815736896572846,2.4981564691498206,2.362633360669187,,,0.5158180382284114,inf,,,0.9313204800519544
238,,0.0,0.0,1.7262066854891325,1.6917279524668347,0.7166715745467351,1.9003877079353724,1.2525351121111084,,,0.5202020156036558,inf,,,0.9344390519667503
239,,0.0,0.0,1.553516694300306,1.430306142935025,0.6682848760344906,1.7815854444248183,1.1052298756414762,,,0.2461092077232671,inf,,,0.9263096870957809
240,,0.0,0.0,1.5711692999662517,1.5663015054143357,0.44059896011222655,1.6970212565844693,1.2227659936037618,,,0.28007874463063287,inf,,,0.9435978789854516
241,,0.0,0.0,1.5711692999662517,1.5757351817547915,0.6317788387477086,2.1357167759589393,1.9963190917130795,,,0.2548524784312949,inf,,,0.9464679202324108
242,,0.0,0.0,1.787110272932435,1.778909816342033,0.7412078784077826,2.426550745448737,2.64844555757628,,,0.5329562494928909,inf,,,0.9278591481435058
243,,0.0,0.0,1.5350484236053092,1.4971269807049583,0.7074274469844758,2.004031811310502,1.4114415190392506,,,0.4928685327679205,inf,,,0.9256476384307045
244,,0.0,0.0,1.434955329686881,1.4142182410785433,0.8107315396664311,2.5328800923151635,2.488234011524929,,,0.468121228110369,inf,,,0.9188591341247203
245,5.703782474656201,-0.874579979447284,0.0,1.4064264250488523,1.3679559683253373,0.7854528216142563,2.472682109705749,2.6604477369887563,,,0.5490601803369085,7.578923552823307,inf,,0.8981781761348155
246,,0.0,0.0,1.4932732743620778,1.4746133303322408,0.6707339709038111,2.280801418990441,2.423543071070155,,,0.5883313578629602,inf,,,0.9094318457342644
247,,0.0,0.0,1.621430654342734,1.5582505684222139,0.7317408656969457,2.4031814759817434,2.4275196890879345,,,0.5370774965580548,inf,,,0.9318415587924341
248,,0.0,0.0,1.4365469564136162,1.4194336518250856,0.8131579160098934,2.1581550685497426,3.0396465127932992,,,0.5113665138247345,inf,,,0.9253029027553936
249,,0.0,0.0,1.7074778340145815,1.596062165429005,0.8177794096167665,1.5861655225689468,1.0620998266966346,,,0.48319206230712763,inf,,,0.8337288806944364
250,,0.0,0.0,1.4165994897723257,1.4159811775253812,0.7532667931958882,2.4236469448159945,2.8312730849649603,,,0.5713653840954815,inf,,,0.8758239001968072
251,,0.0,0.0,1.5974269854523766,1.6214988745431538,0.7169924585324766,2.085713629861135,1.9112123140413613,,,0.4629450596409901,inf,,,0.9443808548397943
252,,0.0,0.0,1.4493855524561372,1.4441027536361335,0.7018813603889688,2.1565349365280038,2.1019313049343875,,,0.4928685327679205,inf,,,0.9010556646028696
253,,0.0,0.0,1.16940167701455,1.152625074064616,0.7065457695869745,2.431664071317115,2.3540563483525783,,,0.5158180382284114,inf,,,0.9473866690130661
254,,0.0,0.0,1.704086202972058,1.7062421858749857,0.7555292120611072,1.911838750217585,1.681060737019434,,,0.468121228110369,inf,,,0.9385696541366871
255,,0.0,0.0,1.7819047053499175,1.7178312686976516,0.7365579852536899,1.908173700085542,1.885312339652593,,,0.524519217297268,inf,,,0.9419338515375703
256,,0.0,0.0,1.5490003847710823,1.5142911594745687,0.6502146439680299,2.1664680175815927,1.9565412010346601,,,0.5370774965580548,inf,,,0.9359879147159699
257,,0.0,0.0,1.5831543539533168,1.5507572247873385,0.8464138335675537,1.9591654260580915,1.3242297127016,,,0.40055318934786044,inf,,,0.9324160363691095
258,,0.0,0.0,1.5764627479455064,1.525607047935682,0.7313360399416103,2.579325811394787,2.030792255040768,,,0.5068466436745385,inf,,,0.9325721264982977
259,,0.0,0.0,1.6682897951356686,1.5947002962102406,0.5835524658552541,1.8120484311022713,1.5401579591242995,,,0.5068466436745385,inf,,,0.951067184005456
260,,0.0,0.0,1.6603872211376085,1.6600198447963905,0.6675882080104596,1.6892438735637259,1.442485370858286,,,0.5329562494928909,inf,,,0.9404146301937498
261,,0.0,0.0,1.7226295875214177,1.680137082425543,0.6343449013106806,1.7987019086747,1.5921096929525216,,,0.4629450596409901,inf,,,0.9368726533290408
262,,0.0,0.0,1.779045380980634,1.797464004956959,0.7154898340267527,2.7156758225394184,2.0389650802168515,,,0.5113665138247345,inf,,,0.9300239926323287
263,,0.0,0.0,1.7818867929270208,1.770192997459161,0.74962782241486,2.4010665646845384,2.591919299767978,,,0.44694259446804574,inf,,,0.8685792692084902
264,,0.0,0.0,1.6733612850803579,1.6613936771186635,0.7711003200848018,1.6909754909758463,1.00271304466921,,,0.552929491858785,inf,,,0.8298562346905128
265,,0.0,0.0,1.6566581915831295,1.6020624512129957,0.7390643963094508,1.929687089745653,1.4639473703453207,,,0.4928685327679205,inf,,,0.9490695485698631
266,,0.0,0.0,1.7080020831767753,1.6834864886706622,0.7375636569674805,2.379352231312949,2.2230772396409537,,,0.5287703885177266,inf,,,0.9503078427309369
267,,0.0,0.0,1.6879393062979262,1.6779613822422943,0.7059633517396634,2.4038116111378707,4.041159151127811,,,0.541134803179459,inf,,,0.9226234458409035
268,,0.0,0.0,1.7398588107718074,1.7152386613866055,0.609775946715236,2.273988299588115,1.8554735884271967,,,0.5113665138247345,inf,,,0.9093874959573133
269,,0.0,0.0,1.7124970482217001,1.7237433828313546,0.7809909567611536,2.2502266738943897,2.074645200948162,,,0.5068466436745385,inf,,,0.9221862381764079
270,5.7037824746562,-5.7037824746562,0.0,1.755275723037872,1.7300932697524674,0.5290744465921019,1.823426651299444,1.8845044094004062,,,0.5713653840954815,5.703782474656201,inf,,0.9236274051684308
271,,0.0,0.0,1.776866209166907,1.7749686918854612,0.7285807887317179,2.205965739526758,1.8101239386526178,,,0.4928685327679205,inf,,,0.9248528998778262
272,,0.0,0.0,1.743466008919871,1.7417701683999445,0.6780553565327723,2.40691508582412,2.08019021122071,,,0.5567373465730988,inf,,,0.9306959656991032
273,,0.0,0.0,1.646854898635272,1.6431836501399513,0.6868270625868126,2.528801410199657,4.083312333330641,,,0.48319206230712763,inf,,,0.9401959321256422
274,5.010635294096255,-5.010635294096255,0.0,1.6913524116457996,1.678787606043237,0.7256122460885996,2.6620144798507415,2.733170044525248,,,0.5641709578113449,5.0106352940962555,inf,,0.9043959017301246
275,5.703782474656203,-4.087710773503612,0.0,1.6320370423834725,1.645936609687057,0.79637996490181,2.2711908564715553,2.365766693844978,,,0.5370774965580548,6.036926921184739,inf,,0.9482793833362622
276,,0.0,0.0,1.5906578821623254,1.5450691264265073,0.8747465623928863,2.999409171034505,5.147092493626962,,,0.4302020962658841,inf,,,0.91573883861614
277,,0.0,0.0,1.565439578898782,1.5575826002344049,0.8021145828962439,2.3399400850633616,2.3841372154775655,,,0.4732203808476458,inf,,,0.938770179159196
278,,0.0,0.0,1.7056383683885754,1.6787145740081122,0.5872901942315367,1.2348254252859843,1.4315187829887315,,,0.5113665138247345,inf,,,0.9311133733455731
279,,0.0,0.0,1.6954243672992275,1.6322044042253345,0.6353551223514337,1.773307008810014,2.213587006426724,,,0.5451288209179292,inf,,,0.9442436385073917
280,,0.0,0.0,1.649752773763638,1.6483778266772664,0.48915224391914797,1.8510021256851117,1.9082866916551973,,,0.581717464821069,inf,,,0.9066848509481096
281,,0.0,0.0,1.7832773255472536,1.7676314424191981,0.6921575087932574,2.0938849640006008,1.908493870607169,,,0.5068466436745385,inf,,,0.9543460269844141
282,,0.0,0.0,1.1994917435229189,1.1601258582921254,0.7666262393046792,2.5391917387106004,2.7217457113914136,,,0.49759852643134905,inf,,,0.9472617872091488
283,,0.0,0.0,1.5749214931103865,1.5654157803188393,0.7165096593547456,2.3250577624354603,2.3568833348733578,,,0.5158180382284114,inf,,,0.9478487288942432
284,,0.0,0.0,1.559040641480966,1.5330319796686818,0.8371135511699851,2.5551378234476902,1.9849984450057545,,,0.5641709578113449,inf,,,0.9069828342129296
285,5.7037824746562,-5.7037824746562,0.0,1.4181427713559223,1.3924102768480442,0.6547082240782783,2.503758558094517,2.139069315779492,,,0.468121228110369,5.703782474656201,inf,,0.8807414181892051
286,5.7037824746562,-5.7037824746562,0.0,1.6563840128914267,1.6308763758212006,0.7174886284214343,3.779384316331962,3.26650710525638,,,0.48319206230712763,5.703782474656201,inf,,0.9488705725108761
287,5.7037824746562,-5.7037824746562,0.0,1.6099019785798325,1.5574055647468095,0.79069217972148,2.3927759548847263,1.414133158382501,,,0.468121228110369,5.703782474656201,inf,,0.9395475577243355
288,,0.0,0.0,1.7329686141433427,1.7327918097038764,0.5756300773895584,1.9300885187666597,1.426120478405827,,,0.541134803179459,inf,,,0.9095491185057921
289,,0.0,0.0,1.4552037019489454,1.4399477154923273,0.7248152321668054,2.577562722066646,1.5561755039406737,,,0.5677978065141052,inf,,,0.9469359488570678
290,,0.0,0.0,1.5595098789892694,1.5282990640867895,0.7744759902233553,2.967395429313417,5.699918261088726,,,0.5158180382284114,inf,,,0.7218002985455445
291,5.7037824746562,-5.7037824746562,0.0,1.7406773586530018,1.754522765839808,0.7643087210676763,2.2219778040132696,1.1493362320643135,,,0.5022576003740722,5.703782474656201,inf,,0.9477016234648511
292,,0.0,0.0,1.6290361596089469,1.600144728627124,0.4107079976776292,1.4308363131508839,1.965792124538812,,,0.5604843169999094,inf,,,0.944445986748862
293,,0.0,0.0,1.606887035815301,1.5661833966066216,0.7286702068221134,1.3342545955575875,1.6424366786395008,,,0.4629450596409901,inf,,,0.8864666828102508
294,,0.0,0.0,1.5093721965451363,1.508028851259909,0.7266128716984828,1.1520661505655527,1.4786135908443507,,,0.4576907132971797,inf,,,0.9105255854761295
295,,0.0,0.0,1.6133397533387264,1.5726443623871524,0.7836543087430566,1.3841803758098479,1.9989217879165921,,,0.4629450596409901,inf,,,0.8614490046549849
296,,0.0,0.0,1.508083472191228,1.4968217210516959,0.8103330869280998,1.8332220444319853,3.546124516157752,,,0.552929491858785,inf,,,0.9102771779195746
297,,0.0,0.0,1.7743670531345002,1.746485561139243,0.7291759491287675,2.053556103395721,2.869435749132395,,,0.5202020156036558,inf,,,0.8924045224005908
298,,0.0,0.0,1.3735613630299106,1.3237174659614026,0.6769082374944059,1.498585787807828,2.226985646081535,,,0.5604843169999094,inf,,,0.9173393040069758
299,,0.0,0.0,1.7051373685646651,1.6839989343477826,0.7839541141740805,1.7729171673637734,2.5189672588167293,,,0.45235697871908603,inf,,,0.9309193834214514
300,,0.0,0.0,1.7264108132442373,1.711479694871368,0.45222554176154234,1.6901599337461728,2.5499293594916903,,,0.5329562494928909,inf,,,0.9459901048065121
301,,0.0,0.0,1.6395176490703665,1.6465756482206508,0.5584311663207199,2.185989303824456,1.973980184448295,,,0.5158180382284114,inf,,,0.7746793338837881
302,,0.0,0.0,1.5172154532987818,1.5115823928605139,0.7266498658300823,1.963109211032122,1.961798762032415,,,0.5451288209179292,inf,,,0.9222075765947421
303,,0.0,0.0,1.697019128697749,1.6334276036460238,0.6499778138429002,1.8849689435568329,1.9478558562109631,,,0.5490601803369085,inf,,,0.9448948859711457
304,,0.0,0.0,1.4744481967751482,1.4473268958356635,0.7746024536559523,2.0405334204846546,2.4093029806693513,,,0.5287703885177266,inf,,,0.9331999574594316
305,,0.0,0.0,1.6775911090324465,1.6495556483120666,0.8446535530158872,1.949496314528139,2.128974235338528,,,0.4928685327679205,inf,,,0.9296811202894166
306,,0.0,0.0,1.4123197790552386,1.393326377049736,0.7031208601333064,2.41632951014547,1.8380220000411152,,,0.48319206230712763,inf,,,0.9446204271123937
307,,0.0,0.0,1.6550912854292155,1.6462538437882839,0.657114746511813,2.552074074145453,2.9500873232426996,,,0.45235697871908603,inf,,,0.9267987186887917
308,5.703782474656202,-0.3612395567282261,0.0,1.4401330625179214,1.4121363251250885,0.754659704350283,2.105894694221978,0.923450620476864,,,0.44694259446804574,8.463125970145962,inf,,0.9338401207281481
309,5.7037824746562,-5.7037824746562,0.0,1.6200804813342817,1.593186820985024,0.7776675884124964,2.198837537756064,1.635970253156827,,,0.4576907132971797,5.703782474656201,inf,,0.944971141646185
310,,0.0,0.0,1.53865186128712,1.525210544184709,0.5918882302254543,2.4553183936721252,1.8129288020843397,,,0.5604843169999094,inf,,,0.9222179780198813
311,,0.0,0.0,1.724254504634319,1.7240765824227617,0.7980083853884593,2.293565551286422,1.1270866439797156,,,0.49759852643134905,inf,,,0.9515114175874432
312,,0.0,0.0,1.4187477728448232,1.3248258584799468,0.6757376169653191,1.5500940564943566,0.7749656930979005,,,0.4732203808476458,inf,,,0.8600953051322888
313,5.060901692686479,-4.419854144946192,0.0,1.671705812292153,1.6730951532326077,0.7941775098437281,2.7726009031868193,2.3373649052399927,,,0.5287703885177266,5.1830065200370425,inf,,0.8513745165305421
314,,0.0,0.0,1.4889729338498185,1.4930102397073424,0.6899977133921416,2.7123164198510943,2.032522530703176,,,0.5641709578113449,inf,,,0.9414119808021734
315,5.703782474656201,-3.13708036106091,0.0,1.6134018879436007,1.5658694622099028,0.7191307644848844,2.0711372548073026,1.6464320365750105,,,0.5329562494928909,6.3016194754118215,inf,,0.9250658351227874
316,5.7037824746562,-5.7037824746562,0.0,1.6281571173964289,1.6161133142875252,0.765465830284653,2.7269755306862766,1.8840823550756118,,,0.5370774965580548,5.703782474656201,inf,,0.9321694695001951
317,5.6991614934524675,-2.8495807467262337,0.0,1.608356247963461,1.5324406012839498,0.7482658505767811,2.1581044272310432,2.118109025753739,,,0.4880666971167561,6.3902851124974775,inf,,0.9393018070686369
318,,0.0,0.0,1.4490785632631806,1.3570103225005556,0.7764265038603063,2.0034352364225594,1.1968975615427433,,,0.48319206230712763,inf,,,0.9333662757306946
319,,0.0,0.0,1.5947126812240042,1.5694840830169,0.8360124076599781,2.4976943702670256,1.2398834408825654,,,0.5329562494928909,inf,,,0.9471175359499383
320,,0.0,0.0,1.374197967611375,1.3678974317834451,0.5958193006055023,2.3230229662240194,1.7716017513659605,,,0.5202020156036558,inf,,,0.9550019796630747
321,,0.0,0.0,1.6578194779154982,1.640671115173008,0.6124436326558783,1.6155907265826615,1.3844026535733482,,,0.4880666971167561,inf,,,0.9466988587030427
322,,0.0,0.0,1.7346785181542663,1.7097341384448208,0.4982318278985428,2.1898447887597006,1.7554795207128517,,,0.47824363442641393,inf,,,0.7275820613199936
323,,0.0,0.0,1.588185049392149,1.6041560525493552,0.725360538955302,2.081882016976494,2.31263151826477,,,0.4629450596409901,inf,,,0.9353147001775816
324,,0.0,0.0,1.7228974691104928,1.7010659473776044,0.7804887711863578,2.45584989903062,3.424416849008554,,,0.45235697871908603,inf,,,0.9268055981402619
325,,0.0,0.0,1.6624477108999094,1.6560096212150648,0.6365542150025535,1.9426955578632696,2.6085849261896055,,,0.4880666971167561,inf,,,0.9341315216015562
326,,0.0,0.0,1.638741888588525,1.615280046805281,0.6457896587089468,2.060197514116466,3.3278476816519946,,,0.5158180382284114,inf,,,0.9293292096534531
327,,0.0,0.0,1.6693215976543385,1.6577586094019168,0.7455452019779611,2.316242270658294,2.91752393046674,,,0.468121228110369,inf,,,0.9433909871569284
328,,0.0,0.0,1.6346354677509436,1.5861829294951917,0.8138600471933082,2.581227039691168,3.139130106856251,,,0.5677978065141052,inf,,,0.9419099218704534
329,,0.0,0.0,1.616391948855444,1.5550396804408702,0.8229941768010043,1.8705734169303285,1.442816679592951,,,0.5490601803369085,inf,,,0.9469749070136416
330,,0.0,0.0,1.6059668323067318,1.5755663819721695,0.7262020278153841,2.3600056288463738,2.0189704910684236,,,0.47824363442641393,inf,,,0.947020700621949
331,,0.0,0.0,1.7423142649517513,1.721468242071947,0.7848243131953632,2.129967238825934,2.408762449506382,,,0.5451288209179292,inf,,,0.9446811909125656
332,,0.0,0.0,1.436097559092483,1.4415361913314322,0.778359266143953,2.823782321232066,4.032420228494766,,,0.5451288209179292,inf,,,0.9462433260770726
333,,0.0,0.0,1.5623694711780933,1.5564154339152738,0.7634587259086045,3.017563805522324,3.4043190696585923,,,0.41861278947482794,inf,,,0.9397300333368566
334,,0.0,0.0,1.5951142590820189,1.575966322580426,0.6502184914903999,3.648330603431016,4.568532764932862,,,0.5202020156036558,inf,,,0.9391992532077877
335,,0.0,0.0,1.6461751654143706,1.629432299813725,0.7825201521526995,2.6936426377288587,1.9123274433571487,,,0.585052858160615,inf,,,0.9215491860092309
336,,0.0,0.0,1.7218139192855522,1.6983588238607272,0.6821787159369073,3.0568087257173864,3.02989545827278,,,0.5113665138247345,inf,,,0.935172220429847
337,,0.0,0.0,1.2641539509983974,1.2250124904846256,0.8092044975144278,2.8125287873566576,2.7180882148325427,,,0.5370774965580548,inf,,,0.8975694176060954
338,,0.0,0.0,1.5676624431509383,1.5487401341140354,0.6352895603118605,2.4158542205432285,1.7672016790599852,,,0.41268473150466,inf,,,0.9302389362278606
339,,0.0,0.0,1.7484636516464163,1.6921568962013749,0.7708836921334684,2.6765410209134206,1.6791468952393367,,,0.5567373465730988,inf,,,0.9429727012370431
340,,0.0,0.0,1.352082430489623,1.3239041278824555,0.7359478922514412,3.052134582636184,6.691635242059414,,,0.5022576003740722,inf,,,0.9476407866902986
341,,0.0,0.0,1.6626986632042726,1.5856952157035276,0.6247676648011466,2.772389084249106,1.5024976658966707,,,0.48319206230712763,inf,,,0.9291034693256397
342,,0.0,0.0,1.670683789024774,1.6604735902365027,0.6408562581836567,2.6095309761550247,2.481747621789494,,,0.4880666971167561,inf,,,0.9254067541154017
343,,0.0,0.0,1.6669724418252618,1.6156922964429663,0.9166620187204608,2.905189188550217,1.9491901555672002,,,0.5713653840954815,inf,,,0.8430324160192791
344,,0.0,0.0,1.5024757334981715,1.455593017896476,0.6608829364020551,2.995224559995428,4.228556953262784,,,0.541134803179459,inf,,,0.9261158718623016
345,,0.0,0.0,1.489891089895889,1.4756133999407397,0.7297610510507575,2.8494582558849393,2.4511349793156336,,,0.5202020156036558,inf,,,0.9398327906748732
346,,0.0,0.0,1.7806166046222045,1.7556880563166128,0.7838622487579895,2.759405367130117,2.990209191432245,,,0.6008849035917525,inf,,,0.8730000182949302
347,,0.0,0.0,1.6944682294077609,1.6788772246097055,0.8562642092710773,2.830676556548411,3.254779620117585,,,0.5370774965580548,inf,,,0.8693999996612386
348,,0.0,0.0,1.5691887970500287,1.5547383302303481,0.7715584390006673,3.1003966375321164,5.621895700015835,,,0.541134803179459,inf,,,0.9101041829787423
349,,0.0,0.0,1.493692779279937,1.4923074399621978,0.833324321747352,2.672355282534097,5.4491121363850406,,,0.5451288209179292,inf,,,0.8949819475535988
350,,0.0,0.0,1.6449504998119184,1.5893813757120283,0.9173694615127124,3.0586129072672024,2.5665452320489934,,,0.552929491858785,inf,,,0.9237350966994692
351,,0.0,0.0,1.3883383869033294,1.3587494077386455,0.8154125765492247,3.202020371051814,2.6726012218830597,,,0.5604843169999094,inf,,,0.9393797009487941
352,,0.0,0.0,1.4555384801017208,1.3717622143698716,0.7364609478097949,1.8034662787448807,1.216980608183156,,,0.4928685327679205,inf,,,0.8933495349459976
353,5.703782474656198,-1.0266808454381158,0.0,1.6311536522395982,1.6084687178124002,0.8046826820764148,2.421613633622656,1.5481825926634118,,,0.44694259446804574,7.418580902748128,inf,,0.9271751511608088
354,,0.0,0.0,1.6385633577963585,1.627366482408098,0.7218103585100333,2.239875898186515,1.2045833760603277,,,0.5068466436745385,inf,,,0.9317302924913307
355,,0.0,0.0,1.6789913556676477,1.6441558745275613,0.8590617566405633,2.6266166315434925,1.8889272241585298,,,0.524519217297268,inf,,,0.8887297512408676
356,,0.0,0.0,1.6731926653891225,1.6452916350250137,0.758743209371588,2.5810184710445947,2.4261939137369284,,,0.5158180382284114,inf,,,0.9217901738002862
357,,0.0,0.0,1.4638811796162012,1.4382185707283064,0.6466867912728858,2.5635489081418954,2.14260880372338,,,0.4302020962658841,inf,,,0.9501715074367475
358,,0.0,0.0,1.7144129077994965,1.676540636888262,0.6963179417339617,2.583201647117129,2.5800966601510873,,,0.5287703885177266,inf,,,0.9344944869229307
359,,0.0,0.0,1.6740985775291652,1.6699990344657183,0.7532492942630894,3.10345734335501,3.5593564920018137,,,0.5068466436745385,inf,,,0.9193157184385752
360,,0.0,0.0,1.4575440780964932,1.4469827941002802,0.7919625447322262,2.6821921884599256,2.9916028339404943,,,0.552929491858785,inf,,,0.8880937117258852
361,,0.0,0.0,1.6088512744410208,1.5789489353779067,0.7837955461445271,3.0920947744129923,3.0760083170822194,,,0.4928685327679205,inf,,,0.8983959156522834
362,,0.0,0.0,1.1324336269653432,1.0924999076775792,0.7046324084548352,3.1144079843928725,2.3227876324769525,,,0.45235697871908603,inf,,,0.9246793585653298
363,,0.0,0.0,1.4705192835981695,1.4291745562530116,0.7804222046126716,2.6536749435378835,2.233301907967762,,,0.4928685327679205,inf,,,0.9131683751045825
364,,0.0,0.0,1.7495310408330669,1.7382728896808333,0.7179687551840377,1.8657072081223995,0.7791406004854429,,,0.5068466436745385,inf,,,0.9114817843211256
365,,0.0,0.0,1.665658703495998,1.6447229892840123,0.6864602372309407,3.0161452040618415,2.009618496420657,,,0.524519217297268,inf,,,0.9095343503322844
366,,0.0,0.0,1.7565453148072945,1.7249792865449274,0.8933014323460088,3.7415422639249973,2.5522338366317356,,,0.4629450596409901,inf,,,0.8563420579543702
367,,0.0,0.0,1.6468836716694855,1.6669623683363668,0.7713748661161968,2.61922507545425,2.670480292069368,,,0.44144624493110796,inf,,,0.9486120918266066
368,,0.0,0.0,1.7325503531176774,1.7234813973823528,0.7469316387109661,2.8006928019374855,4.54517699951237,,,0.5022576003740722,inf,,,0.9472260885191583
369,,0.0,0.0,1.739313673788928,1.7598675781407107,0.59573731842981,2.6830641973848643,2.4409518847432627,,,0.4732203808476458,inf,,,0.9457639183748887
370,5.703782474656201,-3.5363451342868446,0.0,1.3898105042238185,1.272570220689309,0.5020034129793918,2.5655480556293377,1.539124076290609,,,0.5370774965580548,6.181818275599201,inf,,0.6238427586823007
371,,0.0,0.0,1.5473387083740962,1.524273765666339,0.9235835655424388,2.4639549130546587,3.2503666244182585,,,0.49759852643134905,inf,,,0.8497086018121199
372,,0.0,0.0,1.7001445062420857,1.6868366436778335,0.781106004570886,2.453500653617047,2.537106119306592,,,0.524519217297268,inf,,,0.918565053975048
373,,0.0,0.0,1.7138618129553032,1.6898904881694699,0.8030564088125569,2.560051000196022,2.7363654816223635,,,0.468121228110369,inf,,,0.9356764271235067
374,,0.0,0.0,1.7750040311412376,1.7553212793086181,0.8524723023326501,2.1079544529424075,1.9735142471248102,,,0.4302020962658841,inf,,,0.9247164595992587
375,,0.0,0.0,1.6009680848088124,1.5806414121842831,0.7702744635054347,2.1090061771510253,2.134745702786078,,,0.5202020156036558,inf,,,0.9391751300343255
376,,0.0,0.0,1.6818827751322485,1.6786495228532707,0.78020606043199,1.844366486597228,1.728737709013375,,,0.45235697871908603,inf,,,0.9322858640233187
377,,0.0,0.0,1.6741393160037599,1.6588423022002716,0.8712423357862161,2.4587964111347156,3.1736140164005775,,,0.468121228110369,inf,,,0.926860311252572
378,,0.0,0.0,1.5562884053355028,1.550579343938521,0.5114874413943522,2.7277858424167665,4.450087219830823,,,0.468121228110369,inf,,,0.9350371916883382
379,,0.0,0.0,1.6727914291449313,1.6451190549843713,0.7598132014379227,2.8561278744664302,3.2737516074000808,,,0.5490601803369085,inf,,,0.9066233738203199
380,,0.0,0.0,1.7463816316225103,1.728188036469708,0.9368123081380287,3.30322388322613,14.156513997221431,,,0.524519217297268,inf,,,0.8921025426251143
381,,0.0,0.0,1.6129087727040439,1.567774050451177,0.9325224668886166,2.6039725908726314,16.626849622052067,,,0.5068466436745385,inf,,,0.9053451679163841
382,,0.0,0.0,1.3063862631780367,1.276510000031121,0.8187607304651904,2.874476229213917,17.03862203614392,,,0.5329562494928909,inf,,,0.9150065448120442
383,,0.0,0.0,1.5215015135609675,1.4730805584754336,0.7554685742905263,3.0943004938077467,5.290477534193704,,,0.4629450596409901,inf,,,0.8997978201893911
384,,0.0,0.0,1.6634186804757622,1.64832124143772,0.5045809137950311,2.2378458808794184,1.3536017427736153,,,0.5641709578113449,inf,,,0.9361391156173723
385,,0.0,0.0,1.6674304893735885,1.6791999456377147,0.6099194187242042,2.1368489970880042,1.3707988987900044,,,0.524519217297268,inf,,,0.9240745034961987
386,,0.0,0.0,1.660496824266203,1.6408713066111602,0.8308639653692216,2.230634409756993,1.8972879989866338,,,0.5451288209179292,inf,,,0.94495964569414
387,,0.0,0.0,1.5044803419782022,1.4897944172322677,0.7319658879073898,2.008596412069612,1.188206401677471,,,0.5068466436745385,inf,,,0.9375286953483912
388,,0.0,0.0,1.6318851189918815,1.6202810604608546,0.7494247209243469,2.287031089103835,2.1297157109730662,,,0.47824363442641393,inf,,,0.9500727827518195
389,,0.0,0.0,1.676044476889934,1.6630170817929901,0.8360143753664908,2.054507953790318,2.7277973757018232,,,0.5113665138247345,inf,,,0.8777685850514904
390,,0.0,0.0,1.5299775067222763,1.509473754948821,0.7287024795623533,2.477848644499146,2.178246167306395,,,0.48319206230712763,inf,,,0.9031974864982647
391,,0.0,0.0,1.7263458885827467,1.6833351105724026,0.8477624495841103,2.64775184759093,2.7633660663195894,,,0.5113665138247345,inf,,,0.9415043978243102
392,,0.0,0.0,1.6971504363758076,1.6771201288992914,0.7608028260404839,2.1990214588296815,2.818662559591675,,,0.5329562494928909,inf,,,0.9238232568711199
393,,0.0,0.0,0.08467349851939517,0.06297444820379425,0.7164614089028235,2.3314577662764076,2.450122865916728,,,0.22807408875533447,inf,,,0.9524370574396924
394,,0.0,0.0,1.6150050886904532,1.6026422618734228,0.7023597330574504,3.1148145501005793,2.3651150883972867,,,0.43586655696697996,inf,,,0.9376836078107158
395,,0.0,0.0,1.6016022975521185,1.609157506088948,0.6287805710935954,3.136206007517526,6.915083537625913,,,0.47824363442641393,inf,,,0.9046296861038922
396,5.7037824746562,-5.7037824746562,0.0,0.04466961139416602,0.04307177814265325,0.6732761726989989,1.6178617456736721,0.25975050049974824,,,0.22807408875533447,5.703782474656201,inf,,0.9525214626978296
397,,0.0,0.0,0.04466961139416602,0.039090484395081525,0.6473621117822315,0.25690225597786864,0.1782490755958802,,,0.22807408875533447,inf,,,0.9427947308600104
398,,0.0,0.0,0.10060391803536385,0.07592488982100687,0.11649971176949457,0.5556006035231257,0.267166551059396,,,0.4880666971167561,inf,,,0.7084222674354137
399,5.703782474656201,-5.1524168354394355,0.0,1.5756607313323927,1.381972092612414,0.6115055059866125,1.2274161495877778,1.0673094309890785,,,0.5567373465730988,5.805446128432701,inf,,0.6247612867515739
400,,0.0,0.0,1.6815338088356717,1.6594228275991698,0.5625728927939819,0.9207257758200362,0.9970061472283739,,,0.49759852643134905,inf,,,0.9461227051495421
401,,0.0,0.0,1.639606587572659,1.645967539252644,0.7929863335118337,0.9648282544935121,1.2202092093829018,,,0.5329562494928909,inf,,,0.9143450450222549
402,,0.0,0.0,1.696003751907547,1.6805669067612954,0.9622591245837292,0.8564502810973953,1.0452106958324263,,,0.3685265678147087,inf,,,0.8869775924362645
403,,0.0,0.0,1.3713430124332737,1.3527323383246666,0.7991331247820963,0.889566898444489,1.0354895575030465,,,0.5202020156036558,inf,,,0.8993300357196993
404,,0.0,0.0,1.6547383452080018,1.6199657547498711,0.9502164678892322,0.7853733318126943,0.9163487783234566,,,0.5158180382284114,inf,,,0.8861512719655952
405,,0.0,0.0,1.574674552047515,1.524592072698845,0.9496662402404777,0.7421544668200927,0.9245593355320066,,,0.4302020962658841,inf,,,0.8706338343924854
406,,0.0,0.0,1.6250062995555667,1.6130218146428386,0.9194001154813651,0.6866880287972177,0.8630820556676276,,,0.5113665138247345,inf,,,0.8818567305342726
407,,0.0,0.0,1.4123773720115531,1.4164712959670627,0.9430334614893244,0.510302020380424,0.7234386863714545,,,0.4576907132971797,inf,,,0.8697863921418976
408,,0.0,0.0,1.2633024230058632,1.266704012336077,0.8968368121191442,0.5341630303165038,0.6878189097643435,,,0.4629450596409901,inf,,,0.8669931960672647
409,,0.0,0.0,1.473903956602358,1.4923460125849288,0.5000109263105492,0.5557544340205962,0.5218870201009536,,,0.45235697871908603,inf,,,0.9100265423901661
410,,0.0,0.0,1.6529960584723893,1.6596791974655944,0.5242252683279797,0.5531058200412097,0.6153731112053443,,,0.4066654671944331,inf,,,0.9166164958062747
411,,0.0,0.0,1.4954038095338402,1.4443602706491023,0.7254772964290718,0.6432535314895184,0.6374998143532485,,,0.5287703885177266,inf,,,0.8989496349294418
412,,0.0,0.0,1.5263627275609704,1.5312626395332547,0.8588422560544918,0.5390159102095173,0.5733304129291628,,,0.34100769111774265,inf,,,0.9092374694681363
413,,0.0,0.0,1.531086494778583,1.51893080614506,0.8550840018079364,0.513245100563676,0.5869471793168729,,,0.4302020962658841,inf,,,0.9082509348776383
414,5.7037824746562,-5.7037824746562,0.0,1.1752611149703687,1.1295777014201311,0.4444138980196792,1.27366954377424,1.018554105152304,,,0.41861278947482794,5.703782474656201,inf,,0.7134491542702531
415,,0.0,0.0,1.7382897426100634,1.7139597007521348,0.9214033594355014,1.5019719009045114,1.9494007609111461,,,0.44694259446804574,inf,,,0.8807696341115167
416,,0.0,0.0,1.378777159719315,1.3681858777556895,0.9132158621934114,1.5418241034708688,1.9797672097108605,,,0.49759852643134905,inf,,,0.9129571871032687
417,,0.0,0.0,1.5726542138553188,1.5659276290746211,0.9222985491569698,1.2964176420097109,1.734558377511983,,,0.47824363442641393,inf,,,0.88364517120842
418,,0.0,0.0,1.4131574784104841,1.4059711540868516,0.8986754618280162,1.3883197095601116,1.4046879810438786,,,0.41861278947482794,inf,,,0.8447319785759865
419,,0.0,0.0,1.467650837112652,1.4495015177818649,0.7957613115918509,1.247094624674534,1.6127571879285307,,,0.4732203808476458,inf,,,0.8487753789977156
420,,0.0,0.0,1.7011992360328283,1.6756862044298788,0.9404497691727486,1.3281109233807513,1.4615679049762134,,,0.47824363442641393,inf,,,0.8534363104990261
421,,0.0,0.0,1.535937378573106,1.522785853862171,0.899307927725754,1.194577303084146,1.3501935396122533,,,0.5068466436745385,inf,,,0.8364496726451922
422,,0.0,0.0,1.3105809330645386,1.2987969751286041,0.8963030638217254,1.4968851225284057,1.8102819043384122,,,0.41861278947482794,inf,,,0.8717106277756952
423,,0.0,0.0,1.5844539460150384,1.5907247757684737,0.8700358139481312,1.3834286358959709,1.802453640092337,,,0.468121228110369,inf,,,0.8735209468223003
424,,0.0,0.0,1.579595748266178,1.5696523016146338,0.9135662584722564,1.2791757121803715,1.31900415607726,,,0.4302020962658841,inf,,,0.8889038095309685
425,,0.0,0.0,1.4686378544321201,1.4430481813043239,0.9515801528029871,1.3793699179524137,1.6691992180417872,,,0.40055318934786044,inf,,,0.9109141120298114
426,,0.0,0.0,1.4238898511359688,1.426146392185145,0.7662649269259958,1.1516385423110813,1.1669302866884341,,,0.49759852643134905,inf,,,0.8993833220343893
427,,0.0,0.0,1.7184807039421908,1.6689266922386345,0.8960022600162757,1.0744512927045113,1.0864790335601213,,,0.43586655696697996,inf,,,0.8855351476405723
428,,0.0,0.0,1.563247526993106,1.5255069927100267,0.896580946174392,1.2131196132814972,1.2737248386123758,,,0.5202020156036558,inf,,,0.9284571343295692
429,,0.0,0.0,1.5786385558434424,1.5052874924809796,0.763043406281181,1.1096955221098435,1.1168109796546937,,,0.47824363442641393,inf,,,0.8565399599699077
430,,0.0,0.0,1.6868222426985324,1.6868167399398346,0.665701815853959,1.1823346975807654,1.3209375658373776,,,0.4928685327679205,inf,,,0.8626878465623683
431,,0.0,0.0,1.1601564149054258,1.1139070915347973,0.6661706853381388,1.638536563083862,1.3716536530465482,,,0.4732203808476458,inf,,,0.9320956902633041
432,5.7037824746562,-5.7037824746562,0.0,1.7135428796829355,1.7284694530348026,0.3807582016976682,1.6494010082611452,1.5861570311643185,,,0.5068466436745385,5.703782474656201,inf,,0.9139561450994922
433,,0.0,0.0,1.4723388864358484,1.4460128063590192,0.9673484020753969,1.5950923146156977,1.9241519817379824,,,0.49759852643134905,inf,,,0.875410960727129
434,,0.0,0.0,1.5042754411954968,1.495705064100286,0.8296572716029628,2.339799409880465,2.9325089377718334,,,0.4928685327679205,inf,,,0.8878532813232949
435,,0.0,0.0,1.7191439931557504,1.688860017695753,0.9663069839737893,2.8714210412725185,6.102244671140463,,,0.5022576003740722,inf,,,0.8817002422525239
436,,0.0,0.0,1.5188795550453902,1.4811043386289233,0.9591078909118963,2.4857880596967177,3.172790860027465,,,0.468121228110369,inf,,,0.8955343177124362
437,,0.0,0.0,1.463535748642389,1.4238619166166042,0.954385440473621,2.5621848367821087,2.5160713026887915,,,0.4066654671944331,inf,,,0.8905291992852362
438,,0.0,0.0,1.535401715520632,1.4910647916233453,0.979499871643014,2.585513627608847,3.783453935049044,,,0.48319206230712763,inf,,,0.8940041272894446
439,,0.0,0.0,1.5802320334595694,1.5351677650039606,0.9790556565092512,2.17485584842136,2.2754278601660562,,,0.4732203808476458,inf,,,0.8471165833708718
440,5.7037824746562,-5.7037824746562,0.0,1.3781690821784247,1.3471279924370787,0.5542325853953275,1.9057504056386243,1.7031377337410707,,,0.5113665138247345,5.703782474656201,inf,,0.6009212311651057
441,5.015256275299987,-5.015256275299987,0.0,1.0260336486107522,0.9728465916008175,0.4995925604400075,1.7131753356406796,1.5533748447307238,,,0.42445136339222655,5.0139741953617705,inf,,0.8665022890948091
442,,0.0,0.0,1.586407850611172,1.5630019159186872,0.8672191093072348,1.399188067199048,1.777490405235089,,,0.41268473150466,inf,,,0.8279033716135826
443,,0.0,0.0,1.639711086202773,1.6027162653616291,0.5845343631127856,1.0688365371358115,1.3843069389998404,,,0.38804190201132227,inf,,,0.8817817542839262
444,,0.0,0.0,1.127014206831268,1.0793301644922446,0.5780105060169967,1.2985206262306266,1.4610607558485815,,,0.42445136339222655,inf,,,0.8947323369497858
445,,0.0,0.0,1.5324234415435707,1.5322456168537277,0.957503928442522,1.1987550719869384,1.3359974031985213,,,0.5202020156036558,inf,,,0.8451515854642533
446,,0.0,0.0,1.7304764576707306,1.726510352899068,0.6032388092470498,1.1637182763396532,1.1298025652385475,,,0.42445136339222655,inf,,,0.8973241146081388
447,,0.0,0.0,1.6379514040506318,1.600889799484758,0.7381930320251411,1.3538572915766691,1.6110167891632476,,,0.48319206230712763,inf,,,0.8790491390408666
448,,0.0,0.0,1.4073016791155062,1.3938993970521851,0.808403026061027,1.2573657197738926,1.4083109326194758,,,0.3685265678147087,inf,,,0.9212655612641636
449,5.7037824746562,-5.7037824746562,0.0,1.1503323562213588,1.1120439362730112,0.5366130987466367,1.6016911478844307,1.2938478741818316,,,0.4880666971167561,5.703782474656201,inf,,0.821353466213386
450,,0.0,0.0,1.535887858227878,1.5012692317672802,0.9295336805253707,1.4189501410448837,1.6409583394333023,,,0.5329562494928909,inf,,,0.888181492164732
451,,0.0,0.0,1.7645242013639808,1.7396170730840739,0.8082354699041604,1.3202846335789717,1.7913191732636788,,,0.44144624493110796,inf,,,0.9016288451520079
452,,0.0,0.0,1.64710665925818,1.6074991923006465,0.781752862803119,1.027645461682967,1.153185201421615,,,0.41268473150466,inf,,,0.9320355623829559
453,,0.0,0.0,1.6568825344062856,1.6412730444275057,0.7114851230277669,1.0534396919274929,1.329762129925058,,,0.5113665138247345,inf,,,0.927038526729304
454,,0.0,0.0,1.5579780431133408,1.544561767090715,0.6874992750172935,1.2323990500480644,1.155217061894251,,,0.5202020156036558,inf,,,0.8859284353112181
455,,0.0,0.0,1.2162422968485247,1.2035336912513444,0.7488203710060863,1.2198280231577292,1.3275416887198994,,,0.4629450596409901,inf,,,0.8946421086338381
456,,0.0,0.0,1.5684190366982196,1.5655163115023798,0.9171766345445237,1.4398008675675669,1.673244221563486,,,0.44144624493110796,inf,,,0.9146480178277426
457,,0.0,0.0,1.582245441651133,1.5409228793321,0.9184730176364215,1.4492048019376467,1.6185627164315417,,,0.4302020962658841,inf,,,0.8913367367197166
458,,0.0,0.0,1.7522006672593675,1.6468080614196343,0.7631600603642916,1.1752008992409169,1.2854103733555466,,,0.468121228110369,inf,,,0.9033324268925385
459,,0.0,0.0,1.7129994907773454,1.6676791976047953,0.8472003892285035,1.2516395401254492,1.4216824078554444,,,0.541134803179459,inf,,,0.882226153453278
460,,0.0,0.0,1.5614367258874373,1.5078203240427128,0.8067309290254231,1.6599029653550315,2.0094059024880178,,,0.4880666971167561,inf,,,0.8986223973877968
461,,0.0,0.0,1.7524637374776069,1.7093993199215531,0.9159433093316252,1.7346155792602143,2.2429591261073787,,,0.4880666971167561,inf,,,0.8588965644263784
462,,0.0,0.0,1.6347306958470842,1.616791274521127,0.9168668219440345,1.8104574336534098,1.9324276867252792,,,0.41268473150466,inf,,,0.8266805542673964
463,,0.0,0.0,1.4490056304484866,1.4445765134300221,0.7169208587099549,1.6278724000130265,1.6667704500946512,,,0.468121228110369,inf,,,0.654295104535902
464,,0.0,0.0,1.7036802221162122,1.6763748613106242,0.8491117364822347,1.7542698630969649,1.8522919563866314,,,0.40055318934786044,inf,,,0.9113252939407094
465,,0.0,0.0,1.3830947165854026,1.3589213042734118,0.552151166627071,1.4925979996808716,1.837351278946626,,,0.4880666971167561,inf,,,0.6180524999964416
466,,0.0,0.0,1.5487939412968177,1.5174147692654416,0.8888691816046062,1.6763576604906771,2.1054387528996994,,,0.4302020962658841,inf,,,0.8783369965079196
467,,0.0,0.0,1.5567045859229631,1.517872830325043,0.9452584742094406,1.6763439100976067,2.38413229440782,,,0.4732203808476458,inf,,,0.8405092975291982
468,,0.0,0.0,1.5179869220436055,1.5023273950632527,0.6956829048511939,1.7140487174727295,2.1938272597867225,,,0.48319206230712763,inf,,,0.8676740264634536
469,,0.0,0.0,1.3688366326787025,1.3428963326565304,0.6607207399156617,1.4392849028961432,1.6704549214854778,,,0.40055318934786044,inf,,,0.7266294673765498
470,5.02680872830932,-5.02680872830932,0.0,1.629476325833158,1.537305302646864,0.5654439599961939,1.470513149344547,1.468984767091998,,,0.4928685327679205,5.022370550314677,inf,,0.8037463389071808
471,,0.0,0.0,1.551174454388582,1.5526750258160407,0.8795768755321199,1.0292764442621807,1.3074405974906638,,,0.45235697871908603,inf,,,0.8314119934910629
472,,0.0,0.0,1.7540589422819481,1.7238597327141885,0.4240597282416636,1.0489943997336435,1.180419124108937,,,0.5287703885177266,inf,,,0.8970499513814132
473,,0.0,0.0,1.5791969678606037,1.5628010150459457,0.7806449403938146,1.319533139126114,1.381089301760105,,,0.5329562494928909,inf,,,0.8703397667098806
474,,0.0,0.0,1.5964920729349399,1.53595525168537,0.8554388457233124,1.4029964427279906,1.6819641015448632,,,0.5022576003740722,inf,,,0.8958251409178435
475,,0.0,0.0,1.564686998778879,1.5584060007836393,0.6109393453412273,1.4144242550046355,1.506137279424183,,,0.524519217297268,inf,,,0.8648934858403879
476,5.7037824746562,-5.7037824746562,0.0,1.7139803811555694,1.6815085069902815,0.6497738745667054,1.9462668449338216,1.6796965040316862,,,0.47824363442641393,5.703782474656201,inf,,0.8129239787927159
477,,0.0,0.0,1.5479533241920778,1.5378583636975898,0.8582210025378667,1.2109925482073287,1.6714455953247074,,,0.4732203808476458,inf,,,0.859991969282572
478,,0.0,0.0,1.737586402443449,1.7011909464723611,0.5912125342477167,1.236019142789862,1.2908336492416124,,,0.4732203808476458,inf,,,0.590466367659604
479,,0.0,0.0,1.408891663987011,1.4050871899984076,0.7599748119345838,1.7410725872617765,1.909821488759976,,,0.5068466436745385,inf,,,0.9031562046254042
480,,0.0,0.0,1.6481360057268977,1.6574617345472795,0.8464761585493483,1.6378688884564048,1.9021483025948056,,,0.43586655696697996,inf,,,0.8873112807594868
481,,0.0,0.0,1.4512341992699636,1.44900442722474,0.8839769147898918,1.7149753122934392,1.7165031159138258,,,0.44694259446804574,inf,,,0.8881359616554412
482,,0.0,0.0,1.6644202675947848,1.6366717226662812,0.9057275214640736,1.6229092778275545,2.0295387401551177,,,0.44694259446804574,inf,,,0.8738753494332967
483,,0.0,0.0,1.4295244023098115,1.3981502578664635,0.523765794577119,1.3861383890282895,1.292603480844861,,,0.4732203808476458,inf,,,0.7239475825180471
484,,0.0,0.0,1.3523947431474739,1.3527031993229937,0.5561835008598126,1.2728096670558517,1.3479454557505004,,,0.468121228110369,inf,,,0.9036613499266998
485,,0.0,0.0,1.7181833525655796,1.7038021859480468,0.8235349623171606,1.0352850040639463,1.2859454670485988,,,0.44144624493110796,inf,,,0.8508056940726034
486,,0.0,0.0,1.543755031554684,1.5415332285221492,0.9004183933294584,1.0451064736054214,1.4695389159724142,,,0.4880666971167561,inf,,,0.8617499441184957
487,,0.0,0.0,1.5092041449803861,1.5031313081731552,0.3667596875624666,1.0998069914455488,1.2129669340063465,,,0.4880666971167561,inf,,,0.9461811984662855
488,,0.0,0.0,1.714914700249075,1.6718497268465113,0.8827208285902799,1.1999313922615482,1.4314585340072072,,,0.47824363442641393,inf,,,0.9095184239557481
489,,0.0,0.0,1.5123833760546155,1.4989661643044723,0.8671588033166686,1.1716994957296913,1.2110718112510315,,,0.47824363442641393,inf,,,0.9087791982136293
490,,0.0,0.0,1.2852694436439636,1.2706249406948944,0.7342494301519722,1.6343778789909356,2.00390272025785,,,0.5022576003740722,inf,,,0.6447651511654584
491,,0.0,0.0,1.2066957337226774,1.1596825062290423,0.4161373079977323,1.6623119526813621,1.581739805599862,,,0.40055318934786044,inf,,,0.863207143282976
492,,0.0,0.0,1.7239944032551022,1.720942205929153,0.6531322027497,1.0385384491190792,1.2588401665049036,,,0.4928685327679205,inf,,,0.8785293290426988
493,,0.0,0.0,1.654112431996962,1.5896289700733592,0.7936541757188061,0.8411089988568201,0.8798033908535671,,,0.43586655696697996,inf,,,0.8918078887210203
494,,0.0,0.0,1.6742449151792769,1.6606737547916368,0.5548564330551355,0.5614883733399444,0.6636654415564385,,,0.5287703885177266,inf,,,0.898380508299498
495,,0.0,0.0,1.5193303191393592,1.4979136432272977,0.5414972640456285,0.8927710417031046,1.0102505925840997,,,0.5068466436745385,inf,,,0.9279555302081387
496,,0.0,0.0,1.7182939337805117,1.7242256829215412,0.7901135244887715,0.770171581871021,0.9021879522602579,,,0.4880666971167561,inf,,,0.892760054030418
497,,0.0,0.0,1.6985207678232204,1.6699118086078972,0.5601536154369007,1.5193424868871606,1.2837250029313279,,,0.47824363442641393,inf,,,0.7563253560117226
498,,0.0,0.0,1.5714510105016024,1.500789956804932,0.6358598148768134,1.9801041123401688,1.5299008833691181,,,0.5068466436745385,inf,,,0.8691887071828721
499,,0.0,0.0,1.758478691941105,1.756119305877426,0.7083475806025517,1.6241095530483458,1.9609475219295083,,,0.47824363442641393,inf,,,0.9255773367779199
500,,0.0,0.0,1.4957223015772279,1.4868364648147563,0.8079932070301226,2.1053828275929845,2.4087829617609806,,,0.5490601803369085,inf,,,0.9369064054524713
501,,0.0,0.0,1.548385476131597,1.5183256044842937,0.9406879114835548,2.1402257330593004,2.3695495266658186,,,0.5202020156036558,inf,,,0.910066825128111
502,,0.0,0.0,1.6763410837065609,1.6749633767145284,0.35956758028916397,1.653871144947062,1.7438040723818145,,,0.5202020156036558,inf,,,0.9304735618172358
503,,0.0,0.0,1.7406691478153733,1.7352646056156855,0.9089954639543404,1.2332181308555588,1.444219569950471,,,0.44144624493110796,inf,,,0.868571559921617
504,,0.0,0.0,1.6308845871808817,1.6067285573422976,0.589965029704681,1.2177485952117204,1.3141347936052203,,,0.4880666971167561,inf,,,0.870970514762332
505,,0.0,0.0,1.6895217920983479,1.6444243806550058,0.8606389692535323,1.3972430267569202,1.4838594299988728,,,0.44144624493110796,inf,,,0.8546505104400742
506,,0.0,0.0,1.7817828885449685,1.7275489333093574,0.8643951522727197,1.5001742375260776,1.8202581106101943,,,0.4302020962658841,inf,,,0.865496946935671
507,,0.0,0.0,1.7569838910624318,1.7347062033570377,0.6753044183252482,1.8275707938662695,1.9595490046166393,,,0.4880666971167561,inf,,,0.8773426669415967
508,,0.0,0.0,1.5624618780138406,1.5443161693481138,0.9217074959735568,1.4034335129706124,2.0091336716840753,,,0.43586655696697996,inf,,,0.8494018261881912
509,,0.0,0.0,1.4792889514757628,1.4503726462328879,0.8225328323652861,1.0612514254449812,1.4849514807341577,,,0.49759852643134905,inf,,,0.8352937289207264
510,,0.0,0.0,1.7352480580664333,1.7225208481749958,0.8381145948125477,1.1143271580131766,1.358956581221932,,,0.5068466436745385,inf,,,0.8795358014212806
511,,0.0,0.0,1.6063671224635745,1.5621686019256802,0.8695155185874777,1.1600502486944542,1.5302001266585428,,,0.4302020962658841,inf,,,0.8154512252784509
512,,0.0,0.0,1.607680890560563,1.5932609401089792,0.8950232121464882,0.9769207187432671,1.2629242290744567,,,0.4629450596409901,inf,,,0.8493363159378101
513,,0.0,0.0,1.7199801235503491,1.7202023860683482,0.8502771449410266,0.8775766007213375,1.0275941993533804,,,0.5022576003740722,inf,,,0.890983860378837
514,,0.0,0.0,1.6771020996940451,1.645235872368261,0.830383439912072,0.9098996702416273,1.1158289110340076,,,0.48319206230712763,inf,,,0.8815894873146151
515,,0.0,0.0,1.74173333210765,1.7214905128319602,0.8031366701812934,0.913930843489225,0.9887021821562877,,,0.44694259446804574,inf,,,0.8959337506880466
516,,0.0,0.0,1.659201028886756,1.6401813882985508,0.6107827656987008,1.0013140259030868,1.1389516096484993,,,0.43586655696697996,inf,,,0.8961312992964565
517,,0.0,0.0,1.6838432564212122,1.6398813915370414,0.9167708068079804,0.8580949064945875,1.0636355183847601,,,0.44694259446804574,inf,,,0.8362369959976931
518,,0.0,0.0,1.6030091439581093,1.5725409406977944,0.5796464761269249,1.012600697373883,0.9283475790874278,,,0.4629450596409901,inf,,,0.9000405806717339
519,5.703782474656201,-0.20913869073739402,0.0,1.1322563595975543,1.0895638560784469,0.46895865485836224,1.2182900852627434,1.081600126575244,,,0.4629450596409901,9.009669676514031,inf,,0.5671278269207313
520,,0.0,0.0,1.7515551437817278,1.7495776635751876,0.44370063255176534,1.0250098516098842,1.0979262214003744,,,0.48319206230712763,inf,,,0.8915621836206533
521,,0.0,0.0,1.3445894883608773,1.353171576034974,0.8874057217061617,1.0161752636967847,1.0424606584005018,,,0.5022576003740722,inf,,,0.8614157915102724
522,,0.0,0.0,1.7408026997591617,1.7438095109271654,0.717559552721747,0.8967783167537416,1.0730415846362453,,,0.43586655696697996,inf,,,0.8594548221761504
523,,0.0,0.0,1.7498179130084535,1.736655738010002,0.8848967741906534,1.3026586133518498,1.477113056109866,,,0.5113665138247345,inf,,,0.8511807838203154
524,,0.0,0.0,1.7490029679771895,1.7414959649880808,0.7219720108140746,1.110991177157251,1.2323122283893095,,,0.42445136339222655,inf,,,0.8389823248978526
525,,0.0,0.0,1.5992462334494553,1.5819910028547994,0.7055408269703288,1.2180697649760281,1.545545181063818,,,0.5022576003740722,inf,,,0.8904701015447593
526,,0.0,0.0,1.5576290645766309,1.5500660663579422,0.629708788153077,0.9625350019950014,1.1005496778386035,,,0.468121228110369,inf,,,0.909829628012286
527,,0.0,0.0,1.5442440475706376,1.522502291623878,0.46509037879244725,0.9467796157576048,0.9160260332628757,,,0.5202020156036558,inf,,,0.8690016259782916
528,,0.0,0.0,1.7121154691238922,1.6785303340792552,0.8816145275677114,0.9481057512768216,1.3114409276591288,,,0.43586655696697996,inf,,,0.7954142279757591
529,,0.0,0.0,1.6001824670406155,1.5835565797172695,0.886660471375625,0.9662672144549552,1.2775835190259968,,,0.4732203808476458,inf,,,0.8460853049312419
530,,0.0,0.0,1.6611329480122448,1.6360363239934212,0.8457302368422025,0.8030678967188541,1.0727252620395116,,,0.4732203808476458,inf,,,0.8231000849188639
531,,0.0,0.0,1.3759820454533624,1.3184647283773938,0.4101578048420851,1.0176565111802092,0.9524628506789699,,,0.47824363442641393,inf,,,0.6831701370896237
532,,0.0,0.0,1.7225614527698696,1.6425888193672342,0.6213360676915334,1.5958107651212952,1.0096655736752136,,,0.5490601803369085,inf,,,0.9219258848872914
533,4.924136071033179,-4.924136071033179,0.0,1.568878802001582,1.4956300572817303,0.529081664733171,2.2590406601876762,1.330384415473386,,,0.5158180382284114,4.909282799835968,inf,,0.8635504495196306
534,5.703782474656201,-0.09506304124427002,0.0,1.5882145001236905,1.5383257803661632,0.5436142510721473,1.4756768558055302,1.0097918619180766,,,0.4732203808476458,9.798127036878302,inf,,0.8222717450445309
535,,0.0,0.0,1.5113277594124974,1.4998989098881987,0.5898455628059479,0.8869995881753432,0.665554269223502,,,0.47824363442641393,inf,,,0.9497371225927262
536,5.562842547942345,-5.562842547942345,0.0,1.6869026016065154,1.6698311773731553,0.7213918820058705,2.2415738286615987,2.013133524986665,,,0.5641709578113449,5.518686990979521,inf,,0.9152832796760505
537,4.605170185988091,-4.605170185988091,0.0,1.546597947016976,1.5491649452038996,0.8107936669195318,3.5289628849801087,2.4062917372207093,,,0.47824363442641393,4.605170185988091,inf,,0.9354538011641867
538,,0.0,0.0,1.7751787160661094,1.7456067287163295,0.729931159446308,1.9112254435412885,1.1233037346728163,,,0.48319206230712763,inf,,,0.9470995830684055
539,5.7037824746562,-5.7037824746562,0.0,1.4512537175014781,1.433114753480568,0.7331782934380282,2.484293845961259,1.4378923111761304,,,0.5202020156036558,5.703782474656201,inf,,0.8016124133768737
540,,0.0,0.0,1.6005925582063913,1.5786379422201549,0.7121936040222056,2.6270615658166965,2.0690138698072644,,,0.4880666971167561,inf,,,0.8077968498892247
541,,0.0,0.0,1.6622591221605914,1.658691596164222,0.7922913757934196,2.3194559234731726,2.0288235247710484,,,0.4928685327679205,inf,,,0.9468887191596204
542,,0.0,0.0,1.6335277939462591,1.5298152920654189,0.5506022981890578,1.7637407984226323,1.333758149329592,,,0.4880666971167561,inf,,,0.7830808195988345
543,,0.0,0.0,1.5792053351163666,1.504071954019941,0.6619620635723489,1.8002996348409654,1.0166424106667138,,,0.4880666971167561,inf,,,0.9404423963545478
544,5.7037824746562,-5.7037824746562,0.0,1.6256050297891176,1.6183965477128788,0.6596999510076407,2.1368943645134633,1.6228194315620024,,,0.524519217297268,5.703782474656201,inf,,0.9431244417811752
545,,0.0,0.0,1.6110895265817173,1.5891594625521772,0.6188325901953626,1.7607728098844457,0.974832691056297,,,0.5604843169999094,inf,,,0.9460448762453229
546,,0.0,0.0,1.4853943017128595,1.451987733385915,0.6198381388100495,2.020180352240052,1.3695420046556555,,,0.5783247308855777,inf,,,0.9438972677756826
547,,0.0,0.0,1.5886915924340217,1.5897500967723803,0.6948994261006689,2.688359035272028,4.500241515679807,,,0.44694259446804574,inf,,,0.9242418858142698
548,,0.0,0.0,1.716223506244499,1.644904077226228,0.37446024900187647,1.9072733967706161,2.2955699665603353,,,0.5113665138247345,inf,,,0.9240285096301333
549,,0.0,0.0,1.6893528946677054,1.6094437477791304,0.43334906262821116,1.8621183972987385,1.4313865004563353,,,0.5370774965580548,inf,,,0.8095560093795982
550,,0.0,0.0,1.3467769246726884,1.3515736165486054,0.5993772964176362,2.4498964204722653,2.5782757882771086,,,0.5490601803369085,inf,,,0.8865605373871676
551,,0.0,0.0,1.6269657589202935,1.6046750322454186,0.3809242783991187,2.146058110987014,1.6494960631561417,,,0.552929491858785,inf,,,0.7573091849617469
552,,0.0,0.0,1.6982086803816414,1.6876515754722086,0.47913991062442307,3.075199661907683,2.94389709362258,,,0.541134803179459,inf,,,0.9470980000329157
553,,0.0,0.0,1.6352788942035028,1.571684307454347,0.8092949646691296,2.9767917515606963,1.6405936228372293,,,0.5158180382284114,inf,,,0.8917009077880563
554,,0.0,0.0,1.6760253152368902,1.6405992581925561,0.9128560341256928,3.5686184039038067,2.920902978837165,,,0.5329562494928909,inf,,,0.855629907526536
555,,0.0,0.0,1.7264981469979457,1.7197548113757244,0.708506796356483,3.1395684114098903,2.049258936681517,,,0.541134803179459,inf,,,0.8794372058378785
556,,0.0,0.0,1.6635195961616067,1.6317899734789376,0.891853154931198,3.095967497338571,1.910548582780577,,,0.5068466436745385,inf,,,0.8843706355663913
557,,0.0,0.0,1.4603304347636694,1.3906130948884299,0.8038244923979333,2.223393602778966,1.3963803018731977,,,0.5748741956352443,inf,,,0.9192599214531451
558,,0.0,0.0,1.5852267073036692,1.542604978770749,0.7853594294092765,2.1420381631522045,1.3740115111902398,,,0.49759852643134905,inf,,,0.9230743871223918
559,,0.0,0.0,1.6853762376629287,1.6606947840900113,0.8219359073430114,2.499279734872177,1.8130331450663077,,,0.5113665138247345,inf,,,0.9328816216877359
560,,0.0,0.0,1.7391278658295153,1.7261269253703233,0.9212471324844462,2.9665894518961964,3.592663190268767,,,0.5068466436745385,inf,,,0.8776363372732962
561,,0.0,0.0,1.6232766573872495,1.5536318762329215,0.6314859717029913,2.2233969518730436,1.661340202298348,,,0.524519217297268,inf,,,0.9138935378356022
562,,0.0,0.0,1.7605657817093112,1.703640990409276,0.6211639336887778,2.187024357880004,1.6402353315968066,,,0.5158180382284114,inf,,,0.9350221016137777
563,4.545715891014723,-4.545715891014723,0.0,1.7237537669585103,1.6912458703306372,0.7462886690607823,3.345127660510722,2.878038945095599,,,0.4732203808476458,4.538550498646695,inf,,0.6722910477220637
564,4.356804663438053,-4.356804663438053,0.0,0.9333053887480991,0.8979020650408349,0.7903619722154986,3.409493128618457,3.855055371309453,,,0.524519217297268,4.35225210597265,inf,,0.8947401252581384
565,4.31376905434774,-4.31376905434774,0.0,1.768485489054175,1.692615558362892,0.6583048496271723,3.124052082723574,2.0205606885856358,,,0.5604843169999094,4.3133301033876466,inf,,0.5078041898414923
566,5.010635294096255,-5.010635294096255,0.0,1.6705826046838648,1.6254969348559989,0.6374469665821033,3.119036846570579,2.5651499541694727,,,0.4880666971167561,5.0106352940962555,inf,,0.7715555086861386
567,5.7037824746562,-5.7037824746562,0.0,1.5945459832481337,1.5676680609241072,0.723337478514842,2.6079205094264704,1.6432368119992975,,,0.5068466436745385,5.703782474656201,inf,,0.7583640529707084
568,,0.0,0.0,1.7321829485363023,1.722160875133774,0.6458492788377621,2.6473212079894206,2.21052059720398,,,0.5677978065141052,inf,,,0.9434576212054392
569,,0.0,0.0,1.5927372482616622,1.6009360805396753,0.6952912612259303,2.865813500978737,2.7787046008304244,,,0.5113665138247345,inf,,,0.6235788964432599
570,5.010635294096255,-5.010635294096255,0.0,1.595263846866306,1.556169517496627,0.6385516441667484,2.7943978206145816,1.359964871569007,,,0.552929491858785,5.0106352940962555,inf,,0.5475754439840861
571,5.010635294096255,-5.010635294096255,0.0,1.6774924830250884,1.6233823547363417,0.38411837589190867,2.1428552403092627,1.2209616536262486,,,0.5490601803369085,5.0106352940962555,inf,,0.524525481465628
572,5.7037824746562,-5.7037824746562,0.0,1.6569669943615175,1.6261168941058635,0.568704777350587,2.057584147671538,1.566700836412461,,,0.47824363442641393,5.703782474656201,inf,,0.6630115289665534
573,,0.0,0.0,1.6782578554904701,1.626209223234658,0.7307129154838493,2.2610136591585976,1.1069529152942805,,,0.49759852643134905,inf,,,0.6617389309228189
574,,0.0,0.0,1.7662244991687766,1.741986366610547,0.6045159239309056,3.120581732520001,2.597862570757162,,,0.5158180382284114,inf,,,0.9324759365996974
575,,0.0,0.0,1.7248301662159267,1.7215491425978398,0.7473929183112105,2.455136472927886,2.1691715236064573,,,0.5567373465730988,inf,,,0.9395182797441246
576,,0.0,0.0,1.6302249863967646,1.6086349734281356,0.5208712814740397,2.0058387083749585,1.5667126261839535,,,0.4629450596409901,inf,,,0.9412903046210315
577,,0.0,0.0,1.7407466671823144,1.653531366703959,0.6701356364669893,2.220775939370165,2.0535034331399697,,,0.4928685327679205,inf,,,0.923736940893007
578,,0.0,0.0,1.6368548561087835,1.5866095175261232,0.7408402907531195,3.1234123723493483,5.304338204555334,,,0.541134803179459,inf,,,0.9329017214955695
579,2.89448031895421,2.805963254436477,-5.700443573390687,1.5186507034540777,1.5134355123157224,0.6232507723250975,3.866765537291363,16.365376675644125,2.8068666845455734,,0.585052858160615,2.893576888845113,2.813544487076603,inf,0.8575417216092424
580,5.7037824746562,-5.7037824746562,0.0,1.655621043108873,1.594814361962385,0.5484494496669766,2.4326247383518615,1.5113169031085598,,,0.5068466436745385,5.703782474656201,inf,,0.8348447955238409
581,4.815258071195393,-4.815258071195393,0.0,1.7061102638026924,1.6455078421845835,0.6614686780992781,3.1409041527713155,2.91633082605489,,,0.524519217297268,4.741881231529994,inf,,0.6063594271178533
582,,0.0,0.0,1.6081670829669092,1.5576189898872188,0.5952710777221242,3.0196986101617234,2.537140531870632,,,0.468121228110369,inf,,,0.6694937382692979
583,,0.0,0.0,1.7344722000764548,1.7069405104686266,0.6072022058364601,1.8744150831414206,1.722138941960209,,,0.4732203808476458,inf,,,0.94023706595921
584,5.7037824746562,-5.7037824746562,0.0,1.5232999480356737,1.5134008164588548,0.7276786378381682,2.277916267414407,1.8403807306682687,,,0.5883313578629602,5.703782474656201,inf,,0.6675322066312339
585,,0.0,0.0,1.5842573476786002,1.543098188009952,0.5890427824992645,2.090868394657621,1.3317426724577146,,,0.5748741956352443,inf,,,0.9475508527601592
586,,0.0,0.0,1.7640330390219976,1.743345021831967,0.47179771050741554,1.8662988029889134,1.2332494920835047,,,0.4066654671944331,inf,,,0.8714764102502984
587,,0.0,0.0,1.679774864572923,1.653414198668083,0.7582517162720991,2.1452611673494575,2.033584923815574,,,0.47824363442641393,inf,,,0.8804785551749749
588,,0.0,0.0,1.5605610063555704,1.5170604204650018,0.7561600896594421,2.0457661601440225,1.2795123505235941,,,0.4732203808476458,inf,,,0.9162483714273376
589,5.7037824746562,-1.406933010415196,0.0,1.7385187691242734,1.6956314437785334,0.6109431767982161,2.1795303789112235,1.7105283225779635,,,0.4880666971167561,7.1034998561082325,inf,,0.9519673086255371
590,,0.0,0.0,1.5787869573873923,1.5530016339509576,0.6911907927134526,2.916885306393953,2.561243911735962,,,0.5490601803369085,inf,,,0.8400032256545125
591,,0.0,0.0,1.6797703175550593,1.6335344948622543,0.6298637280059749,2.1203295235166886,1.4278083866821638,,,0.47824363442641393,inf,,,0.9383186980157874
592,,0.0,0.0,1.7324131530076883,1.7515534258439769,0.5753061469234771,2.771499056865316,1.9146213105911056,,,0.4576907132971797,inf,,,0.8022282903146504
593,5.7037824746562,-5.7037824746562,0.0,1.6712074072575964,1.646777425990413,0.4387906339764646,1.9299772863839457,1.520498765755853,,,0.4880666971167561,5.703782474656201,inf,,0.8895440346744
594,5.7037824746562,-5.7037824746562,0.0,1.464957423725677,1.4452127475588834,0.6213462717969442,3.0216305111683197,1.448809922311392,,,0.5451288209179292,5.703782474656201,inf,,0.9488501561330257
595,,0.0,0.0,1.738900044837196,1.7196598774904657,0.46900939755985327,2.139236410049796,1.756036268104939,,,0.4928685327679205,inf,,,0.9466219961539969
596,5.010635294096255,-5.010635294096255,0.0,1.6881798201743345,1.6429065889190295,0.8176268822443878,2.658339007639256,2.415272725820173,,,0.5287703885177266,5.0106352940962555,inf,,0.9505585091159179
597,5.7037824746562,-5.7037824746562,0.0,1.6436763066464641,1.6439615948756228,0.5351803423879012,2.5678828633956954,2.0677643470580764,,,0.4928685327679205,5.703782474656201,inf,,0.7449426226053846
598,,0.0,0.0,1.4482096598461243,1.3941307758831074,0.688551632210904,2.862979755978546,3.4047726841279826,,,0.5641709578113449,inf,,,0.9475410726305058
599,5.7037824746562,-5.7037824746562,0.0,1.5006631606600225,1.447441197911299,0.6232578938072048,2.908146153603053,2.148135898947246,,,0.5287703885177266,5.703782474656201,inf,,0.9465418229862059
600,5.7037824746562,-5.7037824746562,0.0,1.6328578836644818,1.6037366248232148,0.47599387198937393,3.1342485086188834,2.0932591934388345,,,0.47824363442641393,5.703782474656201,inf,,0.6841491373682743
601,,0.0,0.0,1.5274451226448478,1.5259909554075042,0.6144479494219173,3.3779998844149226,3.595132942777816,,,0.5567373465730988,inf,,,0.9341570492240031
602,5.7037824746562,-5.7037824746562,0.0,1.5829800338805966,1.5750751633876594,0.6621849125581811,3.106899695107532,7.866071365485717,,,0.5287703885177266,5.703782474656201,inf,,0.9321866293633322
603,,0.0,0.0,1.4855729463043987,1.404116683530564,0.6801990757599126,2.735877941438776,3.014300022226727,,,0.4880666971167561,inf,,,0.8705417594615056
604,5.218579448264238,-5.218579448264238,0.0,1.7337658767013795,1.711902795970994,0.6751543530096636,3.4721329470030393,5.69674673625777,,,0.49759852643134905,5.173154223594031,inf,,0.6123574049787153
605,5.010635294096255,-5.010635294096255,0.0,1.5621017551649203,1.5218243135162988,0.7170913981430056,3.0355674867035396,2.5012846003129785,,,0.49759852643134905,5.0106352940962555,inf,,0.747617202670604
606,,0.0,0.0,1.6848792128555328,1.6634921917746617,0.32081491414016805,2.7281029774588608,2.7173773043079072,,,0.5287703885177266,inf,,,0.6886116539490883
607,,0.0,0.0,1.681322944003473,1.678022680750174,0.6278154846169751,2.393561460923028,2.1278458035957013,,,0.48319206230712763,inf,,,0.9324738043264851
608,,0.0,0.0,1.7605096768721387,1.712155724725375,0.862731139275543,2.450306091587182,2.514986623154301,,,0.48319206230712763,inf,,,0.8383485246827529
609,,0.0,0.0,1.74659026301465,1.733496677729,0.8322624469955086,2.4653300343256106,2.3932575239281952,,,0.5202020156036558,inf,,,0.9052014965826525
610,,0.0,0.0,1.6530875115883767,1.638386034835731,0.7172418493598016,2.5027187189018845,2.6329311829085733,,,0.5113665138247345,inf,,,0.9416852078228806
611,,0.0,0.0,1.4707439802996582,1.4279873299860306,0.8181639069580215,2.27698252870328,3.1541073884510915,,,0.5287703885177266,inf,,,0.9067177110814229
612,,0.0,0.0,1.7276700286818998,1.6984342120429152,0.7885434063091846,2.17969343819678,2.2750553186326794,,,0.4576907132971797,inf,,,0.9224904103440047
613,,0.0,0.0,1.765102223509734,1.7805757213398519,0.6451124707166825,2.3023393795542515,1.843706828299465,,,0.5604843169999094,inf,,,0.9318459174497834
614,,0.0,0.0,1.7225695743823488,1.6627804960270673,0.80648970505727,2.552124201848078,3.1275563731915432,,,0.5022576003740722,inf,,,0.9370204668636567
615,,0.0,0.0,1.3852662852076247,1.376739283205738,0.7787309179662332,2.2544751160466068,2.8992609412262986,,,0.552929491858785,inf,,,0.8196791957783365
616,,0.0,0.0,1.593702192931306,1.6096648254710895,0.6233948201050891,2.5748522766927735,4.002578661694857,,,0.5287703885177266,inf,,,0.9346758376247154
617,,0.0,0.0,1.589944934512491,1.550885056895487,0.8702531743273636,2.278047390720622,2.0982064741070783,,,0.5329562494928909,inf,,,0.9293239308745362
618,,0.0,0.0,1.5916068935866368,1.5799378292510693,0.8635347963066252,2.266594365189265,3.465093242313173,,,0.5158180382284114,inf,,,0.9049306515075256
619,,0.0,0.0,1.5778800263193455,1.5621119255235145,0.8808317851291881,2.5391211089959214,2.954188661531067,,,0.524519217297268,inf,,,0.938578745998988
620,,0.0,0.0,1.5265731065555799,1.5081292762333778,0.783216002318817,2.9126399253160073,4.587814384304628,,,0.4732203808476458,inf,,,0.9136364321293676
621,,0.0,0.0,1.4919769797224076,1.4864871135690194,0.7850697083361573,3.275752973964533,3.6836287574863475,,,0.4576907132971797,inf,,,0.9209732308500237
622,,0.0,0.0,1.6906506074084133,1.683508014170227,0.8308507269000638,3.05787956410498,6.39013331342246,,,0.45235697871908603,inf,,,0.8992633241129554
623,,0.0,0.0,1.5493391178925189,1.5656594187757051,0.7600629004333127,2.8350664868946676,4.300084750015236,,,0.5748741956352443,inf,,,0.9245221800652332
624,,0.0,0.0,1.6158890021845054,1.6301860779053536,0.7435978344973393,2.40474002064483,2.4439981551385705,,,0.5202020156036558,inf,,,0.939240790306379
625,,0.0,0.0,1.7110208124130053,1.7013691373594069,0.6747397965114352,2.5534128261222078,2.617448462149218,,,0.5287703885177266,inf,,,0.9225213443549694
626,,0.0,0.0,1.6628745636650377,1.6429483117001116,0.8412033849250625,2.610725807866835,3.8158214384418985,,,0.47824363442641393,inf,,,0.9228408356493145
627,,0.0,0.0,1.3165328144382833,1.2964245172309348,0.8297755438521355,2.579763633674351,3.336858278694058,,,0.4066654671944331,inf,,,0.918904326933917
628,,0.0,0.0,1.6689125664477737,1.654283373640793,0.9401804741031273,2.9378175418361416,4.91556842595568,,,0.44144624493110796,inf,,,0.87226587775229
629,,0.0,0.0,1.6719771316259755,1.6445034965976486,0.931779361043028,2.5702390176280336,5.0941449219631405,,,0.4629450596409901,inf,,,0.922538134149392
630,,0.0,0.0,1.7052708805934864,1.7013422667345852,0.9073230958586553,2.717248892428052,5.1266977896632735,,,0.5113665138247345,inf,,,0.9095749893533016
631,,0.0,0.0,1.5590489167858064,1.5621359725987725,0.5273589421009819,2.8294583183770103,3.434494337019721,,,0.5451288209179292,inf,,,0.5717712096967742
632,,0.0,0.0,1.6899980251321827,1.6936087134491287,0.8233873940513854,2.9223431384056835,3.508423310527746,,,0.5068466436745385,inf,,,0.9111222409307034
633,5.7037824746562,-5.7037824746562,0.0,0.6000120506908931,0.5087770569905697,0.4524283097732712,3.1622302413645658,4.006664664640136,,,0.5022576003740722,5.703782474656201,inf,,0.9429829837546598
634,5.7037824746562,-5.7037824746562,0.0,1.710611503492348,1.6461372124508866,0.6339517498918636,2.431859791932345,2.033293748504316,,,0.44144624493110796,5.703782474656201,inf,,0.6270355812279524
635,3.9308628996301875,-3.9308628996301875,0.0,1.7613972953853034,1.7385210155713517,0.8188327379376027,3.2658119545686763,4.217253884845865,,,0.48319206230712763,3.929395255152617,inf,,0.8421997662843692
636,3.896094101845996,-3.896094101845996,0.0,1.6166762544412157,1.5704279796264564,0.7907183377511849,3.4037145955000048,3.7567568101940707,,,0.6097226960127671,3.8949474046378914,inf,,0.7467156251432002
637,4.980901186168323,-4.980901186168323,0.0,1.582425257266305,1.5805389248687476,0.7899198891912912,2.7979366039190605,2.8313815653643504,,,0.5641709578113449,4.9746248565732225,inf,,0.9417426185077903
638,,0.0,0.0,1.6846517384793807,1.6607981691636307,0.7214430419519912,2.828038403834722,5.518345870194569,,,0.5158180382284114,inf,,,0.8498864716588567
639,5.7037824746562,-5.7037824746562,0.0,1.6260303340950955,1.5876495952270335,0.7272218455061494,2.3614808820370476,1.0675484550699044,,,0.5022576003740722,5.703782474656201,inf,,0.9495367824579757
640,5.010635294096255,-5.010635294096255,0.0,1.7081080487922868,1.6978039373290916,0.7323157714939773,3.2391452679292794,2.3801943635391876,,,0.468121228110369,5.0106352940962555,inf,,0.8180655600705914
641,,0.0,0.0,1.7541987434488084,1.7316298317273149,0.7205526030365507,2.6759446244844756,2.8638350434560946,,,0.4928685327679205,inf,,,0.8551034115614224
642,5.7037824746562,-5.7037824746562,0.0,1.676449013728437,1.6639626033660841,0.6504058068614492,2.330199914779504,1.7671739708869367,,,0.581717464821069,5.703782474656201,inf,,0.8083379420525493
643,5.7037824746562,-5.7037824746562,0.0,1.7693394587428788,1.6859868769110777,0.6583558216016916,2.1390971988439627,1.2119941282994717,,,0.5567373465730988,5.703782474656201,inf,,0.9471240430464836
644,,0.0,0.0,1.582796681744982,1.5567807039046095,0.661121672370494,2.4684648053120517,1.865437974294891,,,0.5677978065141052,inf,,,0.9514756357662227
645,5.7037824746562,-5.7037824746562,0.0,1.7410048891085985,1.737331554310809,0.6858464128167191,2.7852132383742414,2.8274896517657053,,,0.5113665138247345,5.703782474656201,inf,,0.9436370724509199
646,,0.0,0.0,1.7013333282119607,1.702619494946266,0.5235243621915615,2.4684741169951265,2.0857695635452407,,,0.5202020156036558,inf,,,0.9372474093813363
647,,0.0,0.0,1.6597199587736498,1.6501384555384675,0.8234334215296184,2.2275331878452014,1.462439492772134,,,0.49759852643134905,inf,,,0.9379552285025214
648,5.703782474656198,-1.0456934536869698,0.0,1.5328066825056457,1.5146539709564075,0.6450003830666297,2.5123471083830706,2.1155709760257224,,,0.48319206230712763,7.4002317640799316,inf,,0.9455944188367532
649,,0.0,0.0,1.7489148903530325,1.752345151014909,0.8618155807144054,2.6057517861870974,2.7324204812902284,,,0.5287703885177266,inf,,,0.9391569811666949
650,,0.0,0.0,1.4450759193925653,1.3765234078366773,0.6212265031207193,2.1603257836055727,1.318410432599399,,,0.5370774965580548,inf,,,0.9457095520769715
651,,0.0,0.0,1.013896902002878,0.9477401226726077,0.3862422691970702,2.7379710938087354,2.2223014718279037,,,0.5370774965580548,inf,,,0.6893854116080972
652,,0.0,0.0,1.5395313344400576,1.5298471038051384,0.3949891120948506,2.092409518039582,1.4723101604620878,,,0.5641709578113449,inf,,,0.9489173779965502
653,,0.0,0.0,1.7491407532530487,1.7253731917987198,0.7560448564598613,1.5309367161838943,1.1460431318811515,,,0.5287703885177266,inf,,,0.9252590815556314
654,,0.0,0.0,1.2558169464272535,1.2084801764078161,0.4649708960789856,1.9742921582677742,1.5357440806569864,,,0.5202020156036558,inf,,,0.9517437936676841
655,5.7037824746562,-5.7037824746562,0.0,1.59432112714485,1.5983454827466914,0.5763726862685192,2.2426882647265667,2.061004232613565,,,0.5604843169999094,5.703782474656201,inf,,0.8328558915766889
656,,0.0,0.0,1.7187412432301614,1.707860417601547,0.34218947141236883,1.7269571799443073,1.5536552385343472,,,0.5641709578113449,inf,,,0.9489446936938669
657,,0.0,0.0,1.6775713800929004,1.6838569992919759,0.3803986205828701,2.0148417136547905,1.7384704292565183,,,0.5641709578113449,inf,,,0.9368091258852287
658,,0.0,0.0,1.1400859128754397,1.1024926346946815,0.5871312403860273,2.390232089563961,1.7029652714790062,,,0.5370774965580548,inf,,,0.933545635456851
659,,0.0,0.0,1.565259719678267,1.5709202005262703,0.6394388343588403,2.033930815974795,2.059889792277046,,,0.5370774965580548,inf,,,0.9164109508103735
660,,0.0,0.0,1.7318193634375463,1.6879246752539274,0.8909104167946623,1.9182210462747245,2.151196769614601,,,0.5748741956352443,inf,,,0.9200927357538524
661,,0.0,0.0,1.6315254460212818,1.6078766852271853,0.8685180993092972,2.256169161730222,2.2538576223514823,,,0.5490601803369085,inf,,,0.9204026771180426
662,5.7037824746562,-5.7037824746562,0.0,1.6407844443709942,1.6219662574965485,0.42530439498870165,2.4176598338371913,2.507518439353616,,,0.5113665138247345,5.703782474656201,inf,,0.9203282976286977
663,5.7037824746562,-5.7037824746562,0.0,1.6686055941778808,1.6398529752360267,0.4842631621560514,2.3215621630930445,2.1033669822217123,,,0.5748741956352443,5.703782474656201,inf,,0.6723335268294446
664,,0.0,0.0,1.6293738619092004,1.6031884303846362,0.5629931235035965,2.3964729725720013,2.526841367273037,,,0.5022576003740722,inf,,,0.9432927752517744
665,,0.0,0.0,1.7138880825417508,1.7023438045514807,0.5750114288817498,2.8321593451807714,4.555329907073661,,,0.5158180382284114,inf,,,0.948163390649265
666,5.689526920926148,-5.689526920926148,0.0,0.12463234025682716,0.11424302796342614,0.4717189802801987,2.6779399482549264,2.0295361013072224,,,0.288175044534938,5.680717201725205,inf,,0.5974458208618365
667,4.407854346794174,-4.407854346794174,0.0,1.5269848024965458,1.5026620996182085,0.5747179252270075,3.0120494983476886,2.3351943283764163,,,0.42445136339222655,4.390058806371146,inf,,0.5998000991202193
668,,0.0,0.0,1.4216347189970027,1.3962131770775568,0.8647052682725269,3.8442266078181566,2.4839282812922914,,,0.5158180382284114,inf,,,0.8922768627768082
669,,0.0,0.0,1.5926373508296168,1.5724272016092682,0.9082670077338826,3.270791989988077,2.634765630633045,,,0.5329562494928909,inf,,,0.894278747478404
670,,0.0,0.0,1.7502334942712667,1.7246252184824997,0.783425157858898,3.467817520099966,7.475798474048355,,,0.5370774965580548,inf,,,0.910307981887705
671,,0.0,0.0,1.6697799970768812,1.6247545486979749,0.9020751946895945,3.471161172138875,9.155251738896169,,,0.44694259446804574,inf,,,0.9105640737731139
672,,0.0,0.0,1.6857976500546026,1.6541028977386543,0.9189579575549052,3.3456464929069076,3.5052509739824083,,,0.4732203808476458,inf,,,0.8688465236595124
673,,0.0,0.0,1.7023420218815652,1.675155389566967,0.8105037106095867,2.7223280184135996,2.699376587103835,,,0.44694259446804574,inf,,,0.8462032234619847
674,,0.0,0.0,1.4553855393646025,1.4249249185474953,0.89728600161583,3.1168325364178906,2.7469667709565013,,,0.5158180382284114,inf,,,0.9383924428454343
675,,0.0,0.0,1.5484210363153459,1.5262617905652875,0.7613182402170456,2.918061224412983,5.37636807112731,,,0.5490601803369085,inf,,,0.9357668860149186
676,,0.0,0.0,1.652045557806454,1.6258257603251296,0.883031100044439,3.275303374207512,17.459800743531176,,,0.5783247308855777,inf,,,0.8767684697944489
677,,0.0,0.0,1.4949042958954852,1.4591654025589602,0.89590146968707,3.0943113129272226,10.452482884627814,,,0.5068466436745385,inf,,,0.8698401305086078
678,,0.0,0.0,1.6298161573500347,1.6160881319296496,0.8319683285025968,2.9302104859041935,3.24510524572052,,,0.48319206230712763,inf,,,0.9237250806698494
679,,0.0,0.0,1.4079325380243317,1.399509066492077,0.6469339829607205,3.1506635453250147,3.6596633831183762,,,0.4576907132971797,inf,,,0.9198866398640594
680,,0.0,0.0,1.5001086299517228,1.4785596171832462,0.832705456438171,3.016242843810514,4.696717932006417,,,0.5202020156036558,inf,,,0.9132362905829585
681,,0.0,0.0,1.5919174681753403,1.5577295171681893,0.7442215529029705,3.1392831232779512,2.691862635809027,,,0.524519217297268,inf,,,0.9288418805151745
682,,0.0,0.0,1.6012655147790529,1.5681039269812762,0.8436349648303526,3.0574752386404382,2.6370454386194337,,,0.5329562494928909,inf,,,0.9265070949505854
683,,0.0,0.0,1.514768403324982,1.4838391659640857,0.8171746841761178,3.058355113583846,3.7297321697915082,,,0.43586655696697996,inf,,,0.9192462094210225
684,,0.0,0.0,1.3245392913390597,1.3172347403198996,0.7625961008606841,3.0256084806123105,4.588894641199813,,,0.5158180382284114,inf,,,0.9370801063139926
685,,0.0,0.0,1.1991712925977955,1.1993592754535998,0.6621277480184218,3.0255391053136176,5.329436054178787,,,0.47824363442641393,inf,,,0.9337503073053712
686,,0.0,0.0,1.7476215557625776,1.762907576749575,0.8190574839838854,3.083159979043286,4.474578403417809,,,0.5113665138247345,inf,,,0.9098164148917766
687,,0.0,0.0,1.659046618658425,1.6335076399464383,0.6699211546543165,2.3278306374433915,1.9918030998670924,,,0.5677978065141052,inf,,,0.9331533183810266
688,,0.0,0.0,1.6213118991219602,1.603362679848718,0.4627575265370234,2.1928939851876312,3.674728509882553,,,0.5022576003740722,inf,,,0.9552062418350772
689,,0.0,0.0,1.6326052549941534,1.6036358069052261,0.9535382710180379,2.2854774039675143,4.178834657835749,,,0.41861278947482794,inf,,,0.8750005755566432
690,,0.0,0.0,1.662248251050862,1.664350553121698,0.5949612875363556,2.2114673989920175,3.1164289067637916,,,0.4880666971167561,inf,,,0.9235609144868699
691,,0.0,0.0,1.7320303525918357,1.7244835353605783,0.8950228972543097,2.250700988559314,2.891178142017488,,,0.4629450596409901,inf,,,0.909003724943938
692,,0.0,0.0,1.6585481583141533,1.650841891489598,0.9389821093982433,2.9154198153212367,4.285920883220319,,,0.524519217297268,inf,,,0.8855542409905031
693,,0.0,0.0,1.5433507162951259,1.5310188269143798,0.9035086226641631,2.3939289569289564,4.128656759095694,,,0.541134803179459,inf,,,0.8851279074957008
694,,0.0,0.0,1.483933782429367,1.4638441472503487,0.968709349817492,2.794323365068162,3.9850056517115613,,,0.4066654671944331,inf,,,0.8921021367828019
695,,0.0,0.0,1.40750209731231,1.3804714603183073,0.8971080301809122,2.679687848164062,6.13790751062284,,,0.5202020156036558,inf,,,0.9255128988266291
696,,0.0,0.0,1.5034838399855337,1.4494817759530916,0.6051293176677679,2.4854187453504224,3.345297654847154,,,0.38804190201132227,inf,,,0.7226763092891741
697,,0.0,0.0,1.5741734729690635,1.5395587488313305,0.7158889958698721,2.9759871205072113,3.9099169523855504,,,0.5490601803369085,inf,,,0.9534130633228771
698,,0.0,0.0,1.6978513924856413,1.659337400445915,0.8286881493700106,2.1258232382736404,2.6277615850004654,,,0.5158180382284114,inf,,,0.917891443550731
699,,0.0,0.0,1.6952594809136976,1.6907516007365178,0.791084345779932,2.156464570712032,3.6728665411711123,,,0.541134803179459,inf,,,0.9090229033906362
700,,0.0,0.0,1.540695960221365,1.522651747091022,0.8815146967315509,2.3688053496486003,4.900865842556383,,,0.5022576003740722,inf,,,0.9087477041343754
701,,0.0,0.0,1.6870224516959198,1.658932562227965,0.6698437626889278,2.365963757903447,3.7030866341628883,,,0.524519217297268,inf,,,0.9146378290403531
702,,0.0,0.0,1.5394073992221644,1.53212039426292,0.9177838952054254,2.942203917651774,4.239998017649624,,,0.47824363442641393,inf,,,0.8729620068717431
703,,0.0,0.0,1.693999583184369,1.6806870154306794,0.7379784066043614,2.910897436717573,3.0644037226625582,,,0.47824363442641393,inf,,,0.9190683789388051
704,,0.0,0.0,1.6442117599461339,1.6402270298590438,0.8465379829640266,2.9167085894807374,3.490298824076524,,,0.5068466436745385,inf,,,0.9235708005040071
705,,0.0,0.0,1.6527375129842992,1.6291732418858944,0.8132412394978928,2.932475111237673,3.192800063181638,,,0.48319206230712763,inf,,,0.9183142095343562
706,,0.0,0.0,1.7512041327654475,1.7395634937456836,0.7667739824647251,2.3012768235989425,1.465760661613417,,,0.44144624493110796,inf,,,0.9433784547159004
707,,0.0,0.0,1.521794551125725,1.5134617658508858,0.8738431966670827,2.3926130896213973,2.2790222634938355,,,0.5158180382284114,inf,,,0.9372732445326234
708,,0.0,0.0,1.673398423530341,1.6669847216515659,0.721570012917942,2.927762973651593,2.310061555760961,,,0.5604843169999094,inf,,,0.9393998569800319
709,,0.0,0.0,1.3884048836166962,1.3431658817101406,0.8080586200910803,2.682549310951456,2.438916428006296,,,0.5022576003740722,inf,,,0.8690058776571749
710,,0.0,0.0,1.6032301878010258,1.5198710465475025,0.5943302218344546,2.078738717473602,1.7626592654255875,,,0.468121228110369,inf,,,0.7351287846618229
711,5.703782474656198,-1.0266808454381158,0.0,1.33144216975318,1.2121244952107058,0.6423217350010251,2.6828555795375677,1.961082181352662,,,0.45235697871908603,7.418580902748128,inf,,0.8149425463649611
712,,0.0,0.0,1.6693203366856029,1.6446589495889306,0.75470220010498,1.9342595486538499,2.170013211882086,,,0.42445136339222655,inf,,,0.9026630004582729
713,,0.0,0.0,1.4486207189490978,1.4347959416391383,0.5606723667211864,1.6139279836946308,1.645227245594683,,,0.41268473150466,inf,,,0.9249522090493749
714,,0.0,0.0,0.8433239356337143,0.7997850733031073,0.5831428996743212,1.797036893889728,2.016412003084482,,,0.44694259446804574,inf,,,0.832997351892189
715,,0.0,0.0,1.719592677300612,1.6960189616454715,0.8762556729853325,1.920406584403899,1.8763759703017477,,,0.44144624493110796,inf,,,0.9303087361363984
716,,0.0,0.0,1.5344263263163547,1.505732320627746,0.9829645496995438,2.0097788040721576,1.954737462726945,,,0.5022576003740722,inf,,,0.9072908748049539
717,,0.0,0.0,1.686220423696661,1.6775058408870491,0.9651184198622027,1.7143734868311364,2.0927963509743597,,,0.45235697871908603,inf,,,0.8905977242164174
718,,0.0,0.0,1.7308122812290263,1.700840357192647,0.9731613174825184,1.6372712953273565,1.572169906629805,,,0.40055318934786044,inf,,,0.9226930057489683
719,,0.0,0.0,1.428211075191837,1.4172421667325075,0.9582410497663275,1.6704249294890092,1.4902718376096404,,,0.43586655696697996,inf,,,0.8738982227893685
720,,0.0,0.0,1.21858289254605,1.1687602267278945,0.9141791003709976,1.5878731646525783,1.9305034745324046,,,0.4302020962658841,inf,,,0.9084491012319051
721,,0.0,0.0,0.9391750936053085,0.9164895277521162,0.9550130377859033,1.5970731344443803,1.6605548909025438,,,0.5158180382284114,inf,,,0.8820202767277668
722,,0.0,0.0,1.5720291221499383,1.5737070696856266,0.9527583092099078,1.6191873645154764,1.7056062266397838,,,0.48319206230712763,inf,,,0.9273811949320926
723,,0.0,0.0,1.6373483218706717,1.5899291740198895,0.9693703873483026,1.5717136663866813,1.205324274659492,,,0.49759852643134905,inf,,,0.9139059795800072
724,,0.0,0.0,1.5970646171512795,1.5438814950940698,0.9581840928843572,1.8573772587117696,1.4619953387850226,,,0.38804190201132227,inf,,,0.8940373081859279
725,,0.0,0.0,1.3110912751312809,1.275162747789292,0.9160201768399344,1.6112696135232534,1.2425628964316466,,,0.45235697871908603,inf,,,0.9074107542641795
726,,0.0,0.0,1.6703030320730976,1.6275676440907765,0.9139945170403487,1.805460790994559,2.4274841461030228,,,0.5068466436745385,inf,,,0.9172149941571416
727,,0.0,0.0,1.7198466172293507,1.6590948052367174,0.9682823053704124,1.983816580062708,1.8055324050761175,,,0.5202020156036558,inf,,,0.8726022324408517
728,,0.0,0.0,1.6854361420836597,1.6329050296702108,0.8584234411185,1.5419648498927476,1.4678841258094266,,,0.48319206230712763,inf,,,0.8608756517146642
729,,0.0,0.0,1.411391857039201,1.4042708450082084,0.6705901061049093,1.4870596582806956,1.0640174504766655,,,0.4880666971167561,inf,,,0.9176577297115726
730,,0.0,0.0,1.781454418420915,1.764526503960235,0.736520193599058,1.4618741065036878,1.1972926273812574,,,0.43586655696697996,inf,,,0.8843161618972808
731,,0.0,0.0,1.6800197876743839,1.6450607172080847,0.9494951203559069,1.3073092746609767,1.292948025912624,,,0.5287703885177266,inf,,,0.8743785836206114
732,5.703782474656201,-0.6464286804610362,0.0,1.6213603739800715,1.6057869044558026,0.6013661859064842,1.0567261599344813,1.053286948994264,,,0.38804190201132227,7.881204424696241,inf,,0.9100213070248178
733,,0.0,0.0,1.7760521758397305,1.7863682725822705,0.937332504682641,0.9575412713122065,1.1698735345456386,,,0.44144624493110796,inf,,,0.8496075944488688
734,,0.0,0.0,1.7082104505226232,1.6976200112299862,0.6590615342196401,1.0348447164043235,1.1816514410488943,,,0.42445136339222655,inf,,,0.8770218650313895
735,,0.0,0.0,1.6575163183056818,1.6397761897020249,0.9177153257025825,1.0933892634768458,1.3841330454005805,,,0.36181263880445963,inf,,,0.8478435985690032
736,,0.0,0.0,1.6677981385774323,1.6681197937909953,0.8924952407891334,1.0520516592317646,1.1456992224133318,,,0.41268473150466,inf,,,0.83795258507115
737,,0.0,0.0,1.5931454903672952,1.5575910979170042,0.9136553356290137,1.0314601834345878,1.284515108903028,,,0.5202020156036558,inf,,,0.8196883824099704
738,,0.0,0.0,1.4591230248499683,1.4420260987152131,0.8856109652584699,0.9690365233328763,1.2629742529425756,,,0.47824363442641393,inf,,,0.8066347634250455
739,,0.0,0.0,1.3717288240184122,1.3655079468938234,0.8411496094514043,0.9980315321774941,1.2195675401666444,,,0.41861278947482794,inf,,,0.8045548961382489
740,,0.0,0.0,1.2286748337287208,1.2071919889665055,0.8933599801378639,0.9772666972117203,1.2754593588065908,,,0.4629450596409901,inf,,,0.8074621551858877
741,,0.0,0.0,1.3973600085243945,1.3789025149926952,0.8787252369002092,0.9736966070715749,1.2153494117892507,,,0.5490601803369085,inf,,,0.7856561503211592
742,,0.0,0.0,1.498241725474336,1.4864320369937694,0.8646210145089427,0.9871907788467601,1.213540416990449,,,0.4629450596409901,inf,,,0.8021974692076878
743,,0.0,0.0,1.729617717549937,1.6451254637404147,0.8377403194657639,1.0766262244989626,1.2614066065816911,,,0.49759852643134905,inf,,,0.8503311316114734
744,,0.0,0.0,1.6356742267668822,1.6116879290204242,0.7778395854417074,1.0083313487327694,1.1534502115640548,,,0.5158180382284114,inf,,,0.8572555082502494
745,,0.0,0.0,1.5473945038663255,1.5255132182616595,0.8911263016301286,1.4255586697462985,1.5723235027372666,,,0.468121228110369,inf,,,0.8518601483786273
746,,0.0,0.0,1.6288054828862832,1.633476415828517,0.6529433391752157,1.2472791808252208,1.245173148007874,,,0.43586655696697996,inf,,,0.8531086092697521
747,,0.0,0.0,1.6693658435618566,1.6233825483090487,0.7136519354487438,1.7052641597358047,1.6887092028338737,,,0.44144624493110796,inf,,,0.904288896239689
748,,0.0,0.0,1.6370906741719502,1.616580997581889,0.8874280661667462,1.8891341577495233,1.980926107044462,,,0.5202020156036558,inf,,,0.8883888642886737
749,,0.0,0.0,1.6884188143583154,1.6794524325959337,0.830100043415635,1.648692137567749,1.4804558252772724,,,0.41268473150466,inf,,,0.8887266611689342
750,,0.0,0.0,1.271324178279156,1.197065214659584,0.3547881869097759,1.9638237644847074,1.7966534672283367,,,0.5022576003740722,inf,,,0.7344833758323006
