,bvp+temp_XAp0,bvp+temp_XAp1,bvp+temp_XAp2,bvp+temp_XCond1,bvp+temp_XCond2,bvp+temp_XDist,bvp+temp_XFuzz1,bvp+temp_XFuzz2,bvp+temp_XK2_1,bvp+temp_XK2_2,bvp+temp_XPermEn,bvp+temp_XSamp0,bvp+temp_XSamp1,bvp+temp_XSamp2,bvp+temp_XSpec
0,3.719593326381858,-3.719593326381858,0.0,1.3251376359879647,1.2944847568034403,0.7595719912923977,3.2729326217718766,3.6348914216211585,,,0.5915533975974677,3.7177362805759184,inf,,0.6309952089012776
1,4.605170185988091,-4.605170185988091,0.0,1.6934014539761773,1.6841402971891957,0.6139425416290412,3.304570117150033,3.674138283468796,,,0.4928685327679205,4.605170185988091,inf,,0.8777638951991189
2,3.479164163248947,-3.479164163248947,0.0,1.0623983419519192,1.0106171779494841,0.6979046386674397,2.776479522702111,1.840922035169387,,,0.5370774965580548,3.4780784259981132,inf,,0.8513433006222764
3,3.757872325600888,-3.757872325600888,0.0,1.6191765249012395,1.5271005943756497,0.8247475040259272,2.4190986354901263,1.0005410908337256,,,0.5329562494928909,3.757872325600888,inf,,0.7095407092525706
4,4.319657672725344,-4.319657672725344,0.0,1.7762355556324707,1.763675582006754,0.6898356518365613,2.6915489891603137,1.9933912315938067,,,0.5490601803369085,4.315822834217249,inf,,0.679315085664854
5,5.601637937832698,-5.601637937832698,0.0,1.4946983641026725,1.4604469808706375,0.625450007772665,2.364655755135395,1.5714565889106642,,,0.585052858160615,5.535447159836986,inf,,0.6308137480521051
6,3.3246048123510255,-3.3246048123510255,0.0,1.6352772175437502,1.6108491141023957,0.6894821350384651,3.047280749902906,1.8145225652800216,,,0.585052858160615,3.321154673988619,inf,,0.7059860247663284
7,2.8105404471450446,-2.8105404471450446,0.0,1.686612264591376,1.6659893778641532,0.8129362934929265,3.2847892291062126,1.5718499806214354,,,0.5783247308855777,2.80971385487871,inf,,0.6895658746072245
8,3.757872325600888,-3.757872325600888,0.0,1.4820909592963614,1.3923707976694235,0.7254788848861289,1.7638234440258957,0.8927330837282581,,,0.5370774965580548,3.757872325600888,inf,,0.46705410753397225
9,4.0943445622220995,1.6060990111685873,-5.700443573390687,1.7495086847229548,1.7580056729217035,0.5416537128111066,2.5207039302115617,1.6733040203192933,1.6060990111685858,,0.5370774965580548,4.0943445622221,1.612776813699615,inf,0.888775616099148
10,5.7037824746562,-5.7037824746562,0.0,1.1626709300662226,1.0160460576796009,0.3653883577673613,0.9847735913133923,0.8395983510299608,,,0.5202020156036558,5.703782474656201,inf,,0.5678265376028675
11,5.7037824746562,-5.7037824746562,0.0,1.6510109446797774,1.6046447499917524,0.44628634073373125,2.0500003125334656,1.5758584647624763,,,0.5748741956352443,5.703782474656201,inf,,0.7589464711557892
12,4.0943445622220995,-4.0943445622220995,0.0,1.6255621143693761,1.6027879779870453,0.5517581820381204,2.201841340544848,1.495331162599586,,,0.541134803179459,4.0943445622221,inf,,0.5158332627501058
13,4.77681708175388,-4.77681708175388,0.0,1.579945726237785,1.5630035822799881,0.6446706082820759,1.9251235415001997,1.7899802853047484,,,0.5022576003740722,4.75728590072498,inf,,0.7302919081513181
14,4.614676208621876,-4.614676208621876,0.0,1.2232736612354853,1.1265569246019629,0.4373992565710706,1.3676899772433329,1.0119839372080712,,,0.5113665138247345,4.610741231037546,inf,,0.563209754929285
15,,0.0,0.0,1.2515053847490742,1.2229053916693955,0.40579809337075423,1.5702349715557824,1.3230032987808142,,,0.524519217297268,inf,,,0.8106011744710911
16,,0.0,0.0,1.4301595082784977,1.4382542448208895,0.34447480429625954,1.0516697362873346,1.066528451756447,,,0.1687963801566332,inf,,,0.8509581602024855
17,5.010635294096255,-5.010635294096255,0.0,1.4187215154861175,1.41090698229735,0.616656945989421,1.812543166073935,1.4230138427725956,,,0.21876365787541036,5.0106352940962555,inf,,0.5966743606749171
18,4.605170185988091,-4.605170185988091,0.0,1.6175716878392215,1.5812637098683249,0.6026100614260306,1.6145847123935584,1.2474979572454359,,,0.14689728110576383,4.605170185988091,inf,,0.7559628998142379
19,5.50739077349755,-5.50739077349755,0.0,1.6376310987897744,1.5947490410682366,0.6873170715134943,2.807784582992391,1.2967622024488459,,,0.45235697871908603,5.454321615024618,inf,,0.7216442121500178
20,5.010635294096255,-5.010635294096255,0.0,1.4539525869904861,1.4411027058596013,0.618359718509465,2.6479910038354615,2.539482178019177,,,0.5947193981915972,5.0106352940962555,inf,,0.7757405141835468
21,3.9120230054281455,1.7884205679625413,-5.700443573390687,1.5166522270686087,1.5083446571296535,0.367433465275102,2.3830031073192175,1.8267925037028947,1.7884205679625405,,0.5370774965580548,3.912023005428146,1.7950983704935697,inf,0.46194155333227677
22,4.605170185988091,-4.605170185988091,0.0,1.4214170581169396,1.3946312525888847,0.5028885977469748,2.0354975386451444,1.6939122222999572,,,0.524519217297268,4.605170185988091,inf,,0.7609989309299755
23,2.9121576784006513,-2.9121576784006513,0.0,1.7056704512627863,1.6646769437296998,0.8657998219497715,4.667273949081607,6.7923597709165415,,,0.5748741956352443,2.91139112512024,inf,,0.833061319413142
24,3.2412087449622056,-3.2412087449622056,0.0,1.3756807511762732,1.2852805252110493,0.7091050019191485,3.128065604505558,2.820989421537711,,,0.5329562494928909,3.2404967709711645,inf,,0.7482520807323796
25,3.585193700580149,2.115249872810538,-5.700443573390687,1.6170500529078826,1.5330016311034749,0.6220861593839043,2.4295593253600565,2.209143074728799,2.1201195258310954,,0.3265551233283096,3.5803240475595906,2.126797328362125,inf,0.8687801099203961
26,3.9339015922434206,-3.9339015922434206,0.0,1.6170500529078826,1.4971800393010264,0.7257620489515824,2.570941348949349,2.41075667189341,,,0.2961247884481232,3.9322257127456655,inf,,0.7682488653531396
27,2.8992824561440336,-2.8992824561440336,0.0,1.6170500529078826,1.5914502546904274,0.8250173557603612,3.853046088952127,2.6387123636138665,,,0.34100769111774265,2.898202337011353,inf,,0.7177619649090851
28,5.451938999052754,-5.451938999052754,0.0,1.2947367616967491,1.2207512437585262,0.5589068593959929,2.123483448746132,1.7364900030175452,,,0.45235697871908603,5.393849793269601,inf,,0.8644349035378003
29,5.703782474656199,-1.0076682371892618,0.0,1.6487697548820397,1.6407673279551938,0.6388966121165472,1.9772547324983074,2.1704745095182165,,,0.5158180382284114,7.43727303576028,inf,,0.6018261915167102
30,4.605170185988091,-4.605170185988091,0.0,1.5877357156422383,1.566029028474393,0.6952707690926885,2.9312240342464384,3.7465423853129107,,,0.5604843169999094,4.605170185988091,inf,,0.8242443345012741
31,3.305887201857831,-3.305887201857831,0.0,1.2408507980595138,1.2392798396758722,0.7978190792400924,3.6134073967757963,3.4721133257091528,,,0.49759852643134905,3.3058872018578307,inf,,0.6333666874514355
32,2.389425563800965,2.2230799846798943,-3.866912776756998,1.320796655171651,1.271220252968236,0.8806037329101549,3.913661705873341,1.4245366655162703,3.526857313571,,0.5641709578113449,2.3892328997197176,2.2271105868664987,3.1276598165965392,0.7131443539356371
33,2.3364866446697268,-2.3364866446697268,0.0,1.6217136255611142,1.60561577262903,0.813389946605569,4.486036026817118,3.421520529755071,,,0.5641709578113449,2.336486644669727,inf,,0.7326521447699837
34,2.4383894732247016,3.2620541001659853,-5.700443573390687,1.6110769679889336,1.569901559591323,0.8143706745247986,5.394758693375991,55.1760091770345,3.2621660241966897,,0.36181263880445963,2.438277549193997,3.2688438267277187,inf,0.7072348594416434
35,2.8136426516984248,2.427793758645876,-1.475237024969923,1.5627872062388302,1.5268991288622789,0.8411798428576336,4.983564517303161,12.664717548572957,2.3871524240191717,,0.5883313578629602,2.813225548719511,2.3857493744962626,0.9253862973586402,0.4258893527019502
36,3.1074607423162557,-3.1074607423162557,0.0,1.4345527895314962,1.399166245219781,0.7225927954943993,3.4552343140941293,4.222051722845444,,,0.541134803179459,3.106787988460948,inf,,0.4597734680804073
37,3.380683087326651,2.3197604860640357,-5.700443573390687,1.7148495813449947,1.67824537656356,0.8281824176354274,3.231131685877947,1.6200228448333558,2.3219856786980206,,0.5713653840954815,3.3784578946926658,2.3286634812290496,inf,0.7694032284669351
38,3.1519306994206997,-3.1519306994206997,0.0,1.6826069090995341,1.6858183981417403,0.8520373595892682,3.47505948131643,2.808584272472726,,,0.5604843169999094,3.1496607558467278,inf,,0.6834355629704176
39,2.7325750986668194,2.9678684747238675,-5.700443573390687,1.5808011099652988,1.5205340308834494,0.7957699489967451,4.671480529791896,25.973434716285126,2.9682714301680666,,0.5329562494928909,2.73217214322262,2.974949232699096,inf,0.6985825386307861
40,5.703782474656203,-4.60105119622267,0.0,1.7357587608024159,1.6921724801462095,0.7805801415220588,2.4320038616529986,2.8711951512517992,,,0.48319206230712763,5.918627223155716,inf,,0.8443603997845982
41,3.9624653028078063,-3.9624653028078063,0.0,1.6051356186567864,1.5616210904427306,0.6077815966227953,3.5608943850150063,6.189683470278201,,,0.5068466436745385,3.9592310884149264,inf,,0.659364748654285
42,3.2908052298462955,-3.2908052298462955,0.0,1.5988338418114019,1.585164612761692,0.7423790634360175,4.160077547638172,13.96804428049361,,,0.5451288209179292,3.2902524877104287,inf,,0.7076292645749579
43,3.3649795133365124,-3.3649795133365124,0.0,1.6524669572336996,1.615880997359984,0.6633721076033061,3.3796407212939066,1.7556583077176682,,,0.5451288209179292,3.3639015969184585,inf,,0.7202229041106267
44,5.7037824746562,-5.7037824746562,0.0,1.4913979197835259,1.4486730490290394,0.775064811938775,2.6813394193673106,1.7243557481221412,,,0.45235697871908603,5.703782474656201,inf,,0.7734913428977761
45,5.7037824746562,-5.7037824746562,0.0,1.5726296568783444,1.5384852435982415,0.7603969775625895,3.189226275818889,5.787608995059415,,,0.48319206230712763,5.703782474656201,inf,,0.7512793664617924
46,5.010635294096255,-5.010635294096255,0.0,1.5052056498422401,1.4947646428843193,0.6454953646076806,3.032683509811932,2.7595657586354285,,,0.5329562494928909,5.0106352940962555,inf,,0.6595139737971528
47,,0.0,0.0,1.5440806851857298,1.518219849903492,0.6950682642938961,2.8327088731121126,4.863318168971709,,,0.5451288209179292,inf,,,0.7126843956236217
48,,0.0,0.0,1.0678661152076512,1.0330692045342345,0.5975538602517306,2.681391655783949,2.830681924278047,,,0.4576907132971797,inf,,,0.7957474044629891
49,5.703782474656202,-0.5323530309679122,0.0,1.4846496570254288,1.4598457744765772,0.7562881128376876,3.629247014959575,4.746434104494125,,,0.581717464821069,8.075360439137198,inf,,0.6529228569646962
50,3.7436289770542728,-3.7436289770542728,0.0,1.2129699655096766,1.2048556557303485,0.7730160396771256,2.8765564507629815,1.3899258916320796,,,0.524519217297268,3.742749164026667,inf,,0.6793564510608867
51,3.0198797785744236,2.6805637948162633,-5.700443573390687,1.6559149396518607,1.6580317606892172,0.8573313901350614,3.748766510350765,13.680250187781564,2.6811014341975614,,0.5748741956352443,3.0193421391931246,2.687779236728591,inf,0.5211264391639485
52,3.158310176061891,-3.158310176061891,0.0,1.712999771997653,1.6797980333672655,0.8350942901632648,4.24606942688798,4.172713975992561,,,0.5641709578113449,3.1577284638867,inf,,0.6397900813778383
53,3.078873861092373,-3.078873861092373,0.0,1.6479116677756762,1.6345277427066445,0.8287955377093311,3.482766588822104,5.087438856086127,,,0.5915533975974677,3.0783895072350003,inf,,0.5861959330515484
54,5.7037824746562,-5.7037824746562,0.0,1.6603092418947591,1.6334419971622154,0.5368047394459993,3.6921831840264745,8.805095812378596,,,0.48319206230712763,5.703782474656201,inf,,0.7512384916820457
55,,0.0,0.0,1.523211231377841,1.4903301055979046,0.9481711452795631,3.581834389962361,6.635980908204391,,,0.3943459996787778,inf,,,0.8208383442910292
56,,0.0,0.0,1.4768902317703851,1.463258785770945,0.9606756402175972,3.824812103575861,8.067589616607979,,,0.47824363442641393,inf,,,0.8807042645930281
57,,0.0,0.0,1.2106151398836003,1.1937676693511343,0.9151624005971891,2.8135339215288964,3.6445160148103106,,,0.35499006010413947,inf,,,0.8906538075299386
58,,0.0,0.0,1.2484369373514774,1.2185785580406199,0.93948898721492,2.766240083255502,2.9562451924510267,,,0.4302020962658841,inf,,,0.8769592623928792
59,,0.0,0.0,1.5493448853852207,1.527528106114744,0.9547762444477965,2.7300831440848072,2.2368636471568557,,,0.38804190201132227,inf,,,0.9018175499303885
60,,0.0,0.0,1.4825648784623835,1.434399572430867,0.9538151067283884,3.151810051475002,4.519262781220418,,,0.4576907132971797,inf,,,0.8942630303035379
61,,0.0,0.0,1.7106661454013978,1.685764858645063,0.9451015590953452,2.8403286016090146,3.224919039354516,,,0.41268473150466,inf,,,0.8677405028772377
62,,0.0,0.0,1.5745517774982527,1.5305934590756658,0.9665645970126225,3.184101248525439,3.8253040364698303,,,0.4732203808476458,inf,,,0.864809707408067
63,,0.0,0.0,1.7233987350722253,1.7141026305954579,0.9087736806096139,2.475930357435592,2.3887093189781115,,,0.47824363442641393,inf,,,0.8791533624137405
64,,0.0,0.0,1.4101067455859249,1.365296799340131,0.9066555858882894,2.8330334619225295,3.6400932052688053,,,0.5202020156036558,inf,,,0.9050827078252968
65,,0.0,0.0,1.6993333073530903,1.6746637470466248,0.9526191173430947,2.700614611323622,2.766787719381182,,,0.5287703885177266,inf,,,0.8925255775658313
66,,0.0,0.0,1.7813045464642776,1.7292316933786145,0.9502055101631597,2.3251827837053094,2.182529944725465,,,0.41268473150466,inf,,,0.8570454575528379
67,,0.0,0.0,1.710603849328387,1.6824989800159211,0.9148372220541016,2.2164778765814632,1.726606158175477,,,0.47824363442641393,inf,,,0.8612311552856466
68,,0.0,0.0,1.738808761242279,1.7038211980841182,0.8808476999035845,2.1449265110660636,2.3655054128537976,,,0.4066654671944331,inf,,,0.8467124156107655
69,,0.0,0.0,1.5600377261685865,1.5445254144653646,0.9434646771615232,2.0039351462727013,2.8179442787687257,,,0.4880666971167561,inf,,,0.8326980589361597
70,,0.0,0.0,1.6573818751091605,1.643820896308356,0.9624344940648595,2.051403816897051,1.8903919704023076,,,0.3751344627501719,inf,,,0.8452101694451329
71,,0.0,0.0,1.5902516363000607,1.5688819404172514,0.9767079520444725,2.1268777483067183,2.453514469917589,,,0.44694259446804574,inf,,,0.873140870205259
72,,0.0,0.0,1.5843575647670174,1.5897673322362287,0.9243284067928061,1.7945073677955399,1.7038563260791584,,,0.44144624493110796,inf,,,0.9081804546269753
73,,0.0,0.0,1.3856271404175438,1.3718410971192574,0.5329311094299346,2.0512161157985935,1.6759186394736236,,,0.40055318934786044,inf,,,0.6565465974109427
74,,0.0,0.0,1.41978136443499,1.414717096834322,0.9267464746522973,2.353861891544505,3.796629775380398,,,0.41268473150466,inf,,,0.8930440129637948
75,,0.0,0.0,1.242416290885149,1.2526660521297452,0.8082548617947917,1.7107215027613665,1.8745447089871707,,,0.49759852643134905,inf,,,0.8897456817771843
76,,0.0,0.0,1.5095427802882282,1.4747878873929898,0.7658303424054258,1.8449598250930002,2.027260042391595,,,0.5287703885177266,inf,,,0.8759232191271528
77,,0.0,0.0,1.5407370258199407,1.5404020726189849,0.7568838205696731,1.6444837114194106,2.092197685249664,,,0.44144624493110796,inf,,,0.8919735845880123
78,,0.0,0.0,1.6701169888568093,1.625880776002489,0.725895748898084,2.5844563575404376,1.789396499311982,,,0.48319206230712763,inf,,,0.8943399747072972
79,,0.0,0.0,1.6077632544965614,1.573894863538537,0.9376663403111268,2.7507740632076696,4.576570568387131,,,0.4576907132971797,inf,,,0.8610265719678212
80,,0.0,0.0,1.6816798477110988,1.65673819281635,0.9540293466225706,2.4953039806040214,3.1155300643235546,,,0.5022576003740722,inf,,,0.862110884526973
81,,0.0,0.0,1.2213065004557049,1.2097619182702941,0.9548421614089823,2.0606777642243004,2.5820816500928214,,,0.44144624493110796,inf,,,0.874637030708345
82,,0.0,0.0,1.4720190048356852,1.4645646938369685,0.9543540372887868,2.194672953675163,2.582039830328308,,,0.43586655696697996,inf,,,0.8199251615303597
83,,0.0,0.0,1.3933317377598258,1.3846398153565433,0.9589934943668426,2.0045390338773266,2.228367183450808,,,0.468121228110369,inf,,,0.8022242567200396
84,,0.0,0.0,1.5041055610093328,1.4683422001362416,0.8773724804062035,2.139789471334131,2.4705703085757444,,,0.4629450596409901,inf,,,0.838656254366124
85,,0.0,0.0,1.5300386488741724,1.4881330530469135,0.9233151761448622,2.4013081142104338,3.0384595843525695,,,0.4880666971167561,inf,,,0.770038531302873
86,,0.0,0.0,1.2038237362819646,1.2014492876768832,0.6906133462274912,2.9388670361342535,2.7364189094715483,,,0.45235697871908603,inf,,,0.8439586364470832
87,,0.0,0.0,1.552846102838315,1.5443574200878014,0.9297564270229374,2.7117705749925025,3.4889560777807263,,,0.5068466436745385,inf,,,0.8567771413557312
88,,0.0,0.0,1.5200719571213002,1.4990128134358907,0.9171122221759989,1.9231741591580218,1.8091803283566024,,,0.4928685327679205,inf,,,0.826387735582673
89,,0.0,0.0,1.6618866690559297,1.6341254542683477,0.863726800047109,1.983658444590926,2.266210571423424,,,0.4732203808476458,inf,,,0.8324302256528066
90,,0.0,0.0,1.5021890908977606,1.5072202974625661,0.8820151564518058,1.8988399108079475,1.8296936138192323,,,0.5490601803369085,inf,,,0.7958546205638721
91,,0.0,0.0,1.4186503950015625,1.399098998473915,0.9543831845674372,2.150746601487624,2.3371245331297064,,,0.42445136339222655,inf,,,0.8041391634585965
92,,0.0,0.0,1.4520557208408058,1.4226488893629656,0.7668409241881433,2.672131846573084,3.740160742583543,,,0.49759852643134905,inf,,,0.7606867202249106
93,4.633552743555662,-4.633552743555662,0.0,0.5666112877930527,0.5448731390607434,0.7996173069561671,2.125787683516092,2.17274709269089,,,0.48319206230712763,4.628780051627225,inf,,0.8862710181877077
94,,0.0,0.0,1.5911376951339504,1.532479234435976,0.569068267748605,2.227808276964212,1.880956124995035,,,0.49759852643134905,inf,,,0.7356071103029674
95,3.6684062925424588,-3.6684062925424588,0.0,1.663243340845462,1.649900081751322,0.9152514383877818,3.251223310186471,3.741709128829059,,,0.468121228110369,3.6664658592770363,inf,,0.7238696267762006
96,3.5065578973199822,-3.5065578973199822,0.0,1.687882617358698,1.6456121622727031,0.953075690753803,3.4492809643747835,3.082799744230165,,,0.49759852643134905,3.506557897319982,inf,,0.8728563422919738
97,3.9120230054281455,-3.9120230054281455,0.0,1.7071141892517872,1.6538589438783005,0.9334681617711338,3.2093835028283335,4.802766458122463,,,0.47824363442641393,3.912023005428146,inf,,0.8877614187307297
98,5.7037824746562,-5.7037824746562,0.0,1.6393413979065403,1.5889003877990602,0.9520320878844922,2.494581789884703,2.1705588400318634,,,0.42445136339222655,5.703782474656201,inf,,0.8751470325048926
99,,0.0,0.0,1.4659528650399922,1.4013467748279496,0.8523878222325955,2.109298561482099,2.5252696887256487,,,0.48319206230712763,inf,,,0.8411541937363084
100,,0.0,0.0,1.304699647260825,1.2651101862341543,0.6652301525087319,1.8102857379864041,1.6295164021923243,,,0.48319206230712763,inf,,,0.7993406627334826
101,5.7037824746562,-5.7037824746562,0.0,1.567126863111311,1.372384697005028,0.7894779801860942,2.478307975337235,2.5737915627966363,,,0.38163879478178075,5.703782474656201,inf,,0.7475403313907988
102,4.0943445622220995,-4.0943445622220995,0.0,1.4167454179883547,1.3267645383643674,0.8881048341516151,3.396038796365213,3.257523784817117,,,0.4880666971167561,4.0943445622221,inf,,0.8905093672105484
103,,0.0,0.0,1.5587765120653079,1.526658617952188,0.9584040403446044,1.8257635534068335,2.12593070335203,,,0.4576907132971797,inf,,,0.7760718226584168
104,,0.0,0.0,1.5017025672904711,1.465291967988364,0.9279952064561126,1.8190446999486503,2.481120150813145,,,0.524519217297268,inf,,,0.8316634309326624
105,,0.0,0.0,1.5183463429886652,1.4804818919922593,0.8078512018336218,1.83864341182496,2.1723006789976664,,,0.4928685327679205,inf,,,0.8262034392613924
106,,0.0,0.0,1.522025528835734,1.5381100509231933,0.9277168803982931,1.6879694681355086,1.9155004820453565,,,0.5158180382284114,inf,,,0.8008508051805092
107,,0.0,0.0,1.5766231625219074,1.5596968710813794,0.8757100162183569,1.426602308669453,2.1468928293470197,,,0.43586655696697996,inf,,,0.8195722262214705
108,,0.0,0.0,1.5425020259820241,1.5220255155998683,0.9376972013275429,1.4784444493328095,2.374474589093025,,,0.468121228110369,inf,,,0.7926503457937634
109,,0.0,0.0,1.6614722109992575,1.6589035468491082,0.9279203950659229,1.3959016299959603,1.5358978174378002,,,0.4629450596409901,inf,,,0.7624200534482749
110,,0.0,0.0,1.3913855952156047,1.3844337328852492,0.9281312127282186,1.387434642848098,1.8900202554358005,,,0.5022576003740722,inf,,,0.832463616440946
111,,0.0,0.0,1.291282401397219,1.300049056613714,0.8795029900867095,1.498976551247931,1.8494627086261646,,,0.43586655696697996,inf,,,0.8128930146185629
112,,0.0,0.0,1.472697958115383,1.459936130198063,0.87973652274118,1.1329724963112797,1.2639393018928853,,,0.5022576003740722,inf,,,0.7842995746047461
113,,0.0,0.0,1.6209715815240928,1.6152830117230688,0.36199143745121143,1.3653713615044807,1.3617066848983344,,,0.4302020962658841,inf,,,0.6254886939713857
114,4.605170185988091,-4.605170185988091,0.0,1.1247949008776978,1.0832004318594077,0.487386849014933,1.2990779365429999,1.0444216139529339,,,0.49759852643134905,4.605170185988091,inf,,0.8363393993861109
115,4.303355688619743,-4.303355688619743,0.0,1.4869514022216939,1.4506104725379558,0.8901580296562919,3.4080812610006435,5.808861236337357,,,0.44694259446804574,4.301778819831131,inf,,0.8559118223992009
116,5.7037824746562,-5.7037824746562,0.0,1.127147700333345,1.1250734456908675,0.9494620774327018,2.932461250560143,3.1401288134739462,,,0.38804190201132227,5.703782474656201,inf,,0.8398969134330267
117,5.7037824746562,-5.7037824746562,0.0,1.4813103796827447,1.4570523968263864,0.8994816667203364,3.1269460064965107,5.887086624449726,,,0.47824363442641393,5.703782474656201,inf,,0.8790443184297757
118,5.7037824746562,-5.7037824746562,0.0,1.0183708636244637,0.9918471759761399,0.895173735092773,3.0818608874104796,3.8391088105868807,,,0.49759852643134905,5.703782474656201,inf,,0.6599642719531233
119,,0.0,0.0,1.6641470755061791,1.6097783943168826,0.9174944561489922,1.9302377020724928,1.6811982877482388,,,0.42445136339222655,inf,,,0.8606209322788246
120,,0.0,0.0,1.7241253737159319,1.6671281672455054,0.9208098960629918,2.671864075995167,2.078275822136094,,,0.4629450596409901,inf,,,0.8972590397170063
121,5.160817183217576,-5.160817183217576,0.0,1.6772187662183404,1.661814965014874,0.66629343004134,2.4003142905123624,1.888553544204668,,,0.5158180382284114,5.1252982024163956,inf,,0.6110573840115636
122,,0.0,0.0,1.5067565181122007,1.4800136159007216,0.7749778009312098,2.0413601710669114,2.1944583269007225,,,0.41861278947482794,inf,,,0.6235178179495141
123,,0.0,0.0,1.6273753389116068,1.6051539718334464,0.9447198585171158,2.4547913716813885,2.172125554973268,,,0.45235697871908603,inf,,,0.8284719456952024
124,5.7037824746562,-5.7037824746562,0.0,1.6308853144706659,1.581607658284407,0.8681638344411015,2.670858706015214,3.1714753824298687,,,0.41861278947482794,5.703782474656201,inf,,0.8667118235609043
125,,0.0,0.0,1.6333597572916796,1.6001242083811351,0.9088168366314757,2.9026626023809343,3.02311971736764,,,0.4880666971167561,inf,,,0.8612385498082901
126,5.648330700211405,-5.648330700211405,0.0,1.465259318139298,1.4436059480727337,0.9593959324908329,2.9334243676579685,3.78154101967128,,,0.44144624493110796,5.626821433520073,inf,,0.8479828900274846
127,,0.0,0.0,1.5439359817272718,1.5063502453516568,0.937509478414624,2.6024089201665754,2.6560531176291717,,,0.4302020962658841,inf,,,0.818658427840765
128,,0.0,0.0,1.5409764748237589,1.5550840989765973,0.9554419730633267,3.225549863621102,4.753813055491753,,,0.4066654671944331,inf,,,0.8643207748016285
129,,0.0,0.0,0.9980315629532246,0.9665531529030811,0.5983473097702243,2.421873682126651,2.6208949739922365,,,0.3943459996787778,inf,,,0.8784165036899428
130,,0.0,0.0,0.6582544815115505,0.583631703122456,0.5669765189360105,2.5708861885816034,3.132709889007117,,,0.5068466436745385,inf,,,0.8029932623972399
131,4.647068247159268,-4.647068247159268,0.0,1.0891988798754095,1.0404239344362536,0.7502348861493111,3.084423988824967,2.856378980595453,,,0.4928685327679205,4.64022182404701,inf,,0.8171003282650988
132,3.9120230054281455,-3.9120230054281455,0.0,1.6741226815390147,1.6737027215640752,0.7549968627138555,4.173876178127926,8.47889781808885,,,0.62595550513784,3.912023005428146,inf,,0.6528484255493578
133,3.172741534186398,0.22083356970504786,-3.393575103891446,1.494445978218673,1.4661682768792783,0.7362317292069216,3.4022390652491357,1.8307713097108125,3.650321279030201,,0.6068309995095971,3.1655983890806,3.0601830099397174,inf,0.7666474193815953
134,2.8330181146495903,2.8674254587410966,-5.700443573390687,1.610040152052862,1.6042238888725702,0.7265403827633001,4.442981913683783,6.653399102700188,2.8683407236184975,,0.5451288209179292,2.832102849772189,2.875018526149527,inf,0.7115628443883725
135,2.75934349548976,2.9411000779009266,-5.700443573390687,1.7150153507611803,1.6805651201222385,0.8022672439004104,3.3799757896685914,2.2738070754004123,2.9411000779009258,,0.6008849035917525,2.7593434954897607,2.947777880431955,inf,0.469108279481066
136,3.0657132513363257,-3.0657132513363257,0.0,1.6845896858867895,1.675162206077664,0.8626816817320838,4.202519339957196,3.8143897113055187,,,0.5783247308855777,3.0656779797962144,inf,,0.6015580988591562
137,2.3983241496678818,3.1653445620069625,-5.563668711674844,1.7393016677326925,1.7414319034557115,0.8432443939346547,5.781227363102686,45.31610916115216,3.162127969692365,,0.6068309995095971,2.3981175197156093,3.1289144431960922,inf,0.7046024874052561
138,2.973143791155841,-2.973143791155841,0.0,1.53404339685992,1.51033276139508,0.7697253131886361,2.4208698909159936,1.1460855678591515,,,0.5748741956352443,2.972667000622995,inf,,0.871749321255424
139,4.31748811353631,-4.31748811353631,0.0,1.5738133187578258,1.5455629136027889,0.5501614973723934,2.3116914858174624,2.37600768100666,,,0.5490601803369085,4.31748811353631,inf,,0.5931896321639072
140,5.692293847354103,-3.434350621236975,0.0,1.5420556625898743,1.5004803393887212,0.65795128551566,2.59996439637091,2.996298889978471,,,0.4880666971167561,6.192629191703416,inf,,0.9011259536287559
141,5.7037824746562,-5.7037824746562,0.0,1.6618417251594506,1.6245219341596024,0.5743523344000525,2.2615831049899833,2.160534680078357,,,0.48319206230712763,5.703782474656201,inf,,0.8619814277057901
142,4.605170185988091,-4.605170185988091,0.0,1.6529735483078256,1.610504584592853,0.6840882373383372,3.24449075751078,2.910691854812912,,,0.5068466436745385,4.605170185988091,inf,,0.7958823247182777
143,5.010635294096255,-5.010635294096255,0.0,1.3289225337156902,1.3265238876136376,0.6443514730721712,2.443368610071951,1.496952646721942,,,0.5329562494928909,5.0106352940962555,inf,,0.8539092856228134
144,2.964323526600373,2.736120046790314,-5.700443573390687,1.5929362207713926,1.531817274078913,0.8773566537331907,2.6802932632497587,0.6659511751701199,,,0.581717464821069,2.9638030359820475,2.743318339939668,inf,0.6455158698017098
145,2.981084108658406,-2.981084108658406,0.0,1.694156506152737,1.665568799904989,0.8436221655855826,4.280468367188844,41.023971070958545,,,0.6008849035917525,2.9805153077491306,inf,,0.8156348259131989
146,2.426773860043011,-2.426773860043011,0.0,1.7268382124552897,1.6877799009902135,0.8044106886039283,4.896316836055352,9.366493064566544,,,0.4732203808476458,2.4265119634109187,inf,,0.557713283967713
147,3.549808390753304,-3.549808390753304,0.0,1.7268382124552897,1.688325111361775,0.7947182632530866,2.180643054656225,0.8222501162294304,,,0.38804190201132227,3.5396934589160804,inf,,0.6424931915693454
148,3.5126351223761714,2.1878084510145155,-5.700443573390687,1.7268382124552897,1.7035621086768744,0.7099060552259785,2.1835875689881625,0.768050863449067,2.1942559778709,,0.38163879478178075,3.5061875955197865,2.2009337804019293,inf,0.8329036728588863
149,3.3347979563984764,-3.3347979563984764,0.0,1.4405074354900724,1.414307713075618,0.8532001268565185,3.55106341449501,3.1682316829819395,,,0.6125606311107803,3.3338503082025452,inf,,0.6796803293807943
150,2.529872730888738,2.0719585538338396,1.0952622017828268,1.450945550207841,1.4302682549012464,0.8392089177466933,4.564415352204618,117.49350561642765,2.0720667292927493,1.0952622017828277,0.41268473150466,2.529764555429827,2.0787445318237787,1.1019623755533916,0.7694091089147376
151,3.0931982936766507,-3.0931982936766507,0.0,1.450945550207841,1.418353030838566,0.7813257338515186,4.200749809430608,10.947867549038264,,,0.45235697871908603,3.0917538174288617,inf,,0.5900008123853742
152,4.237156435063195,-2.1971983669936184,-2.0399580680695766,1.5890496583538178,1.5721026080052707,0.5656932607134308,2.625602410308616,2.8912314149443628,2.574456879351525,,0.468121228110369,4.2313104172952585,2.503425697555238,inf,0.6481520520737555
153,3.88540510333464,-3.88540510333464,0.0,1.6418566677224056,1.6450375750131778,0.769228827334175,3.7510306483166675,3.643222836407444,,,0.5783247308855777,3.871201010907891,inf,,0.7512130600074375
154,3.9120230054281455,-3.9120230054281455,0.0,1.7145910929719776,1.6503736004485967,0.7511612747258928,3.042910969997915,2.5307616564937825,,,0.5567373465730988,3.912023005428146,inf,,0.8126361636465839
155,3.0615203255393824,-3.0615203255393824,0.0,1.4678921617537486,1.46645628019555,0.7328502987637253,2.9467001791877023,2.6842469429153386,,,0.541134803179459,3.0613973549482676,inf,,0.5646356884090259
156,5.7037824746562,-5.7037824746562,0.0,1.4287137478248366,1.3735340338039148,0.6112817578348179,1.8492100560887563,1.8114367403038414,,,0.4576907132971797,5.703782474656201,inf,,0.671454030049885
157,,0.0,0.0,1.4960306187247108,1.4998058367643323,0.5150083477499238,3.511119988242961,6.632729614162439,,,0.524519217297268,inf,,,0.8222344078235749
158,4.1002950569238115,-4.1002950569238115,0.0,1.6625158830342612,1.6036855568547692,0.7634615819425108,3.0398258295296507,3.8927911723013766,,,0.49759852643134905,4.099692168548696,inf,,0.548118444077455
159,4.31748811353631,-4.31748811353631,0.0,1.571599843382664,1.5725748711891494,0.6906969738051223,3.8666997544623847,11.827693268362554,,,0.541134803179459,4.31748811353631,inf,,0.626195212908088
160,3.9126307439507917,-3.9126307439507917,0.0,1.6899062216926093,1.70629371130494,0.7117353578638371,2.870782172615949,1.9084414125389255,,,0.5883313578629602,3.912578715361869,inf,,0.6349294440100212
161,3.850362733497243,-3.850362733497243,0.0,1.5934045342239176,1.561869059713178,0.6996021386849096,3.0057074524385703,2.457066576826796,,,0.5915533975974677,3.847484484290575,inf,,0.540010810137323
162,4.31748811353631,-4.31748811353631,0.0,1.5528608432822582,1.5359523735075096,0.7897593857286259,3.0647107468443764,1.7725123316843119,,,0.5677978065141052,4.31748811353631,inf,,0.6028052684216396
163,4.165006686804933,-4.165006686804933,0.0,1.6349236223372665,1.6070462373245649,0.5951348027102792,3.5587540895287666,3.3821867819549842,,,0.5451288209179292,4.159772367544556,inf,,0.6698749946825299
164,3.1351277185869786,-3.1351277185869786,0.0,1.5863116147517222,1.5792721878606661,0.7742419243989714,3.268135064280625,2.375406772170481,,,0.6097226960127671,3.1349943408874985,inf,,0.5241792664219896
165,2.7249769882501016,2.9754665851405853,-5.700443573390687,1.623955195311938,1.6225345283370796,0.8260927024511765,3.533013944947706,4.664425437605192,2.975755731135453,,0.541134803179459,2.7246878422552334,2.9824335336664825,inf,0.5552871883234207
166,2.739709129949265,-2.739709129949265,0.0,1.7348853352855036,1.691481453875377,0.6687613361292539,2.5796689934944275,1.355324366897794,,,0.5370774965580548,2.7386812446557323,inf,,0.8708068357915079
167,2.7936541214751425,1.8126392982306485,-4.606293419705791,1.6052481776170817,1.5915651635943069,0.8649998536363078,3.877704372653055,35.89887984550919,1.8209251490108498,,0.5883313578629602,2.793245047165442,1.818614126973446,inf,0.6129753351015725
168,3.741789707012467,-3.741789707012467,0.0,1.4705215950065782,1.4461720839215624,0.6867117258965807,2.774290037812226,3.570187385204587,,,0.5490601803369085,3.738069698304708,inf,,0.5724868410694706
169,3.5426780282546058,-3.5426780282546058,0.0,1.562941265922003,1.5259825172182724,0.7749597603959967,3.339241437317943,4.727706536904748,,,0.5604843169999094,3.5412260262658584,inf,,0.7258931977025694
170,5.7037824746562,-5.7037824746562,0.0,1.6652053957811614,1.6886796857239152,0.6643057163747194,2.873528380287307,2.75076613515759,,,0.5567373465730988,5.703782474656201,inf,,0.851025037553982
171,3.409626222914781,2.2908173504759057,-5.700443573390687,1.5939520524571085,1.581542511705296,0.5849066124345194,3.1643693179444807,4.231463620958756,,,0.5287703885177266,3.4092295533594195,2.297891822562296,inf,0.6021751810082459
172,4.0943445622220995,1.6060990111685873,-5.700443573390687,1.6301159028221033,1.5561586683087545,0.6435771637728699,2.9286910121022367,1.6859620582414112,1.6060990111685858,,0.5947193981915972,4.0943445622221,1.612776813699615,inf,0.7439338449791608
173,3.7727735579841895,-3.7727735579841895,0.0,1.5590146153474604,1.559905312179368,0.7172831763464298,2.983214682402663,2.6635498709788212,,,0.552929491858785,3.771778087916818,inf,,0.6543868574674326
174,3.4331567380783623,2.2672868353123246,-5.700443573390687,1.5842161095803269,1.467171919281845,0.6371608938174453,2.365769374333565,1.7314096876356602,2.268443282573486,,0.5978297680564633,3.4320002908172005,2.275121085104515,inf,0.49809896185790264
175,4.248313612628905,1.4521299607617815,-5.700443573390687,1.5806833986144957,1.592201339957293,0.5826490959420692,3.0449657757311264,3.747160149611038,1.4575990028501418,,0.4629450596409901,4.242844570540544,1.464276805381171,inf,0.7492214086221349
176,3.4412204272324396,-3.4412204272324396,0.0,1.6881532618595307,1.6446517136536474,0.7760546988726205,3.2661920248250396,2.279702044917117,,,0.5748741956352443,3.438207207296056,inf,,0.6388911603812568
177,2.727199697673562,-2.727199697673562,0.0,1.5933430833142181,1.5870028761891461,0.7750824247423884,3.3131250244522024,4.310906248647322,,,0.5451288209179292,2.72689328890369,inf,,0.6386301445825635
178,3.61539953127569,0.7695570636402227,-4.384956594915913,1.612534210167767,1.5925286367612614,0.735785949890039,3.061786980270914,2.231408708885705,2.5065877118170397,,0.552929491858785,3.6110957062263447,2.3583899341628625,inf,0.5280898519775549
179,5.010635294096255,-5.010635294096255,0.0,1.5473251531773504,1.515042754052729,0.5567220784858556,2.600159836218748,2.411327258392419,,,0.4880666971167561,5.0106352940962555,inf,,0.8147903447374206
180,5.010635294096255,-5.010635294096255,0.0,1.3925643719731609,1.356210516825675,0.5272127059473458,2.1822657041604394,1.574584163281786,,,0.5022576003740722,5.0106352940962555,inf,,0.5620230854762199
181,2.2297382240164505,2.3720930607061272,1.0952622017828268,1.40411958893661,1.3721278058927133,0.8479049953352639,4.254408601813442,44.83145420077658,2.7776519242384103,,0.581717464821069,2.2296444685923307,2.378864618661275,1.1019623755533916,0.7347831981777315
182,2.9311937524164198,-2.9311937524164198,0.0,1.5686267464458428,1.537500811331282,0.8762778176963426,4.026846822792415,62.891003840708315,,,0.3480560589391537,2.9311937524164198,inf,,0.6863372671408972
183,3.0017116557495265,-3.0017116557495265,0.0,1.462652658731494,1.4281011041585132,0.8436777278174208,3.745352861965424,7.018755064389229,,,0.4302020962658841,3.0015268072623273,inf,,0.6117388330344733
184,2.995732273553991,2.704711299836696,-5.700443573390687,1.462652658731494,1.448412603266171,0.7805931895237115,3.6518889835551063,4.08254211512055,2.7047112998366956,,0.38163879478178075,2.995732273553991,2.7113891023677246,inf,0.5990527296824251
185,2.8709732947454283,1.7308579899771495,-4.601831284722578,1.462652658731494,1.420159688031243,0.7387854188309458,2.857801112391216,2.9701488853762004,2.131330847869824,,0.41268473150466,2.8709613643763414,1.7375477228772647,inf,0.6766789321925729
186,5.010635294096255,-5.010635294096255,0.0,1.4859998207769907,1.4684308361158769,0.6621869165272045,2.304116030749757,1.823986944000787,,,0.5783247308855777,5.0106352940962555,inf,,0.6678664225481387
187,,0.0,0.0,1.4674854286142893,1.4561130153428403,0.5162001927760803,1.7289057909749839,2.056346030745602,,,0.2461092077232671,inf,,,0.7775794822704172
188,5.7037824746562,-2.813866020830392,0.0,1.467773313128134,1.4657403527889747,0.40797364322215735,1.5127558566139516,1.545920794344423,,,0.3265551233283096,6.410352675548287,inf,,0.9554042183451307
189,5.0725925839787065,-3.0266469084406284,0.0,1.516732681696816,1.441141492928771,0.43221080037038095,2.0617425739388056,2.310191493026869,,,0.5451288209179292,5.572754212249797,inf,,0.8510600836413089
190,3.757669425890149,-3.757669425890149,0.0,1.159394437026269,1.1194979848264761,0.8184577892040917,3.482288808982918,10.790908856182469,,,0.5158180382284114,3.7569203978755055,inf,,0.5359761814357896
191,2.585576209329636,-2.3567958652470664,-0.2287803440825694,1.5860811844346916,1.5739242099698478,0.7740277584234472,4.7996209039577815,22.917365154943667,,,0.6068309995095971,2.5839170001211,6.338741299403302,inf,0.8092863826573422
192,4.280297521650609,-4.280297521650609,0.0,1.6292318275970348,1.544156626671697,0.5861662652434136,2.170827372953167,1.6021535505954763,,,0.524519217297268,4.276666119016055,inf,,0.809656242918476
193,5.010635294096255,-5.010635294096255,0.0,1.4671022414513377,1.4535853680188724,0.5903797359683687,2.157491876074411,1.4911961933752607,,,0.5113665138247345,5.0106352940962555,inf,,0.6747537779205481
194,3.7830112099459576,-3.7830112099459576,0.0,1.323494453571836,1.3040321394001306,0.7516926125144534,3.0830183949619165,2.213123185444457,,,0.541134803179459,3.7800205588238986,inf,,0.773233621817287
195,3.823586382434608,-3.823586382434608,0.0,1.688954093275749,1.6643531647380962,0.5492559074749567,3.7324563193365474,3.494748981193849,,,0.6125606311107803,3.816207902613851,inf,,0.793095484960683
196,3.8020621871513685,0.31598400633488044,-4.118046193486249,1.5173291408396536,1.5016087531951419,0.6140277600065018,3.340482592629262,3.146633754301446,3.310740829599087,,0.5713653840954815,3.7996868760338947,2.2325996655943428,inf,0.849013719738923
197,5.327172506551963,-5.327172506551963,0.0,1.5990995436319155,1.566997982130665,0.43811498932411336,3.4968856308831118,4.6039824881923055,,,0.552929491858785,5.269837895226168,inf,,0.813646294054239
198,5.7037824746562,-5.7037824746562,0.0,1.6731625795580418,1.6762147003984293,0.6730378278009894,3.084063305502659,6.677112746051811,,,0.5113665138247345,5.703782474656201,inf,,0.7955160585480121
199,5.2393738636810365,-5.2393738636810365,0.0,1.3221377842915887,1.2811237690958517,0.576860394254636,2.6601998523699018,2.4947927011395614,,,0.5604843169999094,5.190958848227537,inf,,0.6508100581954468
200,5.7037824746562,-5.7037824746562,0.0,1.7607726296396813,1.748716809805829,0.3282511584916901,1.9549294852388437,1.906347716551233,,,0.44694259446804574,5.703782474656201,inf,,0.8846358549157245
201,,0.0,0.0,1.553847431572169,1.524099150759641,0.6410442295056014,2.095344709538785,2.8306692895146695,,,0.5068466436745385,inf,,,0.6690952409754651
202,5.7037824746562,-5.7037824746562,0.0,1.2656909220913848,1.2231588889133351,0.4506838685555494,1.6866106307422621,1.619429138541951,,,0.44144624493110796,5.703782474656201,inf,,0.7136399657926977
203,5.015256275299987,-5.015256275299987,0.0,1.5685100301216566,1.5180432690786565,0.5119062383205658,2.3995936393125477,2.055907062730957,,,0.581717464821069,5.0139741953617705,inf,,0.7503854052715815
204,4.3999569743058204,-4.3999569743058204,0.0,1.7525759745651162,1.6550969705915957,0.7584676467080966,2.05714553483856,1.418302912185132,,,0.5748741956352443,4.391852528825173,inf,,0.4560622314571569
205,3.6111378880163922,-3.6111378880163922,0.0,1.6312698912525692,1.6055888100227904,0.7296269696483819,2.9046111500600342,2.903308138753096,,,0.552929491858785,3.609862913795712,inf,,0.6668409550676329
206,3.0870174161532193,-3.0870174161532193,0.0,1.7496860019114882,1.6901368081593493,0.8359289870983941,3.9093382424381184,2.963262678554903,,,0.6068309995095971,3.0861433624145236,inf,,0.5430077346682534
207,,0.0,0.0,1.3967376148099193,1.3794197588948478,0.5393919702058483,2.6104633203413834,7.312438186744602,,,0.5202020156036558,inf,,,0.8778808096651518
208,4.884941110582724,-4.884941110582724,0.0,1.6834797752830206,1.628936771403916,0.5715307724703677,2.930463849576452,3.454005569565224,,,0.4629450596409901,4.866534950122499,inf,,0.8410630558019129
209,4.570648337293877,-4.570648337293877,0.0,1.441864125263753,1.3812471565447255,0.6305941651100896,4.166408994246959,27.856330449434097,,,0.5329562494928909,4.56594947283481,inf,,0.6103888138286735
210,3.0813877691282943,2.6190558042623926,-5.700443573390687,1.4796526795248786,1.4902523878551,0.8230718885363065,3.6918105960720093,5.393780236280804,2.6208464823837727,,0.5783247308855777,3.0795970910069137,2.627524284914802,inf,0.70894155421138
211,2.9768306696892988,-2.9768306696892988,0.0,1.6455030396570034,1.6356797779363266,0.7669681094744418,3.8492844662045327,6.374832260819376,,,0.585052858160615,2.976365471063141,inf,,0.7197589106999913
212,3.0217111410771467,-3.0217111410771467,0.0,1.692620974904516,1.5912523100202822,0.7424551119981726,3.2257888211755925,1.6445838285066388,,,0.541134803179459,3.0207082596241683,inf,,0.8035972799769713
213,3.1924617313359334,-1.743519552146327,-1.4489421791896064,1.3908259935054248,1.370973352337089,0.771200916102426,3.7143413937536076,6.199390390189606,,,0.5947193981915972,3.191747157479948,3.885084451546123,inf,0.5454639843096935
214,3.5557997957767893,-3.5557997957767893,0.0,1.6056302509535816,1.587798549137739,0.6936027657596828,4.255862862984615,4.043544817953237,,,0.6038851895711802,3.5539601362145654,inf,,0.6518335969045923
215,3.9120230054281455,-3.9120230054281455,0.0,1.622513682267839,1.5929239111782085,0.6876474549609315,3.405559076664524,4.722946205134326,,,0.585052858160615,3.912023005428146,inf,,0.4667960543753398
216,3.5043724882934333,2.1960710850972536,-5.700443573390687,1.6735357734227265,1.5932013568247534,0.6490169222995562,2.9907275246710086,2.467291574768282,2.7928183726286764,,0.5713653840954815,3.5021233002521157,2.2049980756695997,inf,0.7573881234344069
217,3.3841199367649724,2.3163236366257145,-5.700443573390687,1.738003998231242,1.6274997752751696,0.5709526707631883,2.214727225224215,2.170633034923907,2.373455013927501,,0.5022576003740722,3.3784578946926658,2.3286634812290496,inf,0.828631752800004
218,3.1329000071914628,-3.1329000071914628,0.0,1.647234382968747,1.6565183052838464,0.7456127871330033,3.6094749238638837,2.3614472158696893,,,0.5783247308855777,3.131170244449095,inf,,0.597567441538547
219,3.2624376790655445,-3.2624376790655445,0.0,1.667383476364611,1.6058797445162,0.7210841815889688,4.171435304273097,16.19282758025949,,,0.524519217297268,3.2608558971090837,inf,,0.7811875745260638
220,3.545818909205442,-3.545818909205442,0.0,1.6102984283327162,1.5799857357150517,0.9816791098530613,4.074539506796702,2.1004213235167386,,,0.4880666971167561,3.544298225302829,inf,,0.8335316836221955
221,4.605170185988091,-4.605170185988091,0.0,1.5401652400463592,1.5368336444459676,0.8992046353443339,3.7784631012933527,23.718714626869833,,,0.48319206230712763,4.605170185988091,inf,,0.7722611179988325
222,3.061045525228305,-3.061045525228305,0.0,1.4994424354325826,1.461804954480711,0.7177002083294011,4.3464401301248285,16.91108649038278,,,0.4880666971167561,3.0609228590912037,inf,,0.8701702263646616
223,4.605170185988091,-4.605170185988091,0.0,1.5905369179293878,1.5376573507416957,0.7048673120456704,3.511422425292606,2.990009219934489,,,0.5113665138247345,4.605170185988091,inf,,0.820748176429812
224,,0.0,0.0,1.7032749178152242,1.663834703008239,0.9268553010800689,3.3753396798253177,2.7574011684560262,,,0.5329562494928909,inf,,,0.918236447318502
225,,0.0,0.0,1.683776409934586,1.6363055871413785,0.9128478159466722,2.846293936470813,1.8146515211866414,,,0.4302020962658841,inf,,,0.8935801507758722
226,,0.0,0.0,1.6039532573813708,1.5696180647671263,0.857965084407903,2.021385141095405,1.8819112185025961,,,0.4880666971167561,inf,,,0.8692835460222424
227,,0.0,0.0,1.6765848283636655,1.6257351724201752,0.8540452192886728,1.7906515736326958,1.9423031604188068,,,0.5329562494928909,inf,,,0.9199270144827222
228,,0.0,0.0,1.535572610992577,1.5134505829677323,0.732955960922077,2.3476450723605633,2.4127837382711963,,,0.524519217297268,inf,,,0.7428852144773243
229,,0.0,0.0,1.6781257891752963,1.674182297821214,0.9291935978034515,2.577759273380993,1.6011655675937684,,,0.4629450596409901,inf,,,0.8935319402659523
230,2.830248228068913,-2.830248228068913,0.0,1.0845399356716328,1.042750272119152,0.8484804583517976,3.5559845911432104,8.966579739291697,,,0.541134803179459,2.8294648229926436,inf,,0.6091345643138731
231,2.5454479323222974,2.0563833524002804,-4.601831284722578,1.7027800867106755,1.7415644005197737,0.8237735781361131,3.650818345850953,2.8352852575111487,2.0566082989265215,,0.5641709578113449,2.5452229857960553,2.0632861014575505,inf,0.579534483187465
232,,0.0,0.0,1.5868425428641615,1.5408993545395289,0.6228140330529888,3.9820307550692466,3.5249481984323623,,,0.4928685327679205,inf,,,0.7780539577912878
233,4.597498664056044,1.102944909334643,-5.700443573390687,0.27116504038385075,0.21652767356344063,0.7397451885550576,3.1859185528381255,2.645794077336015,1.1041230026795776,,0.4928685327679205,4.596320570711109,1.1108008052106069,inf,0.7577414214333247
234,3.120948799764734,-3.120948799764734,0.0,1.6549731743072675,1.6244695383528347,0.9210259377252885,4.404698954661626,28.60131939214594,,,0.4928685327679205,3.1200365262006398,inf,,0.672793923709421
235,3.1307070190528035,-3.1307070190528035,0.0,1.5236252858543065,1.5099355392458975,0.9353296385527301,3.3045653923291485,10.806058742869103,,,0.5202020156036558,3.1301529503633976,inf,,0.7680981162175832
236,,0.0,0.0,1.6496147321711856,1.6416745945129911,0.7668502348920264,4.138769428442689,8.524886211828202,,,0.5490601803369085,inf,,,0.930018543092702
237,5.038361181318653,-5.038361181318653,0.0,1.3459031818212859,1.3209299208139091,0.8479457083318453,2.858194849555344,3.2349120886186404,,,0.48319206230712763,5.030838001413775,inf,,0.6413808569201129
238,3.609814358578745,-3.609814358578745,0.0,1.5859560180901568,1.5599759862396898,0.77317575222397,4.0905642771071795,11.988913954442967,,,0.541134803179459,3.609041895687196,inf,,0.8295481992687863
239,3.275978775709682,-3.275978775709682,0.0,1.720711170027534,1.6877643885779918,0.9355966948688357,3.7278312921384273,16.09972469738594,,,0.4732203808476458,3.2748584596191375,inf,,0.921298155001118
240,2.75934349548976,-2.75934349548976,0.0,1.759135651206209,1.7221780973273968,0.9239008177360617,4.782599360627549,73.7675131242388,,,0.5158180382284114,2.7593434954897607,inf,,0.8826361777984137
241,3.631462607249673,-3.631462607249673,0.0,1.6988436326997483,1.6722073856182726,0.9236551855564942,3.8974612671516176,8.223580679745918,,,0.5202020156036558,3.631029921127162,inf,,0.9015756318134801
242,3.1399003532969783,-3.1399003532969783,0.0,1.6763156195508948,1.672924181003954,0.930506441191791,4.45456252093846,14.293974987199519,,,0.541134803179459,3.1398592845499764,inf,,0.904303446657853
243,2.895223143472002,2.805220429918685,-5.700443573390687,1.6688512954834094,1.6433891232421654,0.9237984794387385,4.296221582171188,3.840970203193905,2.8056621070058214,,0.4928685327679205,2.894781466384865,2.812339909536851,inf,0.824474095989223
244,2.662837982305203,2.3444584105255384,-5.0072963928307415,1.527632253053561,1.526715983845858,0.9063615203164307,5.050040314963392,78.29147774514949,2.344538180920238,,0.5202020156036558,2.662758211910503,2.351215983451267,inf,0.6982473089774571
245,3.3548465952768964,-3.3548465952768964,0.0,1.2641940560758076,1.2123452064777143,0.8145116245167686,3.8986850529419512,11.84537884081601,,,0.45235697871908603,3.3536778656941792,inf,,0.6808199285882363
246,2.970471198110586,-2.970471198110586,0.0,1.7655656928077292,1.7232890536859304,0.9485985819599791,4.21789606641998,18.605824251039316,,,0.4629450596409901,2.969631438881797,inf,,0.9127843765074651
247,,0.0,0.0,1.6770236397917495,1.5937207205344046,0.7700034730265696,4.019407667360906,5.31074937284089,,,0.44144624493110796,inf,,,0.8746938275846546
248,,0.0,0.0,1.5627067123982654,1.540609515829929,0.9696473652245541,4.163841950912519,20.279868146346185,,,0.4732203808476458,inf,,,0.8992019527175698
249,4.31748811353631,-4.31748811353631,0.0,1.5316397161020645,1.4274674404965728,0.9502146242600706,4.183841213783058,11.084703322053617,,,0.49759852643134905,4.31748811353631,inf,,0.6689732437234907
250,4.605170185988091,-4.605170185988091,0.0,1.7744859853659318,1.7321722344233772,0.9846782680660426,3.589362617639729,10.702188792067712,,,0.49759852643134905,4.605170185988091,inf,,0.8880106552298395
251,,0.0,0.0,1.4073634787302707,1.4089392198185098,0.7541387857236332,3.5084855164434434,2.862682095015093,,,0.5287703885177266,inf,,,0.8692105290893675
252,4.0943445622220995,-4.0943445622220995,0.0,1.5987399221037641,1.5614368834980499,0.8133783440941456,3.4479468116850653,2.0489281192428073,,,0.44694259446804574,4.0943445622221,inf,,0.8968360648993934
253,,0.0,0.0,1.1467266970243966,1.1393741816381444,0.5750972847586081,2.848860398729862,2.552876728117438,,,0.48319206230712763,inf,,,0.7734635007632797
254,4.605170185988091,-4.605170185988091,0.0,1.2720923425575172,1.2286252517824423,0.9001052449162451,2.980159994303053,2.7618406215281794,,,0.524519217297268,4.605170185988091,inf,,0.8752933149588246
255,3.2366610537803058,-3.2366610537803058,0.0,1.640749764020704,1.612066630129134,0.9425722501213473,3.6065059093983876,11.556012981014065,,,0.44694259446804574,3.235965468966939,inf,,0.8885281749859135
256,3.2975331081351267,-3.2975331081351267,0.0,1.3501533774913363,1.310614777067575,0.9259969661221628,3.6225642942269083,2.286116824828501,,,0.44144624493110796,3.2959368710046624,inf,,0.776862712389279
257,5.7037824746562,-5.7037824746562,0.0,1.0761300658947457,0.9971075219623425,0.565999980965243,3.6752607682049705,3.8846848350909484,,,0.41861278947482794,5.703782474656201,inf,,0.730811100066831
258,5.7037824746562,-5.7037824746562,0.0,1.543243949436194,1.494536953673098,0.8408301588449772,2.918058106345032,2.2474875813738544,,,0.4880666971167561,5.703782474656201,inf,,0.8718542074522206
259,3.624340932976365,-3.624340932976365,0.0,1.6193053048714305,1.5524275585080816,0.8556063719746376,3.2345393129788995,2.339811338599155,,,0.44144624493110796,3.624340932976365,inf,,0.6959976943319045
260,5.010635294096255,-5.010635294096255,0.0,1.507941325840219,1.443984423853582,0.909803608112403,3.6015393296966347,6.399360810823822,,,0.49759852643134905,5.0106352940962555,inf,,0.7864126857118355
261,5.7037824746562,-5.7037824746562,0.0,1.7191810014870992,1.6811087900805404,0.9642311487458797,4.010150982035464,4.539163256845448,,,0.4576907132971797,5.703782474656201,inf,,0.8895243710295226
262,,0.0,0.0,1.6824975483926932,1.6540819849714463,0.970234615082892,3.857560706455694,53.499023009894636,,,0.44694259446804574,inf,,,0.861930176859453
263,,0.0,0.0,1.6632836844780936,1.642197605127214,0.9558869481627832,4.19144256615641,19.169056723255903,,,0.4732203808476458,inf,,,0.8452274714631585
264,,0.0,0.0,1.2846550110422756,1.2483957567062587,0.9791599357643013,3.707654122758663,8.249768816568302,,,0.4302020962658841,inf,,,0.8818410682840923
265,,0.0,0.0,1.494268076365149,1.4635617429724859,0.9678894598711978,3.19787944662352,18.716493781473254,,,0.43586655696697996,inf,,,0.873514952446195
266,,0.0,0.0,1.3728598551161812,1.3552309220068575,0.9569324805528571,3.607456870899963,6.027776110921321,,,0.3265551233283096,inf,,,0.8923224220129592
267,,0.0,0.0,1.3795444383728988,1.3974670768811612,0.9269852405779466,3.18877158745293,3.528148247205285,,,0.4732203808476458,inf,,,0.8606493598279982
268,,0.0,0.0,1.5012297131463903,1.5000221391115776,0.9541887416674057,3.303956619806223,5.609605214915089,,,0.40055318934786044,inf,,,0.8704817926548559
269,,0.0,0.0,1.595305644435916,1.5668251543555394,0.9349262954723478,3.067427918893731,5.3247842099216705,,,0.4302020962658841,inf,,,0.876249397190676
270,,0.0,0.0,1.6224376758241945,1.5938663157379789,0.9403076697747862,3.0144847037414344,9.175264097342026,,,0.43586655696697996,inf,,,0.8950417920100875
271,5.7037824746562,-5.7037824746562,0.0,1.5082791204342385,1.3745031581286804,0.8619204531223323,3.0688929790727206,2.8281101598792056,,,0.5370774965580548,5.703782474656201,inf,,0.9088508469187205
272,,0.0,0.0,1.6729058617707289,1.629844108544758,0.9363072075239848,2.1929599226547705,1.807876455135057,,,0.4732203808476458,inf,,,0.8737477126210023
273,,0.0,0.0,1.5146040983078541,1.4851101918529475,0.6521292448582215,2.7132421184721425,3.136715240002198,,,0.42445136339222655,inf,,,0.8539547964217094
274,,0.0,0.0,1.6732376161208755,1.5961557826202593,0.7873039082531272,2.484932320582547,4.154053748461603,,,0.48319206230712763,inf,,,0.8109254645763844
275,4.0943445622220995,-4.0943445622220995,0.0,1.2423792756160954,1.1478390657232242,0.5570823558529616,3.1324922857751685,2.584789836528194,,,0.5287703885177266,4.0943445622221,inf,,0.6156455459681623
276,2.5682882587270512,1.7458609535437448,-4.314149212270796,1.4802854612500915,1.4644727260063364,0.9350832321687127,7.201320163634348,47.373844383468466,2.4390081341036898,,0.49759852643134905,2.5682882587270512,1.7525387560747736,inf,0.8456292440166299
277,2.995732273553991,2.704711299836696,-5.700443573390687,1.6019999690953561,1.5658335062550401,0.9859705857618815,5.100546980440354,124.6928747228991,2.7047112998366956,,0.40055318934786044,2.995732273553991,2.7113891023677246,inf,0.8690891603678922
278,2.526437971215236,-2.526437971215236,0.0,1.5068658028977782,1.4754173728801607,0.9693444361216246,4.952116640707064,280.32852804037014,,,0.44144624493110796,2.526423329990934,inf,,0.8683052012749815
279,2.659260036932778,-2.659260036932778,0.0,1.4749044399242448,1.4511171095978976,0.9722357569869704,5.018577899665687,11.470998832388329,,,0.44694259446804574,2.659260036932778,inf,,0.8355369245213891
280,3.305887201857831,-3.305887201857831,0.0,1.2347165416367587,1.2167452078873402,0.9717884547091746,4.544282823316125,41.16703688811746,,,0.3943459996787778,3.3058872018578307,inf,,0.8263799263603803
281,3.185791505696472,-3.185791505696472,0.0,1.3172804645225846,1.3064783873082726,0.9787366296628738,4.176579087661712,64.3152180525164,,,0.36181263880445963,3.1850113109154443,inf,,0.8320306219811001
282,2.995732273553991,-2.995732273553991,0.0,1.6288827552452783,1.6072014819003393,0.9776224626095495,4.751618895034819,53.375603986008706,,,0.48319206230712763,2.995732273553991,inf,,0.8040683141945829
283,3.911509169828721,-3.911509169828721,0.0,0.8410543638400829,0.805985295605393,0.9051275828710489,4.276006754330985,15.558674434839965,,,0.4066654671944331,3.9114676041364462,inf,,0.8068786355905683
284,4.610576387429533,-4.610576387429533,0.0,0.9845747265139762,0.9754110163181028,0.8174971989606985,4.290348528043547,12.419525770439872,,,0.5068466436745385,4.6096245363374715,inf,,0.6707548528451066
285,5.7037824746562,-5.7037824746562,0.0,1.607223499773101,1.627679899572834,0.924609497466965,3.3653507316297104,9.713194629582823,,,0.43586655696697996,5.703782474656201,inf,,0.8661133796564348
286,4.0943445622220995,-4.0943445622220995,0.0,1.6315940757246072,1.5904006470287015,0.9064109852249034,3.9175096084988255,4.8960663175168175,,,0.48319206230712763,4.0943445622221,inf,,0.9038329965501046
287,3.5065578973199822,-3.5065578973199822,0.0,1.4589040797914319,1.4340191693122237,0.6942781511674102,4.798069359021839,13.533036114366123,,,0.44144624493110796,3.506557897319982,inf,,0.8146776238226369
288,3.401197381662155,-3.401197381662155,0.0,1.666940030702908,1.6426437602075548,0.8620206492899242,3.5454472241793282,11.138402676263972,,,0.3751344627501719,3.4011973816621555,inf,,0.6895378030552215
289,4.86812492690698,-4.86812492690698,0.0,1.292273039744034,1.225645342935569,0.9263410946225776,3.5987808006874364,2.7827366246283316,,,0.44694259446804574,4.825539810419576,inf,,0.9136835432296624
290,2.7926849486064302,-0.6192716798220212,-2.173413268784409,1.4017954919875597,1.4059275381922072,0.7605865134891254,3.538258204635774,5.6520800408835505,,,0.5202020156036558,2.7923380176247994,3.8790284832931072,inf,0.7133471513723683
291,3.121771639847182,-3.121771639847182,0.0,1.6395588839952229,1.5626699699729096,0.8626276567141875,3.9801597771962043,12.353322392344168,,,0.585052858160615,3.1207917181811506,inf,,0.5769758400695569
292,3.038737830114191,-3.038737830114191,0.0,1.6189539940248991,1.5850007715169319,0.7448205656186421,4.003390354122349,2.9680423179001814,,,0.6125606311107803,3.038175952664559,inf,,0.5493151961307172
293,4.913323668150295,-4.913323668150295,0.0,1.7037841410885748,1.6542659942758122,0.7228258889753194,3.357071914104404,2.4364137691221206,,,0.5068466436745385,4.897306608789252,inf,,0.6912784583558048
294,3.41629905557311,-3.41629905557311,0.0,1.7458273086968594,1.6858475600835892,0.6705098393820405,4.005662286044858,10.758107823565194,,,0.47824363442641393,3.415634429459925,inf,,0.5885627646300109
295,3.757872325600888,-3.757872325600888,0.0,1.4015825636446788,1.414798227841668,0.6527827521332581,4.2216752471920325,283.1969574576265,,,0.44144624493110796,3.757872325600888,inf,,0.7263476191463923
296,,0.0,0.0,0.5566990910478358,0.5478536152947042,0.12725119832587506,0.16054899148409837,0.10747115548777508,,,0.27183033608702345,inf,,,0.9139398878268999
297,5.703782474656201,-0.11407564949312402,0.0,0.4968000875910551,0.4247348674451419,0.10899047054787533,0.12901044116018093,0.07588997703322528,,,0.5202020156036558,9.615805480084347,inf,,0.7947228563000176
298,3.0586069562133473,-3.0586069562133473,0.0,1.5744253106255308,1.5553046083349285,0.6890577533783705,4.311535097498495,5.171187025669725,,,0.6380535849069913,3.055718210484158,inf,,0.8114426728752127
299,3.1746421418611983,-3.1746421418611983,0.0,1.372849766069215,1.3610023555930852,0.725687196291288,3.3027720931933,2.110981809796663,,,0.6038851895711802,3.1737962400953044,inf,,0.7382663714168097
300,4.488452658687555,-4.488452658687555,0.0,1.3997432395732652,1.3475727585692319,0.7385103191254078,3.0864764116662537,2.4129562450619098,,,0.5604843169999094,4.462513885586568,inf,,0.750419753739739
301,2.995517145150199,-2.995517145150199,0.0,1.3488173637169512,1.3054282275223217,0.745730266749721,3.693354990210905,2.26152626578815,,,0.5883313578629602,2.9955100760194693,inf,,0.5896112280151029
302,3.622222596423109,-3.622222596423109,0.0,1.4117422155885229,1.3542261541798593,0.783439044143345,1.3542031441349625,0.0811800912654701,,,0.43586655696697996,3.6214285115293303,inf,,0.5125613508200395
303,,0.0,0.0,1.4117422155885229,1.4281104438034822,0.7849535161840341,0.03868423546874666,0.046698566436909235,,,0.41268473150466,inf,,,0.9409033192993996
304,5.703782474656201,-1.6731095258991522,0.0,1.6237919341698155,1.6025607826722388,0.5231451357652623,1.2176078707969022,0.23004576924717846,,,0.5022576003740722,6.930228134834196,inf,,0.7291886103720602
305,3.074504719148296,-3.074504719148296,0.0,1.634343259283019,1.57403252060523,0.7518399697402869,3.132215103634739,1.6533930619641,,,0.5978297680564633,3.0733335195775426,inf,,0.8069502508826444
306,4.240208417211496,-4.240208417211496,0.0,1.5426786566494577,1.4410318213755837,0.6438575553822325,2.215467211595093,2.4043108309998056,,,0.5451288209179292,4.12893600699172,inf,,0.7206588246251422
307,4.072465975406826,-4.072465975406826,0.0,1.5998056171539796,1.5634794052719092,0.6184503665892156,2.3232551442688694,2.181009616329203,,,0.5490601803369085,4.070628035604785,inf,,0.6031540413683929
308,2.7323625413491177,2.968081032041569,-5.700443573390687,1.7151665573343033,1.6812756237379876,0.8552939426243354,4.488621494129806,2.0620778806602402,7.976079899480084,,0.5783247308855777,2.7316600667413438,2.9754613091803717,inf,0.6620692742244668
309,2.9342074223325794,-2.9342074223325794,0.0,1.7500380948084566,1.7376923440265242,0.6421792384975598,2.636913959271072,2.0707636079557137,,,0.552929491858785,2.9314021074541565,inf,,0.6315062629482628
310,2.6016408690089374,2.405655523821804,-5.0072963928307415,1.6728243739066757,1.6496042930725274,0.8834734013581296,4.032819418298704,6.768162342854041,2.4058559267867894,,0.5713653840954815,2.6014404660439516,2.4125337293178184,inf,0.7203424790950946
311,2.634181266536119,-2.634181266536119,0.0,1.5555340700763294,1.5137230861942315,0.8090497476481119,4.576935799622104,4.844284136386688,,,0.5947193981915972,2.6338708029279587,inf,,0.7143580431258034
312,4.339543739090947,-4.339543739090947,0.0,1.5683439163597466,1.3624417683197565,0.5312137722747504,0.908343403610253,0.581351665348536,,,0.5158180382284114,4.336840842052125,inf,,0.7324085123397158
313,3.1410086787396367,0.6148019699492102,-3.755810648688847,1.5714040912881073,1.4837927837316813,0.7264665875673689,2.143055412887593,0.7491379817118022,3.264328803772362,,0.5748741956352443,3.139346069244896,2.9850151513295176,inf,0.5776892008539274
314,3.017869383767807,-3.017869383767807,0.0,1.5144058560356901,1.502274911941885,0.7716196647446953,3.3450854107287924,2.482183240800255,,,0.6233814453054027,3.0172964514698313,inf,,0.8066564667600856
315,3.323464855698124,-3.323464855698124,0.0,1.3499421930357627,1.354665033491938,0.8754839470789095,3.4671518912057224,2.5222420184918604,,,0.581717464821069,3.3186961601504117,inf,,0.5006452586219535
316,2.7005690425962303,2.306727350234511,-5.0072963928307415,1.7371982493235394,1.7245438940136988,0.7928124755155356,3.859500878698678,2.050565225408063,2.8340063158750777,,0.585052858160615,2.7004127739729986,2.313561421388772,inf,0.7093649210163786
317,3.1678300074097594,-3.1678300074097594,0.0,1.6433487073124236,1.6072070570108123,0.8375667460506471,4.333185873320029,4.666733589249036,,,0.6125606311107803,3.1650717961247765,inf,,0.6404381626878466
318,3.2890482510267707,-3.2890482510267707,0.0,1.6476971063807757,1.588452557634211,0.7219589645401996,2.9167292680625736,1.491660410136511,,,0.6233814453054027,3.2783899524006084,inf,,0.6941619762974329
319,3.1039599298054,-3.1039599298054,0.0,1.5922252695203822,1.5938112997395657,0.775519043184182,3.334491200670549,1.376470277333647,,,0.581717464821069,3.101339733280241,inf,,0.7431297396293054
320,4.208919133601006,-4.208919133601006,0.0,1.4590206634391392,1.4497351888620325,0.5974959458206948,2.4597853365021733,1.9503627962720596,,,0.5748741956352443,4.198224692709493,inf,,0.8776335887415354
321,,0.0,0.0,1.612752411163692,1.610425464305682,0.6945510436724881,2.2540702281460256,2.6556950088245226,,,0.49759852643134905,inf,,,0.8942588850212235
322,5.133091295995178,-5.133091295995178,0.0,1.6741945316728113,1.6614201125033115,0.70309362343077,2.2688331540070465,2.6239589338340057,,,0.5451288209179292,5.103116146890421,inf,,0.9203216997262137
323,,0.0,0.0,1.4901269437729203,1.488272346075208,0.5300552501786342,2.190875672787119,2.5839662067070703,,,0.5567373465730988,inf,,,0.828122264537592
324,5.7037824746562,-5.7037824746562,0.0,1.6058297776838502,1.6057886238478019,0.6147323057937328,3.0524903062298256,4.028731067080718,,,0.468121228110369,5.703782474656201,inf,,0.7571879631874401
325,3.4363858781211185,-3.4363858781211185,0.0,1.7224664316631704,1.7017043078269265,0.7976831638345852,3.4909924829762176,2.664526177605392,,,0.6068309995095971,3.4285685784582873,inf,,0.5872869036039517
326,2.8188796745997586,-2.8188796745997586,0.0,1.578366660813041,1.5238866202673167,0.8341324485891052,3.6549463519663896,2.27582723116148,,,0.552929491858785,2.817121296156572,inf,,0.7212137843826115
327,3.4530310763344656,-3.4530310763344656,0.0,1.7320227900777148,1.7439563391123358,0.686244953534962,2.9307806876688303,2.180774340857688,,,0.541134803179459,3.451438598098902,inf,,0.7937852636953731
328,3.688436001436136,-3.688436001436136,0.0,1.634369417996698,1.5837651579664846,0.6609122467175588,3.396536297128049,2.7833374142922036,,,0.4928685327679205,3.6862163366944527,inf,,0.8030452694594784
329,4.605170185988091,-4.605170185988091,0.0,1.5126205296669695,1.453768244519134,0.5918319504873155,2.6667202516400845,2.289075974593577,,,0.5604843169999094,4.605170185988091,inf,,0.72841655263796
330,2.926141700598383,0.6199536326814421,-3.5460953332798253,1.5793428787265167,1.5448253941428627,0.8770497729769394,3.663191974584861,1.401599539083747,3.327393734428604,,0.581717464821069,2.9259989355393157,3.255819340059885,inf,0.8061691938821335
331,3.723599268160594,-3.723599268160594,0.0,1.7181671278881927,1.675275019411868,0.6783538135093955,3.4522922134744864,5.3092264786157655,,,0.5677978065141052,3.721861888077855,inf,,0.8803904196965243
332,,0.0,0.0,1.7371600750184575,1.6874207664055978,0.7322573130666127,3.302297638384687,2.0447361515061573,,,0.4302020962658841,inf,,,0.6445204297929069
333,2.9198771563440187,2.780566417046668,-5.700443573390687,1.7371600750184575,1.6943998399228537,0.7409495539827118,3.504225281091235,42.45340082840304,2.7808489568176182,,0.4066654671944331,2.9195946165730677,2.7875267593486477,inf,0.7810054572499157
334,2.9699751157192393,-2.950910087045692,-0.019065028673547448,1.7371600750184575,1.6745435274787062,0.8292492632348435,4.5291867369434184,5.823366159355227,,,0.43586655696697996,2.968549538960189,8.439015410352214,inf,0.8673856363726654
335,2.6992176956039122,3.0012258777867746,-5.700443573390687,1.429287781908335,1.3779293562812516,0.7349433266528648,1.4105680431275969,0.1683231101008824,3.1932339097859828,,0.43586655696697996,2.698264900367413,3.008856475554303,inf,0.45460476612896655
336,3.1232704430423825,2.5771731303483043,-5.700443573390687,1.7408050349834476,1.7176577213899247,0.7395956962057774,3.5557916082091756,3.6630830082312587,2.5776352172687194,,0.5915533975974677,3.122808356121967,2.5843130197997484,inf,0.816576777715935
337,5.703782474656203,-1.9202734331342548,0.0,1.6572591826266423,1.6094131837620165,0.8826387809850018,4.195784116462343,30.438941556890025,,,0.524519217297268,6.792444432471143,inf,,0.7923726544151682
338,,0.0,0.0,1.4718020429818495,1.445438628024954,0.9069007939264598,3.7418532214065126,35.406996924756506,,,0.41861278947482794,inf,,,0.9121920872163493
339,5.010635294096255,-5.010635294096255,0.0,1.7490813086866508,1.7547689321294644,0.8268292202011578,3.522545907018754,2.288555177389642,,,0.48319206230712763,5.0106352940962555,inf,,0.9284790927515836
340,4.8764252774192105,-4.8764252774192105,0.0,1.6710883037627766,1.6430444721795499,0.7065595885620909,3.8570470454678336,24.222259780736135,,,0.5370774965580548,4.79552391447931,inf,,0.8539118397616602
341,4.834933747249384,-4.834933747249384,0.0,1.6780897217265847,1.6834644946815502,0.6779647626763606,2.989130927752073,3.132735358148429,,,0.524519217297268,4.814520415169965,inf,,0.9022349411563515
342,5.703782474656202,-4.943278144702041,0.0,1.7537100604011306,1.7538799031874344,0.8648315248654153,3.8463088293206247,4.832162558187088,,,0.468121228110369,5.846883318296874,inf,,0.907186427941279
343,3.603460252313537,-3.603460252313537,0.0,1.1709755112921774,1.1507262591514584,0.7085215419004923,3.77789953310195,11.966734448461462,,,0.585052858160615,3.5968068327830456,inf,,0.5527526043738176
344,3.201483501237164,-3.201483501237164,0.0,1.704671141762668,1.7141157680351973,0.7808818365194736,3.4215014274663433,8.88712218019889,,,0.552929491858785,3.1982565376654652,inf,,0.849918337071325
345,3.604352614646676,-3.604352614646676,0.0,1.576694227560532,1.5551681172844183,0.8348568546305439,4.259950086042948,5.21553362894536,,,0.6008849035917525,3.6024979050539128,inf,,0.708300160020174
346,3.757872325600888,-3.757872325600888,0.0,1.4221066924895749,1.3728779011777552,0.7256523114775534,2.4288581038747914,1.1509181967025879,,,0.5567373465730988,3.757872325600888,inf,,0.7379915542000037
347,,0.0,0.0,1.7097390464579552,1.7081918740961373,0.46014607819601505,1.7551599998123295,1.8117112387180634,,,0.4880666971167561,inf,,,0.6697853878238793
348,5.7037824746562,-5.7037824746562,0.0,1.5521689959959595,1.4092122930212911,0.5097297563350132,2.2205219166885986,2.127959091669618,,,0.5329562494928909,5.703782474656201,inf,,0.7442346025680573
349,4.268396532247184,-4.268396532247184,0.0,1.6662138302104563,1.55735107570994,0.6952961989160527,2.7041805431642834,2.8522304773107567,,,0.5947193981915972,4.263947346608281,inf,,0.7276333085810088
350,4.0943445622220995,-4.0943445622220995,0.0,1.52520471804961,1.4984846578275368,0.730280674067246,2.776596414734687,1.5339851419837105,,,0.5202020156036558,4.0943445622221,inf,,0.7556903203793541
351,4.585991381157972,-4.204690807687022,-0.3813005734709489,1.602036983283175,1.545337819677474,0.7011084307538381,2.5972415585998507,2.1150070507732424,5.431401506392167,,0.5915533975974677,4.583191279269316,3.828641396489095,inf,0.8170151496830047
352,3.2272078865892793,2.4732356868014076,-5.700443573390687,1.7409663916813876,1.7125810358338676,0.6683815951044131,3.3616853114252807,1.6079629300164324,2.4754378881469488,,0.581717464821069,3.2250056852437377,2.4821156906779778,inf,0.7966046195079414
353,4.0943445622220995,-4.0943445622220995,0.0,1.6657551332756975,1.6034445881714545,0.6725315683457477,2.2944984721209534,1.598290524994888,,,0.541134803179459,4.0943445622221,inf,,0.6115268451177521
354,5.703782474656202,-4.296849464241006,0.0,1.7646255549906242,1.7314996035731822,0.7674818426299972,2.719421624857872,2.956768353664851,,,0.5113665138247345,5.9870299500401165,inf,,0.9384603086272293
355,5.304241320537096,-5.304241320537096,0.0,1.7090027893224544,1.695719593193882,0.7346474983246708,2.8936083013538223,3.713587820682277,,,0.552929491858785,5.244250145277761,inf,,0.8248189763288613
356,2.968249875157609,-2.968249875157609,0.0,1.4180914070674788,1.3831368428392896,0.8071813461998167,4.130665015097009,39.85537255986501,,,0.5947193981915972,2.9663892443200806,inf,,0.6298829559201199
357,3.0437997058980812,-3.0437997058980812,0.0,1.7563074534217638,1.7522628931258235,0.8413307007581187,4.525670560311724,26.824870516642477,,,0.5748741956352443,3.038175952664559,inf,,0.7695484655950641
358,2.5915526723230333,2.415743720507708,0.6897970936746631,1.7420339565927168,1.7271253462463254,0.7453496704451342,4.013210867036912,4.436878238225571,2.535709800970438,0.8299825385481794,0.43586655696697996,2.590415324568996,2.4235588707927747,0.6964972674452273,0.5246100699477839
359,2.844473215391402,-2.844473215391402,0.0,1.7420339565927168,1.7029870514891587,0.8023601669931625,4.643240285899845,6.1290269992659585,,,0.44144624493110796,2.8385386092561475,inf,,0.6187786808679737
360,2.507937247216907,2.0938940375056707,1.0952622017828268,1.7420339565927168,1.7041835825285656,0.8063564575981771,4.921802962726788,32.92082475013051,2.094406323503974,1.0952622017828277,0.4576907132971797,2.507424961218603,2.1010841260350035,1.1019623755533916,0.6346481393115451
361,2.685790875648763,2.3215055171819783,-5.0072963928307415,1.3911162363383747,1.384874556395839,0.8094692734983362,5.905358324774471,60.8573926568609,2.322962718345847,,0.49759852643134905,2.684333674484894,2.3296405208768762,inf,0.5707992396389914
362,3.3545230562340853,-1.6005404182677203,-1.753982637966365,1.5615257208215785,1.4422119124742845,0.8088283390226518,3.843823013192668,3.740472540581134,3.5588907248012376,,0.5883313578629602,3.353360052247995,3.5324163200153667,inf,0.8749132446631958
363,3.6837019171910184,-3.6837019171910184,0.0,1.6294191284022685,1.5837441650966808,0.7220245319381557,3.694763381298963,3.806773203869698,,,0.524519217297268,3.6721315968127137,inf,,0.7347434062302932
364,3.7227090588764304,-3.7227090588764304,0.0,1.5305387853045804,1.5380389929192542,0.7892936906158455,4.003000120569218,8.010085584701365,,,0.5883313578629602,3.720943614367782,inf,,0.8028132371194706
365,2.655210902267535,-2.655210902267535,0.0,1.4698090592862736,1.4449932325360346,0.7641976039499476,3.798096994723502,9.106172761206661,,,0.5947193981915972,2.6526154942141096,inf,,0.774628705782883
366,2.8065622020658014,-2.8065622020658014,0.0,1.7422009843810893,1.7178990792357292,0.7164174201470257,4.107729727092517,5.729889308273669,,,0.6233814453054027,2.806398324119986,inf,,0.812787351653263
367,2.8984564566355453,-2.8984564566355453,0.0,1.7519632978895827,1.7341809297962933,0.7782482802388646,4.136593724165111,21.9197805844312,,,0.6309483474627791,2.8980007850606557,inf,,0.6790044823475384
368,2.925165952314541,-2.925165952314541,0.0,1.6483912565715912,1.6232669511949844,0.8240538536387295,4.256214933478313,6.973448761577156,,,0.62595550513784,2.9249632026657837,inf,,0.8257061300903159
369,3.3638734585877,-3.3638734585877,0.0,1.3853738638695514,1.412896468766194,0.7893935764012111,4.017232970564729,4.057123739041011,,,0.5883313578629602,3.360695438352826,inf,,0.6925802876044719
370,3.157776558010734,-3.157776558010734,0.0,1.294130830878438,1.2891752910223253,0.7943085156233857,3.994854797631221,7.3990824892338365,,,0.585052858160615,3.1572059978351077,inf,,0.5564757788936597
371,3.263624653084358,-3.263624653084358,0.0,1.569679676087231,1.512584339975896,0.7003300817613631,5.178800094729699,8.490290583341112,,,0.6309483474627791,3.2625955322245273,inf,,0.5448049303413307
372,3.7488975884921545,-3.3675970150212056,-0.3813005734709489,1.6096805597101116,1.6020315435733967,0.7557553432916275,3.7584148736820633,6.215408883299588,4.822576668612992,,0.6008849035917525,3.745097134112165,4.666735541646246,inf,0.553440073012732
373,2.6660061870155003,3.0344373863751866,-5.700443573390687,1.5167465237602018,1.5136991510052358,0.8409860222173606,4.172780174949209,29.091042949883256,3.0348140881724284,,0.5202020156036558,2.665629485218258,3.041491890703458,inf,0.7397666018124158
374,3.1366296604817854,-3.1366296604817854,0.0,1.6808627310530546,1.6275294086679093,0.7835193812401621,3.6168052895760714,4.583438975836974,,,0.5947193981915972,3.1365280835194476,inf,,0.5637585328472337
375,,0.0,0.0,1.6576588534591794,1.631774323668182,0.5097630388124601,1.9528022893691221,2.010879551295363,,,0.5022576003740722,inf,,,0.638646019147247
376,5.7037824746562,-5.7037824746562,0.0,1.7621085274843873,1.751772209911592,0.471385946537502,1.6483777850453931,1.4680868611818623,,,0.44144624493110796,5.703782474656201,inf,,0.9220654340958616
377,,0.0,0.0,1.5358484091985858,1.5319747598083828,0.5125498693685995,1.1529032949061933,1.1823156231730345,,,0.49759852643134905,inf,,,0.865398631024031
378,5.627536284794607,-5.627536284794607,0.0,1.7219602676514678,1.7070973658760813,0.44016248718455414,1.4968346164236834,1.1363144653166934,,,0.4928685327679205,5.599422459331958,inf,,0.806177469583515
379,5.010635294096255,-5.010635294096255,0.0,1.646153422902215,1.6388647397558875,0.5404656697317429,1.9128448154691726,1.4472950117453656,,,0.5158180382284114,5.0106352940962555,inf,,0.9292502285870038
380,5.013904724939627,-5.013904724939627,0.0,1.2098680725820627,1.1771705052825063,0.5493107169488595,2.414504087842224,1.8050081941163945,,,0.4880666971167561,5.012303351196953,inf,,0.7805698853448448
381,5.010635294096255,-5.010635294096255,0.0,1.7313590479703649,1.723920502853064,0.5621567353508055,2.047448516908683,1.5260081592481205,,,0.5329562494928909,5.0106352940962555,inf,,0.7159713807421019
382,3.757872325600888,1.2494240672298536,-5.0072963928307415,1.5747686526272595,1.5605731339415676,0.6288438103898798,2.8274202722891264,1.9533068021125373,1.2494240672298536,,0.6008849035917525,3.757872325600888,1.2561018697608826,inf,0.5417374015957459
383,3.308767043734358,-3.308767043734358,0.0,1.692932609001242,1.686296818687059,0.7811092753770353,4.162774363151663,5.678339335352121,,,0.6153451465759925,3.3025594117651558,inf,,0.7265953968621157
384,2.514515741655728,2.4927806511750132,-5.0072963928307415,1.7542817889929985,1.7401800983700235,0.8627819029926943,3.8894412393324456,10.215195126861483,2.4931668843658374,,0.5158180382284114,2.5141295084649036,2.499844686896867,inf,0.7733755539294455
385,3.187125550824364,-3.187125550824364,0.0,1.7542817889929985,1.7507496579355486,0.7887074913114788,4.87760601327979,14.176184028403057,,,0.5287703885177266,3.186354855387332,inf,,0.8608095706322241
386,2.5277699050088747,-2.5277699050088747,0.0,1.7542817889929985,1.7422847156409136,0.8150228424090447,3.750215235694805,5.962704217739009,,,0.5068466436745385,2.5272575903285306,inf,,0.5951259652478003
387,3.533362572059247,-3.533362572059247,0.0,1.6732080888863323,1.5859671552477423,0.7115813127087625,2.3629387770463652,1.4088088902966063,,,0.552929491858785,3.531306067009176,inf,,0.7041587646162145
388,3.6305604351734315,-3.6305604351734315,0.0,1.5779596566930725,1.4898061179291426,0.5342494446109882,1.9517303422964887,1.688211283159416,,,0.49759852643134905,3.624757686472708,inf,,0.7934676694186157
389,5.2763417133109005,-5.2763417133109005,0.0,1.7428907960556375,1.7154261258307688,0.7594333901272559,2.7030221483067254,4.237018840142932,,,0.4576907132971797,5.2234160583749185,inf,,0.8479956541526399
390,5.703782474656202,-4.106723381752465,0.0,1.7032398755599842,1.6990792060787911,0.7033029865966115,1.9978420562627728,2.433480829033161,,,0.5490601803369085,6.032286541628237,inf,,0.6576890387783776
391,4.143436143511226,-4.143436143511226,0.0,1.714862998036276,1.696835078743668,0.6145726969556076,2.6255022683590257,2.017885339323686,,,0.5748741956352443,4.139341928152836,inf,,0.655998725318835
392,3.468276909964305,-3.468276909964305,0.0,1.638522001283865,1.6270422629854915,0.699952399070603,2.8643569895925314,2.9999362559569875,,,0.5451288209179292,3.4669811222081584,inf,,0.8334695623210321
393,2.918333312543573,-2.918333312543573,0.0,1.4888224668313124,1.4763530603796962,0.8205010134182404,5.424631695266885,7.40016174736318,,,0.5915533975974677,2.9089431434816,inf,,0.734682314559933
394,2.8789242733113882,-2.8789242733113882,0.0,1.7240398904718917,1.738342255583957,0.7885498990135512,4.053263861658432,3.417697696989423,,,0.541134803179459,2.877850477342493,inf,,0.5860540942128892
395,3.2174419120896456,-3.2174419120896456,0.0,1.6963555917093336,1.6791348133415636,0.7520033040500066,3.6957719843684673,16.856572811154987,,,0.44694259446804574,3.214994478160228,inf,,0.6483853577992188
396,3.054248950890275,-3.054248950890275,0.0,1.7264905014660163,1.705873204897253,0.8442843301772877,3.835099374192906,3.53365282004998,,,0.3943459996787778,3.0519499535522194,inf,,0.7257611973223171
397,2.701707479760184,-2.701707479760184,0.0,1.5842769435538129,1.5364389874832838,0.8276101347290441,4.365674682425969,1.4665878789656404,,,0.5641709578113449,2.7015712350045007,inf,,0.779633682229301
398,2.5257981491041974,3.1746454242864894,-5.700443573390687,1.6618320142617384,1.6307160620268273,0.7489743945762956,4.183004527086017,1.8931156533205291,,,0.6207552362147116,2.5257286443082556,3.1813927316134603,inf,0.6135972732860734
399,2.872694391136789,-2.872694391136789,0.0,1.7197325580985088,1.7041538662808853,0.8461773772319338,4.163785370125988,10.129733978672654,,,0.6008849035917525,2.871746293773,inf,,0.7791693042211104
400,3.0053322146170287,-3.0053322146170287,0.0,1.5881298900346141,1.5381949415082352,0.7034704911112752,3.4257098450636922,2.678293415135399,,,0.6153451465759925,3.0046609042982926,inf,,0.7996431285308121
401,3.757872325600888,-3.757872325600888,0.0,1.6948174214754945,1.6718410145775686,0.5924951188612327,2.2985707005059206,1.766644274721723,,,0.6125606311107803,3.757872325600888,inf,,0.6604868550166776
402,2.8542011630649893,-2.8542011630649893,0.0,1.769504090178017,1.7508343364829768,0.7037361724108907,3.9121384254310727,8.350549836546278,,,0.5947193981915972,2.853654174961002,inf,,0.7248467690791938
403,2.7482299483724577,-2.7482299483724577,0.0,1.699373160331631,1.6877756450022485,0.8556301199886662,4.532219029611115,19.241298039265843,,,0.5947193981915972,2.748004516609243,inf,,0.6594915267087065
404,2.940277836121511,-2.940277836121511,0.0,1.7533160378112258,1.7223038162909625,0.8739342843622896,4.047336710362574,15.437285299324865,,,0.6068309995095971,2.939141922265594,inf,,0.6488108855712696
405,2.8622050957737692,1.9009985898346664,-4.763203685608436,1.7498004498551436,1.7071554636168302,0.7224177535694003,3.26834876405507,2.3232248414926167,1.9994324660632572,,0.40055318934786044,2.8604246815282126,1.890413743605798,inf,0.8564974356362015
406,2.615479448558756,2.2073913432595766,-4.822870791818333,1.6780907290640759,1.650892737176152,0.8948099217695651,4.893712173429996,7.348099789290107,2.2909099301726554,,0.6125606311107803,2.614711660671709,2.1943442600261776,inf,0.6333094846624413
407,2.6727586490196544,-2.6727586490196544,0.0,1.760933005599982,1.7739085945911626,0.7844493901391604,3.34953084489445,1.2086019518668292,,,0.6180765742263259,2.6725221950430647,inf,,0.6558990931929372
408,2.392335200686447,3.3081083727042397,-5.700443573390687,1.1580395515872342,1.116491479881873,0.8680699435998769,4.248680782899211,20.621978082167097,3.5365928174686116,,0.5604843169999094,2.3920236556412866,3.3150977202804293,inf,0.7784570533835597
409,3.0506186919068625,-3.0506186919068625,0.0,1.5408810795986438,1.5211952220216942,0.8578776718160525,4.032967374945357,13.295818988223486,,,0.585052858160615,3.04843006255444,inf,,0.7741203907331246
410,2.4745386034268377,2.112860470303176,-4.587399073730014,1.608308888901012,1.5541311161816882,0.7680716405478403,3.908178213921998,4.502602769059978,2.343445271386486,,0.5490601803369085,2.474032653236122,2.1178923060019486,inf,0.8124933014873083
411,4.0159462928007,-4.0159462928007,0.0,1.5271579103477793,1.4661154798556475,0.8628551769359589,3.5945917413819903,5.284994830091274,,,0.6125606311107803,4.011843340710357,inf,,0.7162911847217507
412,3.251605592194752,2.2009926084398193,-5.452598200634571,1.6224863891100931,1.5591406377683112,0.7026862821131133,3.066536968434916,1.5986446562338443,2.762766712459302,,0.5490601803369085,3.24904870450557,2.5025244339869794,inf,0.6313755659036171
413,4.595580783573031,-4.595580783573031,0.0,1.4548476125948793,1.443467256507912,0.4816779342366488,1.6633387350722808,1.7340770672924462,,,0.5451288209179292,4.594120349801506,inf,,0.743406026771754
414,5.703782474656202,-2.148424732120503,0.0,1.631620818614948,1.6273035474036404,0.6118491937942904,1.59677067116042,1.3175665845457998,,,0.5202020156036558,6.680177130600062,inf,,0.9435803669922133
415,5.010635294096255,-5.010635294096255,0.0,1.7510837157462578,1.746183451533126,0.41979896904718245,1.4115092806613325,1.1855184876486895,,,0.524519217297268,5.0106352940962555,inf,,0.5903820269073716
416,5.7037824746562,-5.7037824746562,0.0,1.355103591014668,1.3389638152586307,0.4061438769933377,1.4988463191372996,1.5371835887327998,,,0.5113665138247345,5.703782474656201,inf,,0.8059399838857858
417,3.4918409262473977,-3.4727758975738503,-0.019065028673547448,1.5980795421373584,1.5511123794048116,0.6650737528949923,3.5261177235067658,2.3975250890525626,,,0.5022576003740722,3.491122089190142,7.91644286012226,inf,0.7842434380079085
418,3.7583861612003115,-3.7583861612003115,0.0,1.4161794333163402,1.3858421194803658,0.7786945334055967,2.456957212354712,1.3154369180282433,,,0.5329562494928909,3.758348629491769,inf,,0.8502261326347241
419,3.6608395136270686,-3.6608395136270686,0.0,1.693772863249737,1.6590988654579646,0.7335354293010972,2.8215550937791534,1.9975580560257464,,,0.581717464821069,3.6591049254127053,inf,,0.7657906165772159
420,2.925547008406807,-2.925547008406807,0.0,1.669566496403493,1.6119611531312232,0.7044628546758671,3.0259582805442427,1.413147401922811,,,0.585052858160615,2.92537736709498,inf,,0.495470728286706
421,2.457868876696699,2.1439624080258786,1.0952622017828268,1.6980421359974625,1.6965338950044968,0.8422415942064605,5.279374075620106,19.291952405480252,2.2567464258928376,1.3476896408305816,0.62595550513784,2.4570321130220205,2.1514769742315853,1.1019623755533916,0.6957654879844481
422,3.024333306185857,-2.986203248838762,-0.038130057347094896,1.6011819134909029,1.5815554816150932,0.8145292059299998,4.358986252071582,23.035532102035468,,,0.5604843169999094,3.0225326614985035,7.691885107253953,inf,0.6276720318059885
423,3.2188758248681997,-3.2188758248681997,0.0,1.6997954775228261,1.689798466753413,0.7480030358989727,2.6720380813114604,1.2146465325571754,,,0.6125606311107803,3.2188758248682006,inf,,0.6850969632381387
424,4.446945046139612,-4.446945046139612,0.0,1.576188185676589,1.5614679218547711,0.6101417599203337,1.8820329192028162,0.8035705659493817,,,0.5748741956352443,4.436834871168877,inf,,0.7973680518497382
425,2.966474810638292,2.182232879898659,-5.148707690536951,1.6828881192866447,1.674587282414227,0.7513056964211652,3.7632832484605556,3.4309220845776163,2.7344858285379265,,0.44694259446804574,2.96595774485276,2.1556091099507775,inf,0.6607928233223053
426,3.231347455570047,-3.231347455570047,0.0,1.6633985870368342,1.6561058476352064,0.7375580237898651,3.2565621735245274,2.321650768419805,,,0.5068466436745385,3.230892177363947,inf,,0.638318567742848
427,2.827274038887644,2.873169534503043,-5.700443573390687,1.6633985870368342,1.6528919742640398,0.7877587054596917,4.917552411719347,13.329093489490628,,,0.4629450596409901,2.8255207855765483,2.881600590345167,inf,0.6362261438090356
428,3.289894882587972,-1.6121723593157966,-1.6777225232721753,1.5450588377955676,1.5110872675613785,0.7440032494650041,3.6381855059068156,3.1643437224553383,8.112423035106456,,0.5490601803369085,3.288464111674916,3.6417640231592796,inf,0.8089249316981609
429,3.2284590140841245,-1.569801519485496,-1.6586574945986285,1.7104536240471142,1.6555259399119677,0.7850301042824158,3.176562488959483,2.245613929812156,5.534025361553613,,0.6468212168108125,3.227804455612502,3.7138523750453163,inf,0.536805140971937
430,2.580586579704982,-2.580586579704982,0.0,1.7176753676873673,1.728717967825629,0.7645032422358693,4.646712444870237,20.034008274740856,,,0.581717464821069,2.580390177949617,inf,,0.6125593560229216
431,3.2026326518018866,-1.7536904726122802,-1.4489421791896064,1.7054493550082785,1.6409249057003397,0.779422833033554,4.562685488729492,7.018475808801706,,,0.6068309995095971,3.1944542517157264,3.8823773573103444,inf,0.6299367845733385
432,2.9617716814238655,-0.3689277818214127,-2.5928438996024528,1.7381232763788104,1.7022796900564081,0.7276817717619867,2.435083995035419,1.2874317687592938,4.070215795446235,,0.6008849035917525,2.9612234988681156,3.5336865647082343,inf,0.5080928784589965
433,5.7037824746562,-1.559033876406028,0.0,1.7360558693382282,1.6557660215883192,0.4949259301908181,1.247429020948917,0.8253384202334177,,,0.6038851895711802,7.000845702048149,inf,,0.7696488527599813
434,,0.0,0.0,1.3227494037252,1.307850438208682,0.5506101026645704,0.7325653833346188,0.5063156977719726,,,0.468121228110369,inf,,,0.9329032083624377
435,4.724106617699819,-4.724106617699819,0.0,1.4843605109369358,1.4803946468892366,0.6805769159439424,2.4304145722457857,1.9957855691711601,,,0.5713653840954815,4.708064609150724,inf,,0.7133004163709968
436,3.207669845793905,-3.207669845793905,0.0,1.7521515204734572,1.7488905513461068,0.7671256685047856,3.727880471507956,2.8614722633610747,,,0.552929491858785,3.207276689024849,inf,,0.7299788532570874
437,3.3014653334590536,-3.3014653334590536,0.0,1.5866083582135415,1.5626739201966626,0.8215837844037024,4.801581303996361,3.6993731950421784,,,0.585052858160615,3.2950371858337646,inf,,0.6775194558558824
438,3.228737114260358,-3.228737114260358,0.0,1.3899450781207543,1.3802221541000348,0.706107241364673,3.1174117526793563,1.9719070933715317,,,0.44144624493110796,3.2283651508893163,inf,,0.637584276749707
439,2.8488903402330608,-2.8488903402330608,0.0,1.3899450781207543,1.3613995892060788,0.8623535381635864,4.187063377746966,8.487811526345705,,,0.4629450596409901,2.848078845705913,inf,,0.659116803734529
440,3.6270115608288553,-3.6270115608288553,0.0,1.4675744047978083,1.435450329040773,0.7353554494120208,2.9395840108531686,4.268324021122718,,,0.5113665138247345,3.6268440631944836,inf,,0.618689464977286
441,2.7380637537243713,2.9623798196663156,-5.700443573390687,1.6926882648580048,1.6806139803632942,0.7940654407210018,3.4795854112504063,19.598700268205796,,,0.585052858160615,2.7376506708785007,2.9694707050432148,inf,0.7803653125475027
442,2.8602692888673533,-2.8602692888673533,0.0,1.5876065959631487,1.5794696798571009,0.7997254150812106,4.285507092518268,30.87215132007853,,,0.31914402280573173,2.859648585253324,inf,,0.6131383923473559
443,2.995732273553991,-2.995732273553991,0.0,1.4427389662696464,1.416814224524972,0.8172127366162635,4.165716582968288,15.717337103192744,,,0.5329562494928909,2.995732273553991,inf,,0.6978310364035222
444,2.667229097080452,-0.2269054268663786,-2.4403236702140734,1.5808067680247921,1.5438437451262463,0.8452690589751978,3.813172963925366,3.52117504818958,,,0.38163879478178075,2.6670682193805897,3.8884664660121953,inf,0.6699695922125208
445,3.0394277588290604,-3.0394277588290604,0.0,1.5466215618486452,1.5370272137936096,0.7761036797315817,3.9587205374901604,3.479280067295321,,,0.34100769111774265,3.0388717662146085,inf,,0.7214096256645063
446,2.737403982101351,-2.737403982101351,0.0,1.7579827965376564,1.7403420801411342,0.8231797664112233,3.564807593655247,9.139155196318086,,,0.5883313578629602,2.735592704108611,inf,,0.77841788550217
447,3.625915768673179,-3.625915768673179,0.0,1.6729926009171465,1.6261642553000153,0.6579923973700627,2.354268082776941,0.9902742100339514,,,0.5713653840954815,3.624340932976365,inf,,0.6442711252664454
448,2.643429547785197,3.05701402560549,-5.700443573390687,1.7078363222988884,1.6722474762034225,0.8845385527819422,3.18963624147246,2.4093110102422584,3.0575566981948894,,0.5947193981915972,2.642886875195797,3.064234500725919,inf,0.6753419227212969
449,2.9128322863927405,-2.9128322863927405,0.0,1.7144796850633073,1.6848356828735813,0.8736612376460654,3.890347314380344,2.667187230124646,,,0.6008849035917525,2.9115953943477915,inf,,0.6536039450158551
450,2.8972385273636427,-2.8972385273636427,0.0,1.7011314041994212,1.649942262885903,0.7923214239131366,3.8732898333090615,3.4452133859183385,,,0.5947193981915972,2.8961886432177293,inf,,0.7027992030716638
451,2.665440124394239,2.3418562684365023,-5.0072963928307415,1.5579012670317385,1.5186763298882908,0.7055577105551822,3.9644257112784542,2.8960470990893183,2.347015693809692,,0.552929491858785,2.665310047426051,2.348664147935719,inf,0.7230952996789135
452,2.4466010866082955,-2.4466010866082955,0.0,1.5501540561325204,1.5216696572388593,0.8055403610756169,4.169801390747326,5.18413630087739,,,0.5567373465730988,2.446583775468841,inf,,0.5399302160501838
453,2.995732273553991,2.704711299836696,-5.700443573390687,1.5788828652285107,1.5662768672940253,0.653535207437342,3.571065384830562,1.9292243295765124,2.7047112998366956,,0.552929491858785,2.995732273553991,2.7113891023677246,inf,0.6463682271900572
454,2.616172380685837,2.4143061920967424,-5.030478572782579,1.705157965853024,1.705284492873009,0.7835070295792066,4.175386351891956,4.082985746229827,2.4310460861749057,,0.5748741956352443,2.615471019809117,2.415366981604658,inf,0.6922744356374535
455,5.010635294096255,-5.010635294096255,0.0,1.7530732613197453,1.7917476637658487,0.6011783696531685,2.705013645915869,2.257160471656837,,,0.5641709578113449,5.0106352940962555,inf,,0.6819818458568506
456,4.0943445622220995,-4.0943445622220995,0.0,1.454857200750653,1.4151315693826243,0.6608507715117609,1.5423106777243716,1.0633409800075373,,,0.5329562494928909,4.0943445622221,inf,,0.6984609464666471
457,5.7037824746562,-5.7037824746562,0.0,1.6463092276684665,1.5896675452155795,0.48374322760607075,1.749194305353672,1.6333723923319587,,,0.5202020156036558,5.703782474656201,inf,,0.7663605509181335
458,,0.0,0.0,1.5672612601125169,1.5287152851236232,0.7064108426004686,2.41093666688015,1.9790872757323261,,,0.5158180382284114,inf,,,0.7205270681693293
459,3.503397081850247,-3.503397081850247,0.0,1.6703401064796919,1.629124999582759,0.806122561021067,3.207868899717089,1.5323146393465463,,,0.6097226960127671,3.503230107227307,inf,,0.6861421661345077
460,2.836780468286082,0.5567946356053639,-3.393575103891446,1.7873033588842142,1.742515124710963,0.8218426199519832,3.4505216978291395,2.2588479746016468,,,0.5883313578629602,2.831914188324596,3.393867210695721,inf,0.7686414055929958
461,,0.0,0.0,1.641392143225235,1.5528277648759279,0.6425203257318595,2.395213941178749,1.823985211196268,,,0.4880666971167561,inf,,,0.7861612671755079
462,,0.0,0.0,1.7724981466605536,1.7342525968655507,0.9479819377566028,3.2291166934605613,5.5888606872208975,,,0.4066654671944331,inf,,,0.838875673089841
463,,0.0,0.0,1.7071970251006405,1.694446174342159,0.8974076284448325,2.8154065662883383,3.1858002348700216,,,0.4928685327679205,inf,,,0.8791476129594394
464,5.6319177168055035,-5.613144657749485,0.0,1.3713400037817267,1.3488615729053306,0.6172748540621025,2.6262579892660822,3.406980197017955,,,0.5158180382284114,5.608472294851876,inf,,0.8751187228218146
465,5.703782474656202,-0.7224791134564522,0.0,1.7052120185178614,1.6866400656541893,0.6998708903292725,3.44481543353207,3.905535678638047,,,0.4732203808476458,7.769978789586016,inf,,0.8408439068398686
466,4.605170185988091,-4.605170185988091,0.0,1.7073876107388544,1.6523577375879968,0.9539903148815209,3.913045236828431,5.287616100638386,,,0.44144624493110796,4.605170185988091,inf,,0.8091348841116386
467,3.757872325600888,-3.757872325600888,0.0,1.667595588575257,1.6392815500918945,0.9567746991052846,3.67595773918328,5.177321797663881,,,0.4629450596409901,3.757872325600888,inf,,0.8424969437338137
468,3.9120230054281455,-3.9120230054281455,0.0,1.6550727821601212,1.6179127276537044,0.9484423373371488,4.645994595728542,11.225356054964,,,0.5113665138247345,3.912023005428146,inf,,0.859991030284701
469,4.0943445622220995,-4.0943445622220995,0.0,1.707866357261917,1.673739840872842,0.9614724550935054,4.081005372735357,24.05359688009752,,,0.41861278947482794,4.0943445622221,inf,,0.8468802023567812
470,3.427537510576611,-3.427537510576611,0.0,1.5753035560480682,1.5364117971339186,0.9277571482296044,3.800155880616489,15.119304431671285,,,0.43586655696697996,3.4265151896464454,inf,,0.8427217796874188
471,3.312241213844786,-3.312241213844786,0.0,1.3202377348026535,1.2950846989953435,0.9374382788091462,3.969163940985077,6.6224740615690365,,,0.4302020962658841,3.3119662479342127,inf,,0.8566480874468896
472,4.0943445622220995,-4.0943445622220995,0.0,1.6553373334527899,1.6204911478971002,0.9432500153427315,3.8055313758806575,13.548238005191735,,,0.541134803179459,4.0943445622221,inf,,0.8124738864519161
473,5.7037824746562,-5.7037824746562,0.0,1.4033904908628572,1.3992108245342678,0.951165992368695,3.764107769686627,19.734036555811183,,,0.43586655696697996,5.703782474656201,inf,,0.8542877070921493
474,5.7037824746562,-5.7037824746562,0.0,1.4409069056900223,1.3866097252046343,0.856403987289047,2.6693982936454392,2.3655365082229274,,,0.468121228110369,5.703782474656201,inf,,0.8873092526972296
475,5.0545346155317175,-5.0545346155317175,0.0,1.553004355080416,1.5129381487919076,0.6954125207594526,3.5945918642617385,7.7464846489964465,,,0.4629450596409901,5.042814192460491,inf,,0.918804623719304
476,,0.0,0.0,1.7140543758315212,1.6484588876887107,0.9133316499978856,2.488649106306734,1.69835215828624,,,0.47824363442641393,inf,,,0.9012681612831284
477,,0.0,0.0,1.6623359322960845,1.6361343086673639,0.9291100929736787,2.9050464402962346,2.2555084775005785,,,0.43586655696697996,inf,,,0.8918655473992063
478,5.7037824746562,-5.7037824746562,0.0,1.5677156530501386,1.5690481536102807,0.7021702276469004,2.9034562668914723,1.4663611538786907,,,0.4928685327679205,5.703782474656201,inf,,0.8911876190435403
479,,0.0,0.0,1.6751451898822827,1.6752253835992783,0.944897403081465,3.2171796865966216,3.0397134676722524,,,0.5604843169999094,inf,,,0.8758789114149518
480,5.015256275299987,-5.015256275299987,0.0,1.4927376860197095,1.4536746381060557,0.8954902790230094,3.346906716000342,3.9188140803327043,,,0.4880666971167561,5.0139741953617705,inf,,0.932419825150734
481,5.7037824746562,-5.7037824746562,0.0,1.7224605129946917,1.7115863467084222,0.8918990220324827,4.169754321485712,2.323186315559391,,,0.48319206230712763,5.703782474656201,inf,,0.91768278739419
482,,0.0,0.0,1.697610783952148,1.691226247873674,0.8955324180604696,3.683078746009878,21.697246055962133,,,0.5490601803369085,inf,,,0.9073612123756518
483,,0.0,0.0,1.7468999776549807,1.7226475993244847,0.9132749911944644,3.2155267183176814,2.907605424723179,,,0.5287703885177266,inf,,,0.8529002484574603
484,,0.0,0.0,1.5264627086836375,1.4969274793763687,0.9174783308734922,3.1748634157622426,22.05405652880487,,,0.581717464821069,inf,,,0.9082800599744539
485,5.010635294096255,-5.010635294096255,0.0,1.7698369286643005,1.659176987493128,0.8904995531512214,3.7674807847370158,3.789063205683598,,,0.524519217297268,5.0106352940962555,inf,,0.8966435320763217
486,3.1852578876453146,-3.1852578876453146,0.0,1.4970870995853658,1.4836052981993202,0.9248983267526818,4.681798391344422,88.23915142699036,,,0.4928685327679205,3.1844743981508685,inf,,0.9138626629329354
487,3.5065578973199822,-3.5065578973199822,0.0,1.185789791121927,1.1798655270504717,0.9480068048433351,4.273856544843145,10.50944836682268,,,0.49759852643134905,3.506557897319982,inf,,0.8957312643965124
488,4.330913276917394,-4.330913276917394,0.0,1.2041901849217882,1.1881046432795732,0.8747904287832468,4.012993405126887,66.67437787372573,,,0.4880666971167561,4.3292233697547315,inf,,0.8818923948713662
489,4.318447053777817,-4.318447053777817,0.0,1.6874773199612363,1.5885110037718904,0.7796794954416694,2.8626523823853995,2.9913297603620106,,,0.4880666971167561,4.318321794284888,inf,,0.712331841418249
490,5.010635294096255,-5.010635294096255,0.0,1.5695339304361162,1.5722753032459722,0.937418622725902,3.1390926196361915,4.756525025055852,,,0.44694259446804574,5.0106352940962555,inf,,0.7881791944448043
491,,0.0,0.0,1.3163628964792446,1.3006664618033332,0.7380860209304704,3.0377967603911027,3.653700498739556,,,0.468121228110369,inf,,,0.8103312338435112
492,,0.0,0.0,1.6710039755597634,1.65316197384722,0.9583279520766057,3.2921798054631926,3.1750730984658015,,,0.4302020962658841,inf,,,0.8427545268219823
493,,0.0,0.0,1.6099698797212758,1.5862422359090784,0.9342116269745072,3.0759222967037636,3.1770736775691804,,,0.42445136339222655,inf,,,0.8626241894472014
494,,0.0,0.0,1.3544551831375438,1.3488425981705623,0.9543426054643561,3.2324663899618784,3.1007489044055028,,,0.40055318934786044,inf,,,0.843929860380055
495,,0.0,0.0,1.4797490912602083,1.4408302678453364,0.5499679664373651,2.842921711903085,3.506021626963385,,,0.4066654671944331,inf,,,0.8888489634741684
496,,0.0,0.0,1.5186086195343396,1.4797377091007449,0.9674934009003784,2.413381033337924,3.2011522494668774,,,0.44144624493110796,inf,,,0.8156894543946878
497,,0.0,0.0,1.5001669254606091,1.4833437723118588,0.9513014512088888,1.6939881796446719,1.9575570279756995,,,0.4576907132971797,inf,,,0.8619770235771397
498,,0.0,0.0,1.3368200545820585,1.2518471915528344,0.5867262629254991,1.8042729093171048,1.785345716627783,,,0.5158180382284114,inf,,,0.861160036156463
499,,0.0,0.0,1.4920531728899724,1.4829356975919723,0.4994868984423584,2.1136817979829505,2.247864909578118,,,0.5158180382284114,inf,,,0.823690870392655
500,,0.0,0.0,1.4896162496689511,1.454959512087293,0.5237217447048733,2.4820092295285128,2.1645112386381324,,,0.40055318934786044,inf,,,0.7720170314066791
501,,0.0,0.0,1.7781294632649802,1.7801487295339746,0.43350818434510724,1.414371247819785,1.434194345180298,,,0.44694259446804574,inf,,,0.761928015520539
502,5.703782474656203,-0.28518912373281013,0.0,1.4801180832554093,1.4214772629293249,0.514321371674002,1.3454506989909099,1.2772084437894675,,,0.5202020156036558,8.699514748210191,inf,,0.8951052997933778
503,3.624340932976365,-3.624340932976365,0.0,1.5436787847452655,1.4763456219836555,0.9618841073950247,3.2381061399622593,2.7410034608729577,,,0.4066654671944331,3.624340932976365,inf,,0.8715513134090003
504,3.9460563626963503,-3.9460563626963503,0.0,1.3422474714641117,1.335905120462805,0.7182569368945648,2.8571075276484312,1.747868043412618,,,0.43586655696697996,3.9436283448434772,inf,,0.7611481775086756
505,4.605170185988091,-4.605170185988091,0.0,1.6892424479287969,1.6741289208217984,0.7553699721080348,3.3407107377063032,3.582183067100273,,,0.468121228110369,4.605170185988091,inf,,0.8785282211105742
506,5.7037824746562,-5.7037824746562,0.0,1.7490242845725663,1.7520112406314192,0.7936883717965598,3.467620899925726,4.650285965975119,,,0.468121228110369,5.703782474656201,inf,,0.9054357049548283
507,,0.0,0.0,1.5724655293250327,1.5724760033600937,0.757880119152843,2.914551870467473,6.9303481611953295,,,0.5202020156036558,inf,,,0.8880687636041662
508,,0.0,0.0,1.464735186900581,1.4322229660119494,0.6373557101378103,3.5681845295108485,5.80883736915647,,,0.5068466436745385,inf,,,0.8867624495587229
509,,0.0,0.0,1.5547634429070396,1.5709003784997295,0.8481125518112425,3.0707717776263457,9.325315208762936,,,0.36181263880445963,inf,,,0.8383932447709208
510,,0.0,0.0,1.681599487386534,1.6454110879010873,0.8777317056040786,3.0607518016788053,3.7406489798579474,,,0.42445136339222655,inf,,,0.8447777544012689
511,,0.0,0.0,1.4657617443705921,1.4588632242493274,0.9696273154026833,2.627549340436939,4.254241383824283,,,0.44144624493110796,inf,,,0.7993320836190143
512,,0.0,0.0,1.6031805207420973,1.5633459363150195,0.9673782120697212,2.4209772079587175,3.0510801123492617,,,0.5022576003740722,inf,,,0.8248515560165081
513,,0.0,0.0,1.5452690820631014,1.5276410779712597,0.9723188908870837,2.227507841642295,3.3603728420883896,,,0.5022576003740722,inf,,,0.7883492712248805
514,,0.0,0.0,1.5021562660995076,1.460558281750033,0.9823283352910294,2.156151351436478,2.446120779166386,,,0.38804190201132227,inf,,,0.8400885365655396
515,,0.0,0.0,1.5674589065873803,1.5052556123367489,0.969953958341139,2.1358352952814923,3.0001104870970146,,,0.5068466436745385,inf,,,0.7960402860443068
516,,0.0,0.0,1.6754508999279465,1.6214350688020047,0.9708621473499544,2.1082213142418085,3.142449549193689,,,0.43586655696697996,inf,,,0.8139750009650173
517,,0.0,0.0,1.46267910028977,1.411635240626702,0.26958501632212256,2.014391872467014,2.510730372835457,,,0.541134803179459,inf,,,0.77400860294014
518,,0.0,0.0,1.5414254664554548,1.4916313454739956,0.5669320535555117,2.178685781903547,2.4907794420737237,,,0.41861278947482794,inf,,,0.5163440206842644
519,,0.0,0.0,1.6908712171402198,1.6605639371916807,0.9367852134939247,2.357461959914931,2.997094915374566,,,0.4629450596409901,inf,,,0.8300802853910273
520,,0.0,0.0,1.219512131444497,1.1623919745858826,0.6433383656079166,2.272208378232306,2.0639292548519603,,,0.4302020962658841,inf,,,0.892991938140533
521,5.7037824746562,-5.7037824746562,0.0,1.0902291829701583,1.0623465288122673,0.3539384369916028,1.989097844430961,2.171276851662805,,,0.541134803179459,5.703782474656201,inf,,0.6228896908450576
522,,0.0,0.0,1.5077688422568574,1.472331240735091,0.46765035756625806,1.5884974760040862,1.2340523981953413,,,0.47824363442641393,inf,,,0.7735647903223759
523,5.7037824746562,-5.7037824746562,0.0,1.6917316802385236,1.6863690207939084,0.6454793279260141,2.53806108785641,3.042777353774952,,,0.49759852643134905,5.703782474656201,inf,,0.6841954386953168
524,4.056664773818016,-4.056664773818016,0.0,1.4982679952587419,1.5115281941186107,0.7964449122712288,2.7430680728122985,3.0868172327294277,,,0.48319206230712763,4.053842618912771,inf,,0.7743681513163186
525,3.1927285403615118,2.157664115756427,-2.482728149487702,1.6442016266433432,1.6222457523170013,0.8051355992482199,3.0668586900927997,2.009374053377463,2.391758449452837,,0.5490601803369085,3.192017537365332,2.1062998291827046,1.0986122886681098,0.5435109727879044
526,5.7037824746562,-2.870903845576954,0.0,1.4638891691826457,1.3592371364883273,0.48199040609163807,2.282852371645018,2.5742478548944265,,,0.48319206230712763,6.3902851124974775,inf,,0.8090160521862337
527,5.010635294096255,-5.010635294096255,0.0,1.7126239351524495,1.658024330591443,0.5195069034495622,2.6670931101853212,3.3252372448417575,,,0.41268473150466,5.0106352940962555,inf,,0.5978354274085566
528,5.7037824746562,-5.7037824746562,0.0,1.640713054157263,1.5376914452299528,0.5245590214214007,2.570392422542474,2.8892461286950875,,,0.5068466436745385,5.703782474656201,inf,,0.8851561168152308
529,,0.0,0.0,1.483760679329491,1.4551739295986108,0.9441158173058833,2.332433894061395,2.047678466907026,,,0.5677978065141052,inf,,,0.8795712602178845
530,,0.0,0.0,1.5733487123066825,1.5554308797527154,0.8331320201674524,1.9009357756051413,1.7616751591818731,,,0.45235697871908603,inf,,,0.8951566345993668
531,,0.0,0.0,1.3933787698477138,1.2878873739559136,0.5562242770375629,1.8847848642431846,1.5674330486662043,,,0.45235697871908603,inf,,,0.6557057481308177
532,3.9503105323548757,-3.9503105323548757,0.0,1.6925748563332905,1.6702246601986808,0.6493051276650793,2.3707827012665033,1.6577812536233005,,,0.49759852643134905,3.947650183071297,inf,,0.6494006478903284
533,3.9098452219937054,-3.9098452219937054,0.0,1.585997521737664,1.5022258549966452,0.8099378642641524,3.158386443534027,1.8438179916858721,,,0.541134803179459,3.9059304914289887,inf,,0.5951401607916661
534,2.989941038072509,2.7105025353181778,-5.700443573390687,1.7082627799031036,1.6515409761022155,0.8115748602383084,3.282267365512814,4.285671590601168,,,0.4880666971167561,2.9864422266468984,2.7206791492748175,inf,0.7920239316179473
535,3.050888715147705,-3.050888715147705,0.0,1.6829080031167263,1.692941029288829,0.7771983681952644,4.038491429684086,25.483300927217442,,,0.5604843169999094,3.0491330502811063,inf,,0.7729977419719364
536,2.569309927269138,3.131133646121549,-5.700443573390687,1.7568348272602738,1.7152031251292403,0.7592874313408595,3.665931030049554,3.8511910943775294,3.1318654175750704,,0.6333676938231112,2.568578155815616,3.1385432201061,inf,0.8008580799947916
537,2.9816190168144816,-2.9816190168144816,0.0,1.6571111524548368,1.649403791613524,0.8156527606854382,4.154872219346466,11.569319566500766,,,0.5883313578629602,2.9789844162527683,inf,,0.6276489345588566
538,4.995992018118402,-4.796152337393666,0.0,1.536091812117093,1.501494380651005,0.6678972564627111,2.739585061964856,2.578946449184878,,,0.47824363442641393,4.9367654455298,inf,,0.7026591606219799
539,3.534434755120859,-3.534434755120859,0.0,1.7381053159688158,1.7209573802471312,0.6834992741109329,3.0148931400242103,3.5062071547060722,,,0.5567373465730988,3.5324456682721093,inf,,0.7354301296210884
540,4.182114359072355,-4.182114359072355,0.0,1.6974647918704475,1.6654598489572459,0.5439980297143617,1.8971995562474055,1.5685210468042572,,,0.44144624493110796,4.176277944984787,inf,,0.6580122851486515
541,5.010635294096255,-5.010635294096255,0.0,1.6916401977904485,1.6653740168557998,0.3993720839888087,1.7072635022429197,2.04733732615062,,,0.4928685327679205,5.0106352940962555,inf,,0.8259415987839975
542,5.7037824746562,-5.7037824746562,0.0,1.188593114171195,1.1137563237018557,0.44134119994227233,1.9751123613363382,2.163440962160843,,,0.4880666971167561,5.703782474656201,inf,,0.618823286895972
543,,0.0,0.0,1.4991033606474629,1.471796453684,0.5985985905728828,2.7111510970838713,3.398262819442644,,,0.4576907132971797,inf,,,0.7899033166258008
544,5.7037824746562,-0.969643020691554,0.0,1.639423512410964,1.6217504575546469,0.6178291380241033,1.6588063986859936,2.3260034049412286,,,0.468121228110369,7.4757393165880766,inf,,0.765170825412397
545,5.7037824746562,-5.7037824746562,0.0,1.742102142473767,1.6969107078921648,0.8861831633645876,2.714656085152531,3.1847097284520247,,,0.42445136339222655,5.703782474656201,inf,,0.8238339654773317
546,5.010635294096255,-5.010635294096255,0.0,1.6175308812029854,1.6046028225913644,0.8871039003901995,2.45022292518207,2.7348262409312567,,,0.5287703885177266,5.0106352940962555,inf,,0.8200520842069765
547,,0.0,0.0,1.6390395445796466,1.597644988818003,0.9406910067837675,2.8134762010784504,2.511236019856533,,,0.45235697871908603,inf,,,0.844963306110563
548,,0.0,0.0,1.0314222101660546,0.9411033149316531,0.784822199806394,2.3347209565448774,2.5993812669868057,,,0.4629450596409901,inf,,,0.8615233246010022
549,,0.0,0.0,1.4761198526408164,1.4292984955653345,0.7378491524322336,1.923881828584076,1.9034335859230676,,,0.44144624493110796,inf,,,0.8112979191595381
550,,0.0,0.0,1.5098762690232872,1.508182605165374,0.47315820844236967,1.5583025759025717,1.1958433960885662,,,0.4629450596409901,inf,,,0.6432062146797181
551,5.010635294096255,-5.010635294096255,0.0,0.726191937199107,0.6784722965976109,0.5038045234366981,1.7232119190277906,1.4868248637763717,,,0.44694259446804574,5.0106352940962555,inf,,0.5522346480519866
552,,0.0,0.0,1.0194119899294978,1.0183204704555364,0.4430915637500716,2.3032865587991145,2.0191958095771754,,,0.4880666971167561,inf,,,0.6794351723349195
553,,0.0,0.0,1.7081492992259537,1.6711237599159205,0.555933434714942,1.320156918139926,1.2296685872866386,,,0.4928685327679205,inf,,,0.9163639443378727
554,5.280962694514633,-5.280962694514633,0.0,1.5865612282761998,1.557062577130566,0.6005970422740479,2.129301143369396,2.3734723484287428,,,0.45235697871908603,5.22754829565983,inf,,0.8090057592470061
555,5.703782474656201,-5.627732041660785,0.0,1.0322512602735396,0.9982940920039391,0.6260346965103255,2.4339871795890344,2.908003014278326,,,0.4928685327679205,5.717205494988342,inf,,0.682471425362352
556,,0.0,0.0,1.5768014793479999,1.5792466443653386,0.7721669571077959,1.9055278280977932,2.2887286610556954,,,0.5113665138247345,inf,,,0.6501437838915203
557,,0.0,0.0,1.6446412730098212,1.6150845437388937,0.907752845033744,1.932900726903726,1.8895089182630065,,,0.47824363442641393,inf,,,0.8102092500694562
558,,0.0,0.0,1.771952932004684,1.7845035133267915,0.8623001903707983,1.6928193341146325,1.8098488686686034,,,0.49759852643134905,inf,,,0.8339993001422177
559,,0.0,0.0,1.7600714118039633,1.752172711775974,0.9056987095345201,1.2744786779314476,1.667351900570028,,,0.5451288209179292,inf,,,0.8340630733322202
560,4.096575997735242,-4.096575997735242,0.0,1.1545782292121314,1.0571223146340467,0.7532344131239803,2.2251739097938787,1.875843434213171,,,0.48319206230712763,4.096346564892774,inf,,0.8780159505918599
561,4.31748811353631,-4.31748811353631,0.0,1.596578192850713,1.5824369587581522,0.8784147265600941,3.310470497381437,2.702560959779284,,,0.4576907132971797,4.31748811353631,inf,,0.8972451104537749
562,,0.0,0.0,1.1926698393858894,1.1439571848858694,0.6282275517063136,2.6900282843068757,3.2928263495193066,,,0.47824363442641393,inf,,,0.7300902203244971
563,,0.0,0.0,1.7593430876220126,1.6729633604903664,0.8992854031766158,1.1898855490005733,1.133553957028684,,,0.4576907132971797,inf,,,0.8001722111176361
564,,0.0,0.0,1.6706823409691782,1.6117119346931517,0.62021996232656,1.5064069779943212,1.384691522932423,,,0.4302020962658841,inf,,,0.7153679126472098
565,5.7037824746562,-5.7037824746562,0.0,1.5625085031811532,1.5089496875095574,0.5631953332779392,2.1776347914010654,1.599897135604194,,,0.5068466436745385,5.703782474656201,inf,,0.786264064694723
566,3.301528543669721,-3.301528543669721,0.0,1.708406108227356,1.6532344680789088,0.7477791597442585,2.8672768753387174,2.2258118208799247,,,0.5783247308855777,3.297438147371303,inf,,0.8003357548055096
567,5.010635294096255,-5.010635294096255,0.0,1.6353153421330846,1.6128579882169833,0.5696602663689245,1.4257605480922029,1.0426214150315352,,,0.47824363442641393,5.0106352940962555,inf,,0.8694595742346065
568,,0.0,0.0,1.6529095993221121,1.6515992347705823,0.1578856149005741,1.011780232367712,0.8656820042946112,,,0.5113665138247345,inf,,,0.8483374667437408
569,2.833241185016397,2.86720238837429,-5.700443573390687,1.6081656928544992,1.6080164205425767,0.8184814614218143,3.4302075290444165,2.622844175644247,2.8677745256228113,,0.5915533975974677,2.8326690477678755,2.8744523281538403,inf,0.7876599997213214
570,2.8707768721943863,2.136519520636355,-5.0072963928307415,1.65214909523793,1.6393992021683501,0.856147999783975,3.2460092666306464,1.1610397578681435,2.138294660670769,,0.62595550513784,2.869001732159972,2.1449724632017984,inf,0.5128728444261379
571,2.9111876272169965,2.7892559461736903,-5.700443573390687,1.5074509185049676,1.4862455519060531,0.6939816425664727,3.4503256378541045,2.79764756831463,2.7896650057168593,,0.5641709578113449,2.910778567673827,2.7963428082478883,inf,0.7817779886285878
572,2.985190981768187,-2.985190981768187,0.0,1.6327164041734175,1.5944495926387285,0.7630975965443516,2.8597602865877723,1.4191739135587587,,,0.4302020962658841,2.984902241742398,inf,,0.7121745413888655
573,3.2467211462057435,-3.2467211462057435,0.0,1.5136077491290556,1.4226667355285003,0.7013706528015328,1.318375118443666,0.143942667397575,,,0.38804190201132227,3.2447635958203285,inf,,0.6760872427538291
574,,0.0,0.0,1.5136077491290556,1.4936569904574348,0.8786781914878233,0.033915210516577206,0.046384604553323654,,,0.35499006010413947,inf,,,0.9219956236730001
575,2.717250712788147,1.596898499482649,1.3829442742346085,1.3621369172766844,1.3418829874722529,0.81839490383825,2.6843575905105976,0.3502062918461184,1.66466771346052,1.315502993439076,0.5748741956352443,2.7169227796058086,1.6039042351960167,1.3896444480051726,0.6683104454150193
576,2.926343782671105,-2.926343782671105,0.0,1.6749847694825908,1.5923897026808922,0.8426937376577518,3.1256710844718643,1.3590249516638395,,,0.581717464821069,2.926206210905381,inf,,0.6011409394403058
577,4.467244039265222,-4.467244039265222,0.0,1.510348196892084,1.4837849682653967,0.7081085640123465,2.7920302026612456,3.0199008317196454,,,0.6207552362147116,4.437774279410813,inf,,0.6835118949152442
578,5.11229688057838,-5.11229688057838,0.0,1.5908486377695144,1.518668601886193,0.6837128324298467,2.124653039917424,1.6634564322753662,,,0.5022576003740722,5.0867966550618195,inf,,0.9436785946344296
579,3.992569098308518,-3.992569098308518,0.0,1.6960695101713164,1.6726384978820914,0.3900576702480503,1.9311557739404321,1.7132504138509286,,,0.5022576003740722,3.9804208159037864,inf,,0.8946937370147136
580,4.99982289121337,-4.99982289121337,0.0,1.48465742465826,1.4647215381147725,0.5549865963711043,2.500281766798655,1.9068680728476042,,,0.5783247308855777,4.9973900673462355,inf,,0.6982400695640321
581,3.642145118659635,-3.642145118659635,0.0,1.3632992596352604,1.3369098452153458,0.6501838219978253,2.5748618690703826,2.483917755452514,,,0.5567373465730988,3.6411480512927463,inf,,0.8278497674823192
582,4.833106206988894,-4.833106206988894,0.0,1.6153090428140306,1.6058018873059239,0.626889797701207,2.3678181047482805,2.1726121893924764,,,0.4629450596409901,4.806334830583526,inf,,0.77053570065693
583,5.703782474656203,-0.5703782474656203,0.0,1.5680477640105446,1.5150336490621499,0.5093640995138949,1.8125579817000856,1.7973246479757798,,,0.48319206230712763,8.006367567650246,inf,,0.5828637424210591
584,,0.0,0.0,1.609134403544287,1.5791804126490332,0.5868388342931203,2.1848898440053053,1.913379453091422,,,0.524519217297268,inf,,,0.6290094810335385
585,,0.0,0.0,1.7318673975597583,1.7585064046648307,0.46487089604698245,1.6379059824798883,1.2741585270754963,,,0.5068466436745385,inf,,,0.7795968411324435
586,5.7037824746562,-5.7037824746562,0.0,1.4924293869965328,1.400250820421028,0.4449080643089242,1.9884259998512084,1.5058597100047282,,,0.5329562494928909,5.703782474656201,inf,,0.7892679252441592
587,4.0943445622220995,-4.0943445622220995,0.0,1.6481188408457106,1.6476668148861358,0.6935941446189678,2.5885231635656405,1.883468539990079,,,0.5567373465730988,4.0943445622221,inf,,0.8255420792968517
588,3.137117872548403,2.563325700842284,-5.700443573390687,1.6484041353040906,1.6527746673954282,0.7326965027161251,2.5344160620299823,1.1429749801953633,3.241245707777402,,0.5748741956352443,3.135760918157694,2.5713604577640217,inf,0.6435041873094615
589,3.4778232776409657,-3.4778232776409657,0.0,1.6541680997758341,1.5266677158286237,0.7473059852157065,2.395613840303515,1.048241561820345,,,0.5748741956352443,3.4669811222081584,inf,,0.7573480515211706
590,4.215165319880057,-3.5288242876323492,-0.6863410322477081,1.7091731148403047,1.6626658813381874,0.6982660548941805,3.405154813647218,6.395994256699865,,,0.34100769111774265,4.187191112588453,3.6368548982678397,inf,0.8506994633075368
591,3.2246765833341753,1.7826198094965662,0.6897970936746631,1.6784809661897688,1.6225081120666374,0.6677220988712196,2.6496004597210625,1.8952580590115753,4.71070437406399,,0.541134803179459,3.224446869917656,1.7895273254441144,0.6964972674452273,0.8744397936916506
592,3.6900382844833644,0.10390242155257745,-3.793940706035942,1.5685309251208213,1.581874701296126,0.47556846336704794,2.5465534141346455,1.5693572963745162,,,0.4629450596409901,3.6782692750019206,2.435990849585989,inf,0.7666138277813308
593,3.757872325600888,1.942571247789799,-5.700443573390687,1.5374342404117292,1.53363887891481,0.5717474462411197,2.3795663734117634,1.6945351617793198,1.9425712477897987,,0.5641709578113449,3.757872325600888,1.949249050320828,inf,0.6969785087144073
594,4.31748811353631,-4.31748811353631,0.0,1.5372283755277711,1.4843424431008565,0.41805370537849906,2.108993016227878,1.3103765686800286,,,0.47824363442641393,4.31748811353631,inf,,0.8078714426537512
595,3.0929032247949126,2.607540348595774,-5.700443573390687,1.5187577106771937,1.5063806906877748,0.7504747375163794,3.3758950480702086,2.346747442776231,2.6082003994558516,,0.5641709578113449,3.092243173934835,2.614878201986881,inf,0.8307032989622898
596,4.605170185988091,-4.605170185988091,0.0,1.6718482875257004,1.6503049848733058,0.6149645401861282,2.396360960252471,1.7217211831832664,,,0.48319206230712763,4.605170185988091,inf,,0.7251739772636536
597,4.886292660943084,-4.886292660943084,0.0,1.489429177149956,1.4705613024383457,0.6717046306939604,3.22783521046601,4.755270403232963,,,0.5158180382284114,4.867978993694733,inf,,0.8495811823998678
598,5.056845106133585,-5.056845106133585,0.0,1.67061125700562,1.6888215684618118,0.6649640286397056,2.349440550291851,1.6010210047304207,,,0.541134803179459,5.044536845771937,inf,,0.7942500439331966
599,4.0943445622220995,-4.0943445622220995,0.0,1.0859464407054782,1.0497298696674786,0.5977586166669197,2.6843304334339,2.644822831638235,,,0.5113665138247345,4.0943445622221,inf,,0.8538806013916475
600,4.552428472705264,-4.552428472705264,0.0,1.4811553900456824,1.401512393964197,0.4753295025514199,2.3649444402565516,2.2052429276128853,,,0.5113665138247345,4.545853608831671,inf,,0.8239321316305539
601,3.8036036939496407,-3.8036036939496407,0.0,1.6616786859844876,1.5842484225470341,0.6828961040021382,2.6356387497882685,1.6032869330802026,,,0.5567373465730988,3.80117755953975,inf,,0.701216034879295
602,4.0943445622220995,-4.0943445622220995,0.0,1.6672959989431329,1.6369531518512308,0.7615590527088504,2.914739421311095,1.741273157665176,,,0.5604843169999094,4.0943445622221,inf,,0.6870683901294213
603,3.624340932976365,-3.624340932976365,0.0,1.3300428219128753,1.2842689389354605,0.6424697844661799,2.1347723307358772,1.0308835675554922,,,0.5915533975974677,3.624340932976365,inf,,0.6449650028683684
604,3.9120230054281455,-3.9120230054281455,0.0,1.6750582129886058,1.6316828902369438,0.5489248217729196,2.6989960304541447,1.3575475046011976,,,0.5202020156036558,3.912023005428146,inf,,0.5887387883617602
605,2.8416088675877447,0.05627549079146732,-2.897884358379212,1.7230242146189947,1.6967981254890276,0.8421530423658335,4.259831929669335,3.430975548550708,6.257101339897612,,0.585052858160615,2.8412007138897155,3.5424837145764103,inf,0.5501672657546116
