,bvp+temp_XAp0,bvp+temp_XAp1,bvp+temp_XAp2,bvp+temp_XCond1,bvp+temp_XCond2,bvp+temp_XDist,bvp+temp_XFuzz1,bvp+temp_XFuzz2,bvp+temp_XK2_1,bvp+temp_XK2_2,bvp+temp_XPermEn,bvp+temp_XSamp0,bvp+temp_XSamp1,bvp+temp_XSamp2,bvp+temp_XSpec
0,,0.0,0.0,1.6849730996725796,1.6895435651817978,0.8376546317626208,1.4033014313056298,1.2711068464243225,,,0.5113665138247345,inf,,,0.9506329798070806
1,,0.0,0.0,1.6250981915162583,1.5290228021119479,0.830669803777103,1.6369566755430647,1.578914269977272,,,0.4880666971167561,inf,,,0.9359329244622151
2,,0.0,0.0,1.6047249388428615,1.555100827363665,0.8856162754087645,1.754003284736371,1.6115133005226034,,,0.5604843169999094,inf,,,0.9469894555760576
3,,0.0,0.0,1.5996205390147644,1.5763424896465639,0.8510056563345885,2.0294428683433186,2.054507928758233,,,0.4576907132971797,inf,,,0.9502074720337323
4,,0.0,0.0,1.5890646201195848,1.542503431064357,0.6417963535358039,1.6750071220982177,1.1837783765907677,,,0.5604843169999094,inf,,,0.9492604664984445
5,,0.0,0.0,1.52554903825588,1.502657407770173,0.7474818270843225,1.4521979843879969,1.2245447223704822,,,0.5158180382284114,inf,,,0.9303904710703402
6,,0.0,0.0,1.7624058007005228,1.7521666601159975,0.5343313663451016,1.345536492714473,1.3949411809790695,,,0.44694259446804574,inf,,,0.9069749264341838
7,,0.0,0.0,1.3557931645404386,1.3185389819351423,0.4646461164475314,1.0676082255192048,0.8314592150157736,,,0.3751344627501719,inf,,,0.947797537689632
8,,0.0,0.0,1.585805047545019,1.5782482808760334,0.5662603846057735,1.2475545050485493,0.8936048395604452,,,0.4629450596409901,inf,,,0.9271399093748345
9,,0.0,0.0,1.7030424514040798,1.6951280206621657,0.6691261358928209,1.8803768365569997,1.973049309129054,,,0.5202020156036558,inf,,,0.913420723564467
10,,0.0,0.0,1.7029196126660195,1.6870975008333273,0.7584871584017726,1.7486413966758312,1.8973474426073504,,,0.5068466436745385,inf,,,0.9235520141261099
11,,0.0,0.0,1.6016494245424462,1.6005734462523742,0.49915249457017324,0.8158228153063294,0.5023870185592093,,,0.41861278947482794,inf,,,0.9492771747738307
12,,0.0,0.0,1.4488413294640003,1.4302318543101615,0.577905460726135,0.9534958390022921,0.8863349826406055,,,0.5287703885177266,inf,,,0.9430256994187043
13,,0.0,0.0,1.746672923766817,1.7285357684939937,0.4998921075458305,1.171932321313836,0.8953625418520266,,,0.49759852643134905,inf,,,0.9459252731754496
14,,0.0,0.0,1.354993341028215,1.3252498326166073,0.5964994977819803,0.9708271399643099,0.7355952242043489,,,0.5158180382284114,inf,,,0.9459498050126715
15,,0.0,0.0,1.481323201058,1.4797677631230641,0.5749522480379008,0.8073220562787188,0.7291584094693992,,,0.5202020156036558,inf,,,0.9187722565917565
16,,0.0,0.0,1.6857030373893958,1.6445728098726768,0.665999393196805,1.5702724176024359,1.3658155102758438,,,0.44694259446804574,inf,,,0.9302405715905144
17,,0.0,0.0,1.3460960803671704,1.291400736534771,0.5688846256631364,1.4513419917347583,0.9456862279384168,,,0.44144624493110796,inf,,,0.9515476606446566
18,,0.0,0.0,1.6134308372211066,1.5342629121336997,0.6140063119893769,0.8461018685400364,0.6051008957909059,,,0.4880666971167561,inf,,,0.9421342057671711
19,,0.0,0.0,1.7764776464177847,1.7171624719850274,0.7096756533092775,0.7458443011742456,0.567525855203688,,,0.5202020156036558,inf,,,0.9241299685432818
20,,0.0,0.0,1.6766138016463108,1.6157091966029358,0.6452932900335842,0.9481444229554371,0.9793685219958195,,,0.44694259446804574,inf,,,0.9412903998129759
21,,0.0,0.0,1.6832697908852454,1.60615809573723,0.5714100065550861,0.7725949440955862,0.4671457935812334,,,0.45235697871908603,inf,,,0.9207954001489597
22,,0.0,0.0,1.7284300605057918,1.60446257464044,0.4811803166568278,1.3210252644356704,1.5397160925125968,,,0.43586655696697996,inf,,,0.9413180128256841
23,,0.0,0.0,1.409050133727438,1.3955366605153232,0.8312062871888242,1.2241275372890759,1.2882179004868461,,,0.5329562494928909,inf,,,0.9045934437482868
24,,0.0,0.0,1.6303719786731266,1.6188847514918643,0.8935503255695729,1.1173385292916607,1.4006875932843565,,,0.5158180382284114,inf,,,0.9223758737996588
25,,0.0,0.0,1.7534134811987387,1.7218664421444543,0.5847553431741107,1.0196168919896078,0.36989657631548845,,,0.4576907132971797,inf,,,0.9536041243708585
26,,0.0,0.0,1.6771190799044327,1.6700953754570502,0.43756442645706367,0.39026068199718467,0.253968117296343,,,0.5202020156036558,inf,,,0.9403126630286982
27,,0.0,0.0,1.238163399503525,1.2092805249048777,0.7024989395401265,1.0988862163714783,0.4549550890007279,,,0.5287703885177266,inf,,,0.9516514444151425
28,,0.0,0.0,1.6234896693791958,1.603822579306995,0.6494873319775729,1.302223897380189,1.1315962757869447,,,0.5022576003740722,inf,,,0.9460994045755081
29,,0.0,0.0,1.6032916355028404,1.5628546551893752,0.6124759190837463,1.3015481127201078,0.9371294903563328,,,0.5490601803369085,inf,,,0.9462044663740846
30,,0.0,0.0,1.7109688174173245,1.6830601446519835,0.7822810993269015,2.0732324895260725,1.4654683409546383,,,0.4928685327679205,inf,,,0.9520289419126728
31,,0.0,0.0,1.3787499304071436,1.3522143052928528,0.6397992601165551,1.8437255124692793,2.114014957455762,,,0.5490601803369085,inf,,,0.931423605305944
32,,0.0,0.0,1.6868997681583757,1.7098749747824293,0.5661847058506462,1.1770045229612673,0.99519782212461,,,0.5202020156036558,inf,,,0.9425313586876476
33,,0.0,0.0,1.7175481120253553,1.6970190618301944,0.6579098844901635,2.4277851865361533,1.8544833852501186,,,0.5451288209179292,inf,,,0.9410672456740348
34,,0.0,0.0,1.726863031029223,1.6299640763959655,0.7373416754504714,2.3000251544491315,1.8752781375786007,,,0.4732203808476458,inf,,,0.9470221914570333
35,5.7037824746562,-5.7037824746562,0.0,1.6845260863184432,1.6462363379286156,0.7102947799101552,1.7401513135077031,1.2146537898277476,,,0.5158180382284114,5.703782474656201,inf,,0.9360608916895896
36,5.7037824746562,-5.7037824746562,0.0,1.7403364589779835,1.711794973338675,0.6786525460567129,2.021083579262319,1.249913229803714,,,0.5068466436745385,5.703782474656201,inf,,0.884808848274837
37,,0.0,0.0,1.708038564109959,1.6935755797527812,0.8472974661610199,2.0224897679315688,1.8111577529193883,,,0.5287703885177266,inf,,,0.897218063032001
38,,0.0,0.0,1.5046571975301941,1.4606098893263213,0.8412688525557874,2.3483983311272687,1.7604989717435857,,,0.4732203808476458,inf,,,0.9478325713388669
39,5.7037824746562,-5.7037824746562,0.0,1.7282653439172528,1.7293215545397975,0.7268570090827513,2.1740531211759513,1.7440976380978883,,,0.552929491858785,5.703782474656201,inf,,0.8456388952011673
40,,0.0,0.0,1.5348497603717952,1.5247935081020898,0.7115241398863174,1.7149178118682502,1.3782866700985705,,,0.48319206230712763,inf,,,0.9313157743729711
41,,0.0,0.0,1.5277207908678208,1.5104527390235596,0.6329964017948303,2.023620304370255,1.707021804105941,,,0.524519217297268,inf,,,0.9058160652039878
42,,0.0,0.0,1.5336270309758624,1.4951813668755822,0.6436987286828739,1.1883092664599384,0.8409738221594971,,,0.5113665138247345,inf,,,0.7476247843642049
43,,0.0,0.0,1.7649893152689269,1.712221988929824,0.6356657263069444,1.534534448665872,1.1007360664890486,,,0.524519217297268,inf,,,0.920048195259383
44,5.7037824746562,-5.7037824746562,0.0,1.6888004062558946,1.6555644434928203,0.768244305582329,3.4132888405845767,3.4969879114352707,,,0.5287703885177266,5.703782474656201,inf,,0.9318501340965119
45,,0.0,0.0,1.541520944013989,1.525567962644305,0.5917636693380541,1.5684018994060893,1.120067917334214,,,0.5022576003740722,inf,,,0.9394644490629428
46,,0.0,0.0,1.5469119434511531,1.5594876289601456,0.6334860993313309,1.1981339449484845,1.0738372069145241,,,0.524519217297268,inf,,,0.940988402934079
47,,0.0,0.0,1.6347912768139519,1.6055214666336188,0.5298046148686434,1.1358050469875658,0.8067337640693342,,,0.552929491858785,inf,,,0.9464326351325016
48,,0.0,0.0,1.6110943459313534,1.581049005414475,0.7107435432757396,1.335279703846357,0.921351399956106,,,0.47824363442641393,inf,,,0.8530155177137607
49,,0.0,0.0,1.5636481605589856,1.569191824031558,0.5747402985031956,1.8120614037979803,1.0948401013970612,,,0.42445136339222655,inf,,,0.8869520500977268
50,,0.0,0.0,1.4215913959960658,1.417409981491621,0.5833749993545287,1.32752280092057,1.168299149151654,,,0.541134803179459,inf,,,0.8431782934980788
51,,0.0,0.0,1.6407220806917577,1.6070577413333886,0.6524507533753218,1.6192165350025824,1.455831724459315,,,0.47824363442641393,inf,,,0.8946277146845307
52,,0.0,0.0,1.6207387630316255,1.5548765787585437,0.5191981292233031,0.8042268605480121,0.5634547762789077,,,0.5113665138247345,inf,,,0.9003910780834214
53,,0.0,0.0,1.5773968605003157,1.5403728492704463,0.5375710361425932,1.3470006702624402,0.8408578288422732,,,0.5158180382284114,inf,,,0.9440942109758879
54,,0.0,0.0,1.7154882858737313,1.7036516550747123,0.5997215170189332,1.5182249209353667,1.2720298096925269,,,0.4928685327679205,inf,,,0.8836926396302771
55,,0.0,0.0,1.483910210147289,1.477741467242974,0.4379544536018486,0.7675330845448785,0.46812656837438904,,,0.4880666971167561,inf,,,0.895473647084812
56,,0.0,0.0,1.7569229666175203,1.7628203271224916,0.6268336678046887,1.1114379463474815,0.9933350014740765,,,0.5202020156036558,inf,,,0.9379097198050633
57,,0.0,0.0,1.6273192591390244,1.6159622900180373,0.7248698473010661,1.4460626277381703,1.176210073271523,,,0.5287703885177266,inf,,,0.9212950228185673
58,,0.0,0.0,1.5640408521953726,1.5528274099362323,0.7827768498348512,1.8614787281927208,1.7511631524865994,,,0.5329562494928909,inf,,,0.8995496520187115
59,,0.0,0.0,1.6882535039364457,1.688073713709512,0.5451932793241704,1.7488820777553455,1.4057437920111446,,,0.5158180382284114,inf,,,0.9097287864592841
60,,0.0,0.0,1.6863910134491331,1.6682222533990352,0.4199465528199742,0.7385561676161653,0.6151410469611344,,,0.4732203808476458,inf,,,0.9258473328084804
61,,0.0,0.0,1.4620026911731117,1.3095873944651693,0.5355589068381938,0.7551787946954421,0.7334826925308195,,,0.4928685327679205,inf,,,0.9299127109237187
62,,0.0,0.0,1.5338525714088442,1.5219090250058382,0.623327465198234,0.7627315198043343,0.5554055772553971,,,0.552929491858785,inf,,,0.9158116913416052
63,,0.0,0.0,1.580692180990956,1.477666937508966,0.6497361991187662,0.8422480740280334,0.6241323594654492,,,0.5567373465730988,inf,,,0.8881432498328286
64,,0.0,0.0,1.7248104178782282,1.7307482299965893,0.8220117561187739,1.386457625227939,1.4235242096081102,,,0.5022576003740722,inf,,,0.8755625822688088
65,,0.0,0.0,1.7363280741210978,1.7065631088834055,0.7838580356084821,1.2871308123956149,1.6465293288428684,,,0.3943459996787778,inf,,,0.8651276342843558
66,,0.0,0.0,1.5158757953371753,1.4873807006414606,0.7481518361745848,1.2953915697274476,0.7536047248340363,,,0.5329562494928909,inf,,,0.6183591789797143
67,4.930893822834983,-4.930893822834983,0.0,1.6998541952522515,1.5623616514869583,0.3582906504965177,1.281414554724882,0.7347896606561399,,,0.5604843169999094,4.916841414809895,inf,,0.8574966128631148
68,5.648330700211404,-5.648330700211404,0.0,1.2293033004460396,1.162029604792092,0.5583255870783802,1.4541118662803836,1.2212388029501204,,,0.5677978065141052,5.626821433520073,inf,,0.6736582011499354
69,5.010635294096255,-5.010635294096255,0.0,1.528015019530669,1.4735238800101194,0.5712578159238031,1.5694646314234313,0.8325071168462206,,,0.5370774965580548,5.0106352940962555,inf,,0.7090661900872279
70,,0.0,0.0,1.0709039613083728,1.0062912985639998,0.2715613715928396,0.7157759627545708,0.8527128729454198,,,0.47824363442641393,inf,,,0.930320191241793
71,5.7037824746562,-5.7037824746562,0.0,1.5665488414935358,1.5366622101605691,0.606772552303148,1.6907054860706214,0.5085456550455412,,,0.49759852643134905,5.703782474656201,inf,,0.7356799423136559
72,4.31748811353631,-4.31748811353631,0.0,1.7053822617299965,1.5912610125708873,0.5892715560797808,1.4751423789286784,0.8537006367191604,,,0.5202020156036558,4.31748811353631,inf,,0.8414973015028491
73,,0.0,0.0,1.584805562586253,1.5647992589598105,0.8514633586284063,0.7321656127549744,0.7058375878744175,,,0.5022576003740722,inf,,,0.837878117563013
74,,0.0,0.0,1.2613772004757386,1.1842305802215938,0.3255511825478013,0.7782632755222391,0.6591634173135,,,0.4732203808476458,inf,,,0.7177929921873801
75,,0.0,0.0,1.7162166429821608,1.6920450263551419,0.7858761929077942,0.4597991692753987,0.614176339848052,,,0.45235697871908603,inf,,,0.8047290196808677
76,,0.0,0.0,1.7300601073659765,1.6800208620465946,0.9372289362095151,0.6891156179798239,1.041156495926121,,,0.38804190201132227,inf,,,0.8140811752100737
77,,0.0,0.0,1.725573492030807,1.7029810880376672,0.9599083552614492,0.742234968439612,1.1449258587823574,,,0.4066654671944331,inf,,,0.8222897005104145
78,,0.0,0.0,1.753404135714617,1.7294178625603585,0.9324601994315245,0.780921673582651,1.276394955576619,,,0.48319206230712763,inf,,,0.8049531589923907
79,,0.0,0.0,1.547265078971197,1.4936730443224062,0.9227334161189146,0.8620461668685576,1.29787533614701,,,0.4732203808476458,inf,,,0.7851294463985491
80,,0.0,0.0,1.527641899965806,1.502632107009153,0.9710216359649454,0.98425626312678,1.6550620478219056,,,0.44694259446804574,inf,,,0.7752223006745161
81,,0.0,0.0,1.4333802908167572,1.393036020151505,0.9309167680814505,0.6662452268738225,1.0145807306837051,,,0.38163879478178075,inf,,,0.7983421912513412
82,,0.0,0.0,1.3709074279900058,1.3438541228038787,0.3057847728825901,0.9704233351679409,1.005554319815132,,,0.45235697871908603,inf,,,0.7069294507113963
83,,0.0,0.0,1.6346876899133829,1.5997447524446786,0.860212404386768,0.7433982269494773,0.8568732131134715,,,0.49759852643134905,inf,,,0.8362022674223747
84,,0.0,0.0,1.6130575332805757,1.5991319223233391,0.8773933518547837,0.7986429991380453,0.9270584285785471,,,0.48319206230712763,inf,,,0.8993599018394504
85,,0.0,0.0,1.5674894536923816,1.58003064466433,0.851540373478136,0.6896452840018672,0.7803191728385878,,,0.4629450596409901,inf,,,0.8819040303462363
86,,0.0,0.0,1.565267401274379,1.5586346621365121,0.6459571192080668,0.8710271069599611,0.996604082170375,,,0.5677978065141052,inf,,,0.9111254711082329
87,,0.0,0.0,1.6021469335415894,1.572669211146198,0.7677694024997607,0.7345270269891088,0.8712813214793289,,,0.5713653840954815,inf,,,0.8948595907288867
88,,0.0,0.0,1.5271292592443348,1.5185056904300507,0.8188674561696652,0.706570962343468,0.8017632895704502,,,0.5113665138247345,inf,,,0.8279267061311333
89,,0.0,0.0,1.2360896879426986,1.2295924177066526,0.6974775182977091,1.012692874412476,0.9338706946403643,,,0.4880666971167561,inf,,,0.8618750300246205
90,,0.0,0.0,1.3979100963179707,1.37205269473395,0.8563279617883525,0.9061975803315906,0.8725579020164926,,,0.49759852643134905,inf,,,0.8554873240340841
91,,0.0,0.0,1.1866078043841413,1.1582284977789747,0.8492944737901321,0.9494977850947,0.8773468545097118,,,0.47824363442641393,inf,,,0.8602128544000155
92,,0.0,0.0,1.5062093869109445,1.4950183335439495,0.9226233625357907,0.9864090472886796,1.0684254989325064,,,0.4629450596409901,inf,,,0.8444188764105551
93,,0.0,0.0,1.319039465893604,1.2823462448875342,0.8942868093894493,0.8674070359392287,0.9790103633606665,,,0.44144624493110796,inf,,,0.8493527812368261
94,,0.0,0.0,1.409521248373831,1.3828384222029682,0.910341037075342,0.9015218515343738,1.2017447693517578,,,0.49759852643134905,inf,,,0.8559047483689094
95,,0.0,0.0,1.2565745887222735,1.2480802645591997,0.8438867387451157,0.674387709465969,0.7513861679176246,,,0.524519217297268,inf,,,0.8588088782586991
96,,0.0,0.0,1.2374069677897168,1.2122490288909673,0.24663808179613333,0.5709678014120776,0.708614639235884,,,0.5329562494928909,inf,,,0.9599922210642073
97,,0.0,0.0,1.6682671653078782,1.6291049898955592,0.8081296091242293,0.23108196747836243,0.32798080132734553,,,0.4732203808476458,inf,,,0.820145818757222
98,,0.0,0.0,1.218285061273406,1.1664618343506512,0.9080089838378113,0.13655585938060302,0.2369967680586085,,,0.4928685327679205,inf,,,0.7585450064294951
99,,0.0,0.0,1.508761274260004,1.496528923372162,0.2692248444559892,0.17269772361380278,0.22974699364340914,,,0.49759852643134905,inf,,,0.9076168290639307
100,,0.0,0.0,0.24137394552797653,0.16429420825464353,0.08095289910424404,0.15895428620781066,0.23300132839687993,,,0.5370774965580548,inf,,,0.9457285970228076
101,,0.0,0.0,1.334845981381127,1.3146527390075564,0.4571801261812753,0.4658958719748107,0.5481281975994197,,,0.5604843169999094,inf,,,0.9394414272902384
102,,0.0,0.0,1.6107721073067345,1.6072695776098433,0.32665628017989246,0.32526861341486807,0.32194116100517267,,,0.5451288209179292,inf,,,0.9450340949354552
103,,0.0,0.0,1.7034627302335856,1.688570964876286,0.7862803933986019,0.09511224521361183,0.16444666169734407,,,0.4732203808476458,inf,,,0.7869595667988251
104,,0.0,0.0,1.5844349910828104,1.5743828499594592,0.6881041234709148,0.15059617060967684,0.23053756550051582,,,0.43586655696697996,inf,,,0.8281187534141718
105,,0.0,0.0,1.076055029464784,1.0635941447485526,0.7497756275008952,0.09379689538852505,0.15106949269734393,,,0.4880666971167561,inf,,,0.7889874782263318
106,,0.0,0.0,1.5047813710312357,1.5061216141968516,0.7771932604892093,0.10848299567425987,0.17191611112691307,,,0.4880666971167561,inf,,,0.7833077660963037
107,,0.0,0.0,1.3847064955680903,1.3765677733992396,0.25560052293195296,0.15151184025061964,0.20001968034878104,,,0.44144624493110796,inf,,,0.6940719273026531
108,,0.0,0.0,1.5804437495070698,1.5843141383384691,0.8134892303718472,0.6517239264637656,0.7966772267946313,,,0.4732203808476458,inf,,,0.753069310462728
109,,0.0,0.0,1.3748424395393344,1.3645980401912017,0.9292033875411335,0.7454208001005874,1.1108172679249035,,,0.44144624493110796,inf,,,0.8597586029205615
110,,0.0,0.0,1.5456602056348532,1.5337063484134044,0.9055207568663829,0.5567182810581766,0.8013210338461269,,,0.4928685327679205,inf,,,0.7929599560163267
111,,0.0,0.0,1.6182610588774047,1.6047529982842805,0.14584919845388017,0.26729726733207687,0.2637810964521016,,,0.4629450596409901,inf,,,0.9210936647303283
112,,0.0,0.0,1.5373760092481854,1.522527922230991,0.9347231078900505,0.0895616314671231,0.17916169018953626,,,0.5068466436745385,inf,,,0.8004916855205636
113,,0.0,0.0,1.5836471151853946,1.5664448083430758,0.4915871503462941,0.13875863367406518,0.2144005927817295,,,0.4576907132971797,inf,,,0.9229719941973905
114,,0.0,0.0,1.5094422325805086,1.5166950259591443,0.6043031183718026,1.690568277529135,0.8105870253954264,,,0.5641709578113449,inf,,,0.9262315145471723
115,,0.0,0.0,1.5722436008037417,1.506478163009023,0.703054905153806,1.5755272266146805,1.5216940454415742,,,0.4302020962658841,inf,,,0.8642176600024243
116,,0.0,0.0,1.6820695298023485,1.630277247082945,0.28608566874669206,0.3685174423804656,0.24743953053463696,,,0.468121228110369,inf,,,0.9543560136128146
117,,0.0,0.0,1.7077382655171114,1.6921473930000106,0.8178410561555796,0.49165110379875465,0.5094514609640199,,,0.5329562494928909,inf,,,0.7329366701933319
118,,0.0,0.0,1.7224706506535845,1.6611447283067582,0.6088056671409813,1.029546810403546,1.1922391393504597,,,0.4066654671944331,inf,,,0.914899407525033
119,,0.0,0.0,1.7109060279944184,1.62995871757212,0.5888296730462359,0.41981815086678625,0.32635565326143395,,,0.468121228110369,inf,,,0.9314207943873183
120,,0.0,0.0,1.6221440312677766,1.5882275689210457,0.5611325057159984,0.5846983359193983,0.7962101795540559,,,0.44144624493110796,inf,,,0.9157980525957685
121,,0.0,0.0,1.47656528277955,1.4474501354596534,0.3847011975954746,0.604796611703624,0.7927460910659876,,,0.49759852643134905,inf,,,0.8970834485798655
122,,0.0,0.0,1.761011565342237,1.7129041038373907,0.7433477027405224,0.2116097408092495,0.32709869903239486,,,0.5451288209179292,inf,,,0.7605129141774135
123,,0.0,0.0,1.7013169417663683,1.6807303288817943,0.8934005502667437,0.16635888695874218,0.31696772694636416,,,0.4928685327679205,inf,,,0.8117954560204195
124,,0.0,0.0,1.7772095237826295,1.7694158808150722,0.8800079993787444,0.2002752064227334,0.3177537170349861,,,0.4880666971167561,inf,,,0.8393896857095698
125,,0.0,0.0,1.4664257703811052,1.4703434030717997,0.8780011161625523,0.1911984296855524,0.31389237545326387,,,0.4732203808476458,inf,,,0.8264371502113954
126,,0.0,0.0,1.6107371732443845,1.603166460270351,0.9112328718960692,0.10746416311955442,0.192883465403935,,,0.41268473150466,inf,,,0.7384589310202561
127,,0.0,0.0,1.6500324474405592,1.5987415247506667,0.8727107005689941,0.10970610044530404,0.1924049460093672,,,0.581717464821069,inf,,,0.7591974190661213
128,,0.0,0.0,1.578356389441294,1.5795828744033245,0.5740126012574667,0.6562111571214232,0.49352956559833805,,,0.4629450596409901,inf,,,0.8868755617110328
129,3.5059920339798434,1.501304358850898,0.6897970936746631,0.9938787926128689,0.6559940987345657,0.738328087355874,1.8041753630621227,1.2775933346949613,1.507383038229428,0.6897970936746634,0.44144624493110796,3.499913354601313,1.5140608407604572,0.6964972674452273,0.6512343044346848
130,3.0205697072892934,-3.0205697072892934,0.0,1.5039834967798877,1.468837111462099,0.9259798019159244,4.661069951992276,34.938715158650616,,,0.4928685327679205,3.0200249661230356,inf,,0.6671635489491802
131,2.67910137036168,3.0213422030290067,-5.700443573390687,1.7530644287357575,1.7256794334087584,0.7886589806374072,4.368566011334198,46.94009421801726,3.724859797183383,,0.5567373465730988,2.6788150758338753,3.0283063000878405,inf,0.9374334570097435
132,2.4219095300055256,-2.4219095300055256,0.0,1.723402110820631,1.7250488413482663,0.88801007605174,5.23520961718867,31.439285928205503,,,0.49759852643134905,2.4217440748303605,inf,,0.9080796455513259
133,2.5257286443082556,3.1747149290824312,-5.700443573390687,1.6607437215774683,1.648588541299611,0.898725403717185,4.512440259020755,21.079180694281394,3.1747149290824312,,0.4928685327679205,2.5257286443082556,3.1813927316134603,inf,0.8609687222939897
134,4.605170185988091,-4.605170185988091,0.0,1.1109349466362128,0.8110928047253418,0.46192572089257444,0.7179996210765478,0.6310675779400648,,,0.4732203808476458,4.605170185988091,inf,,0.8579274985270177
135,,0.0,0.0,1.4554183003044767,1.373176141066899,0.27556407028801294,0.48751224635965235,0.40301874468926435,,,0.47824363442641393,inf,,,0.9391471347270643
136,,0.0,0.0,1.5981621616688109,1.579964726879917,0.7310291650672214,0.39142361113126917,0.5089123973275942,,,0.5022576003740722,inf,,,0.8842358707984764
137,,0.0,0.0,1.4775811615917762,1.4956810559455493,0.4035007579286724,0.4470259759648254,0.5076350540313863,,,0.5022576003740722,inf,,,0.9053938613634539
138,,0.0,0.0,1.4411522489098565,1.4170268382333828,0.8133239974808196,0.32289420642300115,0.4359199846893295,,,0.4732203808476458,inf,,,0.7718296891155821
139,,0.0,0.0,1.47319182222981,1.4459903511011447,0.8416082142373786,0.3465286897325983,0.4699359373959371,,,0.541134803179459,inf,,,0.8390624667776492
140,,0.0,0.0,1.1873948565369399,1.1477544837533948,0.36381067435199116,0.5001734209582825,0.5656829876076919,,,0.581717464821069,inf,,,0.93675068506674
141,,0.0,0.0,1.3105876819700695,1.2750439503110522,0.7698738704045776,1.6396058339014723,1.4217925679431018,,,0.468121228110369,inf,,,0.939277065557682
142,,0.0,0.0,1.4407827649104088,1.2774920338815128,0.41951414852687735,0.47605177325011655,0.3145428323675312,,,0.4732203808476458,inf,,,0.9421722794680158
143,5.7037824746562,-5.7037824746562,0.0,1.008860360437396,0.9611463199010354,0.5622697836373138,2.0759398833782945,1.2900610314691323,,,0.5604843169999094,5.703782474656201,inf,,0.8061923556210335
144,,0.0,0.0,1.3104637278649547,1.2635585144824377,0.21400438289113577,0.33251598075861594,0.22371774242465858,,,0.5677978065141052,inf,,,0.9110463087644721
145,,0.0,0.0,1.7459353300387968,1.6902853258037789,0.8326631503781855,0.22508756259432955,0.3504023044391047,,,0.468121228110369,inf,,,0.8299998491598382
146,,0.0,0.0,1.5761557349096291,1.5169724547070014,0.9346662126871941,0.3681932578509795,0.5137713239257478,,,0.4928685327679205,inf,,,0.8392685287132543
147,,0.0,0.0,1.641859634889998,1.6344548830254801,0.8773852149250907,0.314004512409621,0.48656615471621806,,,0.4880666971167561,inf,,,0.804275770211265
148,,0.0,0.0,1.6968552510569592,1.6491645422180874,0.9185931210281228,0.2622422721906274,0.4521744989378938,,,0.5451288209179292,inf,,,0.8415952147791935
149,,0.0,0.0,1.53786050722051,1.4859296951503929,0.3834891909334801,0.5949125537958023,0.5062095736583001,,,0.5451288209179292,inf,,,0.9348466506489678
150,,0.0,0.0,1.72850372786422,1.7247419489198503,0.38361173483887373,0.45938064275192236,0.5226199094525064,,,0.5022576003740722,inf,,,0.9523064961327486
151,,0.0,0.0,1.5488161832612795,1.5365188670408785,0.2169917972680025,0.39367030558034716,0.3855976063109539,,,0.44694259446804574,inf,,,0.9509764347300887
152,5.703782474656201,-0.30420173198166406,0.0,1.3715535457629964,1.2952832111269965,0.42056524524692385,0.7596316572912725,0.36013790614911123,,,0.4880666971167561,8.63497622707262,inf,,0.9507207477577398
153,,0.0,0.0,1.707272550335269,1.6282777659973666,0.6703657464147822,0.8047924666560483,0.9221087921123664,,,0.4576907132971797,inf,,,0.8801299390246334
154,,0.0,0.0,1.303024939972378,1.2694718825511995,0.589704164740353,1.3023943490134824,1.15084708488457,,,0.5748741956352443,inf,,,0.9395514961041528
155,,0.0,0.0,1.6917169173256226,1.6819563976867367,0.4543267300253572,1.8256835264737743,1.5834119801563282,,,0.5068466436745385,inf,,,0.652528493573078
156,5.703782474656201,-5.684769866407347,0.0,0.8271493603048738,0.8130975890916854,0.5273599989366846,2.286551957420297,1.5990898779331815,,,0.5883313578629602,5.707121375921716,inf,,0.9537947746384244
157,5.703782474656201,-0.13308825774197802,0.0,1.1352488610074398,1.0414301051695516,0.44281954708770166,1.1108128230042214,0.9496635792481178,,,0.4928685327679205,9.461654800257088,inf,,0.7487054269921283
158,,0.0,0.0,1.4782964098316083,1.4498012258608521,0.7478113737522755,2.162196254140279,1.8271797165403356,,,0.5022576003740722,inf,,,0.9429762816144457
159,,0.0,0.0,1.5771875171005836,1.5547516742420078,0.7671221754682052,2.0690610420651985,1.8119203886705475,,,0.5567373465730988,inf,,,0.9517291111076674
160,,0.0,0.0,1.5680047762386602,1.548888900900257,0.5691302400792154,0.9717846305630875,0.6672717868848511,,,0.5202020156036558,inf,,,0.9468639507293786
161,,0.0,0.0,1.7001130868308032,1.6703660959361528,0.7921283012349234,2.537491477940572,2.409480679124388,,,0.5113665138247345,inf,,,0.9265590560981879
162,,0.0,0.0,1.696950303735921,1.6716677432002323,0.623853869708526,2.382677920827637,2.01029338355985,,,0.5451288209179292,inf,,,0.92182016372193
163,,0.0,0.0,1.2527483269612418,1.1986179290219556,0.7766297307626091,1.9624039783693488,1.0971038312804817,,,0.5451288209179292,inf,,,0.9280927181397013
164,,0.0,0.0,1.6763645614767972,1.6758144703073032,0.6866198807543356,2.266984814849275,1.9701115221251704,,,0.5068466436745385,inf,,,0.9524106056749532
165,,0.0,0.0,1.5849675265618586,1.574819804140499,0.8594809912331138,1.967482407894243,1.511865871174144,,,0.45235697871908603,inf,,,0.9462565917472952
166,,0.0,0.0,1.6576717597653452,1.6422567863824962,0.686167023724446,2.042733891917657,1.4167633674577589,,,0.48319206230712763,inf,,,0.9461484923191773
167,,0.0,0.0,1.598801597723283,1.5901216790270558,0.7318881537765617,1.9200790302346258,1.3852374706899901,,,0.541134803179459,inf,,,0.9425084159179281
168,,0.0,0.0,1.5801753708350503,1.5161176700971928,0.7620772663645121,1.4934641813905911,0.8100869156264108,,,0.47824363442641393,inf,,,0.9465348488911044
169,,0.0,0.0,1.5962817459977519,1.5363420094682736,0.7395506099153141,2.139667974974376,1.7726299795094893,,,0.5490601803369085,inf,,,0.9450228137872045
170,,0.0,0.0,1.6944661813240525,1.6239304663692198,0.6473707205348643,1.6017829589027253,1.3028209466928529,,,0.4629450596409901,inf,,,0.9496670734473823
171,,0.0,0.0,1.7345925831647662,1.732606697581991,0.6301170109347022,1.5846180660467233,1.2032443859994013,,,0.5370774965580548,inf,,,0.9503247245700884
172,,0.0,0.0,1.6259484871402181,1.6223385801382064,0.45931636971753503,1.4179079460197752,1.3814697533293843,,,0.4302020962658841,inf,,,0.9465183817299463
173,,0.0,0.0,1.5877250480590681,1.583483325330913,0.5850961495281128,0.9865277139533087,0.9727424012745306,,,0.4928685327679205,inf,,,0.9367699269226909
174,,0.0,0.0,1.592130411760791,1.5860829904534786,0.7149492722198654,1.472126730321499,1.43947367166699,,,0.541134803179459,inf,,,0.9471997373471716
175,,0.0,0.0,1.4439790321207466,1.436146701433579,0.4506340445666212,1.1983984348032617,0.904966839367952,,,0.524519217297268,inf,,,0.9066905850880984
176,,0.0,0.0,1.5996424582523654,1.5527245448157405,0.6138914344080076,1.0998666143850242,1.0144260548357211,,,0.5490601803369085,inf,,,0.9110197927499243
177,,0.0,0.0,1.5647280498590777,1.5470881665291396,0.6053380062112836,1.1297546608014641,0.6813373331163646,,,0.5490601803369085,inf,,,0.942597546598705
178,,0.0,0.0,1.4663812362903865,1.408850286926821,0.6663860980431402,0.734150919582225,0.6114908574384196,,,0.5113665138247345,inf,,,0.9231778803757713
179,,0.0,0.0,1.125976112475698,1.096617185226261,0.5586799278944876,0.4390838458751427,0.30468286815747664,,,0.44694259446804574,inf,,,0.9394820366488862
180,,0.0,0.0,1.3306996257912185,1.2902554112790634,0.5309968983703449,1.2801482167028264,0.8589007107538191,,,0.5451288209179292,inf,,,0.9380814128012718
181,,0.0,0.0,1.5202602541909587,1.488482857175074,0.4405676520753684,0.33369563414429104,0.2707732796157655,,,0.5287703885177266,inf,,,0.8644611467146455
182,,0.0,0.0,1.539154721961821,1.4587641693171425,0.5116648884842578,0.6837547157077186,0.36663592747861096,,,0.552929491858785,inf,,,0.8439796114103336
183,,0.0,0.0,1.3908464927291324,1.281248207854325,0.5956336654899772,0.5143056513353609,0.2877621425686927,,,0.5068466436745385,inf,,,0.8383275313202712
184,,0.0,0.0,1.635304928084052,1.6193115953254569,0.6976389894641918,1.2782702430711776,1.0716532035025097,,,0.5022576003740722,inf,,,0.9342914119773049
185,,0.0,0.0,1.6568978557011904,1.6309856526871631,0.5193210907421659,0.9486414412552382,0.6883576193410949,,,0.5113665138247345,inf,,,0.947095413996505
186,,0.0,0.0,1.5028661779913566,1.4538887681296175,0.7084349449889484,1.383913067293638,1.3609616996143072,,,0.5490601803369085,inf,,,0.9112272242545135
187,,0.0,0.0,1.7010538048447208,1.6700157003662428,0.654525465303311,1.9303564830596722,1.599009712299604,,,0.48319206230712763,inf,,,0.936121371014978
188,,0.0,0.0,1.5227420642963354,1.476339332642069,0.5478263949207977,0.960294504394255,0.5852452081273833,,,0.5604843169999094,inf,,,0.9513191546618738
189,,0.0,0.0,1.5733384860995774,1.524717918419959,0.5189662316223256,0.9087773018873144,0.47630098273388255,,,0.5202020156036558,inf,,,0.9444455622387207
190,,0.0,0.0,1.734807931118334,1.5843721126656831,0.5621641385601747,0.8726816482467104,0.3978110907784229,,,0.468121228110369,inf,,,0.9503312933979314
191,,0.0,0.0,1.6503580215077907,1.601329913422143,0.7272217579227666,1.4055195746192868,0.6826309093459191,,,0.5490601803369085,inf,,,0.9503384096332682
192,,0.0,0.0,1.5207810846620666,1.4969906364887275,0.7333003687183843,1.799103330581932,1.0361250223488225,,,0.524519217297268,inf,,,0.9397872341195933
193,,0.0,0.0,1.3210307842637534,1.2909138350426326,0.5496474792714664,1.3087216493778207,0.7701558717020054,,,0.5370774965580548,inf,,,0.9518014064694804
194,,0.0,0.0,1.6732211308066636,1.6166760523706745,0.596162688890218,1.8891650624203982,1.3668093155107046,,,0.5370774965580548,inf,,,0.7730241496030652
195,,0.0,0.0,1.5756100056651148,1.5775332188543654,0.8384837705715722,2.4293465089471633,1.5213069141139113,,,0.5490601803369085,inf,,,0.8984334524546016
196,,0.0,0.0,1.4689612690821638,1.4262301701589848,0.7263854005428222,1.9876327482332548,1.4944972646916952,,,0.5677978065141052,inf,,,0.9493793351879634
197,,0.0,0.0,1.69956650286413,1.6518386758435626,0.6580876799093286,1.112548624761567,0.823523253588968,,,0.48319206230712763,inf,,,0.9447243179745779
198,,0.0,0.0,1.5893092689861539,1.579867563851485,0.594904992471808,1.5603821735831258,1.1028890176276243,,,0.4928685327679205,inf,,,0.9478351057380434
199,5.703782474656202,-1.8822482166365466,0.0,1.6802218131152524,1.6824509415369175,0.6773838214845052,1.4794742813169524,1.1231426576531842,,,0.552929491858785,6.812445099177812,inf,,0.9528792763827618
200,,0.0,0.0,1.6641010164118677,1.581911414424931,0.8298993120302953,1.7498543624524312,0.8368273320849215,,,0.5370774965580548,inf,,,0.9513870171088395
201,,0.0,0.0,1.7162978208063806,1.6837262123273171,0.3236693995609977,0.4387346780138767,0.31579893306289886,,,0.44694259446804574,inf,,,0.9437308052989563
202,,0.0,0.0,1.3674468577870098,1.3412088099968162,0.6306806994711518,1.1166630378313709,0.7148007760914878,,,0.5451288209179292,inf,,,0.9367355508133333
203,,0.0,0.0,1.6558726632958538,1.6500790139785642,0.6218587259416227,0.9038738628819682,0.4252822801387185,,,0.49759852643134905,inf,,,0.9491316727001667
204,,0.0,0.0,1.711763438053521,1.7129617982452077,0.5080230209917758,1.3500705040550471,0.841402226381897,,,0.5329562494928909,inf,,,0.8073225986810411
205,,0.0,0.0,1.646329941476862,1.621759837193222,0.5493230909858368,1.1707117575521266,0.5264519749382879,,,0.5677978065141052,inf,,,0.8174306162584632
206,,0.0,0.0,1.6862076025620554,1.667056717991643,0.7598969616139992,1.4502677436677318,0.8264772933915943,,,0.5370774965580548,inf,,,0.8870962196293477
207,,0.0,0.0,1.5858497226807875,1.5382995069325256,0.654463190800746,1.510008157778604,0.538823863437554,,,0.581717464821069,inf,,,0.9452798839153543
208,,0.0,0.0,1.404577247040791,1.390437772507912,0.6714244512282185,1.3880105937964078,0.7302095370703661,,,0.5490601803369085,inf,,,0.9473713183245471
209,,0.0,0.0,1.7230461847481902,1.7460156484381018,0.6918134805602538,1.370859640280876,0.7679164177291145,,,0.5113665138247345,inf,,,0.9496877644649472
210,5.010635294096255,-5.010635294096255,0.0,1.4903987272045458,1.4388905910423042,0.7525936988777793,1.9048741547567931,1.140939031306885,,,0.5451288209179292,5.0106352940962555,inf,,0.9315648665612132
211,,0.0,0.0,1.5226810015784202,1.484853718957606,0.6744314721604974,1.377355240047652,0.7711278895344731,,,0.5604843169999094,inf,,,0.9515270373017553
212,,0.0,0.0,1.6445707319167324,1.6015063302635293,0.6325898593455622,1.5383468860542904,0.7511488566969806,,,0.585052858160615,inf,,,0.9133927790688376
213,,0.0,0.0,1.6635937519461135,1.6612535302064517,0.6911945168916005,1.152364103095346,0.7251590210207302,,,0.5490601803369085,inf,,,0.8459897579971278
214,,0.0,0.0,1.6838739325066787,1.657634787484769,0.6781922206636265,1.7858259613457412,1.1544084756417197,,,0.5287703885177266,inf,,,0.6570312719815947
215,,0.0,0.0,1.605022616597672,1.5649194979988588,0.5661480656372128,1.0325142186649525,0.4967788507405979,,,0.5490601803369085,inf,,,0.9506789256895858
216,,0.0,0.0,1.6484943960723788,1.6357859632964622,0.6648010219071658,1.401746458370819,0.5983559816531676,,,0.5068466436745385,inf,,,0.9507017567147876
217,,0.0,0.0,1.6175731695876727,1.583446247639953,0.6543308715015896,1.0998164368181012,0.617084021881755,,,0.5158180382284114,inf,,,0.950027095653062
218,,0.0,0.0,1.5028535918585821,1.495859843116298,0.5979991505703731,1.1718879422353656,0.5987300276131768,,,0.41268473150466,inf,,,0.9529847058161666
219,,0.0,0.0,1.4812666060207922,1.4528199613831143,0.6482025171061006,0.9498834383904967,0.6058861897556762,,,0.552929491858785,inf,,,0.9342553806036763
220,,0.0,0.0,1.6082083399239928,1.618466248747531,0.5310841674494708,0.539666807974699,0.3029786013474106,,,0.5490601803369085,inf,,,0.9120335456213441
221,,0.0,0.0,1.4243795492912257,1.4040798560665835,0.683335376016059,1.5229028329511087,0.6990995008697014,,,0.49759852643134905,inf,,,0.9458929842086939
222,,0.0,0.0,1.482638967389814,1.4188041312923132,0.42055590544915467,0.41867963696819327,0.2267974692035496,,,0.524519217297268,inf,,,0.8485272245936498
223,,0.0,0.0,1.7329239869847188,1.720633031021605,0.45335721837952453,0.48016731630629633,0.31500110332556197,,,0.552929491858785,inf,,,0.9471047932986403
224,,0.0,0.0,1.5963641017318042,1.4228447092530365,0.5539422350808556,0.656927483822373,0.33323838162448116,,,0.5370774965580548,inf,,,0.9506124869133149
225,,0.0,0.0,1.6998832975125249,1.7074294070389686,0.4837512500520099,0.23945930405429236,0.14873003183567224,,,0.5451288209179292,inf,,,0.9350082639981329
226,,0.0,0.0,1.4247866699494416,1.4110983681628053,0.6315666090598323,0.8664509218009717,0.5385411935569446,,,0.48319206230712763,inf,,,0.9449377938884527
227,,0.0,0.0,1.5504601021015754,1.5313556927203282,0.8170603349429193,0.3218630015249544,0.32861823900157616,,,0.5158180382284114,inf,,,0.8636865246032033
228,,0.0,0.0,1.7055752491983305,1.678580288406809,0.6738070948947067,1.3063432942018178,0.8138750835508677,,,0.48319206230712763,inf,,,0.9537160810661209
229,,0.0,0.0,1.7297632252135233,1.694941518826666,0.5593062467064082,0.42435528293810126,0.22132006215328137,,,0.4928685327679205,inf,,,0.9518977116735275
230,,0.0,0.0,1.7061918566647036,1.700150319764659,0.5710953069173738,0.35923686305133634,0.24566579366675223,,,0.524519217297268,inf,,,0.9511080523883424
231,,0.0,0.0,1.670752754310285,1.687251184541849,0.47990980375010434,0.34358115629005265,0.19933392630002217,,,0.5370774965580548,inf,,,0.9522299748355881
232,,0.0,0.0,1.6882943403005897,1.6775629166188828,0.29771482167640834,0.3527514961754949,0.24081570814012487,,,0.5329562494928909,inf,,,0.9447397360901567
233,,0.0,0.0,1.7184043996082217,1.698791156228501,0.561536409091211,0.6208079735867856,0.3074929522583466,,,0.4928685327679205,inf,,,0.9467333032709555
234,,0.0,0.0,1.3542960042942145,1.3397641196812,0.6072493446394034,0.6949034661057713,0.41919514375404954,,,0.5068466436745385,inf,,,0.9519094905462862
235,,0.0,0.0,1.6444377951828015,1.6472325580719476,0.6687337607650751,0.6521509685813253,0.34848195027751316,,,0.4880666971167561,inf,,,0.9459023570560883
236,,0.0,0.0,1.6241632180474765,1.6254386936926124,0.5249624591990384,0.5852445534531541,0.32902251606207156,,,0.4732203808476458,inf,,,0.9031251248859775
237,,0.0,0.0,1.73786068920294,1.7567597375449602,0.6320908166443274,1.0315493832465166,0.5432414774705567,,,0.5158180382284114,inf,,,0.8986189392269242
238,,0.0,0.0,1.721336021004034,1.6559396019284307,0.5627834403082252,0.7318194960558396,0.37213567737059927,,,0.5604843169999094,inf,,,0.877187188296571
239,,0.0,0.0,1.5435751064918959,1.5354236700368649,0.5227068757520764,0.478913138336397,0.2565457474807712,,,0.4732203808476458,inf,,,0.9536746343537676
240,,0.0,0.0,1.7398279900826634,1.7288825066884637,0.4818324055044619,0.5195046592268114,0.24359948679718713,,,0.5567373465730988,inf,,,0.954281278042413
241,,0.0,0.0,1.7065959376278665,1.739668603931282,0.4207125777916303,0.1793646688694654,0.12684364969110012,,,0.5158180382284114,inf,,,0.8652919949015729
242,,0.0,0.0,1.6049379416061884,1.5893769510039766,0.5657538310976549,1.091902938261622,0.5458021161910456,,,0.524519217297268,inf,,,0.949740120633369
243,,0.0,0.0,1.4728226075493025,1.442594826246671,0.6144718463455099,0.8826107125609511,0.4508220195391569,,,0.5883313578629602,inf,,,0.936936910842814
244,,0.0,0.0,1.5432801676399028,1.5367012141374234,0.5137892825680566,0.295738373796951,0.18909107349808169,,,0.4629450596409901,inf,,,0.9489376522449956
245,,0.0,0.0,1.6641196166218586,1.678566059576104,0.4092110974607115,0.2788659226535004,0.22078374596321282,,,0.5022576003740722,inf,,,0.9542017620638653
246,,0.0,0.0,1.7546408238753384,1.762787695574536,0.36671505376277247,0.2070532633484935,0.16687814249518007,,,0.5451288209179292,inf,,,0.9472230364438347
247,,0.0,0.0,1.7840628880834217,1.771387947039646,0.5186090338634274,0.22558107829832075,0.18438656603193496,,,0.524519217297268,inf,,,0.9476363985060933
248,,0.0,0.0,1.6396527955625937,1.5873894572419665,0.57160163720435,0.3522899784466405,0.21308661415529961,,,0.4928685327679205,inf,,,0.9487706440760257
249,,0.0,0.0,1.4338660479610241,1.4119330979284184,0.5772555835764718,0.8362840278385743,0.5713611640717681,,,0.5022576003740722,inf,,,0.9434634545652915
250,,0.0,0.0,1.4905686527898447,1.4676588676749884,0.564471543403705,0.50511699909256,0.21724819045680543,,,0.468121228110369,inf,,,0.9463176984918087
251,,0.0,0.0,1.5859910473272834,1.5709505738557006,0.601367257600281,1.3165749844616832,0.9804595754871728,,,0.4928685327679205,inf,,,0.9547608685417205
252,,0.0,0.0,1.688432789517066,1.6923147007126569,0.5961058992717331,0.8508387847448113,0.5373661731271968,,,0.4576907132971797,inf,,,0.9539671905255283
253,,0.0,0.0,1.576044357857702,1.5327165490373187,0.742447798440263,1.3884871095945568,0.7134499446395326,,,0.5202020156036558,inf,,,0.9545518513796106
254,,0.0,0.0,1.6060741056411507,1.586951232826902,0.6170383928214738,0.6301898025388134,0.29201882795794176,,,0.4732203808476458,inf,,,0.9455588734134002
255,,0.0,0.0,1.4545671996990972,1.4660956742350968,0.4566947524011393,0.5552152453030447,0.3531975000585901,,,0.14689728110576383,inf,,,0.9391067139931426
256,,0.0,0.0,1.3132863455825134,1.2863462771391545,0.5796373459992549,0.46614869489214206,0.300096015012912,,,0.15800541964703757,inf,,,0.9200146958322504
257,,0.0,0.0,1.3132863455825134,1.3018745200798771,0.2776690798868503,0.20986153304538244,0.1409387825567039,,,0.12360019792221849,inf,,,0.9597589304193523
258,,0.0,0.0,1.6100247387470201,1.5727024263768548,0.717080813606914,0.9606962130032713,0.6627676199295752,,,0.44144624493110796,inf,,,0.864730736404573
259,,0.0,0.0,1.494601149924399,1.4445665035386657,0.6377210028395294,1.1330862840146154,0.8040193982634667,,,0.5022576003740722,inf,,,0.9170659596210443
260,,0.0,0.0,1.5439303385514307,1.5338371188048168,0.6558546313447903,1.2308787755263098,0.6319105741303042,,,0.47824363442641393,inf,,,0.933093352384883
261,,0.0,0.0,1.5898527200575847,1.5707288630779404,0.63288076950571,1.3122166111611682,0.553045756425385,,,0.40055318934786044,inf,,,0.9437805573912073
262,,0.0,0.0,1.5074279971256912,1.4932434750494847,0.6551186354130427,1.150047648114177,0.6497861945425332,,,0.5329562494928909,inf,,,0.9386065567912621
263,,0.0,0.0,1.4844205007238143,1.4770769449914454,0.6316386591834482,1.1939252574310137,0.546801882288799,,,0.5490601803369085,inf,,,0.9471695283056486
264,,0.0,0.0,1.6466524850418003,1.5772037797588314,0.63400689616194,1.2272393671284647,0.4290222083598707,,,0.49759852643134905,inf,,,0.9487779217009618
265,,0.0,0.0,1.6471264240845338,1.6383577521681205,0.548268675456162,0.7463596900816905,0.46093258189764696,,,0.5068466436745385,inf,,,0.9568683615192153
266,,0.0,0.0,1.4969190075404395,1.4776275364737206,0.7025775484547568,1.0925691270341622,0.4694229479933081,,,0.5022576003740722,inf,,,0.9494786246048686
267,,0.0,0.0,1.532964785296525,1.541915544949723,0.6442036131809414,1.3400665880129803,0.5623539836004292,,,0.5287703885177266,inf,,,0.9513809512308234
268,,0.0,0.0,1.6242141940421726,1.5751357697839874,0.7603328482510959,1.357396233445654,1.0484313055849661,,,0.5490601803369085,inf,,,0.9486100184374966
269,,0.0,0.0,1.4875990447371592,1.4721770775625624,0.6608637852640078,1.133714109975159,0.9058113039672173,,,0.5202020156036558,inf,,,0.9504591013642039
270,,0.0,0.0,1.5587883831960918,1.5252527393422415,0.827529552613448,1.6203552608954375,0.8329973501155623,,,0.5158180382284114,inf,,,0.9531601389137621
271,,0.0,0.0,1.580105229306579,1.5563552825566578,0.5222827717633367,0.5562667308228023,0.3311324443122966,,,0.49759852643134905,inf,,,0.9516237171195463
272,,0.0,0.0,1.73681599557136,1.6887323327316335,0.42146589273706775,0.4923571672525619,0.3363105184304606,,,0.4629450596409901,inf,,,0.9500939850058735
273,,0.0,0.0,1.4154463478574213,1.3294191081594233,0.7153487081999133,0.9204458821224133,0.4451494192841571,,,0.43586655696697996,inf,,,0.9244316495024572
274,,0.0,0.0,0.9774971002960561,0.9407067400335353,0.7105822641246736,1.330089482190918,1.0780169339372145,,,0.5202020156036558,inf,,,0.9296680639591709
275,,0.0,0.0,1.5058584895804095,1.47526556725627,0.714199236732007,1.443270245345555,0.9567758098781662,,,0.4928685327679205,inf,,,0.9489028851859156
276,,0.0,0.0,1.682756933688699,1.65602488061727,0.7388735872632073,1.459842202294283,0.6510105856055759,,,0.3685265678147087,inf,,,0.9280490538218158
277,,0.0,0.0,1.705810120738776,1.6950476618656565,0.6595375586737532,1.2763843160586141,0.7026239236490321,,,0.5287703885177266,inf,,,0.9101711554697159
278,,0.0,0.0,1.6445182964415916,1.6138225896320972,0.686858853755039,1.5642787089297823,1.6015136981993172,,,0.5202020156036558,inf,,,0.9449679216788599
279,,0.0,0.0,1.7151723936470429,1.7083163423077157,0.6453408335015182,1.903514778463282,1.8105634141769444,,,0.5370774965580548,inf,,,0.950148207753203
280,,0.0,0.0,1.6042508216104665,1.558732244822734,0.6294220187323005,1.3620953156043445,0.8240635827078586,,,0.5068466436745385,inf,,,0.9418396450761473
281,,0.0,0.0,1.384628968536154,1.3633647549096624,0.6245743652154914,1.1670484905057903,0.9070131882218251,,,0.5202020156036558,inf,,,0.9308874315782697
282,,0.0,0.0,1.574919255479509,1.563224938585566,0.7735410097529186,1.2101983350421506,1.0714903148860084,,,0.5329562494928909,inf,,,0.9072092095789019
283,,0.0,0.0,1.663921742356652,1.6523156308322389,0.7289012168292942,1.0554765038459744,0.6553672156762687,,,0.524519217297268,inf,,,0.9180845143434426
284,,0.0,0.0,1.522499018109896,1.5096062401606978,0.6703725695887395,1.2365588798609997,0.9045351924480989,,,0.44694259446804574,inf,,,0.9220626016169361
285,,0.0,0.0,1.1065899927851421,1.0841768174469557,0.40294195350038126,0.9074002866712464,0.5823489961110603,,,0.4928685327679205,inf,,,0.9491659672958559
286,,0.0,0.0,1.6028315145054184,1.508463156852806,0.7080497427508404,1.4943721945165618,1.1869244623928012,,,0.5370774965580548,inf,,,0.8774154734641947
287,,0.0,0.0,1.670806723798658,1.609274355525069,0.7759344268634353,1.5904722910470697,1.3601074816109384,,,0.5567373465730988,inf,,,0.852373288463404
288,,0.0,0.0,1.6864647501517842,1.65669732385494,0.5809148670610516,1.0934761225420209,1.046265192998591,,,0.5022576003740722,inf,,,0.9382257477231192
289,,0.0,0.0,1.7231757194942932,1.684710483153817,0.46263640899215297,1.042799843301663,0.7188426839674809,,,0.5113665138247345,inf,,,0.9510347717476588
290,,0.0,0.0,1.6328817877194506,1.627335499897082,0.4163665113108072,0.460951647027606,0.3473798772594281,,,0.5202020156036558,inf,,,0.909320090685658
291,,0.0,0.0,1.7576413318906354,1.7501851792587346,0.4350493987210968,0.5485157259454067,0.6306591459164063,,,0.5329562494928909,inf,,,0.904469491020357
292,,0.0,0.0,1.6386080497565167,1.6546704424613639,0.46257896276980315,1.0078933027934471,0.8322576339205923,,,0.541134803179459,inf,,,0.701469507069061
293,,0.0,0.0,1.5086394472552633,1.5098169942207984,0.6216526799523427,0.7182470731721274,0.5334399447711925,,,0.5022576003740722,inf,,,0.9292685510640297
294,,0.0,0.0,1.671678001921816,1.4982480394268467,0.7133419613042269,1.2678025442937928,0.6607691222926242,,,0.5022576003740722,inf,,,0.9502788185772733
295,,0.0,0.0,1.6506552342638294,1.6303346619159134,0.5072689206017875,0.7472847817886985,0.48818501330697806,,,0.4732203808476458,inf,,,0.934271396665401
296,,0.0,0.0,1.1192649371579648,1.1241363460886504,0.6529496465042375,0.6885768633697912,0.7169051124898829,,,0.43586655696697996,inf,,,0.8924610927404997
297,,0.0,0.0,1.751815226262173,1.71652160878554,0.5373245090995337,1.3253640472283807,1.1564665901531475,,,0.468121228110369,inf,,,0.9404059558078897
298,,0.0,0.0,1.5811705418171313,1.5682087473157473,0.7208568684148239,1.651954879902892,1.315554692135902,,,0.47824363442641393,inf,,,0.9365873831190539
299,5.703782474656201,-0.22815129898624803,0.0,1.4337259357975654,1.390493378476139,0.5202867538594557,1.8046792496512716,1.561002857203489,,,0.524519217297268,8.922658299524402,inf,,0.8431092585594125
300,,0.0,0.0,1.5553686380682792,1.5570016965702418,0.8454001139728983,1.0761066205695644,0.8035475100865466,,,0.468121228110369,inf,,,0.9170855479519892
301,,0.0,0.0,1.7028900252765355,1.6777132582802707,0.8406382066015535,1.4446641736451311,0.9099427046217998,,,0.5022576003740722,inf,,,0.9241567844738938
302,,0.0,0.0,1.7067157850130492,1.6801961447270948,0.7302755136581761,1.5408493591559567,1.1509031747997949,,,0.5113665138247345,inf,,,0.9418190798412933
303,,0.0,0.0,1.5740280029813325,1.5379981192069343,0.656771941471964,1.3205114292686806,1.200112076042676,,,0.47824363442641393,inf,,,0.9022703633390496
304,,0.0,0.0,1.7683823419684903,1.7640491945581598,0.7430942587818687,1.5274863156831053,0.8136445205826182,,,0.5022576003740722,inf,,,0.9151263278595673
305,,0.0,0.0,1.7630765309596197,1.7460448533458195,0.7765952570360574,1.8861848873082885,1.7928412972991432,,,0.4928685327679205,inf,,,0.9457386030148189
306,,0.0,0.0,1.6565376924655977,1.644274293952813,0.7109844082777164,1.5286763578252187,1.212196428480343,,,0.468121228110369,inf,,,0.9329069222667956
307,,0.0,0.0,1.1960109211984102,1.1757885153322754,0.7998053220745691,1.780656380515095,1.3789861597742141,,,0.5113665138247345,inf,,,0.9286639552830175
308,,0.0,0.0,1.514965349534378,1.5015965654893442,0.6582512713163947,2.007838807362497,1.747777215481635,,,0.5370774965580548,inf,,,0.9490229878566703
309,,0.0,0.0,1.768097077009395,1.7318429173322303,0.5371684634092496,1.4916341844004817,1.076945872739881,,,0.48319206230712763,inf,,,0.9487707403730722
310,,0.0,0.0,1.4661825497360774,1.4609190927677769,0.673035763447309,1.6070550365066885,1.196310734531922,,,0.5113665138247345,inf,,,0.9492001450051019
311,,0.0,0.0,1.5405189778408181,1.5240226546576734,0.5920524891709539,1.4217817254831562,0.869004461141019,,,0.5490601803369085,inf,,,0.9355161122356286
312,,0.0,0.0,1.7215516562117315,1.6999684497620793,0.6566182359313292,1.5729721555822997,1.1818488569793764,,,0.4629450596409901,inf,,,0.9261447553829786
313,,0.0,0.0,1.6666223755083187,1.6404024835524285,0.7230114854488643,0.4034110264738019,0.33466608054267266,,,0.5068466436745385,inf,,,0.8754472182871168
314,,0.0,0.0,1.7765491438077492,1.6643211716974988,0.5561731070752636,0.4842785655472428,0.30141380453093636,,,0.4629450596409901,inf,,,0.9541618562693018
315,,0.0,0.0,1.72371897974621,1.7254712105273702,0.7294642615381837,0.8748019269723976,0.516562402305969,,,0.552929491858785,inf,,,0.9449748146600156
316,,0.0,0.0,1.7141322942313229,1.70327683481989,0.15249428130989706,1.062238027457986,0.89916045872294,,,0.5329562494928909,inf,,,0.699119260412079
317,,0.0,0.0,1.5827240701145617,1.5419427562160883,0.40747122209511033,0.9784912281329198,0.6388154985623702,,,0.5158180382284114,inf,,,0.9491478923792097
318,,0.0,0.0,1.445570672699502,1.3845487609547231,0.48836827784509773,0.8394719558647119,0.7020256957647403,,,0.5068466436745385,inf,,,0.9490163975406548
319,,0.0,0.0,1.4090890080043794,1.3813286578022865,0.42515614018082415,0.5142560075363308,0.4124929077352949,,,0.4928685327679205,inf,,,0.9537392266681104
320,,0.0,0.0,1.5022263487757734,1.4460737287922365,0.5437347693130588,0.9952729615868848,0.7543630230902223,,,0.4880666971167561,inf,,,0.9260458449839605
321,,0.0,0.0,1.5540242565641755,1.4886885040075082,0.7471561506379927,1.428408687716496,1.277212824632087,,,0.4880666971167561,inf,,,0.9293678863116677
322,,0.0,0.0,1.7061758839877323,1.667509039433779,0.7154996689308835,1.322513327800571,1.3190723422307888,,,0.5287703885177266,inf,,,0.9476252992752316
323,,0.0,0.0,1.6919834553352042,1.6665890301972075,0.6236503434696566,1.4249748459626972,1.136962296987754,,,0.541134803179459,inf,,,0.9387502995893945
324,,0.0,0.0,1.725405620191331,1.7034117648864604,0.7572373679338531,1.689930020441213,1.758664181329757,,,0.581717464821069,inf,,,0.9255190417885911
325,,0.0,0.0,1.581104118924944,1.5676942576667015,0.6316156907403973,1.4291593828531461,0.8717878059128885,,,0.524519217297268,inf,,,0.9296660193362438
326,,0.0,0.0,1.6177329476795237,1.603942309357679,0.775083511851022,1.4826713298626597,1.035152350666068,,,0.5113665138247345,inf,,,0.9459099538081813
327,,0.0,0.0,1.3062806376626082,1.308837318360468,0.7895806318192773,1.7092872119447615,1.1976621302683752,,,0.4928685327679205,inf,,,0.9151021593798586
328,,0.0,0.0,1.7078343427917448,1.7185775513900066,0.7814435702608252,1.9625119904892354,2.0473156578396434,,,0.541134803179459,inf,,,0.8841338849710605
329,,0.0,0.0,1.5040513977420735,1.4416677840958774,0.7830881689393142,1.6006674913051193,1.0103189447215817,,,0.524519217297268,inf,,,0.9431371215043327
330,,0.0,0.0,1.4324341193760202,1.3988176630067155,0.8037981668727443,2.0777938125390323,1.8108504860000685,,,0.581717464821069,inf,,,0.9094880961595966
331,,0.0,0.0,1.526613219466695,1.494712561433228,0.7842770132343228,2.0512954601386624,1.4320977272111897,,,0.552929491858785,inf,,,0.9243665836535052
332,,0.0,0.0,1.330620513877687,1.3160930350773115,0.6778178351448338,1.8846165991004409,1.5868563778306832,,,0.4928685327679205,inf,,,0.9471701564713844
333,,0.0,0.0,1.4717660173352967,1.3974282401070601,0.7306269254231516,1.71677482653428,1.7964670649047858,,,0.5370774965580548,inf,,,0.9457832022875636
334,,0.0,0.0,1.694722861846595,1.6636083754127597,0.664879421890592,0.9036528746725258,1.2823707220702416,,,0.4302020962658841,inf,,,0.9395905788316128
335,,0.0,0.0,1.5896652822119544,1.5680155611641569,0.9381890634392132,0.8258429501216906,1.464510608947518,,,0.4576907132971797,inf,,,0.8786572598051613
336,5.7037824746562,-5.7037824746562,0.0,1.6917543269308024,1.424871535010833,0.4411421161632,1.1395656562310468,1.4218233263246225,,,0.5158180382284114,5.703782474656201,inf,,0.7200595598415999
337,,0.0,0.0,1.7085529981393972,1.678281652698595,0.9448739480754678,0.8480738595082518,1.6759645725138457,,,0.5329562494928909,inf,,,0.8807006949471627
338,,0.0,0.0,1.55304173050903,1.516447188548772,0.39558499819084536,1.0062787859462228,1.5572848002168342,,,0.5022576003740722,inf,,,0.95184704168438
339,,0.0,0.0,1.679127089464543,1.621463916840745,0.49828640368812505,1.3484703457127973,0.9541663537382798,,,0.5677978065141052,inf,,,0.7883839612628096
340,,0.0,0.0,1.5316197231259419,1.4927440036327775,0.5175379460941458,1.138423813862836,1.4700467246366262,,,0.5022576003740722,inf,,,0.9491748747914981
341,,0.0,0.0,1.6791082999774112,1.6412979201622535,0.9658462922877307,1.1506257851420985,1.6459919323016154,,,0.44144624493110796,inf,,,0.8820984680787264
342,,0.0,0.0,1.755133766162001,1.7443965334458187,0.8971967100132068,0.6338367263172467,0.9067230018739608,,,0.45235697871908603,inf,,,0.8572165587537188
343,,0.0,0.0,1.7639318291886212,1.7157458677949502,0.9705448084906926,0.906741991501322,1.5446929612462963,,,0.43586655696697996,inf,,,0.8000458577659614
344,,0.0,0.0,1.7077034018734771,1.6654913247677678,0.9665485796199876,1.2220023558297948,2.279406198325728,,,0.4629450596409901,inf,,,0.8574612158727919
345,,0.0,0.0,1.6820360874352491,1.6557500119079551,0.9720150141593425,1.7235016021637977,2.872463646022954,,,0.43586655696697996,inf,,,0.860001038016488
346,,0.0,0.0,1.572481657404535,1.5400151431826046,0.9656238948414273,1.6877851094536824,3.4990094263172216,,,0.5329562494928909,inf,,,0.8642182604134119
347,,0.0,0.0,1.3344454493177018,1.311560455761455,0.9704573366416052,1.5966420634656247,2.4724196761115316,,,0.5202020156036558,inf,,,0.8376275803905902
348,,0.0,0.0,1.5529621254150248,1.532318328101814,0.9706916739357315,1.186097523644533,1.8606599194927438,,,0.5022576003740722,inf,,,0.8205244066195276
349,,0.0,0.0,1.6654494397476873,1.6180604755980321,0.9681003508809306,1.3160210568986201,1.8809751988410732,,,0.42445136339222655,inf,,,0.8743359093090697
350,,0.0,0.0,0.9357647227968272,0.8872262553878081,0.6485817769885953,1.0494832410245436,1.36860771677998,,,0.4576907132971797,inf,,,0.9019371903130495
351,,0.0,0.0,1.6345114502985985,1.5862752825462842,0.9412646143340475,0.3721485255812356,0.5886314597303232,,,0.4629450596409901,inf,,,0.7585835500028805
352,,0.0,0.0,1.5817448904856504,1.5409810068529957,0.9737489162768228,0.5889396949988795,1.042615646866998,,,0.43586655696697996,inf,,,0.8387035235128937
353,,0.0,0.0,1.6088561746554537,1.571969337997418,0.9655594391669133,0.5821205070233453,1.022516812103906,,,0.48319206230712763,inf,,,0.8514492144498538
354,,0.0,0.0,1.6196744739978532,1.569957130782491,0.9365106607781924,0.8243552889434511,1.1825704177900165,,,0.4880666971167561,inf,,,0.8254405426993453
355,,0.0,0.0,1.4970737278933726,1.4119192136597498,0.7670774353914699,0.8312133079434859,0.7281388736241358,,,0.5202020156036558,inf,,,0.9057401417556653
356,,0.0,0.0,1.7159109320455188,1.6708962053537137,0.8007089330400093,0.30532806131195656,0.47472211571495915,,,0.5068466436745385,inf,,,0.8260256234770431
357,,0.0,0.0,1.5866400332733213,1.558523964960881,0.941687147589379,0.31787395949129976,0.5260843944573155,,,0.47824363442641393,inf,,,0.7946916961804174
358,,0.0,0.0,1.490515315031444,1.4799177416163076,0.9084834441663464,0.3000708340900265,0.48670686660134416,,,0.4928685327679205,inf,,,0.7983255424670908
359,,0.0,0.0,1.6483407007668869,1.6240468775527706,0.788191679605007,0.24132109828029713,0.3919411005947939,,,0.48319206230712763,inf,,,0.8179565375066147
360,,0.0,0.0,1.5808546376939403,1.5550237306846646,0.9123213316086495,0.22728630572276207,0.35101741557741606,,,0.541134803179459,inf,,,0.8413330486834245
361,,0.0,0.0,1.3538193263455136,1.3122299989048898,0.8741600753499756,0.14030381998685587,0.2289280520942289,,,0.41268473150466,inf,,,0.7969247009085861
362,,0.0,0.0,1.7538953969919917,1.7487180246829068,0.814983282525996,0.23508671654037275,0.38078247576555835,,,0.47824363442641393,inf,,,0.8500955372773839
363,,0.0,0.0,1.669064155508462,1.639840758910785,0.8935363293301969,0.3157596385211716,0.47568326862794524,,,0.4732203808476458,inf,,,0.8529619032611034
364,,0.0,0.0,1.5635539341080311,1.5417874807684377,0.8821943283494773,0.3146656276031486,0.49810247596514495,,,0.4732203808476458,inf,,,0.8524242749540563
365,,0.0,0.0,1.3305413169500373,1.324033007578049,0.5001407264882016,0.38549378625287894,0.5272234279249559,,,0.49759852643134905,inf,,,0.9393365527772357
366,,0.0,0.0,1.7540329906041372,1.677022433325612,0.7180192274480975,0.36294555810363266,0.5381905021180953,,,0.5158180382284114,inf,,,0.8666334882548131
367,,0.0,0.0,1.7457617367713396,1.7171284645583025,0.874548657627061,0.20230665049694754,0.33900126345512027,,,0.4880666971167561,inf,,,0.7953421243930383
368,,0.0,0.0,1.6418007044768554,1.6000541250956655,0.844645041421828,0.17118505969437198,0.2804240465854735,,,0.4928685327679205,inf,,,0.7771350319449536
369,,0.0,0.0,1.5961208682096668,1.5848693330826862,0.7639746566429584,0.1612667312357355,0.2460681000757251,,,0.5022576003740722,inf,,,0.7368122809007379
370,,0.0,0.0,1.2797618973220732,1.2357551640224274,0.8445524790020369,0.17617082957107708,0.29173105037989644,,,0.541134803179459,inf,,,0.7489533007530758
371,,0.0,0.0,1.4811080773639214,1.4527409780304787,0.8076720142273263,0.1479434722319848,0.2642531832905026,,,0.4928685327679205,inf,,,0.7203809310636532
372,,0.0,0.0,1.2648821809790443,1.2491333420507622,0.7745971596008053,0.20018332959127008,0.3364792656045393,,,0.468121228110369,inf,,,0.721069455768252
373,,0.0,0.0,1.5467720682697865,1.53712075150378,0.8249992956133371,0.16687401595357562,0.2673857517492215,,,0.5068466436745385,inf,,,0.7764292266106104
374,,0.0,0.0,1.5951873524615157,1.5650020170138457,0.6768082360717027,0.2504973748657439,0.358114438007871,,,0.5022576003740722,inf,,,0.7640169090320846
375,,0.0,0.0,1.2866599816256856,1.2632727709698097,0.4478122778247304,0.5589197056241513,0.4566433860569812,,,0.4928685327679205,inf,,,0.9113157921564604
376,,0.0,0.0,1.4582181583029057,1.430447920259639,0.43421845962409317,0.7263584846651487,0.9206196170453957,,,0.4880666971167561,inf,,,0.8985235646562335
377,,0.0,0.0,1.6839786205327645,1.6401159651254331,0.643839180242475,0.557488922956233,0.7076360242597022,,,0.5713653840954815,inf,,,0.8765688515786175
378,,0.0,0.0,1.7061649523051405,1.6682225841074396,0.9233040545741564,0.6631061787707215,0.8808389841308993,,,0.45235697871908603,inf,,,0.8662107807461914
379,,0.0,0.0,1.4921993872429464,1.4385211250910237,0.8994420411768775,0.4883149317373732,0.6600349921822215,,,0.585052858160615,inf,,,0.8607116961485144
380,,0.0,0.0,1.5904866776460405,1.5736071101995763,0.7803866801460592,0.4151686482580636,0.6188328031940382,,,0.47824363442641393,inf,,,0.8650697521794735
381,,0.0,0.0,1.547843680494754,1.49929663820499,0.6802384153552257,0.3897131546063649,0.5228199866184519,,,0.5329562494928909,inf,,,0.8814938605491021
382,,0.0,0.0,1.49811889950109,1.4982567119550187,0.822240617425768,0.3147765033526184,0.4172895167556469,,,0.44144624493110796,inf,,,0.7718680344899916
383,,0.0,0.0,1.6534342492313518,1.6341800288774084,0.7374448918420492,0.26687791119619436,0.387595089735478,,,0.4629450596409901,inf,,,0.7980984163551132
384,,0.0,0.0,1.5249847179602856,1.5151711144393962,0.8443868485523844,0.25793931675042225,0.3983026089904067,,,0.4880666971167561,inf,,,0.7374903319926439
385,,0.0,0.0,1.4826657558725995,1.459246608197804,0.1775047610323827,0.2865169913645397,0.40829330719299417,,,0.49759852643134905,inf,,,0.9325593396912286
386,,0.0,0.0,1.482121799497742,1.4668724161722486,0.8105871857092393,0.9805530422131254,1.339592236689025,,,0.5287703885177266,inf,,,0.8404772552372549
387,,0.0,0.0,1.591340704457732,1.5782569608678767,0.893606637776072,1.009191389365007,1.3721328426488253,,,0.468121228110369,inf,,,0.8287036218491145
388,,0.0,0.0,1.3138311519844623,1.2721881650023865,0.9043678480750211,0.9328199304673553,1.3213220376897217,,,0.49759852643134905,inf,,,0.8542103937113068
389,,0.0,0.0,1.6979417687954395,1.6592265714014323,0.8813748889321061,0.9719913322294355,1.4642175065774419,,,0.552929491858785,inf,,,0.83958525522785
390,,0.0,0.0,1.4191464739853392,1.3979465721859279,0.8989032549299368,0.9327669652766424,1.3768902947676152,,,0.541134803179459,inf,,,0.7900274996494924
391,,0.0,0.0,1.55446372801517,1.504114452594987,0.911294197422061,1.0877858720367632,1.3560812382116259,,,0.5202020156036558,inf,,,0.8109133866101734
392,,0.0,0.0,1.7107986554408732,1.6632233041082058,0.908377752573456,0.8629751772301145,1.2492708017419973,,,0.5370774965580548,inf,,,0.834920213135919
393,,0.0,0.0,1.726051391858424,1.7099175529319302,0.7267076125850003,1.2389974014612488,1.2742014145219138,,,0.4066654671944331,inf,,,0.890913875668382
394,,0.0,0.0,1.2802831476311225,1.2612054976438234,0.9425261177929892,1.800060443890768,2.132482350475697,,,0.44144624493110796,inf,,,0.8628140691452848
395,,0.0,0.0,1.7207374155712476,1.708698550017361,0.9499296589654421,2.068301921749372,2.335291024073711,,,0.35499006010413947,inf,,,0.8750699457961741
396,,0.0,0.0,1.3137259720910546,1.2292081822090855,0.7517237559767472,1.8301860663653038,1.8773150276708213,,,0.44144624493110796,inf,,,0.894409379478049
397,,0.0,0.0,1.6362652359913525,1.613616297480123,0.8640601085882308,0.8212393486864042,1.1290300425042696,,,0.44144624493110796,inf,,,0.8876905541956446
398,,0.0,0.0,1.6585689466362163,1.6442274788502618,0.853919925574198,0.6271026071377253,1.001932420474657,,,0.3480560589391537,inf,,,0.8737008858933919
399,,0.0,0.0,1.4795482293449898,1.4774675329012825,0.8164200216648516,0.7664505061696595,1.0448535959820655,,,0.5370774965580548,inf,,,0.8615360875342476
400,,0.0,0.0,1.5113616596164965,1.4864681577373113,0.8496778351268566,0.8197309672013223,1.1093491030210831,,,0.3751344627501719,inf,,,0.8942593030156084
401,,0.0,0.0,1.502734772777035,1.4631028521888796,0.8694725992566585,0.556608067463776,0.7830674280186608,,,0.541134803179459,inf,,,0.8532847958948554
402,,0.0,0.0,1.3020020694823733,1.278716951414484,0.8194872983381111,0.7729263232135862,1.0104179454526876,,,0.44694259446804574,inf,,,0.8911803713987254
403,,0.0,0.0,1.58952718932367,1.5710506463830631,0.8672025061956821,0.5285711114060052,0.7422114114750306,,,0.5068466436745385,inf,,,0.7776382851986763
404,,0.0,0.0,1.5043286053263398,1.4958747200246814,0.9190758962932025,0.7380896348765803,0.9710702445211494,,,0.541134803179459,inf,,,0.8147774396144443
405,,0.0,0.0,1.1238290941788978,1.0975087735211997,0.8951609746343812,0.6094595347759157,0.8443223636209769,,,0.4732203808476458,inf,,,0.7706703256980089
406,,0.0,0.0,1.0641950668921838,1.0599688306472201,0.5413202248261838,0.5670253819162376,0.7780620414791416,,,0.44694259446804574,inf,,,0.9011838675189741
407,,0.0,0.0,1.6430422207444944,1.6324348400305377,0.6033715550867388,0.46694270402881055,0.7115406543490574,,,0.48319206230712763,inf,,,0.8828093679428881
408,,0.0,0.0,1.4401308269571742,1.440137619839279,0.7929791308044823,0.4142459129967947,0.6935172831027847,,,0.47824363442641393,inf,,,0.8138425099016234
409,,0.0,0.0,1.6957819314378997,1.6567570473363993,0.7744812314429002,0.5002529206860974,0.7090230999393925,,,0.5158180382284114,inf,,,0.8120634959330421
410,,0.0,0.0,1.5679081451849788,1.5462178008412653,0.6997364551317918,0.6451318847423101,0.8096044953201549,,,0.5370774965580548,inf,,,0.8524597123518848
411,,0.0,0.0,1.7559146014463127,1.7438787815518328,0.718372964728086,0.7955359583428215,1.090226957166431,,,0.49759852643134905,inf,,,0.8396190707488023
412,,0.0,0.0,1.4976665754039082,1.469844409534386,0.7515956870735094,0.6591890201104066,0.966228527957738,,,0.4576907132971797,inf,,,0.8160244687565092
413,,0.0,0.0,1.4541913083920246,1.4439024190514735,0.803309912987946,0.8068348938624685,1.2946460009611518,,,0.44694259446804574,inf,,,0.8686911773711655
414,,0.0,0.0,1.6178033029015715,1.585657199389797,0.3548127929513201,0.6226019845466378,0.8786519350980233,,,0.41268473150466,inf,,,0.9076515007580783
415,,0.0,0.0,1.6548236692140772,1.6402642084963142,0.8365785369330894,0.6729292188903723,0.9388971783356642,,,0.41861278947482794,inf,,,0.8019917070128354
416,,0.0,0.0,1.4852212892026642,1.463110961721488,0.7521369394558839,0.6107695765165723,0.8845457048242855,,,0.4576907132971797,inf,,,0.8127496070661246
417,,0.0,0.0,1.624921103376403,1.613593922563505,0.1869091404554228,0.717670376083429,1.0038098427877504,,,0.48319206230712763,inf,,,0.6252428594018427
418,,0.0,0.0,1.707936697819664,1.69803099359644,0.8126132398909702,0.6377628300643672,0.9635103501088093,,,0.5022576003740722,inf,,,0.8396618681708667
419,5.7037824746562,-5.7037824746562,0.0,1.46795586949729,1.4010686536642145,0.49623958458229556,1.1431588182969863,0.8563305161508248,,,0.48319206230712763,5.703782474656201,inf,,0.7955914394327044
420,,0.0,0.0,1.6893545671993968,1.5678553758671938,0.20737190722638982,0.6937241406625738,0.770886160100835,,,0.5113665138247345,inf,,,0.7307372328659986
421,,0.0,0.0,1.1008777003396306,1.044935465081047,0.25717606542286037,0.6747033578064909,0.7307038870329335,,,0.49759852643134905,inf,,,0.9460844120020884
422,,0.0,0.0,1.7486596380521864,1.6583054965195747,0.6735636056120444,0.9120953735451753,0.8140562332060772,,,0.42445136339222655,inf,,,0.8682321413739814
423,,0.0,0.0,1.5008565418131543,1.4873100088848894,0.7114780679081589,0.8510239825152572,1.102243748577561,,,0.4928685327679205,inf,,,0.8751326147064518
424,,0.0,0.0,1.767925217336201,1.7436117133246634,0.5714505094560184,0.9602378612193776,1.1135364512368477,,,0.5068466436745385,inf,,,0.9064217738769663
425,,0.0,0.0,1.6896498748377402,1.6909963686431426,0.9312397684289428,0.7317834819984133,0.9684732870428777,,,0.4880666971167561,inf,,,0.8753251907237909
426,,0.0,0.0,1.7217791367015247,1.679374034000134,0.9531410644614321,0.8051779648292803,1.2138755431234098,,,0.5113665138247345,inf,,,0.8647524132961789
427,,0.0,0.0,1.7083988041220648,1.6924581053885526,0.9287359009609376,0.705001074302731,0.9661848187064326,,,0.43586655696697996,inf,,,0.845478553291917
428,,0.0,0.0,1.7141319574431497,1.6718518327033147,0.9281297235629138,0.6120444568587897,0.9789643712404418,,,0.38804190201132227,inf,,,0.8446154522440674
429,,0.0,0.0,1.3500167355224617,1.326183573300527,0.9516591673489282,0.8293919229584805,1.0566035835362446,,,0.4629450596409901,inf,,,0.8734582232685324
430,,0.0,0.0,1.53530668281776,1.5015343962420626,0.937109034540677,1.0519559803683267,1.6176890519295313,,,0.468121228110369,inf,,,0.7960927389311552
431,4.147899014537511,-4.147899014537511,0.0,1.205829860119691,1.0605738836197454,0.570712380788497,1.7819997991056504,2.003697745138086,,,0.5641709578113449,4.143534806412872,inf,,0.8781572667853059
432,3.401197381662155,-3.401197381662155,0.0,1.7470710390572788,1.7300764323297122,0.8799721946029774,3.895416614772015,3.538655140272851,,,0.43586655696697996,3.4011973816621555,inf,,0.8757181813068893
433,2.870569130599985,-2.870569130599985,0.0,1.6744646024868057,1.6037883449218366,0.9021568233107923,4.23408237168321,5.13402579523342,,,0.5287703885177266,2.870569130599985,inf,,0.9406273197865174
434,3.659949304342905,-3.659949304342905,0.0,1.5639524143244061,1.3584978843619453,0.8045869327070112,1.5623967210027683,1.126056105510868,,,0.4928685327679205,3.6582424846520465,inf,,0.8788431579109937
435,,0.0,0.0,1.7314396692751581,1.708809660252862,0.5789408632356076,0.6177428652130212,0.845402919749621,,,0.5202020156036558,inf,,,0.9050975110365306
436,,0.0,0.0,1.3506630978927832,1.3024766905585432,0.4057452497525278,0.6491061822110392,0.8221930462193666,,,0.5202020156036558,inf,,,0.9232005644688981
437,3.646151060438371,-3.646151060438371,0.0,1.6789922648016915,1.4554328218838615,0.6241160185748034,1.5470427641144173,0.9660583864453411,,,0.5604843169999094,3.6449689007723327,inf,,0.7551156512919942
438,,0.0,0.0,1.6352806647625098,1.5814773994318263,0.6977053354152123,1.314651537129471,1.0284602365767548,,,0.5287703885177266,inf,,,0.915399426334496
439,,0.0,0.0,1.561023247489194,1.5139609087499295,0.459190419410728,0.4883127900503382,0.40502215430810046,,,0.5022576003740722,inf,,,0.9409303325218475
440,,0.0,0.0,1.5757249886419937,1.5263327246358005,0.5419125047451712,0.4629202270175699,0.34021972591594296,,,0.20924377657122822,inf,,,0.8260912583411689
441,,0.0,0.0,1.5861432738784604,1.5809011349845108,0.42534876237746644,0.7568940661962026,0.5097440498289317,,,0.45235697871908603,inf,,,0.9049203797664471
442,,0.0,0.0,1.7132118833377024,1.700501984253438,0.709210437040654,0.9349295580166416,0.5397931574374746,,,0.47824363442641393,inf,,,0.9478400649880561
443,,0.0,0.0,1.7087673339039207,1.6838672063672762,0.687651855065201,1.2815298227998473,0.8699785142146297,,,0.552929491858785,inf,,,0.9078922276072586
444,,0.0,0.0,1.4668124805164133,1.424275193301167,0.7606745209939361,1.144616777648173,0.8320885714332764,,,0.4576907132971797,inf,,,0.8846986691486185
445,,0.0,0.0,1.6302665678576689,1.6316886276345743,0.5709849652188881,0.422435222126009,0.24209683310025615,,,0.5370774965580548,inf,,,0.9217418727629494
446,,0.0,0.0,1.4148406938727376,1.4102022057641026,0.7539594075915882,1.0747234122924556,0.697564563520304,,,0.5287703885177266,inf,,,0.9479692295457535
447,,0.0,0.0,1.653065698914382,1.6240517390162281,0.6397042855444622,1.1238436641716059,0.9509969304342147,,,0.5287703885177266,inf,,,0.9525428926948785
448,,0.0,0.0,1.6157849458623135,1.563009943550831,0.5229745721780272,0.7756339143767988,0.512793159015952,,,0.5713653840954815,inf,,,0.9406987607816004
449,,0.0,0.0,1.5901694407494273,1.5625036177599718,0.6591112383291182,1.5763576329451652,1.2027127465016272,,,0.5329562494928909,inf,,,0.9470087242545892
450,,0.0,0.0,1.6873986596741832,1.6718519443644253,0.6347761566216773,1.883306527852848,1.5442299377265147,,,0.4629450596409901,inf,,,0.9093895248249472
451,,0.0,0.0,1.7207454618027391,1.6894872431484462,0.715334967719077,1.2333503731180255,0.7062124936930001,,,0.5113665138247345,inf,,,0.8754694729792388
452,,0.0,0.0,1.6356421710276288,1.5471286711324719,0.5985817595916388,0.9969175491755864,0.5833095072059379,,,0.5022576003740722,inf,,,0.9223384519153305
453,,0.0,0.0,1.7135948964201018,1.7236286462041661,0.8024884024513407,1.8789572813787605,0.6915517942861837,,,0.552929491858785,inf,,,0.9462356569163604
454,5.703782474656203,-0.5703782474656203,0.0,1.608173663952091,1.5772870140789925,0.7420244883619322,1.7449605871029181,0.96546922422397,,,0.44694259446804574,8.006367567650246,inf,,0.8824416187880404
455,,0.0,0.0,1.5723085379821358,1.5480479221963592,0.6208018387311428,1.1835895815196542,0.7177655491215984,,,0.5068466436745385,inf,,,0.937078194716067
456,,0.0,0.0,1.3958699570402966,1.3373640315397426,0.48136054493054736,1.2506708468818315,0.7488256400028055,,,0.5978297680564633,inf,,,0.9265692574174782
457,,0.0,0.0,1.5961864107102979,1.5431692681933058,0.721176484137275,1.890006280632076,1.553135616596087,,,0.5068466436745385,inf,,,0.9417671522945197
458,,0.0,0.0,1.716246788310176,1.6282548649042243,0.6611700620749145,1.1396094856478196,0.911390391862313,,,0.5641709578113449,inf,,,0.9331832949744677
459,,0.0,0.0,1.6536347635567514,1.6105502048441438,0.506516293284221,0.7764637321395725,0.3942469848874163,,,0.5202020156036558,inf,,,0.9072911764421536
460,,0.0,0.0,1.405108343713047,1.3505986585472456,0.565310842467567,0.5337130296695921,0.3311949008740268,,,0.5287703885177266,inf,,,0.8399473666676461
461,,0.0,0.0,1.6490269647236153,1.6330875608226423,0.7062444966654959,1.2266771684600188,0.6424287607219599,,,0.468121228110369,inf,,,0.9458661594609247
462,,0.0,0.0,1.7284414760534266,1.7339307519528988,0.47112359826407263,2.1898533857997973,1.3770643450757012,,,0.5113665138247345,inf,,,0.95366088143722
463,,0.0,0.0,1.6693870983809767,1.6729878009282706,0.546555245474282,1.805185059606444,1.257184173732128,,,0.468121228110369,inf,,,0.9531396302045206
464,,0.0,0.0,1.6725881634097275,1.6380624943103783,0.5518683077454996,1.2144667850313955,0.9628614529423818,,,0.48319206230712763,inf,,,0.9457560354841437
465,,0.0,0.0,1.5924180554159226,1.5633422664675365,0.734657897148179,1.0920132882615277,0.82818071145248,,,0.5713653840954815,inf,,,0.9405622640594627
466,,0.0,0.0,1.6667976516456644,1.67794411676462,0.39687641195134377,1.7044072062168658,1.3090080368930217,,,0.5567373465730988,inf,,,0.7160198436777577
467,5.010635294096255,-5.010635294096255,0.0,1.5703715528590316,1.5171159183924265,0.47159563352848216,1.962571954201958,1.308297078405861,,,0.5113665138247345,5.0106352940962555,inf,,0.7026596903043529
468,,0.0,0.0,1.292209062159003,1.2952753916928377,0.6249130025305221,1.541741757440833,0.8398365527083185,,,0.5713653840954815,inf,,,0.9497209952623075
469,,0.0,0.0,1.596051234450309,1.5757637243270646,0.383276308151338,1.1255079416034839,0.6811657142673966,,,0.2461092077232671,inf,,,0.6855326951674727
470,,0.0,0.0,1.5933164610505146,1.591247950697714,0.75992195660588,1.3585075871167618,0.8266778498557963,,,0.26342377874763145,inf,,,0.9490981976595564
471,,0.0,0.0,1.6159636657333665,1.575792533324243,0.6868392361444263,1.4980791451266742,0.6738088829088775,,,0.48319206230712763,inf,,,0.9417779994290306
472,,0.0,0.0,1.6471713463037931,1.582681710812101,0.6415012871201796,1.5166467535458799,1.0508466415656694,,,0.5451288209179292,inf,,,0.9456190666734433
473,5.010635294096255,0.6898082792944322,-5.700443573390687,1.6003096981964031,1.465703864640621,0.43371223003550974,1.403022309919833,0.8780265571313224,0.6898082792944307,,0.581717464821069,5.0106352940962555,0.6964860818254599,inf,0.6363354187023202
474,,0.0,0.0,1.5996474540903574,1.585081918014812,0.5486503106913426,0.85688400264629,0.48855170326870334,,,0.5783247308855777,inf,,,0.9379287936225185
475,,0.0,0.0,1.6284748236060635,1.5968597306872334,0.5394114966097789,0.8230863587851616,0.5289710121755631,,,0.524519217297268,inf,,,0.9377743266487377
476,,0.0,0.0,1.2344240911960025,1.2301164751353548,0.6864740761278875,1.6136473223171401,1.1823744020871,,,0.09856104664732858,inf,,,0.9455403514808667
477,,0.0,0.0,1.0935286727715612,1.0637443912565498,0.623301004363342,1.18270954500904,0.6068034248663661,,,0.1354413587855425,inf,,,0.9439344860529855
478,,0.0,0.0,1.6220165220007332,1.5981894924931768,0.6252314084998918,1.5437477365915593,0.7482986701604235,,,0.524519217297268,inf,,,0.9067871721112029
479,,0.0,0.0,1.7721066472208982,1.7556018347563072,0.6864772119511175,1.832548003440367,1.3370509617986939,,,0.5713653840954815,inf,,,0.8981849118469131
480,,0.0,0.0,1.468640718363932,1.4591567782129786,0.6945214115113603,1.6771317059540112,1.0507986846248993,,,0.1792956407887421,inf,,,0.9528110259512274
481,,0.0,0.0,1.4570296457133094,1.4609338112818222,0.5797333291980681,0.4991681649689482,0.4169941638404482,,,0.44694259446804574,inf,,,0.9394980889980783
482,,0.0,0.0,1.5322783101879223,1.5044848738423278,0.6219473419318088,0.6488653165002528,0.4441344596404194,,,0.42445136339222655,inf,,,0.8894907475031468
483,,0.0,0.0,1.4937099023856342,1.450288273216037,0.6572100120699074,1.2071841556748188,0.6891880885825004,,,0.44694259446804574,inf,,,0.9181632576960433
484,,0.0,0.0,1.6597064305949871,1.6518240150443448,0.7183354359009406,1.4223015933099923,0.9174209375358549,,,0.4928685327679205,inf,,,0.942221481544855
485,,0.0,0.0,1.725391841327166,1.735481032499178,0.4647571903846677,0.8130573514017659,0.4585187304473527,,,0.5068466436745385,inf,,,0.9537586492529355
486,,0.0,0.0,1.4325912978961048,1.4344031862828646,0.8165434218788648,2.352998901098157,2.1881182233590093,,,0.5604843169999094,inf,,,0.9496338609607766
487,,0.0,0.0,1.5344224221876648,1.5326842195166388,0.6521493658712065,1.110840667519775,0.7502074645867847,,,0.5158180382284114,inf,,,0.948745099527725
488,,0.0,0.0,1.7219145300980165,1.661696576577606,0.741562415755829,1.3372901021046126,0.9120674145006424,,,0.47824363442641393,inf,,,0.9488728044939648
489,,0.0,0.0,1.5806752230352277,1.5563736832707902,0.8381661021060968,2.123070906208653,1.1100647342574246,,,0.5883313578629602,inf,,,0.9405011545588832
490,,0.0,0.0,1.7012771813802083,1.6901805016056914,0.5149505696145292,1.017528064450809,0.5376598737723164,,,0.524519217297268,inf,,,0.9364722058191105
491,,0.0,0.0,1.726102368800994,1.725807034130934,0.21522897832745186,0.5686776197011191,0.42350233045286345,,,0.4732203808476458,inf,,,0.893084871202069
492,,0.0,0.0,1.557198311653557,1.5537693143973579,0.7082328543591752,1.7518732831224173,1.4143598687174739,,,0.5022576003740722,inf,,,0.8865819333007504
493,,0.0,0.0,1.5803519890153295,1.5502046639308942,0.525693191013321,1.0073083022299973,0.6441461396139678,,,0.47824363442641393,inf,,,0.8957871947186761
494,,0.0,0.0,1.6182407438029167,1.608505617224306,0.6857526251970697,1.545589447136242,1.0831581313402898,,,0.552929491858785,inf,,,0.9401137874472617
495,,0.0,0.0,1.4432012920647297,1.405770380516172,0.7413163270909761,1.8268842394160558,1.4225423914926516,,,0.4880666971167561,inf,,,0.9513155524323192
496,,0.0,0.0,1.7060404630940018,1.6316321441147332,0.5001853441749874,0.8617503020687507,0.47103205138013393,,,0.5451288209179292,inf,,,0.9492335152046572
497,,0.0,0.0,1.6873020957170928,1.6597829890567295,0.6838748150541465,1.6322707064504152,1.1523308588546657,,,0.5370774965580548,inf,,,0.9265766079589004
498,,0.0,0.0,1.6929830042779954,1.6727719649106814,0.6451544598247589,1.52540086764835,1.0001911572312108,,,0.5068466436745385,inf,,,0.9308093566989719
499,,0.0,0.0,1.5869974152320288,1.5471434899638152,0.7526974920136602,1.8486278735853094,1.0950696218562654,,,0.5677978065141052,inf,,,0.9498283634278546
500,,0.0,0.0,1.3532401321617866,1.3264597625292491,0.6395595108718669,0.7327338553790892,0.4864598688608377,,,0.5677978065141052,inf,,,0.9524009832906263
501,,0.0,0.0,1.6530442297201071,1.5181647544115835,0.6981762689353296,1.053389386376217,0.4992066747204553,,,0.5713653840954815,inf,,,0.9387547856608371
502,,0.0,0.0,1.7062742712428351,1.685994130877046,0.5484422881849005,0.8929917017176086,0.5255473994025921,,,0.4928685327679205,inf,,,0.9326068994061965
503,,0.0,0.0,1.474265458551731,1.4382149345904547,0.3773308731684033,0.6085247189684238,0.3987679371892492,,,0.4880666971167561,inf,,,0.9538177751243643
504,,0.0,0.0,1.5764695630351548,1.5540220324192793,0.5547763319690494,1.0446603152599416,0.5339702706043572,,,0.4880666971167561,inf,,,0.9109927820372418
505,,0.0,0.0,1.2855984038671169,1.2984627980025574,0.5266946177859487,0.9197616395878851,0.522276481991899,,,0.48319206230712763,inf,,,0.9240145708280493
506,,0.0,0.0,1.634385092237395,1.5872813970881126,0.707141661215653,1.8233920820764586,1.344201547670779,,,0.49759852643134905,inf,,,0.9510385811746842
507,,0.0,0.0,1.4222355201172605,1.4127404913503359,0.6246422431038067,0.54149550589307,0.5175147793381203,,,0.5329562494928909,inf,,,0.8922384856499228
508,,0.0,0.0,1.7165520838915087,1.6794729695796122,0.4246572849302821,0.9335171390323611,0.8441964420633344,,,0.585052858160615,inf,,,0.9217910643315903
509,,0.0,0.0,1.6681650425235905,1.6464989587480166,0.6272191847729085,1.8802421351603023,1.7856196677807699,,,0.541134803179459,inf,,,0.9337852048477466
510,,0.0,0.0,1.6119047827105764,1.5418267266215848,0.5551860008451004,1.5247082293398397,1.1964378766472799,,,0.5202020156036558,inf,,,0.9556583499259202
511,,0.0,0.0,1.3958324926070058,1.3894201805394732,0.6455469879071943,1.5029134259590198,1.2623637807593209,,,0.4732203808476458,inf,,,0.9281684110187487
512,,0.0,0.0,1.7526730180651044,1.7139062004157322,0.7786640615005042,1.5730357663998054,1.5830397804473988,,,0.5451288209179292,inf,,,0.873920905253056
513,,0.0,0.0,1.5184574538197821,1.4987484235748363,0.5330171459857802,1.6693656478398564,1.5304532365236219,,,0.5677978065141052,inf,,,0.8886725746340357
514,,0.0,0.0,1.6467424401166795,1.578468294877967,0.531039844393994,1.1030025139756603,0.846241469110534,,,0.49759852643134905,inf,,,0.9115929991742585
515,,0.0,0.0,1.4807126018787766,1.4407741948591595,0.768339017816881,1.677356773256879,1.1899128291039027,,,0.5022576003740722,inf,,,0.9006044171826962
516,,0.0,0.0,1.5949285390155756,1.5160404153536076,0.690905946967568,1.3938726430754054,0.9365798092266313,,,0.468121228110369,inf,,,0.8959522896382057
517,,0.0,0.0,1.5098034212541644,1.5065331511877136,0.7906214032646821,2.2727676678647457,1.9220776347986042,,,0.5604843169999094,inf,,,0.9365196797159262
518,,0.0,0.0,1.7812190418616332,1.7234668314211175,0.732656071918719,1.4980218093245692,1.4826102750422172,,,0.552929491858785,inf,,,0.9396545111125263
519,,0.0,0.0,1.5454514008480764,1.520042118249122,0.6191561465380903,1.3304385559544776,1.0101859261975343,,,0.4732203808476458,inf,,,0.9441341287182662
520,,0.0,0.0,1.50372683520628,1.4587277548049875,0.6160178179136571,1.6347624202824893,1.3482288624110217,,,0.4928685327679205,inf,,,0.937510505876886
521,,0.0,0.0,1.6831404443656013,1.6389929314770515,0.7571218792153618,1.9269113425953563,1.4300636799290691,,,0.6008849035917525,inf,,,0.9368264136607573
522,,0.0,0.0,1.7006843266382228,1.699091524881859,0.722072465592868,1.2972641808021335,1.2816145838972919,,,0.4880666971167561,inf,,,0.9455259262520559
523,,0.0,0.0,1.5501527847650618,1.5644629996258623,0.6232477714005981,0.8752638970033855,0.6529945542076016,,,0.5490601803369085,inf,,,0.9354496841625638
524,,0.0,0.0,1.5615295987805111,1.5419003542387726,0.6466079861132727,1.3505742886889047,0.9533706563191788,,,0.5641709578113449,inf,,,0.9555740499968882
525,,0.0,0.0,1.5540482605275119,1.5255242414223695,0.7517484524706862,1.6882191273918885,1.2891793445587234,,,0.5451288209179292,inf,,,0.9431072243335098
526,,0.0,0.0,1.4721027539485003,1.4571882314195796,0.4889222443367882,1.4973161027674007,1.1046686769379788,,,0.5022576003740722,inf,,,0.6111381435730857
527,,0.0,0.0,0.10060391803536385,0.06877812847463392,0.510150686655634,1.176678965734797,0.6456629882088489,,,0.28007874463063287,inf,,,0.6046252802856934
528,4.943405216085821,-4.943405216085821,0.0,0.8040805320425214,0.7462929009615366,0.5862541507284805,1.88625269944654,1.489334369504649,,,0.4629450596409901,4.924457597855203,inf,,0.8087230797912707
529,,0.0,0.0,1.6256687066526894,1.5769382800212903,0.7418198704124761,1.5160934257361571,0.8604946101804574,,,0.541134803179459,inf,,,0.8955387311708616
530,,0.0,0.0,1.7296512307886647,1.7071025727206426,0.5186456705921247,1.4607129361205515,1.06332259592076,,,0.5451288209179292,inf,,,0.9462492969926741
531,,0.0,0.0,1.7162253043271036,1.6818400266525089,0.6830654058258079,1.1002868909373364,0.7636617928002896,,,0.5022576003740722,inf,,,0.9450608128865376
532,,0.0,0.0,1.6077146086186107,1.5569108774285416,0.5513828760725812,1.3572881545487747,0.9598262562675448,,,0.6125606311107803,inf,,,0.9264755499569651
533,5.010635294096255,-5.010635294096255,0.0,1.4857600066964676,1.4480291258649591,0.513684231163298,1.0575124557138686,0.51355147907921,,,0.5287703885177266,5.0106352940962555,inf,,0.7743671371535874
534,5.7037824746562,-5.7037824746562,0.0,1.3543937509303774,1.2340370208714262,0.3513446215620442,0.7914298321858539,0.4642836598206811,,,0.552929491858785,5.703782474656201,inf,,0.7855047575180649
535,,0.0,0.0,1.690039910456786,1.5966468818110597,0.34412258486401154,0.705904390525262,0.3580878825843983,,,0.5604843169999094,inf,,,0.9200846239682333
536,,0.0,0.0,1.6794278980865958,1.615927609335208,0.609598555514731,1.3668244380805692,0.8262056887841134,,,0.5490601803369085,inf,,,0.9509441578144816
537,,0.0,0.0,1.6096045671604489,1.6006109405611637,0.602225600400043,1.462114654815042,0.839150211676527,,,0.5202020156036558,inf,,,0.9415320125667344
538,,0.0,0.0,1.5814131709500006,1.5384897786233445,0.6547435750250994,1.0626094791856846,0.5354687164375458,,,0.5451288209179292,inf,,,0.9282488849091997
539,,0.0,0.0,1.553551466928988,1.502416564914719,0.3888257051760494,0.5472636566781064,0.377819225641034,,,0.5022576003740722,inf,,,0.9490048148851795
540,,0.0,0.0,1.4165072166217163,1.3863028730199736,0.48948996640622283,0.7469713493577277,0.5158057911406508,,,0.524519217297268,inf,,,0.9537924659229388
541,,0.0,0.0,1.5601055500306238,1.5136222368443326,0.6499926070960966,1.252683447408901,0.8616018718161906,,,0.48319206230712763,inf,,,0.9288293058314805
542,,0.0,0.0,1.6544262416173408,1.6251942090576335,0.38916744931221187,0.23840284721154786,0.196487687268134,,,0.5370774965580548,inf,,,0.938630367079555
543,,0.0,0.0,1.5977564300589007,1.6004190667706395,0.33392679031786776,0.29240666011244504,0.20066130952363787,,,0.5567373465730988,inf,,,0.9434772962695637
544,4.624091891033139,-4.624091891033139,0.0,1.4764611182657812,1.4422935801346393,0.43356986738234693,1.4015903142070485,0.7947156128104871,,,0.581717464821069,4.620847998707322,inf,,0.6918540850941434
545,4.837636847970105,-4.837636847970105,0.0,1.6476362159241758,1.6148900777949207,0.48039927193472465,1.7425035018451265,0.7879591804658368,,,0.5287703885177266,4.817263901115716,inf,,0.6707357084380766
546,,0.0,0.0,1.3947303251852206,1.2920264815575577,0.4426932925571281,1.1266966686320794,0.5473790580894595,,,0.5567373465730988,inf,,,0.7082548741074075
547,5.010635294096255,-5.010635294096255,0.0,1.439420013147791,1.408270332819376,0.5828754597999988,1.485606001439155,0.74299813701753,,,0.5329562494928909,5.0106352940962555,inf,,0.8121515669421352
548,5.560532057340478,-5.560532057340478,0.0,1.5478415633743299,1.4810415674937756,0.5309132075934445,1.1646326905885047,0.5907523811461108,,,0.5883313578629602,5.515920737486631,inf,,0.7817413467775504
549,5.7037824746562,-5.7037824746562,0.0,1.4212439130892107,1.413113855538694,0.475363696441898,1.7075779747434925,1.1636774319845944,,,0.552929491858785,5.703782474656201,inf,,0.8577247822475313
550,3.624340932976365,-3.624340932976365,0.0,1.6496590628620476,1.472478253949107,0.6112672480011,2.5450297643148967,1.4467891585302786,,,0.5451288209179292,3.624340932976365,inf,,0.8352132404031877
551,5.103054918170914,-5.103054918170914,0.0,1.5336716428695816,1.497512984783196,0.4362488791076746,2.115448516408559,1.0482565987249246,,,0.5883313578629602,5.079628165583207,inf,,0.9298139506952819
552,,0.0,0.0,1.6653995444481744,1.6559436325443373,0.7125985677227755,1.5260978957593185,0.7358494969837681,,,0.5370774965580548,inf,,,0.9151534535007148
553,3.9109953342292965,-3.9109953342292965,0.0,1.4819639705900558,1.4279853874615895,0.6572876033196907,2.4385135292376967,1.4571199749009764,,,0.5287703885177266,3.9109125111441188,inf,,0.7159933366806446
554,5.7037824746562,-5.7037824746562,0.0,1.6467052454978646,1.5701266330299202,0.5087981448801657,1.7923300724887217,1.579107343561274,,,0.5978297680564633,5.703782474656201,inf,,0.9032051779303817
555,,0.0,0.0,1.5091422037141746,1.495815585210851,0.4222819101132863,1.6895538853008076,1.3535143584158573,,,0.5202020156036558,inf,,,0.6874227178716338
556,,0.0,0.0,1.4439296247836446,1.441233591784403,0.491759085683101,1.5090608207911744,0.7992488936961621,,,0.5567373465730988,inf,,,0.9514911465822994
557,,0.0,0.0,1.6447774901696004,1.5973520434132606,0.6871023210619047,1.601872964493789,0.8993725308100893,,,0.4928685327679205,inf,,,0.7673955718521722
558,,0.0,0.0,1.6043926915951428,1.5499802209807807,0.6874767976946966,1.4303236937791624,0.5562516188874518,,,0.5158180382284114,inf,,,0.9470407384167752
559,,0.0,0.0,1.6522853275397429,1.6455072321960458,0.5996491862895228,1.414015436378002,1.0637055464298104,,,0.5113665138247345,inf,,,0.8683500478327062
560,,0.0,0.0,1.67285063149188,1.6494336712318227,0.4673101623501687,1.3841488860397049,0.935612971895555,,,0.14689728110576383,inf,,,0.8901625986701828
561,,0.0,0.0,1.67285063149188,1.6636999578231473,0.4167945842667553,1.0968753056406466,0.8678890674818494,,,0.1792956407887421,inf,,,0.9330933107339485
562,,0.0,0.0,1.67285063149188,1.6698330196895115,0.6741621700649064,1.309462155600054,1.3849948287237401,,,0.1687963801566332,inf,,,0.9050519907929424
563,,0.0,0.0,1.2268920228839681,1.1910547691808082,0.7115190816748764,2.5316358882647103,2.938575529713273,,,0.4576907132971797,inf,,,0.9492648772415896
564,,0.0,0.0,1.5141714468394765,1.4750797476107733,0.816949188327709,2.661853065918774,2.967496708985452,,,0.5490601803369085,inf,,,0.7590836092665856
565,,0.0,0.0,1.7138838132680771,1.6909367880212693,0.655366697184339,1.8687356081592699,1.3480080166398427,,,0.5451288209179292,inf,,,0.9163178284764508
566,4.605170185988091,-4.605170185988091,0.0,1.7037101508658483,1.6551097846399214,0.8831294856025093,3.0366035233815527,2.206825545899024,,,0.552929491858785,4.605170185988091,inf,,0.9312749575289276
567,4.605170185988091,-4.605170185988091,0.0,1.3641941785136011,1.3093783116540259,0.6664694356950012,2.617587937798398,1.6904519774531241,,,0.5883313578629602,4.605170185988091,inf,,0.9292241580125467
568,5.442697036645288,-5.442697036645288,0.0,1.7508639737123868,1.6348813355983773,0.6390843410572011,2.294161594101706,1.4591343363538027,,,0.6528756675646988,5.38411735635137,inf,,0.8926166646403975
569,5.703782474656203,-1.9202734331342548,0.0,1.6892989541389771,1.6609677538944185,0.6593852534908974,2.436758275552683,2.158560648223267,,,0.6233814453054027,6.792444432471143,inf,,0.7011808953216586
570,,0.0,0.0,1.673125969794532,1.6300986429091167,0.41289659650855753,1.3660128210589364,0.6665412457839222,,,0.5370774965580548,inf,,,0.7054576534013249
571,,0.0,0.0,1.6877465878538176,1.6674175765852173,0.5860140349421038,0.6861693090435949,0.45402003103544675,,,0.524519217297268,inf,,,0.9474734976993298
572,,0.0,0.0,1.02147089083734,0.9493295560726355,0.5848871572772985,0.6393923869489003,0.45655018430739025,,,0.5783247308855777,inf,,,0.9479855825303354
573,,0.0,0.0,1.6958353491047002,1.6378576591723595,0.5704945812826888,0.8528737487339494,0.4710985939440284,,,0.541134803179459,inf,,,0.9512107314285532
574,,0.0,0.0,1.6936058843820634,1.6712587697706187,0.4289303881563546,0.608601393293214,0.5775137406989959,,,0.49759852643134905,inf,,,0.9380891608268863
575,,0.0,0.0,1.5668003313313028,1.5519024341234016,0.4051544377230513,0.6309231622587621,0.4856239931767873,,,0.47824363442641393,inf,,,0.9388003724147616
576,,0.0,0.0,1.735178467073585,1.7389903762779155,0.5211988767065863,0.6027163227292059,0.3618508821264924,,,0.49759852643134905,inf,,,0.8272250285131955
577,,0.0,0.0,1.6093380407342575,1.6046080354363,0.40697307550657,0.6079481383793763,0.5724310749251744,,,0.5329562494928909,inf,,,0.5913610827907453
578,,0.0,0.0,1.7572810056736183,1.7163147622400383,0.42955743668958035,0.8134588066948393,0.39137709275670596,,,0.5329562494928909,inf,,,0.7167970306761182
579,,0.0,0.0,1.5429366021427218,1.4458779955463117,0.4786834638834122,0.8992457062256585,0.44636713024239316,,,0.48319206230712763,inf,,,0.722010657844701
580,5.7037824746562,-5.7037824746562,0.0,1.6211135810476156,1.5164025362044702,0.49376069908984066,1.8372170141142206,1.4169601090723856,,,0.5490601803369085,5.703782474656201,inf,,0.7554055178667688
581,,0.0,0.0,1.6752041580899415,1.6624533387143388,0.5610155145170012,1.5590478230644915,0.985494758944766,,,0.5567373465730988,inf,,,0.9245750046079783
582,,0.0,0.0,1.7234756485423839,1.721086242887087,0.5235853547968625,1.154187293767314,0.6471599168080755,,,0.541134803179459,inf,,,0.9203232094947864
583,,0.0,0.0,1.6388660533291857,1.6209311809553477,0.5815229875796006,0.9293771786148798,0.3724574554637824,,,0.5604843169999094,inf,,,0.9466698478105111
584,,0.0,0.0,1.7186942008071004,1.6108146504844554,0.5178077623291663,0.5375859598181407,0.18576250093857172,,,0.524519217297268,inf,,,0.6631501915042154
585,,0.0,0.0,1.5423047975076147,1.5023330574086302,0.6298504288453511,0.8592572478205296,0.4593169479680992,,,0.5370774965580548,inf,,,0.9441384446911061
586,,0.0,0.0,1.1600382607622957,1.138965998754957,0.31651606460499865,0.5680508319518238,0.4523931990965727,,,0.5202020156036558,inf,,,0.9563452765381701
587,,0.0,0.0,1.719242540388965,1.6797452706676668,0.4318458958226571,0.6225263649913879,0.3105241021772708,,,0.552929491858785,inf,,,0.8084716921801453
588,,0.0,0.0,1.5520785522634326,1.5688126486254477,0.6274409490379232,1.4553264133666526,0.8092023308390055,,,0.552929491858785,inf,,,0.5844993735835754
589,,0.0,0.0,1.647299877312817,1.6217889646201502,0.47377945604906735,0.7395190280826106,0.394771039861312,,,0.5158180382284114,inf,,,0.9496776387619442
590,,0.0,0.0,1.6303084729981259,1.6229429841623981,0.4806113685054375,0.7690955038916057,0.6554177140362378,,,0.47824363442641393,inf,,,0.9389148459397167
591,,0.0,0.0,1.7700111273431935,1.7268938123157895,0.34324122582543604,0.24682822772290838,0.20637945459661197,,,0.49759852643134905,inf,,,0.9386599124335698
592,,0.0,0.0,1.706600119563601,1.6399684334256917,0.6107744072884403,0.5183490673177412,0.5459326040996775,,,0.41268473150466,inf,,,0.8632052088879468
593,,0.0,0.0,1.4561446219777774,1.4482617663756285,0.6607796477762438,1.0296629435413278,0.9132960176443738,,,0.4732203808476458,inf,,,0.9194464472706602
594,,0.0,0.0,1.6447460599105563,1.6085498050647953,0.5597739914598729,0.7801717996741367,0.6788568876675335,,,0.4732203808476458,inf,,,0.9412960655432022
595,,0.0,0.0,1.5686050278865757,1.5181105410897016,0.5046403512778582,1.1388355027339607,0.9505057449031438,,,0.48319206230712763,inf,,,0.9487087051748301
596,,0.0,0.0,1.0722076605329347,1.017556386849354,0.5482656290741068,0.9649860353195266,0.6157792899467709,,,0.541134803179459,inf,,,0.7983391857419557
597,,0.0,0.0,1.528643636065202,1.5095183302053756,0.5722614014283177,1.0759053241430228,0.8213649935157412,,,0.47824363442641393,inf,,,0.938100996697806
598,,0.0,0.0,1.4522631157972428,1.4238210234906317,0.4060159644501396,0.49406186681966885,0.4735585462285897,,,0.49759852643134905,inf,,,0.9068826735909474
599,,0.0,0.0,1.456355577809545,1.4305243462123451,0.4795338064081959,0.4391950812332025,0.36998941243298966,,,0.44694259446804574,inf,,,0.8854126471049919
600,,0.0,0.0,1.577577820066173,1.5341487188932308,0.7147628358888982,1.5265769552137547,1.10534322593828,,,0.585052858160615,inf,,,0.940891448299626
601,,0.0,0.0,1.499611771186621,1.465605209565527,0.6202449852188587,0.35646304854595884,0.5091358962070627,,,0.552929491858785,inf,,,0.8162371844434864
602,,0.0,0.0,1.683028079651457,1.667725717899276,0.9421708047851557,0.8829443342894312,1.34672653369736,,,0.4732203808476458,inf,,,0.8072810477325781
603,,0.0,0.0,1.3147750725329401,1.2346112728760135,0.5434815034807444,1.2458553595470887,1.6019191012881515,,,0.5022576003740722,inf,,,0.7434862938587243
604,,0.0,0.0,1.7636102016286623,1.735499038102679,0.9571065380910461,1.1798147803804828,1.761542908967937,,,0.468121228110369,inf,,,0.8089260245823591
605,,0.0,0.0,1.775122758432983,1.7597174243472355,0.8920985100560774,1.2742215095333325,1.8096583396209567,,,0.5158180382284114,inf,,,0.8264830308250763
606,,0.0,0.0,1.5253699906428748,1.4687665061478639,0.5227273411938181,1.2710618100843578,1.5023011640464798,,,0.5068466436745385,inf,,,0.9035896520454617
607,,0.0,0.0,1.190125764237515,1.0991822306568337,0.5156187097671443,0.4720574026587524,0.5681565720181965,,,0.468121228110369,inf,,,0.8515123130474516
608,,0.0,0.0,1.5876671148896835,1.57260590264934,0.9403529317518818,0.4241920341562468,0.6356739993527705,,,0.3943459996787778,inf,,,0.7617553750215236
609,,0.0,0.0,1.5722264206999594,1.5629889047620724,0.9281681285662196,0.21264678975356013,0.35537533650084474,,,0.41861278947482794,inf,,,0.7555536648198594
610,,0.0,0.0,1.6460759611569378,1.6311174955913712,0.8311790675074618,0.21168101831072558,0.3376221870231107,,,0.43586655696697996,inf,,,0.7626892250735748
611,,0.0,0.0,1.4837889095142838,1.4573811495822107,0.6062124209580554,0.35527249891105783,0.48949889443131517,,,0.45235697871908603,inf,,,0.8915145942466712
612,,0.0,0.0,1.3634999119093616,1.2841857665426746,0.9229528346729419,0.27464949213173495,0.4868802972637205,,,0.44694259446804574,inf,,,0.8335992515148734
613,,0.0,0.0,1.419542849649029,1.409065145829691,0.9517416371521907,0.2857224775509994,0.510057140427319,,,0.4302020962658841,inf,,,0.8381140529378965
614,,0.0,0.0,1.475762090456651,1.434549738115275,0.94406925020735,0.2939841886737356,0.4767572520756028,,,0.48319206230712763,inf,,,0.8128964542542927
615,,0.0,0.0,1.538811446897114,1.523746430412747,0.9243417088335987,0.2665227270166884,0.4566503137712102,,,0.47824363442641393,inf,,,0.7911112604097457
616,,0.0,0.0,1.5098793237962533,1.4921765883004676,0.8579113377109902,0.2005118021906719,0.3401455788290141,,,0.5158180382284114,inf,,,0.7558013846398264
617,,0.0,0.0,1.5922928436386479,1.5822444098645203,0.7944606658334066,0.09160456024002661,0.17656284333774538,,,0.5068466436745385,inf,,,0.7641505482291672
618,,0.0,0.0,1.57821287817734,1.5651458377427754,0.9101130605958035,0.12590016986474986,0.242696047355128,,,0.48319206230712763,inf,,,0.8156543081424623
619,,0.0,0.0,1.367403967048598,1.3296099020809091,0.9554638178386119,0.186055228626817,0.36952098831915225,,,0.48319206230712763,inf,,,0.8189018955628943
620,,0.0,0.0,1.7187510129707206,1.750639138697258,0.587394415462352,0.30640371890469975,0.35357828408745096,,,0.4732203808476458,inf,,,0.8724285229970857
621,,0.0,0.0,1.6383086711148385,1.6102805877711057,0.9335260156466125,0.6253842859096641,0.8561817623275574,,,0.4629450596409901,inf,,,0.8169889819434175
622,,0.0,0.0,1.1887184816926222,1.1823704917181712,0.9651311562894411,0.7385679095488223,1.1822910529963861,,,0.4302020962658841,inf,,,0.8224638163306013
623,,0.0,0.0,1.281295176685855,1.201150501812029,0.7602514008371437,0.6532164037308367,0.7097222286287383,,,0.49759852643134905,inf,,,0.9026240765578303
624,,0.0,0.0,1.7401523062609658,1.6696149915105793,0.9420282117021848,0.2870295041201263,0.48227801576014867,,,0.49759852643134905,inf,,,0.8621704317891258
625,,0.0,0.0,1.2104823883823372,1.2033296198086412,0.9143270003342506,1.4641874789505904,1.4921942520582463,,,0.4629450596409901,inf,,,0.9257684047094954
626,,0.0,0.0,1.5060461029577896,1.3935267360430963,0.5989372766359955,0.6208983257466902,0.5396765283500873,,,0.5022576003740722,inf,,,0.8947579876368789
627,,0.0,0.0,1.5308413244579835,1.5088711893119153,0.8224393073849219,0.18248914240652492,0.3237851867614151,,,0.468121228110369,inf,,,0.8373801655611851
628,,0.0,0.0,0.9998109484419493,0.941402300008433,0.3873975664862887,0.2663966647590763,0.34698617250302427,,,0.3943459996787778,inf,,,0.9031118294686861
629,,0.0,0.0,1.549820464241193,1.5177170457608304,0.8118173678992298,0.20015497075600294,0.36365453150923926,,,0.47824363442641393,inf,,,0.6805282260040088
630,,0.0,0.0,1.4837796142530855,1.4766728901698674,0.8810289238695844,0.20832567357809606,0.38887057374055295,,,0.5158180382284114,inf,,,0.7493069304765195
631,,0.0,0.0,1.520172094838537,1.5169613200220107,0.8437061085602848,0.2016148835775473,0.37617951537557104,,,0.4880666971167561,inf,,,0.7329033955183004
632,,0.0,0.0,0.6004812686114375,0.5752073088659221,0.4409071928127391,0.2516713835431553,0.34257005196494505,,,0.4576907132971797,inf,,,0.8923236607899605
633,,0.0,0.0,1.5823165538758261,1.5417796343068324,0.7312706319926453,0.6655733337057982,0.8045653898848852,,,0.4576907132971797,inf,,,0.8839311627069335
634,,0.0,0.0,1.6841889620365944,1.6579550811234307,0.4286675132462979,0.6337472270674388,0.9293413851236074,,,0.5329562494928909,inf,,,0.8781625420079707
635,,0.0,0.0,1.7198803599393133,1.7069143608447774,0.8606732563834947,0.7484460754769454,0.9911493358554263,,,0.5287703885177266,inf,,,0.8001652598712576
636,,0.0,0.0,1.6841103129020942,1.661989150974084,0.8542739638948919,0.6880943391265062,0.9516972273576066,,,0.5748741956352443,inf,,,0.8410642638193236
637,,0.0,0.0,1.647546917364163,1.6361252386301504,0.38427199188906264,0.597995605467231,0.7966872829271997,,,0.47824363442641393,inf,,,0.9099767608474622
638,,0.0,0.0,1.6081981338577656,1.610921190777831,0.7038470561049803,0.5430047106809471,0.8211884772857195,,,0.524519217297268,inf,,,0.8155131534740957
639,,0.0,0.0,1.4931278870900484,1.4766074827535978,0.8497744545338518,0.45530970858066155,0.6810883250140294,,,0.4629450596409901,inf,,,0.7967336821406925
640,,0.0,0.0,1.6116416475175483,1.583930734378065,0.453418490961786,0.5643040600926551,0.7450036946009172,,,0.4576907132971797,inf,,,0.8868522022223692
641,,0.0,0.0,1.585908532904396,1.5618623204016482,0.3467544962248001,0.4894521528430467,0.6101833570398214,,,0.43586655696697996,inf,,,0.8773936075439196
642,,0.0,0.0,1.7333795900144489,1.7297599083988036,0.8498867605771095,0.3018286038743516,0.46042079955232545,,,0.41268473150466,inf,,,0.807670746048896
643,,0.0,0.0,1.7147131412725303,1.6871984718494786,0.8664861156964183,0.2260644456046411,0.3695708380624972,,,0.4880666971167561,inf,,,0.7604745523753507
644,,0.0,0.0,1.560241756576298,1.5549520134919035,0.9125358019101827,0.26451249471920796,0.4131500296562338,,,0.5113665138247345,inf,,,0.7910748916899494
645,,0.0,0.0,1.3088610013932411,1.2679624512187526,0.8517588446228315,0.2314781756073521,0.3858178681435361,,,0.4928685327679205,inf,,,0.7904267503025073
646,,0.0,0.0,1.4372538782932898,1.4181124301914672,0.8902681983652448,0.2700920287189643,0.4346949115819776,,,0.4629450596409901,inf,,,0.8460510054340904
647,,0.0,0.0,1.4059832052412506,1.3839504269946696,0.8657071270205422,0.22127652784091942,0.3538637239232451,,,0.524519217297268,inf,,,0.7855920058502921
648,,0.0,0.0,1.3968526530203913,1.411377264019138,0.8876311592841805,0.22370410965197027,0.36647178095345534,,,0.5604843169999094,inf,,,0.8032630064943986
649,,0.0,0.0,1.4104018391608966,1.3954711163648035,0.8290066509183607,0.2776966831557313,0.39123803935576007,,,0.5068466436745385,inf,,,0.843880912729839
650,,0.0,0.0,1.3738811756617273,1.2996843541998135,0.8853926188788851,0.28627225604745693,0.43090724204296216,,,0.5113665138247345,inf,,,0.8355906224296681
651,,0.0,0.0,1.230579577188063,1.2193924510260437,0.7878092867244659,0.31774016054271703,0.4626089663551111,,,0.41268473150466,inf,,,0.8688914319984287
652,,0.0,0.0,1.2662092256803004,1.2733292546171409,0.8432965760432979,0.26977653266073437,0.3948930684918524,,,0.49759852643134905,inf,,,0.8064201719320895
653,,0.0,0.0,1.596554524553375,1.5611817179392387,0.8581951856146821,0.31994512202916975,0.4540588599748444,,,0.5202020156036558,inf,,,0.7995851697205938
654,,0.0,0.0,1.6894594717994105,1.7059040654752844,0.42290866102363506,0.5011522309529601,0.45492904548729185,,,0.5490601803369085,inf,,,0.8956301108651568
655,,0.0,0.0,1.6941637856883414,1.6585631504670748,0.7096967860684361,0.2135993720306212,0.3333901162596239,,,0.42445136339222655,inf,,,0.7515167873409541
656,,0.0,0.0,1.7622475741784522,1.716931339438814,0.8488825640391573,0.1490590157586022,0.2569865467928271,,,0.5158180382284114,inf,,,0.8062306273611007
657,,0.0,0.0,1.709254497639742,1.673250667756214,0.8487074570850069,0.17626647075720792,0.30108501706059976,,,0.44694259446804574,inf,,,0.8495358665191284
658,,0.0,0.0,1.5527873043545213,1.5177877557460246,0.8419916024030341,0.12194116517265255,0.21448580559673897,,,0.40055318934786044,inf,,,0.770251463576445
659,,0.0,0.0,1.1978056414874092,1.0338281606182766,0.7228354928057527,0.7609547360145321,0.6803481170055631,,,0.5202020156036558,inf,,,0.9339815873870811
660,,0.0,0.0,1.2313723576836397,1.1329634297731115,0.519479986533253,0.6285303078209524,0.5696469036062123,,,0.524519217297268,inf,,,0.9392873630711999
661,,0.0,0.0,1.7315645026213375,1.7144709831905844,0.6999648725880395,0.31667812997813327,0.48583862362477964,,,0.44694259446804574,inf,,,0.8059551049047085
662,,0.0,0.0,1.0252432584194606,0.9959743366183079,0.2951573189617399,0.7732955646700932,0.9006309392526525,,,0.4928685327679205,inf,,,0.9458035963986957
663,,0.0,0.0,1.4880459851459331,1.4674632629842184,0.9318574578065298,1.164507132661128,1.3091626048374008,,,0.47824363442641393,inf,,,0.8275725165335115
664,,0.0,0.0,1.641540923291305,1.6270401496040228,0.9292291672808836,1.3905202225102924,1.7925338910491744,,,0.43586655696697996,inf,,,0.8675944615751323
665,,0.0,0.0,1.4761383438301416,1.4257717092509006,0.8452472965489062,1.519384369389174,2.154459362268798,,,0.48319206230712763,inf,,,0.8524376890583621
666,,0.0,0.0,1.7714478071399593,1.745016590350909,0.933441079427004,1.6494403710175207,2.0899944346993427,,,0.4576907132971797,inf,,,0.8777475407709104
667,,0.0,0.0,1.6223640495594571,1.6149770406094566,0.934630191440531,1.1839993056415807,1.6383309026533688,,,0.4928685327679205,inf,,,0.8120977237240705
668,,0.0,0.0,1.6616990425917848,1.6274513763155882,0.9635001344365801,1.2630977152157665,1.5852970000176572,,,0.4880666971167561,inf,,,0.8205312190833387
669,,0.0,0.0,1.0769722267549533,1.044763048111339,0.5088712883339361,1.321778254093243,1.324939465854859,,,0.5604843169999094,inf,,,0.9349376962538418
670,,0.0,0.0,1.7632272547282777,1.7378070207383653,0.9345111279078533,1.1257635174349263,1.5561639567619225,,,0.43586655696697996,inf,,,0.8794610455779581
671,,0.0,0.0,1.7590627841350386,1.7330123421532464,0.9064434907958984,1.855541485822987,2.636252376153581,,,0.4928685327679205,inf,,,0.8879634919908713
672,,0.0,0.0,1.6529187178072047,1.6431824443751906,0.905236145441893,2.0227100239117495,2.8139803918158273,,,0.5158180382284114,inf,,,0.8488661892948018
673,,0.0,0.0,1.7139752636242012,1.67241452378193,0.9583801135269859,2.139113460808362,2.6678577997177984,,,0.5451288209179292,inf,,,0.8588624448300817
674,,0.0,0.0,1.6094499316338748,1.5670649306704905,0.9526151266678028,1.7838319638122675,2.5818107821588057,,,0.3943459996787778,inf,,,0.8624335490427587
675,,0.0,0.0,1.7613530563338071,1.663347887791901,0.8942827887073412,1.1449796439202358,1.8861085628193137,,,0.47824363442641393,inf,,,0.8694098732570457
676,,0.0,0.0,1.5563021954928271,1.550224875825219,0.5564676947821476,1.2368945103905422,2.087808624637095,,,0.44694259446804574,inf,,,0.8516955770520959
677,,0.0,0.0,1.4558707148458805,1.4345405540015093,0.5633781100757436,1.151012696251944,1.207437295018297,,,0.5370774965580548,inf,,,0.881323969799449
678,,0.0,0.0,1.693806809919585,1.6765506910373578,0.8278724020726875,0.6412950576712627,0.8897524781797546,,,0.4629450596409901,inf,,,0.8221622112187907
679,,0.0,0.0,1.2322459396851264,1.18984268021272,0.6191508698928238,1.3241090087841636,1.1499801118886497,,,0.5490601803369085,inf,,,0.9485822606812634
680,,0.0,0.0,0.7662195535642271,0.7627231212955548,0.6005979494125019,1.5946833918690686,1.5620835795925567,,,0.2461092077232671,inf,,,0.955328525335269
681,,0.0,0.0,0.7662195535642271,0.6898968248541191,0.38805373171505403,1.51572615622776,1.2187132941555712,,,0.3116047106179316,inf,,,0.9592751743333416
682,,0.0,0.0,0.4201793366318975,0.38137063649521535,0.5567054132271576,1.6829276517672045,0.9989422196021662,,,0.5748741956352443,inf,,,0.951155402742977
683,,0.0,0.0,1.3878417051136642,1.392473910705559,0.7251061395584729,2.344633638675068,2.145094910357022,,,0.48319206230712763,inf,,,0.9466974855463555
684,,0.0,0.0,1.4277365051565123,1.4020021628194672,0.6248873923005664,1.7357241067129394,1.5250366183141488,,,0.552929491858785,inf,,,0.9549258935280229
685,,0.0,0.0,1.6903967126309571,1.643788019342355,0.7966358954107439,1.7514210048643264,1.5279428349253406,,,0.5370774965580548,inf,,,0.9489462745120397
686,,0.0,0.0,1.5812191776485836,1.5426630642614065,0.7560138305588622,2.1329858429461446,2.1415411922177436,,,0.5490601803369085,inf,,,0.9527277421697723
687,,0.0,0.0,1.6853940202413067,1.6493163725517823,0.6166108899772644,1.0784817728885434,0.6897614347353045,,,0.524519217297268,inf,,,0.9511885884859106
688,,0.0,0.0,1.5072538204576968,1.508693468298524,0.6920814334458167,1.223097501448917,0.8054948236265087,,,0.4880666971167561,inf,,,0.9468693302102342
689,,0.0,0.0,1.3806111715335025,1.389520382906584,0.5982547950930606,1.4780940246660046,1.00898468764681,,,0.45235697871908603,inf,,,0.9519478961665002
690,,0.0,0.0,1.692575929196668,1.6673124719258865,0.5838784471470311,1.553699847987993,0.8429306709289694,,,0.5158180382284114,inf,,,0.948643930684391
691,,0.0,0.0,1.6891512739893861,1.6791574436257741,0.6832011955420166,0.9131741794911599,0.8030107714603205,,,0.6008849035917525,inf,,,0.9485290461770136
692,,0.0,0.0,1.5090115465180172,1.491550390555381,0.8123543021668843,1.6280677557009473,1.283030012955135,,,0.4928685327679205,inf,,,0.9517558905436722
693,,0.0,0.0,1.5179861375209196,1.4673851717703643,0.6548006077500559,1.4363950044378895,1.0191836056612784,,,0.5370774965580548,inf,,,0.9510485643035707
694,,0.0,0.0,1.6626674815505154,1.6767793454742597,0.581788216460915,1.1965748328870207,0.8506499028889329,,,0.552929491858785,inf,,,0.9493426383492083
695,,0.0,0.0,1.6598912820040073,1.6595920516679916,0.6948957813906007,1.1117990412010952,1.0284296757467555,,,0.45235697871908603,inf,,,0.9457592080320175
696,,0.0,0.0,1.5981850566377167,1.5842299140196452,0.7018214867669044,1.5786211070684741,1.311736334724936,,,0.5641709578113449,inf,,,0.8956168696214942
697,,0.0,0.0,1.5147553495344104,1.506974952865673,0.8612555262265161,2.267451427596338,1.5158112312676373,,,0.552929491858785,inf,,,0.8853201751976929
698,,0.0,0.0,1.3263737988583464,1.2790498293495092,0.5554043699535574,1.409010942936541,1.1057606845221084,,,0.5567373465730988,inf,,,0.9384724162021166
699,,0.0,0.0,1.3503682973038238,1.3177101921239303,0.3649181464741028,1.6149577898623866,1.3758418672628954,,,0.5641709578113449,inf,,,0.6056762776484396
700,,0.0,0.0,1.376058510952378,1.3492451103891734,0.6764852935693926,2.255988677352098,1.9247680265290619,,,0.23718601089358102,inf,,,0.922555728769827
701,4.9444093264385875,-4.9444093264385875,0.0,1.376058510952378,1.347889226745523,0.6745164611151001,2.3816647230048975,1.315294479346881,,,0.3116047106179316,4.932132232608312,inf,,0.747973032091738
702,4.9781077452250795,-4.9781077452250795,0.0,1.376058510952378,1.3916552967193891,0.7544137212588067,3.171094287678176,2.0217193309545873,,,0.2961247884481232,4.955515994875176,inf,,0.7494089850534139
703,,0.0,0.0,1.2987632186734153,1.250183198528632,0.6272785415591615,2.1580487142133857,1.8869807284259825,,,0.4928685327679205,inf,,,0.9222664944632951
704,5.703782474656201,-5.000315969448603,0.0,1.5378971130099626,1.5383474243684836,0.5508776589422104,2.743375210900036,2.5963660150198637,,,0.5677978065141052,5.835410917134637,inf,,0.9336636610889086
705,,0.0,0.0,1.6615695195929143,1.6042558697541744,0.5710253707549416,1.7223502313945473,0.9534119692107359,,,0.5451288209179292,inf,,,0.5980529097272848
706,,0.0,0.0,1.636735969565421,1.6221443508977111,0.6886751007864946,1.4719679709700897,0.624540831044496,,,0.5677978065141052,inf,,,0.9424350115454259
707,,0.0,0.0,1.4468126868930558,1.4610390707585108,0.6749987919310726,1.4616629389359637,0.6166971233304079,,,0.5567373465730988,inf,,,0.9544245414097241
708,,0.0,0.0,1.669121880677527,1.6108320537817473,0.6990094729395487,1.9368967074561312,0.7534928572830482,,,0.5068466436745385,inf,,,0.9451917388502789
709,,0.0,0.0,1.6907133288677039,1.6892842650687556,0.5628664705542589,1.7983022732550427,1.0933718521373397,,,0.581717464821069,inf,,,0.8584989812667732
710,4.0943445622220995,-4.0943445622220995,0.0,1.4365579825067154,1.4261016550369316,0.6700997899303675,2.605298658565046,0.989210110486693,,,0.5783247308855777,4.0943445622221,inf,,0.788522715543782
711,3.9120230054281455,-3.9120230054281455,0.0,1.2116917982916058,1.1686858382557481,0.6621000525470906,2.9641201432097413,1.7551062248474407,,,0.5641709578113449,3.912023005428146,inf,,0.5423503235482797
712,3.9247855144037227,-3.9247855144037227,0.0,1.6532529082664797,1.6105038020273201,0.7573593343146724,3.2312585039881205,2.090604225680862,,,0.5287703885177266,3.923758261646567,inf,,0.6443210274486509
713,4.31748811353631,-4.31748811353631,0.0,1.5130190268899655,1.499727821518644,0.639480893428603,1.9768436914287453,0.9513679022543355,,,0.5329562494928909,4.31748811353631,inf,,0.6081394585957837
714,5.7037824746562,-5.7037824746562,0.0,1.4008104989769667,1.3748292842106071,0.5783278283118124,2.126518776280504,0.9752043635185763,,,0.5158180382284114,5.703782474656201,inf,,0.7456417765114705
715,3.718228586718874,-3.718228586718874,0.0,1.6573338457869167,1.649829163606172,0.6395406066493418,2.1229905184452824,1.100137428219457,,,0.49759852643134905,3.714995301244496,inf,,0.6028113151860658
716,4.605170185988091,-4.605170185988091,0.0,1.3708718592868576,1.37114330223719,0.5558818730194475,2.038665367807128,0.8703546879112509,,,0.468121228110369,4.605170185988091,inf,,0.5299222016514944
717,3.9120230054281455,-3.9120230054281455,0.0,1.6740466652564534,1.6624745631855353,0.6878990348207924,1.957306304529184,0.8506886343545426,,,0.5604843169999094,3.912023005428146,inf,,0.5955458750732818
718,5.7037824746562,-5.7037824746562,0.0,1.1143163325659553,1.0839805472519903,0.6365038885587756,2.3249867817984318,1.6321024716170736,,,0.5113665138247345,5.703782474656201,inf,,0.5531129281440621
719,4.31748811353631,1.3829554598543767,-5.700443573390687,1.497335967239134,1.4223836729954082,0.43406995200571746,1.107709627116969,0.4944542233508322,1.382955459854376,,0.552929491858785,4.31748811353631,1.3896332623854053,inf,0.5762865746176169
720,4.605170185988091,-4.605170185988091,0.0,1.6749180128768306,1.6227239140934686,0.595133970485131,1.6878863957765102,0.6611666135550658,,,0.552929491858785,4.605170185988091,inf,,0.6538947919205585
721,,0.0,0.0,1.567620533152369,1.5938236021420376,0.5437740430499671,1.3358462649729765,0.6143081353087119,,,0.4928685327679205,inf,,,0.9041341956908385
722,4.326997364476147,-4.326997364476147,0.0,1.2770541411164182,1.2085071309925008,0.744877617128716,2.3194179528353596,0.7466924326178241,,,0.5748741956352443,4.323338527214486,inf,,0.9157278643238387
723,,0.0,0.0,1.6529347761046957,1.6650648122902505,0.5889622065159197,1.8076659783955777,1.1242600663276807,,,0.49759852643134905,inf,,,0.5732288537289295
724,5.371071827987426,-5.371071827987426,0.0,1.648563848578092,1.5896572920282097,0.5838240058045021,1.6492785814917301,0.6693587205291562,,,0.47824363442641393,5.311740386880177,inf,,0.8330958900522557
725,,0.0,0.0,1.0934070370335016,1.0770603771229688,0.45538092821104226,1.5815964539164327,0.952780765554188,,,0.5202020156036558,inf,,,0.8574592740190835
726,5.061466087337317,-5.061466087337317,0.0,1.6512643702072871,1.6084275744096574,0.6818233758585119,2.38612901376036,1.5375033863118222,,,0.5329562494928909,5.047991080640025,inf,,0.6954386472926236
727,5.010635294096255,-5.010635294096255,0.0,1.597981817205408,1.5756125351901082,0.601248162581775,2.320248037902576,1.755633099650312,,,0.5783247308855777,5.0106352940962555,inf,,0.7785144332941802
728,,0.0,0.0,1.5658932088019182,1.5714802904339475,0.6319280193585642,1.6368556391849618,0.8234553477515252,,,0.5567373465730988,inf,,,0.9368862267112992
729,5.703782474656198,-1.0266808454381158,0.0,1.482195241231298,1.3969024089040036,0.6784990481351992,1.7879809290441573,0.6910128143660368,,,0.5641709578113449,7.418580902748128,inf,,0.9465998793696415
730,,0.0,0.0,1.4279060192851414,1.425447734025409,0.3821974858093646,0.9810822936194737,0.6344217449952887,,,0.541134803179459,inf,,,0.6470458218007092
731,,0.0,0.0,1.6070510741058546,1.596790975094807,0.674906497103994,1.3551803109062217,0.5985065885328085,,,0.5329562494928909,inf,,,0.6321730590778813
732,5.7037824746562,-3.023004711567786,0.0,1.639002903196353,1.6429973779388647,0.4911674145014802,1.3278819962636594,0.4895335172285047,,,0.4629450596409901,6.33866074709217,inf,,0.6930567802429758
733,,0.0,0.0,1.5468476114723342,1.5243470182740748,0.3439189558428878,2.2696286947517077,1.7391054856491972,,,0.5748741956352443,inf,,,0.7437434424650943
734,4.234924999550052,-4.234924999550052,0.0,1.6238151411170956,1.6044134871900366,0.5656359622671541,2.943157113019013,1.5640211979210323,,,0.47824363442641393,4.229019465548702,inf,,0.8592536872425877
735,,0.0,0.0,1.5109807445301533,1.485431343941384,0.49617883337262086,1.5448081785177645,0.9334750844397415,,,0.5370774965580548,inf,,,0.9522702620618346
736,5.010635294096255,-5.010635294096255,0.0,1.6398213417161516,1.625212193736844,0.6569053520612115,3.04871502953781,2.1599509634103797,,,0.581717464821069,5.0106352940962555,inf,,0.714120416173839
737,,0.0,0.0,1.444958732853844,1.4211962506411406,0.7678828871586392,2.6998913503231354,1.6852219321883082,,,0.4066654671944331,inf,,,0.8608775409092226
738,4.25149756134752,-4.25149756134752,0.0,1.4185315658852886,1.4037532016463874,0.47243536827223337,2.170648055719665,1.8023404619509527,,,0.5677978065141052,4.245167451956684,inf,,0.6681635342148585
739,5.7037824746562,-5.7037824746562,0.0,1.6307112999463704,1.6479979158911215,0.7161325412210556,2.496593860035922,1.9180024270994225,,,0.6008849035917525,5.703782474656201,inf,,0.6197143116431018
740,5.010635294096255,-5.010635294096255,0.0,1.6006038963607976,1.5977231829702292,0.5730971018578508,2.0841671885937876,1.5477375847193047,,,0.5883313578629602,5.0106352940962555,inf,,0.6406132785027331
741,5.7037824746562,-5.7037824746562,0.0,1.178034308906205,1.1251572813002348,0.6276353618937902,1.5121664933666268,0.8400183314306147,,,0.5677978065141052,5.703782474656201,inf,,0.6707552174609557
742,5.7037824746562,-2.965966886821224,0.0,1.5899445347828705,1.5732494883076242,0.5569979385536329,2.184702337157634,1.1752033592808209,,,0.5451288209179292,6.357708942062865,inf,,0.8886978304949632
743,,0.0,0.0,1.4622564855696982,1.444228158507597,0.760943951304605,2.5460376577687325,2.157442298967749,,,0.5677978065141052,inf,,,0.9425601751593918
744,,0.0,0.0,1.144689509726543,1.0814755188895027,0.7252944592804802,1.980492727678696,1.3524559548159603,,,0.6333676938231112,inf,,,0.9408361987793967
745,5.7037824746562,-5.7037824746562,0.0,1.6261962771358842,1.620926773938743,0.6465111607937007,1.806057712205519,1.0118526483413222,,,0.5783247308855777,5.703782474656201,inf,,0.6712333923904411
746,,0.0,0.0,1.6113616769501815,1.5910846078195207,0.3797501506834434,0.8878676764312111,0.5948395415939668,,,0.5022576003740722,inf,,,0.9115345546236379
747,,0.0,0.0,1.5751802492400457,1.5514705466816099,0.2756477736839544,1.207650554568489,0.7298108923352054,,,0.5287703885177266,inf,,,0.7398884096967728
748,,0.0,0.0,1.5866507433263202,1.5525169910271557,0.5026814398402019,0.9045926105263918,0.6205453653800049,,,0.5287703885177266,inf,,,0.7888061073812161
749,,0.0,0.0,1.7306468628479879,1.674775212414841,0.7517648683310427,1.7386708381226534,1.0590073857110118,,,0.5287703885177266,inf,,,0.9007597741421636
750,,0.0,0.0,1.5021428975159188,1.4819275100343619,0.7130821351044394,1.334921365781809,0.4433528458827123,,,0.5641709578113449,inf,,,0.9425288871875757
