,bvp+temp_XAp0,bvp+temp_XAp1,bvp+temp_XAp2,bvp+temp_XCond1,bvp+temp_XCond2,bvp+temp_XDist,bvp+temp_XFuzz1,bvp+temp_XFuzz2,bvp+temp_XK2_1,bvp+temp_XK2_2,bvp+temp_XPermEn,bvp+temp_XSamp0,bvp+temp_XSamp1,bvp+temp_XSamp2,bvp+temp_XSpec
0,,0.0,0.0,1.2757124319458486,1.2556130949719524,0.6895913721010236,1.1419816268828233,1.1152165217434473,,,0.5068466436745385,inf,,,0.9505555770766628
1,,0.0,0.0,1.4827364546082018,1.4651736461142473,0.8305711089601009,1.5752121771352163,1.5240697951262057,,,0.524519217297268,inf,,,0.9382545572947677
2,,0.0,0.0,1.5030345441183512,1.4694600008707217,0.699390680055893,1.9709857462769318,1.7264518132276294,,,0.49759852643134905,inf,,,0.9434578730712374
3,,0.0,0.0,1.6932832705389218,1.669839770217503,0.8236087269126342,1.9563824379109942,1.4455578906752842,,,0.4928685327679205,inf,,,0.9425438020370477
4,,0.0,0.0,1.5209894844022644,1.4910028595185378,0.8113877641248262,2.0154959344159913,1.616305515627328,,,0.5022576003740722,inf,,,0.9270635555631453
5,,0.0,0.0,1.6983582330163314,1.679753608972961,0.7279725207836171,1.5235291212850623,1.6054171187872128,,,0.5022576003740722,inf,,,0.9190229992334431
6,,0.0,0.0,1.7680500992840533,1.7422898791941384,0.7446053404555786,1.5841954733695331,1.4999270464456016,,,0.5158180382284114,inf,,,0.950416235003062
7,,0.0,0.0,1.6009131314753346,1.5993248841136731,0.7600213465894397,1.2799451537315787,0.9103892474548938,,,0.5158180382284114,inf,,,0.9103539261795145
8,,0.0,0.0,1.4022831793262858,1.4070773694395078,0.5990299554574702,1.5210526244216345,1.905095929825664,,,0.541134803179459,inf,,,0.8962852707928176
9,,0.0,0.0,1.6151074836253339,1.6086899457371497,0.7006914366981,1.3924208466989656,1.2739161087354132,,,0.5604843169999094,inf,,,0.9343969400336221
10,,0.0,0.0,1.6643795008015123,1.6864919213550293,0.8192409997358425,1.6985158915963314,1.9799101784077013,,,0.48319206230712763,inf,,,0.9510628416816254
11,,0.0,0.0,1.5329390365303568,1.4967453768055825,0.7830025142770548,1.8905226147740046,2.193670246594211,,,0.541134803179459,inf,,,0.9505503310561271
12,,0.0,0.0,1.6518984515530803,1.650968461503492,0.6462313310880444,1.5349289801264725,1.869717665296442,,,0.5329562494928909,inf,,,0.9236326388995967
13,,0.0,0.0,1.6066046146506374,1.5740016509612624,0.7031215703672855,0.8656349579586294,0.7440332516656278,,,0.5490601803369085,inf,,,0.9461832921010718
14,,0.0,0.0,1.7242640117087251,1.7154785333851479,0.6435678163841438,0.5492601266501512,0.5982232001537164,,,0.48319206230712763,inf,,,0.9379204952711541
15,,0.0,0.0,1.5876262831308705,1.6134802489278244,0.6904962913871866,0.329053599922931,0.5111080904056229,,,0.4576907132971797,inf,,,0.9412922154477901
16,,0.0,0.0,1.6412298312386004,1.623529238467051,0.7838490459873882,0.43811589184555233,0.6032177208016595,,,0.43586655696697996,inf,,,0.9464407834677172
17,,0.0,0.0,1.489082147390096,1.4625664736776876,0.6815400576090185,0.807772800784112,0.908399235496953,,,0.5068466436745385,inf,,,0.9493681189001925
18,,0.0,0.0,1.772155024232407,1.6600839359614692,0.7197138181729048,0.8402575197091732,1.0145942273992745,,,0.5158180382284114,inf,,,0.9370385615514437
19,,0.0,0.0,1.6845129579372689,1.660419669680525,0.7767854410966583,0.5605439164478726,0.9883975557228707,,,0.4302020962658841,inf,,,0.9064821590072806
20,,0.0,0.0,1.1835153261315194,1.178777712263991,0.4806196236812278,0.4065042879973089,0.5599457059088371,,,0.468121228110369,inf,,,0.9345545737337406
21,,0.0,0.0,1.6749340008430191,1.6049767750752553,0.5432297156522685,0.48859882656271525,0.6688540116710224,,,0.47824363442641393,inf,,,0.9373663065121554
22,,0.0,0.0,1.7550207697161992,1.6854807109085335,0.7757423620236011,0.9956981278387106,1.0218665140560999,,,0.5287703885177266,inf,,,0.9364867433460051
23,,0.0,0.0,1.7012898664027776,1.7032365947932715,0.7992461818010655,1.605727864768154,1.1984097358034336,,,0.524519217297268,inf,,,0.9130906364151604
24,,0.0,0.0,1.5560466845236551,1.4934716501000949,0.6375805409044715,0.9482248239419366,0.9710391842351292,,,0.44694259446804574,inf,,,0.8568230998118729
25,,0.0,0.0,1.6332615180731764,1.5927043907881049,0.789513908756699,0.6453310797392082,0.6360525207821245,,,0.5329562494928909,inf,,,0.8858407576813125
26,,0.0,0.0,1.7439773067696687,1.6908775723348881,0.77824240212804,1.0664369791066284,1.180949756062209,,,0.5287703885177266,inf,,,0.9429830273852475
27,,0.0,0.0,1.536887533976221,1.4933059836163438,0.7590218535348824,1.8834773264293725,2.4242206375237974,,,0.5202020156036558,inf,,,0.8973375779342854
28,,0.0,0.0,1.61382600872232,1.5788849868531907,0.7856995319559298,1.8642402012387185,1.772158406175479,,,0.585052858160615,inf,,,0.9159152263003907
29,,0.0,0.0,1.6311434203145916,1.595872599792527,0.6643781967281099,1.9856848937057354,2.550654132274847,,,0.552929491858785,inf,,,0.9431326001029885
30,,0.0,0.0,1.540784568258617,1.5167301715969945,0.7947968994238439,2.144933431315835,2.3894695140478195,,,0.541134803179459,inf,,,0.9311700010275403
31,,0.0,0.0,1.5563530068545304,1.520341182466541,0.8636214618637288,1.9153017350827337,2.0482779619722686,,,0.49759852643134905,inf,,,0.9407686718356036
32,,0.0,0.0,1.2374749936944793,1.196546967013938,0.8399314879694507,1.672555700855404,1.4053787435203866,,,0.5329562494928909,inf,,,0.918161249978786
33,,0.0,0.0,1.6384926813457814,1.6052323438870215,0.8085945384982253,1.8197557836919886,2.0367917180376622,,,0.5451288209179292,inf,,,0.9204734824320785
34,,0.0,0.0,1.2292745686187108,1.1569022029245986,0.844758417790374,1.607961278619607,1.792105978352542,,,0.5370774965580548,inf,,,0.8651909970187684
35,,0.0,0.0,1.696362873914839,1.6541449337248422,0.8068151217116774,1.2285618931898161,1.5031186727816697,,,0.5113665138247345,inf,,,0.8735272765896556
36,,0.0,0.0,1.5942910799590955,1.525067767364838,0.8623210462734093,0.9752651666924395,1.1874894678018828,,,0.4928685327679205,inf,,,0.9419761717254846
37,,0.0,0.0,1.5198656515911788,1.5095870691351827,0.7579206838354335,1.4329555138236534,1.4844688472312493,,,0.5113665138247345,inf,,,0.9267594912002499
38,,0.0,0.0,1.6501123176737216,1.602657392508041,0.7640602945845849,1.5777416911181974,1.1866494383979076,,,0.5567373465730988,inf,,,0.9377790468991258
39,,0.0,0.0,1.3235138624655887,1.312902296871801,0.8729640468178642,1.7950770077626943,1.6431940566313747,,,0.5287703885177266,inf,,,0.941955356477299
40,,0.0,0.0,1.5552107555824726,1.5450873635358136,0.8428546347695635,1.7811462344431142,2.060956335861719,,,0.5748741956352443,inf,,,0.9333437120117903
41,,0.0,0.0,1.6834639372657785,1.6724135804630313,0.7786340738241679,2.0379182159636207,1.7891550195330952,,,0.5978297680564633,inf,,,0.9240732447232949
42,,0.0,0.0,1.641062089185734,1.6389524421094233,0.7359444550266014,1.2738814161478627,0.975463126085589,,,0.5113665138247345,inf,,,0.942400231370524
43,,0.0,0.0,1.5538675381037834,1.5364134201469062,0.7813404993621754,1.960532844732599,1.7759568557497076,,,0.5068466436745385,inf,,,0.8955583387039933
44,,0.0,0.0,1.6849581510709517,1.6944292049987937,0.7374003567533335,1.4201417183743583,1.5868042580017276,,,0.5490601803369085,inf,,,0.8375481111253446
45,,0.0,0.0,1.6839903294610319,1.6599606649021812,0.8254142368807763,1.789385499393182,2.1310225131458687,,,0.552929491858785,inf,,,0.9083092953897537
46,,0.0,0.0,1.6496010004898427,1.633021147152841,0.7523579150259339,1.4565378831483624,1.3431903937602674,,,0.5883313578629602,inf,,,0.9454720203037975
47,,0.0,0.0,1.670434330644045,1.6760542672962466,0.6838547800488777,1.3899408560320732,1.2372444614625322,,,0.5451288209179292,inf,,,0.949250872560901
48,,0.0,0.0,1.5030712344148314,1.5096146473883787,0.825464442988865,1.6816910874821591,1.7178503503782168,,,0.5713653840954815,inf,,,0.941047731596891
49,,0.0,0.0,1.6550918890831805,1.6381805932178062,0.720182021432511,1.9547547707813375,1.619099414934682,,,0.5915533975974677,inf,,,0.9204328117796717
50,,0.0,0.0,1.6083677453280525,1.582121653304584,0.7044616460778377,1.9448579283644796,1.9570214534457087,,,0.5158180382284114,inf,,,0.9322812506120325
51,,0.0,0.0,1.771733907118813,1.7417269374560587,0.8124158206735737,1.6182639106551298,2.2128816194715784,,,0.5329562494928909,inf,,,0.8937240799448967
52,,0.0,0.0,1.6993791185001528,1.639737835862939,0.8403389524545233,1.7230599660003365,2.1544686517154714,,,0.5370774965580548,inf,,,0.9268742355264549
53,,0.0,0.0,1.4929833479735612,1.4398254894527749,0.7538249596198388,1.7569407504097216,2.3004715763306187,,,0.5883313578629602,inf,,,0.9316512637389203
54,,0.0,0.0,1.7262497812547664,1.6577870973129867,0.9139669352177401,1.382670190782976,1.862452920185001,,,0.5713653840954815,inf,,,0.897541519096461
55,,0.0,0.0,1.4406041510604155,1.4140904420816691,0.7446089305247343,1.7560219092717924,2.0134366953110616,,,0.4928685327679205,inf,,,0.8912650629503885
56,,0.0,0.0,1.5873740731881298,1.5042020465687918,0.7507772906085305,1.6850192940577753,1.9854508824601833,,,0.5567373465730988,inf,,,0.9430147956690633
57,,0.0,0.0,1.6759144632778833,1.654410331676692,0.7725795606525057,1.3434720762455679,1.6674236223901597,,,0.4928685327679205,inf,,,0.9143790490268336
58,,0.0,0.0,1.5534785293505562,1.5028507281604555,0.8762694577226625,1.1572133035773033,1.2652300587898822,,,0.5068466436745385,inf,,,0.8723754761143082
59,,0.0,0.0,1.4802815761473345,1.4400152893130265,0.9465137870732602,1.8809137438342274,2.211604921047828,,,0.5068466436745385,inf,,,0.9300258543356467
60,,0.0,0.0,1.7110950770931854,1.728050603868377,0.896181118553686,2.070215103756418,3.2031021543220457,,,0.524519217297268,inf,,,0.937060809148386
61,,0.0,0.0,1.7279388713176578,1.6878113850777852,0.8688281798480586,1.7833727809092161,2.285668078962529,,,0.44694259446804574,inf,,,0.9412187487957628
62,,0.0,0.0,1.4666554115002388,1.441421608900246,0.7621678972354423,1.7184437135936983,1.9689653159965643,,,0.4880666971167561,inf,,,0.9198812583723369
63,,0.0,0.0,1.513962521042786,1.4911905421314375,0.788243454118803,2.2162216720632273,1.6836250692170585,,,0.5370774965580548,inf,,,0.9215358000301854
64,,0.0,0.0,1.6762805041455755,1.6523913628662668,0.8324343148223851,1.8193975092785717,2.401615567648194,,,0.5202020156036558,inf,,,0.94515421849376
65,,0.0,0.0,1.7534395255477353,1.7396217203815185,0.7707123953688019,1.5966557524190639,1.2177826623180676,,,0.5567373465730988,inf,,,0.9438346354968216
66,,0.0,0.0,1.725946865506211,1.6835255967312877,0.7278574130293654,1.8060328250161426,1.914845546267392,,,0.49759852643134905,inf,,,0.9449843706169133
67,,0.0,0.0,1.5415469577301404,1.509470757374056,0.8129458812354574,1.8560698187448281,1.9531957653797598,,,0.5068466436745385,inf,,,0.9483024783998583
68,,0.0,0.0,1.6582618383893997,1.6205273462360927,0.891104908769504,2.1843821194868194,1.9412683118624225,,,0.552929491858785,inf,,,0.924597930295245
69,,0.0,0.0,1.544640402164393,1.5078737762365453,0.7605271973927413,1.8628221941359695,2.197939090031895,,,0.5202020156036558,inf,,,0.9315068052383242
70,,0.0,0.0,1.6418116926419875,1.635147481453745,0.7919830702001491,2.146847564658802,2.8760605174016987,,,0.5113665138247345,inf,,,0.9364406671213326
71,,0.0,0.0,1.7690277501587444,1.699848036293454,0.678959045091216,2.028135452531862,1.9227545189580288,,,0.5641709578113449,inf,,,0.9354098909725085
72,,0.0,0.0,1.6803533790654748,1.6723279414582224,0.7986356248552717,1.8647768239305877,2.486339775160987,,,0.5783247308855777,inf,,,0.884692228686431
73,,0.0,0.0,1.690358858305134,1.6496551306064973,0.7425771556813625,2.3323679898334144,2.616193927379398,,,0.5451288209179292,inf,,,0.9015177705026033
74,,0.0,0.0,1.5143906618003162,1.47326575400208,0.8416813812221761,1.8301574719497884,1.910701029010707,,,0.524519217297268,inf,,,0.9502226512364516
75,,0.0,0.0,1.5436501349353806,1.5322206631256365,0.6888714221862446,1.607744667198196,2.406050495077218,,,0.5113665138247345,inf,,,0.906155624995736
76,,0.0,0.0,1.730891447551694,1.7120128112773692,0.7349054304922533,1.6822230893717,2.0742198715223896,,,0.44694259446804574,inf,,,0.9042548183854189
77,,0.0,0.0,1.6341657686373288,1.5897339247968947,0.7981929208057341,1.9564699093145985,2.345769680298412,,,0.552929491858785,inf,,,0.9235717926289817
78,,0.0,0.0,1.7049734840055355,1.6995128107413966,0.8854460065333069,1.898347625602906,1.8235877635562265,,,0.5202020156036558,inf,,,0.8990426755838473
79,,0.0,0.0,1.584622440014191,1.577525074987165,0.8506880122455088,1.6367694991546022,1.958035952566778,,,0.581717464821069,inf,,,0.9369664724216498
80,,0.0,0.0,1.3550284917509308,1.3124274586309996,0.7774198517037835,1.3528908342426607,1.3852551084217632,,,0.44144624493110796,inf,,,0.9385710573423012
81,,0.0,0.0,1.6671849001182903,1.6484837295804762,0.8234355624733599,2.001436931323248,1.404795456201872,,,0.5022576003740722,inf,,,0.9519197728978896
82,,0.0,0.0,1.557539135259247,1.5197077570027928,0.849059011957261,1.6213870698499966,1.5644574088831733,,,0.5202020156036558,inf,,,0.9492124428945822
83,,0.0,0.0,1.6010703010123128,1.5745441573304326,0.6956140074891994,1.2766965938541175,1.4914703129012532,,,0.552929491858785,inf,,,0.9514602521908174
84,,0.0,0.0,1.7314681525944688,1.698584289896377,0.7108422844349634,0.9260389672786699,1.1347897936467264,,,0.5202020156036558,inf,,,0.9129432172037024
85,,0.0,0.0,1.6414750454244955,1.5923035932355079,0.7671405790312432,1.4069153267282375,2.1396242111405264,,,0.4880666971167561,inf,,,0.9371603193633885
86,,0.0,0.0,1.6395853156039712,1.6235848991856034,0.8340699494606119,1.2318935874204018,1.7878899499529919,,,0.5068466436745385,inf,,,0.889688400828109
87,,0.0,0.0,1.4408900218662088,1.4366597780482704,0.8443506050893328,1.1752987644411157,1.6328222236190866,,,0.4928685327679205,inf,,,0.8736899463657237
88,,0.0,0.0,1.755641025591006,1.7445640764679935,0.6524392276990284,1.0374211108119213,1.2509078458098193,,,0.4880666971167561,inf,,,0.9321781937932988
89,,0.0,0.0,1.482343154371167,1.4468241158210577,0.8303988819089859,1.3114610529922317,1.7620601253878696,,,0.5202020156036558,inf,,,0.9167701872933017
90,,0.0,0.0,1.699124659517859,1.6463210642948822,0.6977231651642981,1.137145745664309,1.3483208920048788,,,0.5068466436745385,inf,,,0.9417898366179318
91,,0.0,0.0,1.5513890798213414,1.496700870257047,0.9408899556947002,0.8011266540072449,1.378739034912491,,,0.5451288209179292,inf,,,0.9098642403019157
92,,0.0,0.0,1.7145730179553809,1.6921194983947985,0.9550755069355259,1.2098103752154425,2.2108435846779204,,,0.541134803179459,inf,,,0.9056385099827475
93,,0.0,0.0,1.7349277231530715,1.750844186074259,0.7518886133685307,1.184115815271004,2.1775670577237722,,,0.44144624493110796,inf,,,0.9113237090714837
94,,0.0,0.0,1.7655324700804735,1.717535839354572,0.9408595501300862,1.2672436639623559,2.234835930384585,,,0.5713653840954815,inf,,,0.9004186462203542
95,,0.0,0.0,1.6633764739395995,1.649049986708247,0.901197737789337,1.3604076260290487,2.6044364123442056,,,0.5113665138247345,inf,,,0.8897306715022654
96,,0.0,0.0,1.5867026533429034,1.5172136791282442,0.8694876346127624,1.6319735037087861,2.1751153659354214,,,0.541134803179459,inf,,,0.8903606047347618
97,,0.0,0.0,1.4025350208860805,1.3762732929821622,0.7475464218100204,1.680700186080449,2.3693835565173904,,,0.5370774965580548,inf,,,0.9225346615123129
98,,0.0,0.0,1.5575022572867787,1.546375649462894,0.8960324625808762,1.2932919557122668,2.4549857333836727,,,0.48319206230712763,inf,,,0.8852949247913365
99,,0.0,0.0,1.568687647372014,1.5609817424600634,0.940583247016343,1.355155180254834,3.125610076694114,,,0.47824363442641393,inf,,,0.8660986452108987
100,,0.0,0.0,1.567019048242714,1.5247501835475004,0.9206328739930195,1.3682870534531986,3.3967084192474104,,,0.45235697871908603,inf,,,0.8498495965312549
101,,0.0,0.0,1.7480103360612154,1.7266217386556328,0.8497556925522748,1.3597230765337385,2.6665789372833038,,,0.42445136339222655,inf,,,0.8354122584959984
102,,0.0,0.0,1.63287076531874,1.6440069239211796,0.6870535735120701,0.9544206422516797,1.4419535035060544,,,0.5329562494928909,inf,,,0.9115243719630628
103,,0.0,0.0,1.533668100329667,1.5466449756327112,0.6830285190364179,1.8977907354923658,2.248914171876112,,,0.4880666971167561,inf,,,0.9342160350433885
104,,0.0,0.0,1.476982883254017,1.4155046651052614,0.8918586985419702,1.834555337186807,2.7892377127486876,,,0.5022576003740722,inf,,,0.9106603852846056
105,,0.0,0.0,1.2851889382328485,1.2667913552437082,0.7272455730876382,1.8250121428566453,1.7982887908324898,,,0.524519217297268,inf,,,0.9222674732824507
106,,0.0,0.0,1.5556897177525943,1.4547916025529684,0.7224614209191916,1.1841952755580696,0.6919700041774619,,,0.49759852643134905,inf,,,0.947900151501469
107,,0.0,0.0,1.774676884685402,1.6883719786685896,0.9000178883542294,1.308403046869893,1.329168726207498,,,0.4928685327679205,inf,,,0.9120433421501525
108,,0.0,0.0,1.5484995583791197,1.4668753978942861,0.5867619555132857,1.8612724574745865,3.137290112806582,,,0.48319206230712763,inf,,,0.9200636203136275
109,,0.0,0.0,1.6769385284133267,1.6351083760660947,0.9700781428161175,2.5041024476257743,5.670327968716427,,,0.4880666971167561,inf,,,0.8533287386800409
110,,0.0,0.0,1.4521139426528038,1.4140122603758505,0.8549091954343603,1.6516999703955153,2.6624153906815122,,,0.5202020156036558,inf,,,0.8932248241048905
111,,0.0,0.0,1.7236369965305225,1.6980793124935385,0.9324868035433278,1.8970222615709853,3.118132290200995,,,0.468121228110369,inf,,,0.9023639927043772
112,,0.0,0.0,1.763082619237275,1.738884368555716,0.8719875076449941,1.4358592433405941,2.1107018390099004,,,0.5113665138247345,inf,,,0.9258518995164591
113,,0.0,0.0,1.6114331840517524,1.5746435247276733,0.907296505926327,1.2968002936268805,2.631199297196462,,,0.4732203808476458,inf,,,0.8555080705090425
114,,0.0,0.0,1.5855788740287957,1.56460272074314,0.6965489411263172,1.4874635212775715,1.7943432299470812,,,0.4732203808476458,inf,,,0.8820546185511158
115,,0.0,0.0,1.7417048599052245,1.7140823621210026,0.9302639928160313,1.9617810163150886,3.1133588316343057,,,0.5068466436745385,inf,,,0.7400917872727198
116,,0.0,0.0,1.407865327066369,1.4048900182064035,0.6986130775856809,1.3274860997462448,2.4308636146062623,,,0.5677978065141052,inf,,,0.9054300325993134
117,,0.0,0.0,1.629932147164053,1.5952006826183276,0.9391874576516595,1.8974658408569203,3.406745911054214,,,0.43586655696697996,inf,,,0.8780897773556134
118,,0.0,0.0,1.5796452237478056,1.5593957412152861,0.34010405893165385,1.3631748161918646,1.502508895634821,,,0.5883313578629602,inf,,,0.9507896120753511
119,,0.0,0.0,1.4406714679872499,1.3105491012959167,0.6225929493109098,1.002405160610401,1.439722828740034,,,0.5113665138247345,inf,,,0.9356667331310204
120,,0.0,0.0,1.041038953528004,1.0357586426607601,0.7520414776178868,1.0106820261515457,1.769806700828415,,,0.5068466436745385,inf,,,0.8484766787706128
121,,0.0,0.0,1.6081740693386202,1.5987538641333436,0.6824915884912943,1.5451445716218455,1.7828110263653132,,,0.5287703885177266,inf,,,0.9484207453647787
122,,0.0,0.0,1.6532086002727808,1.612583193979997,0.8391906656105164,0.46170532430983013,0.8400323604172414,,,0.4576907132971797,inf,,,0.9064299570054813
123,,0.0,0.0,1.690145053017384,1.6610820154293924,0.8513897155324665,0.300485853093693,0.6124902219886033,,,0.4629450596409901,inf,,,0.8678881274051378
124,,0.0,0.0,1.7524962726136768,1.7433771078408657,0.9551946813535283,0.25127812524460513,0.4910924989950024,,,0.4880666971167561,inf,,,0.8171658705314847
125,,0.0,0.0,1.6726642246648353,1.653810499895027,0.9235225131443734,0.25007422534917834,0.4847331073788109,,,0.38163879478178075,inf,,,0.8190592471100134
126,,0.0,0.0,1.5001760007209581,1.388760704450329,0.7768649599090284,0.34795336326571874,0.5173063285005928,,,0.48319206230712763,inf,,,0.8958766451744106
127,,0.0,0.0,1.7503139268329377,1.6912501599852106,0.6721651124256156,0.725555789575757,0.5891540424635113,,,0.4880666971167561,inf,,,0.9221416138749964
128,,0.0,0.0,1.5869738986710513,1.5784411349418004,0.36711878513263607,0.5928921570488924,0.6098557761963377,,,0.5202020156036558,inf,,,0.9386824049743592
129,,0.0,0.0,1.5896914523428263,1.5744923915609375,0.3939747097692747,0.3856032402436973,0.4554233010589177,,,0.44144624493110796,inf,,,0.9444220928601729
130,,0.0,0.0,1.6988069660942227,1.6763329591050562,0.8085482817037459,0.09198789295343247,0.16030254199531518,,,0.4576907132971797,inf,,,0.7232843292270951
131,,0.0,0.0,1.5035187213607153,1.4761209363464085,0.7216324382051187,0.07056026656290253,0.12212758171291853,,,0.5202020156036558,inf,,,0.7101465161863283
132,,0.0,0.0,1.5263154425692789,1.50059238913992,0.7847166636161919,0.07674927513554596,0.12167220178403376,,,0.4732203808476458,inf,,,0.7405158950028036
133,,0.0,0.0,1.5933023746822723,1.5765783568682592,0.7972424014762632,0.07235872264342048,0.1275546039943189,,,0.48319206230712763,inf,,,0.7275533624452261
134,,0.0,0.0,1.6518250879436664,1.6587122005979313,0.7799467851869717,0.08999467551903148,0.16086140751743178,,,0.4928685327679205,inf,,,0.7120997846233921
135,,0.0,0.0,0.9059003464460678,0.8271371612014579,0.4598547212966668,0.17895694451229532,0.21329238792186642,,,0.44694259446804574,inf,,,0.9025935690209803
136,,0.0,0.0,1.313758946330693,1.2867881482749715,0.8643024789924141,0.21585574741925465,0.3980163367439983,,,0.4302020962658841,inf,,,0.7878223547836379
137,,0.0,0.0,1.7762530662961455,1.7764673744302537,0.8552664339090679,0.16206599099852143,0.2940368736213921,,,0.49759852643134905,inf,,,0.7971950590722677
138,,0.0,0.0,1.5950098421033134,1.509511801939179,0.6731813845383734,0.26275754547661145,0.33272172792154053,,,0.4732203808476458,inf,,,0.8778975951620251
139,,0.0,0.0,1.5627019289403181,1.5547308835094404,0.4839524576870147,0.34900408532853927,0.382131559101927,,,0.4066654671944331,inf,,,0.9160878822127891
140,,0.0,0.0,1.6444415466321245,1.5957800980684356,0.6042000994684809,0.1516399440397682,0.17437147394257632,,,0.5329562494928909,inf,,,0.8710545276300521
141,,0.0,0.0,1.6448870265348137,1.6425860125440528,0.5495694948046159,0.19343607824360146,0.25734512692126776,,,0.4732203808476458,inf,,,0.8697094174516448
142,,0.0,0.0,1.4968159148159688,1.4472483478670515,0.5055948134865029,0.12287549199787344,0.18847978471854993,,,0.5567373465730988,inf,,,0.857646845089782
143,,0.0,0.0,1.5221290865432235,1.4178172533490059,0.528791732472187,0.42163868141130867,0.4822755856868513,,,0.44144624493110796,inf,,,0.9120259552310258
144,,0.0,0.0,1.709164792199949,1.6767156762188828,0.8274232939881855,0.29906300512067796,0.5038653772996575,,,0.4302020962658841,inf,,,0.7496094916195197
145,,0.0,0.0,1.7517262470158328,1.7077141255978199,0.7571463999674902,0.41247206886863164,0.677404918270873,,,0.5068466436745385,inf,,,0.7732998757029791
146,,0.0,0.0,1.4641512905111629,1.4188836640543319,0.6625067040920813,0.5260390299503823,0.5899862660925638,,,0.4880666971167561,inf,,,0.9055081223301592
147,,0.0,0.0,1.601191739695539,1.5722632528987137,0.48926196689950696,0.1405492472286982,0.1672529944399233,,,0.44694259446804574,inf,,,0.8779268992298565
148,,0.0,0.0,1.5027480508974145,1.4633319462129317,0.7841492729027738,0.10418110225465671,0.17686239546538834,,,0.4576907132971797,inf,,,0.8069004112093346
149,,0.0,0.0,1.5839484134817858,1.535932419707754,0.4737473689781064,0.19286257534079027,0.23163381544646308,,,0.47824363442641393,inf,,,0.8486865092542493
150,,0.0,0.0,1.7595035483481347,1.7332342750068164,0.8729068568260574,0.20275322118829583,0.3541010411594535,,,0.4928685327679205,inf,,,0.7387728154508387
151,,0.0,0.0,1.2068738925980902,1.1823536282394989,0.4193972980924233,0.21934659755189975,0.30075099982076126,,,0.47824363442641393,inf,,,0.8685862059605165
152,,0.0,0.0,1.7579749911474463,1.737023983521589,0.8139615645593137,0.0832215487436897,0.1535808920556343,,,0.5113665138247345,inf,,,0.7814987357188357
153,,0.0,0.0,1.6949885528316386,1.682348080812097,0.7706841017239164,0.0860531149826832,0.1560167873062746,,,0.524519217297268,inf,,,0.7495991757583333
154,,0.0,0.0,1.2633293994266042,1.2531210301226785,0.5934091290898218,0.19541661973046875,0.29978320977511236,,,0.468121228110369,inf,,,0.8507502578126928
155,,0.0,0.0,1.555905282585506,1.5166323087605276,0.8670093333062545,0.16463517490796784,0.29101604241776535,,,0.5022576003740722,inf,,,0.7938123683544496
156,,0.0,0.0,1.6396232270040427,1.6163937565666773,0.836633664935923,0.25200750874314337,0.3981018444569033,,,0.468121228110369,inf,,,0.7738356394828126
157,,0.0,0.0,1.5690589768395609,1.5615048423364697,0.8151302693120313,0.2787405328344292,0.4315227500424358,,,0.45235697871908603,inf,,,0.7734549228929904
158,,0.0,0.0,1.30171371383263,1.2882223591472604,0.7679562979712311,0.27155563085288975,0.4393819857001705,,,0.49759852643134905,inf,,,0.7826613646483042
159,,0.0,0.0,1.7315066992541526,1.7410528532827416,0.37785193775130127,0.45687929727786064,0.6219561778865235,,,0.48319206230712763,inf,,,0.9221075145731557
160,,0.0,0.0,1.69279988764309,1.6706394898630041,0.8344393001513905,0.2782791376981103,0.3754715086052035,,,0.41861278947482794,inf,,,0.8353338646219494
161,,0.0,0.0,1.4906007978777613,1.474811655406043,0.7856728024370017,0.6177717283594241,0.7768817473038501,,,0.581717464821069,inf,,,0.8296994061592755
162,,0.0,0.0,1.6738712898080028,1.6537918251667805,0.860055682105625,0.5123356522632921,0.663690603011444,,,0.47824363442641393,inf,,,0.7855367977870515
163,,0.0,0.0,1.578195460029129,1.5753632247121772,0.46061913648061686,0.6042413668683394,0.5619101032117191,,,0.4880666971167561,inf,,,0.9138210889049752
164,,0.0,0.0,1.6174284068135873,1.4656491801399176,0.6676861658557425,0.5744456165786133,0.41751200556585766,,,0.5068466436745385,inf,,,0.9106859352793648
165,,0.0,0.0,1.666765984670556,1.6311888925261504,0.6675953414156212,0.8155381378458744,0.5489556351120222,,,0.5287703885177266,inf,,,0.919232756778927
166,,0.0,0.0,1.6175541942938554,1.595041156129958,0.8510972176292516,1.4329697242249635,0.8495212986748344,,,0.5748741956352443,inf,,,0.8612864341948104
167,,0.0,0.0,1.5974357903818561,1.5953658840935978,0.6596344393282353,0.9158527250689821,0.875700040011097,,,0.41861278947482794,inf,,,0.7841827634159145
168,,0.0,0.0,1.6036264777544762,1.5952042070057604,0.5189934100090524,0.42376220803524683,0.37280621772774913,,,0.44694259446804574,inf,,,0.9202554393878872
169,,0.0,0.0,1.7679387142997238,1.7591185771645046,0.7048462131464357,0.6589520856203919,0.5109960518234217,,,0.4732203808476458,inf,,,0.9186530905594469
170,,0.0,0.0,1.7186058695280682,1.6635100959495317,0.64017147772064,0.7012706557476609,0.4029856963162487,,,0.5287703885177266,inf,,,0.8891087476784074
171,,0.0,0.0,1.7091656199012593,1.700079151867679,0.5358230490961492,1.0190333777226674,1.0471582079603035,,,0.5370774965580548,inf,,,0.8982897240695428
172,,0.0,0.0,1.5827197438105962,1.5395620246083472,0.72846787161059,0.7773319875307279,0.6653660039037567,,,0.47824363442641393,inf,,,0.9385475865278985
173,,0.0,0.0,1.5566267013481838,1.5438380353803354,0.7146540022179824,0.5287915010042772,0.494749638721503,,,0.5287703885177266,inf,,,0.9179062610605647
174,,0.0,0.0,1.6973161480973031,1.6440530734528138,0.7287435931019995,0.955648339823849,0.6901639860233661,,,0.4880666971167561,inf,,,0.9446624915798222
175,,0.0,0.0,1.3692561161739276,1.338857230811129,0.6963942601051206,0.7044931671907046,0.5246616576686866,,,0.4732203808476458,inf,,,0.9253186885493125
176,,0.0,0.0,1.5219930978673688,1.5374077284579093,0.6018308642056189,0.7678719203356433,0.5822063893645529,,,0.4928685327679205,inf,,,0.9457060009700847
177,,0.0,0.0,1.3899566844367488,1.3595318479114815,0.8372250815786819,0.5027791792947324,0.5204566497135251,,,0.49759852643134905,inf,,,0.9231211900776668
178,,0.0,0.0,1.6306153291411916,1.6128143486887394,0.5462382818748772,0.7986348324988884,0.7029279660925003,,,0.4629450596409901,inf,,,0.8480587680860958
179,,0.0,0.0,1.1157976398466356,1.0756849870883318,0.7345761874261628,1.0275930422812503,0.9275352842177742,,,0.5641709578113449,inf,,,0.850508109611219
180,,0.0,0.0,1.67660522005805,1.6216381801693642,0.6264661423267625,0.2781336528819501,0.31174063924693096,,,0.44144624493110796,inf,,,0.9131180261977788
181,,0.0,0.0,1.4675063814744578,1.440756511054507,0.47563064491743473,0.2897160391227299,0.2266594652991048,,,0.5329562494928909,inf,,,0.9211139372697067
182,,0.0,0.0,1.7100592516981354,1.612295650264895,0.7038832474575608,0.6748153702888212,0.42049498598021773,,,0.5113665138247345,inf,,,0.9345820974937731
183,,0.0,0.0,1.4577622834097248,1.4094252928025721,0.6002914999365475,0.5166734869025931,0.5422463233965928,,,0.4302020962658841,inf,,,0.9375370471969504
184,,0.0,0.0,1.4291029647598743,1.333742732780902,0.7541195587325692,0.8616721228854605,0.5986109038252587,,,0.43586655696697996,inf,,,0.9342502728603922
185,,0.0,0.0,1.651270461860651,1.603842263102575,0.7559619461775562,0.28855606445990195,0.30751822428622994,,,0.5202020156036558,inf,,,0.910010876049304
186,,0.0,0.0,1.650308647613107,1.684542798123898,0.7126712805047232,0.6405271652984952,0.48797283648313283,,,0.44144624493110796,inf,,,0.9234640296478263
187,,0.0,0.0,0.9887419476401202,0.9217222425000573,0.6275977493408867,0.4544221841456628,0.31654183619302256,,,0.5158180382284114,inf,,,0.895449617155292
188,,0.0,0.0,1.4668266694765155,1.4246561657972747,0.5553424723147554,0.3802962512530225,0.44088947398192563,,,0.5068466436745385,inf,,,0.8539138217119543
189,,0.0,0.0,1.3381485972468146,1.3221064338601014,0.8914022408797934,0.24145392103175392,0.4057305253809337,,,0.42445136339222655,inf,,,0.7167359628871781
190,,0.0,0.0,1.517723219707994,1.5035064290076245,0.7714354770380598,0.24995092792958723,0.4707433074075843,,,0.3480560589391537,inf,,,0.7445842976368445
191,,0.0,0.0,1.0515379285337216,1.0256237939836,0.7840405806886139,0.2764754466740114,0.5131114709191675,,,0.4302020962658841,inf,,,0.7093941536059433
192,,0.0,0.0,1.3230331638659067,1.3026179224669672,0.7773408802953543,0.25489699959336415,0.4942170411295842,,,0.5022576003740722,inf,,,0.7321563019144589
193,,0.0,0.0,1.6242946979695492,1.5958427137378906,0.8521810868689995,0.27076234268882354,0.5072392743658675,,,0.49759852643134905,inf,,,0.749178959444686
194,,0.0,0.0,1.2902841639801406,1.2483730370551442,0.714907656652514,0.46089120722570825,0.45237774586853524,,,0.468121228110369,inf,,,0.9286185877527358
195,,0.0,0.0,1.457977684193775,1.42530198232288,0.561564911375767,0.3384762204409441,0.3064108736627416,,,0.4928685327679205,inf,,,0.9219632073445977
196,,0.0,0.0,1.723308808312488,1.6841186396030898,0.776225572813757,0.6988987424559719,0.45505879071898414,,,0.49759852643134905,inf,,,0.9281913691506664
197,,0.0,0.0,1.5413837530515777,1.512830658652782,0.8232009369771605,1.250576863912056,1.1298689948830112,,,0.45235697871908603,inf,,,0.9370570758911126
198,,0.0,0.0,1.6549445346979645,1.6257059918077486,0.6967595279324064,0.3342807856349137,0.230648346397899,,,0.4732203808476458,inf,,,0.9074582568504634
199,,0.0,0.0,1.6495737711599727,1.6355649618368082,0.5900723525401388,0.26916601289614855,0.16436594071078375,,,0.5287703885177266,inf,,,0.9243718820285237
200,,0.0,0.0,1.736215861894749,1.7064821116416444,0.5784310421814297,0.3516047615691119,0.25238607443581984,,,0.3685265678147087,inf,,,0.9153477542903037
201,,0.0,0.0,1.7004450638436976,1.6535713838948682,0.6426113750406012,0.36248676586098894,0.3446677179164447,,,0.41861278947482794,inf,,,0.8961097959307868
202,,0.0,0.0,1.761971641335325,1.7284705630816075,0.42609332126253074,0.21278972711344238,0.17084834540958033,,,0.5022576003740722,inf,,,0.89748873331209
203,,0.0,0.0,1.4367381018306937,1.421042880326104,0.5302254757240213,0.2567004087367522,0.20664597619150288,,,0.5202020156036558,inf,,,0.9332837718785377
204,,0.0,0.0,1.5928779556928605,1.5929912171317622,0.454217733213029,0.4320398459204951,0.357556711819506,,,0.4576907132971797,inf,,,0.9431261584598631
205,,0.0,0.0,1.6149600070336645,1.6138178708279587,0.40946561920759267,0.25831534421668967,0.349627993070045,,,0.5022576003740722,inf,,,0.919696523019267
206,,0.0,0.0,1.6370819198416953,1.6300525825319774,0.5390147556804453,0.2964888947724751,0.287953010311177,,,0.4928685327679205,inf,,,0.8766532346048047
207,,0.0,0.0,1.6608420390206953,1.57237762377245,0.7310453074809052,1.0067823260979618,0.4123516487736749,,,0.541134803179459,inf,,,0.9140378442153506
208,,0.0,0.0,1.6658022645815431,1.6073247617100082,0.8130653013757132,1.4672430008287443,0.9551338763537716,,,0.5329562494928909,inf,,,0.9448609839934062
209,,0.0,0.0,1.7470416480098008,1.6913745140304894,0.8572394113634105,2.2177900997123774,1.4999083928230812,,,0.5713653840954815,inf,,,0.8878833047404278
210,,0.0,0.0,1.4829118289165262,1.485623261368917,0.35998993894455655,1.2466888835201921,1.0723376569797618,,,0.5370774965580548,inf,,,0.6171691478090998
211,,0.0,0.0,1.7061540215825923,1.6718543839704132,0.726179487610863,0.9824779666080868,1.0457838332343434,,,0.47824363442641393,inf,,,0.948620291215364
212,,0.0,0.0,1.559481734640487,1.561673353065518,0.7514881257123757,1.4244624514908637,1.0035154258650745,,,0.5202020156036558,inf,,,0.9500802534954116
213,,0.0,0.0,1.5584455411582723,1.5461110718607864,0.7636278838347413,1.8054425390451312,1.5849501957371255,,,0.552929491858785,inf,,,0.882994229983955
214,,0.0,0.0,1.374636626984132,1.3461451408465799,0.6995627364297274,0.6464933558999352,0.7400539026707899,,,0.49759852643134905,inf,,,0.8208510654992965
215,,0.0,0.0,1.7419065995613798,1.7408928712673526,0.7031249415921843,0.6547649150916294,0.45986485778501274,,,0.49759852643134905,inf,,,0.9255959402602472
216,,0.0,0.0,1.3175493490313532,1.2979945677067872,0.540397574623937,0.46290495603774406,0.4783226526682915,,,0.5068466436745385,inf,,,0.9197490746308471
217,,0.0,0.0,1.6510947390082884,1.642064872476153,0.4276112464427532,0.22422464288329894,0.2374375107535231,,,0.4629450596409901,inf,,,0.9448564449755322
218,,0.0,0.0,1.7370679209994566,1.740282476046241,0.6009599107898299,0.556423706251508,0.3478429043381627,,,0.5068466436745385,inf,,,0.9331383347210285
219,,0.0,0.0,1.5671452311006497,1.515382548157033,0.7081805844519672,0.5593185285667928,0.44051088644773384,,,0.541134803179459,inf,,,0.9092643247688027
220,,0.0,0.0,1.5058442731586095,1.4836920362803263,0.31686618202074074,0.42491254970282255,0.3972907128394375,,,0.5287703885177266,inf,,,0.9651349612592525
221,,0.0,0.0,1.6653111290884,1.6447037800812851,0.8509262654981644,0.22379376381636495,0.3288260442441605,,,0.5158180382284114,inf,,,0.9139874913777497
222,,0.0,0.0,1.6094835037048876,1.615865609445714,0.5722372244187145,0.19201143806937085,0.2177009381168658,,,0.4066654671944331,inf,,,0.9257964764524904
223,,0.0,0.0,1.522422430769594,1.5092192446551298,0.6758319943831087,0.37955767132760526,0.39269958416893325,,,0.4576907132971797,inf,,,0.9424702469728943
224,,0.0,0.0,1.6917108215088437,1.6797850169672375,0.6735916804655806,0.3789857451171984,0.4532063593554037,,,0.4732203808476458,inf,,,0.9342303951316038
225,,0.0,0.0,1.599186087830363,1.5722891949708686,0.7132174178128455,1.0825222300212465,0.813114951315822,,,0.5978297680564633,inf,,,0.9326751525928906
226,,0.0,0.0,1.4244929472232548,1.3833312186774185,0.7080005068517081,1.3027601345767843,0.9762973436359426,,,0.5022576003740722,inf,,,0.9434530478352647
227,,0.0,0.0,1.7275094477908912,1.7101923035666424,0.6839391273157026,0.4668593438270771,0.6130491197858698,,,0.5329562494928909,inf,,,0.8610784960697578
228,5.703782474656201,-0.9316178041938461,0.0,1.6949433055473744,1.7164101513583334,0.23973710852123298,0.8117809200728624,0.885992660419853,,,0.27183033608702345,7.515744651201776,inf,,0.9523502586961262
229,,0.0,0.0,1.5341456884090179,1.5226874636654066,0.6321580349223954,1.0677401722073503,1.023548221120014,,,0.5022576003740722,inf,,,0.9073051645898421
230,,0.0,0.0,1.6737566183126642,1.6247680566461737,0.7440290051013299,1.2608899517275198,1.288126667235469,,,0.49759852643134905,inf,,,0.8794282430091072
231,5.7037824746562,-5.7037824746562,0.0,1.699907106327077,1.6897925526356408,0.4802378313499431,1.0123798946054923,0.774354556007639,,,0.5158180382284114,5.703782474656201,inf,,0.7565131060139786
232,,0.0,0.0,1.5817132653848731,1.5725381779678695,0.46370944707788053,0.6446478850753193,0.4014581506507452,,,0.5068466436745385,inf,,,0.9525202961594449
233,,0.0,0.0,1.6401140873969413,1.647042000688787,0.6434976386137745,0.9892138793301357,0.6788201626064672,,,0.48319206230712763,inf,,,0.9486056512588303
234,,0.0,0.0,1.7704098314718955,1.7582886365254278,0.6222396625838102,1.695691363752537,1.483361008972109,,,0.5158180382284114,inf,,,0.9505069561245013
235,5.7037824746562,-5.7037824746562,0.0,1.6765403462890207,1.6151354029168765,0.5034545496620296,1.5689098413128229,0.8377283973665806,,,0.5641709578113449,5.703782474656201,inf,,0.5632457450090897
236,4.718700416258377,-4.718700416258377,0.0,1.6862540849364076,1.6926538732478278,0.6225910321549949,1.6601373815617284,0.8760900714910094,,,0.4880666971167561,4.703150594348295,inf,,0.6811891394003945
237,5.7037824746562,-5.7037824746562,0.0,1.5982966857784648,1.5875809435585864,0.6838806230545991,2.3298227264213756,1.6000617924119065,,,0.5068466436745385,5.703782474656201,inf,,0.8789701969317713
238,,0.0,0.0,1.6268046651417167,1.5871349501359586,0.7398426640494664,1.4551798789968582,0.8899142798891038,,,0.4732203808476458,inf,,,0.8093616058310608
239,5.703782474656202,-4.734139453964647,0.0,1.516131077402477,1.5135027703076287,0.5772746303946004,1.3203835390776157,0.8275797737178934,,,0.11132690331650678,5.8901120528476945,inf,,0.9421859754900888
240,,0.0,0.0,1.516131077402477,1.5137247485226764,0.5921101370963878,0.983983809892808,0.8180758429671053,,,0.1792956407887421,inf,,,0.9377996560835214
241,,0.0,0.0,1.676550397527214,1.6500411003974376,0.7399455633652412,1.0807713393674816,0.6552882381757141,,,0.5641709578113449,inf,,,0.9489693986635636
242,,0.0,0.0,1.6264354755254504,1.6249119375223449,0.5663214022225401,0.930244419457489,0.8891619367231296,,,0.5604843169999094,inf,,,0.9496930845680827
243,,0.0,0.0,1.7259689675087226,1.6992093641785977,0.6421406328920648,0.6592297300457732,0.4301657040018635,,,0.2461092077232671,inf,,,0.9461310227631616
244,,0.0,0.0,1.7259689675087226,1.698358631656516,0.5121390063936138,0.2916332227568256,0.38985425823433484,,,0.1792956407887421,inf,,,0.9509171236387397
245,,0.0,0.0,1.7259689675087226,1.7099455510032615,0.26269313999134347,0.6349819102276962,0.6947588032019353,,,0.1995021272786615,inf,,,0.6716584208075025
246,,0.0,0.0,1.4513653333088359,1.4331839722842306,0.4679498465463473,1.3401863572094372,0.9220482683869313,,,0.40055318934786044,inf,,,0.7947382873350916
247,,0.0,0.0,1.6132738989620194,1.6185610338899692,0.640239417321185,1.5652578737327298,1.0422517888092646,,,0.5022576003740722,inf,,,0.6582266917066798
248,,0.0,0.0,1.7185340866186674,1.6973290938180912,0.583130363211477,1.7854078028231404,0.9325595965193239,,,0.5329562494928909,inf,,,0.9256134080677693
249,,0.0,0.0,1.6879093175917244,1.6535165548555713,0.7135920153746295,1.6193823920621275,1.1127988082119074,,,0.5641709578113449,inf,,,0.9152301332529408
250,,0.0,0.0,1.642815702443925,1.6272994364066329,0.3293216947153811,0.7636659799748685,0.38685232699436956,,,0.5158180382284114,inf,,,0.5934355213619965
251,,0.0,0.0,1.6158372551127251,1.5614303969562717,0.5997334061712593,0.5503826822687212,0.3445185675881278,,,0.552929491858785,inf,,,0.9464122740106682
252,,0.0,0.0,1.5266098174677138,1.517581748887833,0.6753034409202904,0.8672686300673685,0.6096702724176982,,,0.5158180382284114,inf,,,0.9478449747149854
253,,0.0,0.0,1.69324574248882,1.6317497547129347,0.6194882418908864,1.1567815627090878,0.7328212138729271,,,0.5068466436745385,inf,,,0.9442213833280277
254,,0.0,0.0,1.6165004640091845,1.6181125864836614,0.5599388218816784,1.6707283312996928,1.270223136089851,,,0.5113665138247345,inf,,,0.9428757968912045
255,5.7037824746562,-5.7037824746562,0.0,1.751438376396031,1.738060644092507,0.7246548038223154,2.2680061292703098,1.6144696265599499,,,0.5677978065141052,5.703782474656201,inf,,0.8671824879564921
256,,0.0,0.0,1.51360912955037,1.4814255750169696,0.7805349993126497,2.3561178870826818,1.3500772676681856,,,0.5329562494928909,inf,,,0.6895195387170764
257,,0.0,0.0,1.7194599746142996,1.6871291598377371,0.649082367267698,1.8565826909804235,1.3652159812576914,,,0.5490601803369085,inf,,,0.638889574623435
258,,0.0,0.0,1.6760947688975685,1.6302401871365797,0.37239383978480894,1.0160011357755414,0.9158622912330427,,,0.5604843169999094,inf,,,0.9413868942282211
259,5.7037824746562,-5.7037824746562,0.0,1.6577226662653455,1.6304041490807268,0.44891254739332576,1.3664560391631992,1.0178383899229493,,,0.5370774965580548,5.703782474656201,inf,,0.93964833050278
260,,0.0,0.0,1.5907526881619747,1.5767793860052988,0.47659406240306607,1.459718515914439,1.6154553659746165,,,0.5202020156036558,inf,,,0.9371971554381333
261,,0.0,0.0,1.6698426318010648,1.6328931100235209,0.4415104752933508,0.9330225614211047,0.7986605613314479,,,0.4928685327679205,inf,,,0.9188908194980289
262,,0.0,0.0,1.6893990097176304,1.6773279031806014,0.4806176593673802,1.3195232067113984,1.1491381450429086,,,0.41861278947482794,inf,,,0.8803791938216805
263,5.703782474656202,-0.49432781447020413,0.0,1.6179573238570644,1.6216924520085356,0.4606594077676279,1.4860953498274354,1.4329072276642276,,,0.4629450596409901,8.14946841129092,inf,,0.9258481326705952
264,,0.0,0.0,1.6989871555880895,1.6442682990128081,0.42317396118229356,1.370792331599255,1.3307929080995928,,,0.4928685327679205,inf,,,0.7527374674496984
265,5.535116660719948,-5.535116660719948,0.0,1.6400360456785434,1.5964192222956106,0.38451117901029375,1.1351979709372997,0.8302928438097239,,,0.5641709578113449,5.485986529668587,inf,,0.7571762728071414
266,5.015256275299988,-5.015256275299988,0.0,1.7116118567398344,1.4990400823521919,0.4044433586037155,0.7721489379528506,0.5017684687425008,,,0.5748741956352443,5.0139741953617705,inf,,0.6315160563216458
267,5.7037824746562,-5.7037824746562,0.0,1.7214267164583297,1.7221582105651014,0.2112237398054969,0.6245840335807084,0.44091780185501706,,,0.4302020962658841,5.703782474656201,inf,,0.44932933955333276
268,,0.0,0.0,1.7521421031300253,1.6646583936441572,0.6594379215073485,1.8489859756445346,1.0615479687972804,,,0.4576907132971797,inf,,,0.9493451490609723
269,,0.0,0.0,1.620464151986842,1.601193385109428,0.35079143141707564,1.4876225299343262,1.4189321822599572,,,0.5370774965580548,inf,,,0.6482969914553862
270,,0.0,0.0,1.6693042777138392,1.647246323692714,0.541506671979901,0.8036802463471007,0.8250062627653729,,,0.4732203808476458,inf,,,0.9506576012978658
271,,0.0,0.0,1.6659647299802414,1.6649635495984139,0.3507624016443396,0.2578692897256647,0.24096844651215404,,,0.5022576003740722,inf,,,0.9431094533736342
272,,0.0,0.0,1.5509814037514955,1.5505413107260204,0.25385782614762364,0.20485209914422928,0.14978213822347677,,,0.5113665138247345,inf,,,0.9622759388524845
273,,0.0,0.0,1.5147170795238472,1.5051408244736695,0.4656577487705098,0.9061778529490723,0.8629718604718271,,,0.5113665138247345,inf,,,0.9428387983690533
274,,0.0,0.0,1.725320869092167,1.7027221475938878,0.564755190368227,0.8950553395563695,0.9463905207886949,,,0.4576907132971797,inf,,,0.9509136272530608
275,,0.0,0.0,1.6311162866875817,1.6087501194754208,0.7132522351289234,0.9690688000357622,1.0905479966990628,,,0.5113665138247345,inf,,,0.949136329249527
276,,0.0,0.0,1.552307600531629,1.5631095621409712,0.494386816609264,0.701642049646031,0.6333072289158349,,,0.524519217297268,inf,,,0.9450836944480117
277,,0.0,0.0,1.675940267982461,1.6789967319243053,0.6239849920608724,0.742202142428525,0.622737526636376,,,0.5202020156036558,inf,,,0.9478854246819937
278,,0.0,0.0,1.5758988083261358,1.5582932558768774,0.3041870897721303,0.5026729260275999,0.5413284286666652,,,0.48319206230712763,inf,,,0.9562997974265103
279,,0.0,0.0,1.5764239057694946,1.5336747057947406,0.5795680218539518,0.6458710602173642,0.6626012328231616,,,0.4928685327679205,inf,,,0.9470429475364087
280,,0.0,0.0,1.6964535727640377,1.681949899474964,0.8068873768353442,1.072342752314528,1.0334184743737684,,,0.48319206230712763,inf,,,0.9289336190564137
281,,0.0,0.0,1.5965822992480974,1.5766353593369122,0.5807311368834225,0.8776171132281826,0.7467639436339333,,,0.5451288209179292,inf,,,0.9442118632607643
282,,0.0,0.0,1.716288381544071,1.684092456963075,0.5479704720929737,0.8346178567110987,0.9477277739822548,,,0.4732203808476458,inf,,,0.9491406556061369
283,,0.0,0.0,1.5823622662371553,1.5256511501017413,0.6100727174622307,0.8485143970452595,0.7723180827919698,,,0.5604843169999094,inf,,,0.95353396172864
284,,0.0,0.0,1.7523045582509478,1.6960116655311324,0.5454862208067134,2.1599426361007796,1.8956379698221304,,,0.5883313578629602,inf,,,0.6741615894973099
285,,0.0,0.0,1.2442389581474917,1.2100219935108303,0.3953813309279685,1.33824135844438,0.8070719224715377,,,0.5329562494928909,inf,,,0.9208029270404213
286,,0.0,0.0,1.7484833143518257,1.7085060047488905,0.7201715967006406,1.8491997825540138,1.8653092180698527,,,0.5677978065141052,inf,,,0.9505944137783704
287,,0.0,0.0,1.1933484119365698,1.1419775844363718,0.718892631795248,1.4271645778793212,1.1353717447984575,,,0.5641709578113449,inf,,,0.9063342115283953
288,,0.0,0.0,1.4799109858837982,1.4059746250494853,0.8149963214391209,1.1497249792233513,0.7192207780932198,,,0.5947193981915972,inf,,,0.8648592940219527
289,,0.0,0.0,1.6933334731505785,1.658947665035511,0.7466148496468064,1.2240345185148997,1.0174630682510508,,,0.5329562494928909,inf,,,0.9422948207126998
290,,0.0,0.0,1.7113815478075713,1.714367338650335,0.8302265995192337,0.2726663553341169,0.3749395692981523,,,0.5022576003740722,inf,,,0.8892593588092764
291,,0.0,0.0,1.5620811563356012,1.5606368069121455,0.7160322035044433,0.508069255443967,0.4783538179247805,,,0.5329562494928909,inf,,,0.9339993506498011
292,,0.0,0.0,1.5458465556725827,1.5069575057196853,0.6601959096697654,1.07288671325264,0.8923001205611063,,,0.5451288209179292,inf,,,0.9491137405611966
293,,0.0,0.0,1.612587327706005,1.6001707046937101,0.636060591593194,0.5736263072530187,0.7751897516198708,,,0.4629450596409901,inf,,,0.9004512658869513
294,,0.0,0.0,1.3305640752329204,1.3056531241983396,0.8278262616836449,0.7890782554077798,0.7737834291214671,,,0.42445136339222655,inf,,,0.9225658231123104
295,,0.0,0.0,1.3086425205166576,1.231664568546187,0.7212866868360571,0.6317803539042339,0.7029010636806162,,,0.5370774965580548,inf,,,0.9076899569202374
296,,0.0,0.0,1.7833208630285928,1.7496538247477817,0.964619584131736,0.6776151125169142,1.275530557073874,,,0.5068466436745385,inf,,,0.8401390257832798
297,,0.0,0.0,1.7483500420698455,1.7353457680261004,0.9148631028200961,0.6847133746124825,1.2333178945326841,,,0.47824363442641393,inf,,,0.8412539921656768
298,,0.0,0.0,1.5208244164122338,1.484660903208095,0.8826337448365696,1.1542399252192885,1.8336195606821886,,,0.5158180382284114,inf,,,0.8620766423940945
299,,0.0,0.0,1.5467481945024457,1.3980950304972448,0.8200972478357542,0.6614309097228681,0.6157021044032093,,,0.47824363442641393,inf,,,0.8593359168174352
300,,0.0,0.0,1.6056116778632052,1.5893526497651638,0.9052887527093562,0.1804650357677948,0.3683449058506509,,,0.38804190201132227,inf,,,0.8540559207394498
301,,0.0,0.0,1.4079635360094098,1.382053342373378,0.5935361499671176,0.8748540867464649,1.0687919152897112,,,0.5748741956352443,inf,,,0.9403361032380121
302,,0.0,0.0,1.7146486633162226,1.6233430219070826,0.8869258068200565,1.0203832524717946,1.3128487662221446,,,0.468121228110369,inf,,,0.8427126208298579
303,,0.0,0.0,1.3914571747950413,1.3887752250044936,0.28440299259934554,1.0912261217649977,1.5235786661244417,,,0.5748741956352443,inf,,,0.9604117550884795
304,,0.0,0.0,1.6365465558993963,1.5867591202628775,0.8379223696477494,0.5850859190717943,0.932928441755609,,,0.468121228110369,inf,,,0.8922978040138347
305,,0.0,0.0,1.7717214867245974,1.7534374381760183,0.9557685194493689,0.3878141297220826,0.774885057658141,,,0.41268473150466,inf,,,0.8421833969208516
306,,0.0,0.0,1.691736755409503,1.6675614120535256,0.9706817645664834,0.3574942991908271,0.7346762014730268,,,0.4928685327679205,inf,,,0.8465147494373232
307,,0.0,0.0,1.5544069286529498,1.5222775093604695,0.936649252784586,0.3700616000799069,0.7202526591097491,,,0.4732203808476458,inf,,,0.8593776355883086
308,,0.0,0.0,1.5162790146296508,1.5201161248087929,0.5183282573756922,0.5237002308508011,0.5149965892579574,,,0.552929491858785,inf,,,0.9199296430259158
309,,0.0,0.0,1.756191253257758,1.7707291240163179,0.7965040910943553,0.10013435964568668,0.1808290705756051,,,0.41861278947482794,inf,,,0.7808993606962213
310,,0.0,0.0,1.3873143712236427,1.3984996536907763,0.8346247446355001,0.09652865213281506,0.17202748526202244,,,0.48319206230712763,inf,,,0.7100875135491503
311,,0.0,0.0,1.7183506102207642,1.703392265650661,0.8911807615626258,0.1036074928812958,0.17596432012673435,,,0.5677978065141052,inf,,,0.7139557880053374
312,,0.0,0.0,1.7457293357192398,1.7565333609349176,0.8608890094166656,0.10395035142074127,0.1778314191525256,,,0.4928685327679205,inf,,,0.7328735790010554
313,,0.0,0.0,1.658326822667006,1.6402287269614648,0.8903475648119423,0.09199328134569898,0.1659420256881074,,,0.552929491858785,inf,,,0.7005162989933014
314,,0.0,0.0,1.6077243008509594,1.590109191411624,0.8910478814765342,0.09928122244199171,0.17463334508120654,,,0.4576907132971797,inf,,,0.7724056946935316
315,5.703782474656201,-5.646744649909639,0.0,1.6007396250251924,1.6037205784911104,0.3722332821653857,1.0931236272940488,0.7755089576631145,,,0.5329562494928909,5.713832810509703,inf,,0.9224997294150521
316,,0.0,0.0,1.740100906875514,1.7309241496949,0.872088436723898,0.3864315363650996,0.6189532476512596,,,0.5068466436745385,inf,,,0.8065918841288859
317,,0.0,0.0,1.7627873522804332,1.7315895613716656,0.8964378797268248,0.34514898778860414,0.5543119378228432,,,0.45235697871908603,inf,,,0.8307607806436527
318,,0.0,0.0,1.6056222723371598,1.5713359956368687,0.9685088930491985,1.0035523742816792,1.8029497842238875,,,0.45235697871908603,inf,,,0.8258450360562226
319,,0.0,0.0,1.7130964054114584,1.6552003556832042,0.8951446621091796,0.21565220027714693,0.392782182764828,,,0.3751344627501719,inf,,,0.7584411047512519
320,,0.0,0.0,1.7691978592400257,1.7141441766774648,0.8368317664294012,0.14509498799293397,0.2697750329537625,,,0.468121228110369,inf,,,0.8273627493155024
321,,0.0,0.0,1.7373595796043937,1.6507522234367946,0.8467696731544215,0.1589996217303636,0.2602316419183837,,,0.44694259446804574,inf,,,0.8137867767226571
322,,0.0,0.0,1.187847940514497,1.0411426831235036,0.6845257894477639,0.3474721296760629,0.4670995506758983,,,0.44144624493110796,inf,,,0.8294714679994067
323,,0.0,0.0,1.5805707209293154,1.5493734262142418,0.8410305685850865,0.18289941610067983,0.307361429119633,,,0.524519217297268,inf,,,0.740722988474022
324,,0.0,0.0,1.7588865354453247,1.7600369474734043,0.8271266139089197,0.12181090947608686,0.20955884393921786,,,0.4576907132971797,inf,,,0.7324025992181888
325,,0.0,0.0,1.4858408125663927,1.4819690678002306,0.6740290653638036,0.2566097059292774,0.3001793846404269,,,0.4732203808476458,inf,,,0.8752158833471787
326,,0.0,0.0,1.6224650326833703,1.5893871873851848,0.6601891947029249,0.5883590607726655,0.6093208701438863,,,0.5113665138247345,inf,,,0.9170252474096688
327,,0.0,0.0,1.767106020408002,1.7287566904691671,0.9016700557057576,0.3100271141428973,0.5068802881983057,,,0.38163879478178075,inf,,,0.7876829661992801
328,,0.0,0.0,1.7232699723850098,1.7068360696004956,0.9041715446688784,0.2936947321804617,0.4977072210045834,,,0.44694259446804574,inf,,,0.7252052039252891
329,,0.0,0.0,1.5401699604026309,1.5380975934013976,0.5260324741241833,0.33776685202524703,0.4127270812534947,,,0.41268473150466,inf,,,0.8892960874616217
330,,0.0,0.0,1.132468421343802,1.0814658285200853,0.5415536865206105,0.3915387590636989,0.387735519873113,,,0.48319206230712763,inf,,,0.9161885479469168
331,,0.0,0.0,1.7663173473944662,1.7536506554070914,0.7882393064461001,0.30981261825615386,0.4240769634457872,,,0.47824363442641393,inf,,,0.6714041889835165
332,,0.0,0.0,1.6971406700232414,1.6843046690757055,0.34922553496270503,0.3923791859140259,0.4502982340526109,,,0.44144624493110796,inf,,,0.8732353418325587
333,,0.0,0.0,1.7502157100027582,1.729472094987821,0.6100965707248237,0.5308190312584906,0.6200235412634618,,,0.47824363442641393,inf,,,0.9005521256814664
334,,0.0,0.0,1.601078867306075,1.5405815393851379,0.5983418331075722,0.36711390537271227,0.5317548230006367,,,0.5641709578113449,inf,,,0.7537512179930442
335,,0.0,0.0,1.254163890421497,1.20105032447324,0.6691145964925903,0.6291689434431644,0.723569319290105,,,0.5022576003740722,inf,,,0.8680067327956452
336,,0.0,0.0,1.6881721844502109,1.6702280456049907,0.7907229295510483,0.46197294613251616,0.6377751199825241,,,0.5202020156036558,inf,,,0.8309909581173859
337,,0.0,0.0,1.5876966645908253,1.5626675090223574,0.7249551559964955,0.6430197657518691,0.7634909847133826,,,0.468121228110369,inf,,,0.8743459908899652
338,,0.0,0.0,1.779214181371053,1.6548665101801139,0.7206647054837918,0.4872602474591313,0.6763043983231191,,,0.5113665138247345,inf,,,0.8049858402735764
339,,0.0,0.0,1.764243573107021,1.7519110294065703,0.8819963489241175,0.438813345176662,0.6671570400555271,,,0.44144624493110796,inf,,,0.748148917581848
340,,0.0,0.0,1.6839457277209502,1.6745481011608228,0.8145963448238757,0.30945643687122665,0.5154691814323673,,,0.5022576003740722,inf,,,0.7144203377423803
341,,0.0,0.0,1.300635895343768,1.2833695717245575,0.8548931562621365,0.38149349269055455,0.593807538688071,,,0.5068466436745385,inf,,,0.8141392604281615
342,,0.0,0.0,1.4088940263310925,1.3861627139614,0.6299818711835679,0.4804843647808189,0.5774222507857112,,,0.49759852643134905,inf,,,0.8870732596542471
343,,0.0,0.0,1.4821348587854735,1.3916637001621095,0.8779605934300106,0.7328670019441633,1.1360542263869648,,,0.47824363442641393,inf,,,0.8424448163093915
344,,0.0,0.0,1.5148134379866922,1.5038916579275534,0.8759060822049072,0.6486489178450024,1.0047029366221123,,,0.43586655696697996,inf,,,0.787342384249539
345,,0.0,0.0,1.42580007087062,1.3760640235864139,0.6263128815866104,0.6535279478599132,0.8426558872209892,,,0.5068466436745385,inf,,,0.871515480830626
346,,0.0,0.0,1.5830419422722568,1.5770197011857277,0.632965681816233,0.8022678541949467,0.6903420005126233,,,0.5567373465730988,inf,,,0.9253954071401453
347,,0.0,0.0,1.5799268507160331,1.4428962176416633,0.7218657719707471,0.8332154888384917,0.724874251352661,,,0.49759852643134905,inf,,,0.9420310367924043
348,,0.0,0.0,1.6059311363669906,1.50412264490154,0.697393795321353,0.32793343306555384,0.33321348453455296,,,0.4576907132971797,inf,,,0.8718043948032248
349,,0.0,0.0,1.6079408010105078,1.5690730497077516,0.3951143080477648,0.30561502029351617,0.2297990318072093,,,0.5068466436745385,inf,,,0.943595923847653
350,,0.0,0.0,1.5819833750637153,1.5715225356475966,0.2989601642611015,0.5493939959957344,0.5803153103284676,,,0.4066654671944331,inf,,,0.6100967015495691
351,5.7037824746562,-5.7037824746562,0.0,1.6824806270769241,1.6637505568886939,0.33082128026541996,0.377673286228016,0.4266373032181774,,,0.5068466436745385,5.703782474656201,inf,,0.6155427458195353
352,,0.0,0.0,1.7093800829622074,1.7000753175155052,0.4921320143108928,0.4298843363821962,0.23714234627934705,,,0.38804190201132227,inf,,,0.9113048604098333
353,,0.0,0.0,1.6818961037097977,1.632045708507881,0.8955413280191697,0.9628489970404742,1.1877821225041842,,,0.44694259446804574,inf,,,0.794503527991034
354,,0.0,0.0,0.9392199251547071,0.8424215570366062,0.5833547387903015,0.5148017794805334,0.47044910079755464,,,0.5113665138247345,inf,,,0.843293154804156
355,,0.0,0.0,1.6619725642102965,1.642068626859034,0.9432749923528028,0.32846551738613533,0.5733348800548255,,,0.45235697871908603,inf,,,0.7738000670067443
356,,0.0,0.0,1.5304363995963768,1.475743207029002,0.8493624179986163,1.3722772870931275,0.8584816028870634,,,0.5370774965580548,inf,,,0.9294152898605427
357,,0.0,0.0,1.6047495139198749,1.5743964307238674,0.5348612955095028,0.636066310722418,0.4420047970706892,,,0.5022576003740722,inf,,,0.8705511438294513
358,,0.0,0.0,1.742330252391343,1.7014688339934634,0.5689636128030179,0.2263387884049945,0.2733272195493704,,,0.468121228110369,inf,,,0.7631068917112841
359,,0.0,0.0,1.6971994397834667,1.6862435819904207,0.7459970989946544,0.1711060180339766,0.24054036008509674,,,0.4880666971167561,inf,,,0.842468112571975
360,,0.0,0.0,1.6129778570483744,1.5063164353099412,0.5362182423876292,0.2425135711812073,0.2729696956058649,,,0.4629450596409901,inf,,,0.8509060873529961
361,,0.0,0.0,1.6654127699846033,1.6102113453094813,0.5267296511974461,0.30373005243709206,0.20296190137973352,,,0.48319206230712763,inf,,,0.8524792232040548
362,,0.0,0.0,1.5198056322020932,1.5227164689492245,0.7481611216684412,0.08694301754789091,0.14212267032546655,,,0.4629450596409901,inf,,,0.7303015041297489
363,,0.0,0.0,1.5312526363075474,1.4797076171946764,0.6690539285029482,0.48712766383164446,0.5258850006703513,,,0.44694259446804574,inf,,,0.8646145495922208
364,,0.0,0.0,1.3752496854751342,1.3565391547943229,0.7134639053615438,0.5368448858386108,0.7966349655538566,,,0.44694259446804574,inf,,,0.756551126874996
365,,0.0,0.0,1.0577519857890068,1.0799522056069186,0.639829056158853,0.9926657179696342,0.8527902284594939,,,0.42445136339222655,inf,,,0.9178436144833352
366,,0.0,0.0,1.5270346229471798,1.51886035437173,0.9169851749028616,0.23873161854205224,0.42843992881250736,,,0.4629450596409901,inf,,,0.8075337129053082
367,,0.0,0.0,1.5502210047984537,1.5404970493672991,0.41095388725252924,0.6368740826631364,0.5429393173245922,,,0.4880666971167561,inf,,,0.9422137226883053
368,,0.0,0.0,1.5920169588522661,1.5688152425920543,0.6300955446811397,0.22508079202366066,0.32378222639108734,,,0.5287703885177266,inf,,,0.8822420346046255
369,,0.0,0.0,1.5105463800166028,1.4927256354401788,0.7408180144215664,0.22053115244317262,0.3077939776139407,,,0.5287703885177266,inf,,,0.8178831072184157
370,,0.0,0.0,1.4514511353544932,1.3954877910716759,0.6322602227283851,0.4903969442015187,0.6219603696942262,,,0.44694259446804574,inf,,,0.889635575609951
371,,0.0,0.0,1.756718170757415,1.7505292238055412,0.5199176110693632,0.289969131424005,0.26845242107156086,,,0.4732203808476458,inf,,,0.9259688887257219
372,,0.0,0.0,1.727604050034814,1.713087801183027,0.6210076177544671,0.08976873406343837,0.14088765751929258,,,0.4576907132971797,inf,,,0.7690735759157873
373,,0.0,0.0,1.6202748371927886,1.6073936196013905,0.8246617726430993,0.13867602756145353,0.23096808780216727,,,0.47824363442641393,inf,,,0.8023433368023158
374,,0.0,0.0,1.5323672998755193,1.5351970039632528,0.7010902306964346,0.12006165137065426,0.1876133944271188,,,0.5202020156036558,inf,,,0.8001056561691493
375,,0.0,0.0,1.3073635057131914,1.2885859203213923,0.33220482147516117,0.15026121313427682,0.1839189913426434,,,0.4880666971167561,inf,,,0.8442257616371098
376,,0.0,0.0,1.7229676304248545,1.6622876436801364,0.6780097783780353,0.5948466452603075,0.7068547106259894,,,0.47824363442641393,inf,,,0.8893021029386792
377,,0.0,0.0,1.4914535346911881,1.431956194033972,0.8853730789656497,0.4948573946444641,0.6811985932349075,,,0.3943459996787778,inf,,,0.8204027256325933
378,,0.0,0.0,1.6604212518647556,1.6099102468344912,0.9373560995819227,0.5050283516407355,0.7864405120502085,,,0.48319206230712763,inf,,,0.8047230462004082
379,,0.0,0.0,1.1827599848975596,1.1563638674011458,0.4701488268767247,0.38334061790644475,0.5634980799281841,,,0.4732203808476458,inf,,,0.9095863317390688
380,,0.0,0.0,1.6108618316531629,1.5648893587458592,0.8161506146399886,0.2179411320606172,0.34806317513548685,,,0.524519217297268,inf,,,0.7773734036871325
381,,0.0,0.0,1.6879750251103165,1.6535490589645199,0.8669129905217611,0.3022797577932978,0.5001166614146046,,,0.5113665138247345,inf,,,0.8206179939755859
382,,0.0,0.0,1.558093716759127,1.502862839551037,0.4636256718186967,0.36613432049072253,0.4807724122756904,,,0.524519217297268,inf,,,0.905055963618304
383,,0.0,0.0,1.675784858815897,1.6781410772711403,0.7544686485008205,0.13215386813510072,0.22002747173189502,,,0.4880666971167561,inf,,,0.721414645245996
384,,0.0,0.0,1.6101055814818037,1.5780162901475627,0.8290468579469936,0.1398789732355154,0.2550384473436067,,,0.5641709578113449,inf,,,0.7002190703639274
385,,0.0,0.0,1.4533843708053253,1.3104838866181654,0.5108837015514744,0.2916747251962864,0.2812503191102977,,,0.47824363442641393,inf,,,0.9262226174059088
386,,0.0,0.0,1.4164273644422178,1.3906050906136656,0.7460485543457693,0.8338331913672049,1.122713988128016,,,0.3943459996787778,inf,,,0.8736254908140757
387,,0.0,0.0,1.5538727652797377,1.472467784897219,0.6784254624664502,0.6735023268355906,0.8163020228784688,,,0.3751344627501719,inf,,,0.8709577277105846
388,,0.0,0.0,1.664615597214328,1.637853778595556,0.6414590938343869,0.3817567105601588,0.49739500236589473,,,0.4880666971167561,inf,,,0.8248309432247135
389,,0.0,0.0,1.7126933010975915,1.7094244305880748,0.839459472654154,0.5675290465213363,0.70526973926605,,,0.5567373465730988,inf,,,0.8009181849926412
390,,0.0,0.0,1.581840861903457,1.5399196442929315,0.6313483817551764,0.3501579213864066,0.479561292307295,,,0.4629450596409901,inf,,,0.8032137729549331
391,,0.0,0.0,1.3420672298360563,1.286146206428267,0.7931385968852889,0.18186700734768463,0.305429899970063,,,0.4576907132971797,inf,,,0.7962633073258053
392,,0.0,0.0,1.4212913254100437,1.4114787695749558,0.8477513725214262,0.22973316376533745,0.3921500519144562,,,0.44694259446804574,inf,,,0.8119857361936815
393,,0.0,0.0,1.5483129540863156,1.5437607390677208,0.8752157477144816,0.20091690053922506,0.3317691970745562,,,0.5113665138247345,inf,,,0.7910791598504215
394,,0.0,0.0,1.3702195092822924,1.351955634927662,0.576241922632245,0.47331869608217825,0.5622460075996502,,,0.42445136339222655,inf,,,0.8576277475264091
395,,0.0,0.0,1.6908585694386007,1.6618656893231722,0.8032469398866465,0.5266512441642962,0.81984777782079,,,0.4629450596409901,inf,,,0.7952610673375589
396,,0.0,0.0,1.5341969746463506,1.5201535259584509,0.8668818768990466,0.4260150950140585,0.7297079806278892,,,0.524519217297268,inf,,,0.7944630647184935
397,,0.0,0.0,1.540879389771766,1.5138134027319252,0.8763417076723439,0.3155250649017706,0.49197746368556444,,,0.5068466436745385,inf,,,0.7727401576559237
398,,0.0,0.0,1.7207577681944402,1.7002403609503325,0.7314354433466813,0.6830306326641321,0.9779163260299056,,,0.43586655696697996,inf,,,0.8431447047391204
399,,0.0,0.0,1.5989801139559592,1.551940841403055,0.8539164213629855,0.5861243018621292,0.8150184126258527,,,0.44144624493110796,inf,,,0.7989612218483063
400,,0.0,0.0,1.2954292276149184,1.2930143033399115,0.5016996801619019,0.7025313802057371,0.9017888121314434,,,0.4066654671944331,inf,,,0.8906849750628769
401,,0.0,0.0,1.5619009981965144,1.5575869123270603,0.8125506913934318,0.45446040751646377,0.5861040862130409,,,0.4880666971167561,inf,,,0.821825026013008
402,,0.0,0.0,1.6525001983524261,1.633179665731263,0.6756035603065975,0.57408478619395,0.7696522723987528,,,0.47824363442641393,inf,,,0.845179475850334
403,,0.0,0.0,1.6535982107758285,1.6066819305676219,0.7216294615455445,0.7969290156587537,1.130964457998728,,,0.541134803179459,inf,,,0.855400411806445
404,,0.0,0.0,1.6791254062449283,1.6465549930893304,0.8791680066358256,0.9194359130527858,1.2799013919782851,,,0.4576907132971797,inf,,,0.7405219039070614
405,,0.0,0.0,1.4747222449453827,1.4712524878688822,0.8039484088843394,0.8527141600325654,1.220039611693996,,,0.5202020156036558,inf,,,0.7778517950326926
406,,0.0,0.0,1.687729750286878,1.676261800803349,0.7170968077537349,0.7568407717232405,0.9090949183624334,,,0.44144624493110796,inf,,,0.8764605638191375
407,,0.0,0.0,1.3721507173304888,1.3575976855631915,0.8379470338909711,0.37571923146723185,0.5070565797265618,,,0.5329562494928909,inf,,,0.8060378897993923
408,,0.0,0.0,1.494316399392639,1.4557218661111064,0.7738844470003017,0.3136533769535153,0.4986969200740685,,,0.40055318934786044,inf,,,0.7629750624841897
409,,0.0,0.0,1.3544508454555104,1.3551127271158128,0.5605156554922731,0.4568282854429729,0.5266786828540229,,,0.43586655696697996,inf,,,0.8885092857056291
410,,0.0,0.0,1.688556575556801,1.647988512416068,0.8294866310237943,0.6248900348173302,0.7907494519566464,,,0.5287703885177266,inf,,,0.8358801028278348
411,,0.0,0.0,1.7146717179777538,1.6715368384442975,0.9074464711876974,0.7256770155546991,0.9625990575055491,,,0.5329562494928909,inf,,,0.8681892320921877
412,,0.0,0.0,1.7902287827440728,1.7602859826445552,0.8621442835314017,0.6154426687603668,0.9051876456343299,,,0.48319206230712763,inf,,,0.8213693106043092
413,,0.0,0.0,1.7818823454254509,1.7603944553353554,0.869096787006561,0.5141496343768425,0.7431306744931879,,,0.468121228110369,inf,,,0.7665741910782599
414,,0.0,0.0,1.7646076256358798,1.722777948321174,0.8649657989396862,0.6554448961446199,1.0847996017015111,,,0.5158180382284114,inf,,,0.7890926075860865
415,,0.0,0.0,1.5567975503473446,1.5281330148146437,0.6281067468064812,0.552675125678899,0.7990939497640893,,,0.5158180382284114,inf,,,0.8743263973677688
416,,0.0,0.0,1.452636554289257,1.4211341489524685,0.6404395958009058,0.4389659140500372,0.5564851991330299,,,0.42445136339222655,inf,,,0.9014673567590515
417,,0.0,0.0,1.2267971899406631,1.1965379634027524,0.7090942922310033,0.5313091544552047,0.6478988482959616,,,0.42445136339222655,inf,,,0.9033017619096281
418,,0.0,0.0,1.482022350337623,1.4663516502692004,0.7545375235742252,0.34280302015139474,0.4968820281293412,,,0.47824363442641393,inf,,,0.8024897562702134
419,,0.0,0.0,1.7856726384947785,1.7178911244392447,0.6803810029120216,0.3406896676189486,0.48325077734688787,,,0.4629450596409901,inf,,,0.8442694793760549
420,,0.0,0.0,1.4825983914722367,1.4600407182606094,0.8718207340835059,0.34718188423526797,0.49978810011170227,,,0.44694259446804574,inf,,,0.8287334208881075
421,,0.0,0.0,1.5988563453853533,1.566292898340182,0.8468981409556635,0.41097159411790457,0.5627705358491297,,,0.4880666971167561,inf,,,0.7870340011735135
422,,0.0,0.0,1.699250081374292,1.6749510204042473,0.7384498862326097,0.7031162209919612,0.8661292355143457,,,0.4880666971167561,inf,,,0.8539060611778136
423,,0.0,0.0,0.7584023589305648,0.7501540311081653,0.6377743070485541,1.085002544978301,1.0211024459104938,,,0.5713653840954815,inf,,,0.9478556224357846
424,,0.0,0.0,1.5056954301094143,1.4523742967792241,0.6819965382058887,1.2794606873415408,1.0101401517491435,,,0.5604843169999094,inf,,,0.921437494417753
425,,0.0,0.0,1.7267861239249553,1.6886263921475733,0.786348257193208,1.4771543581027218,1.2281045509016217,,,0.5158180382284114,inf,,,0.9003795539264577
426,,0.0,0.0,1.710669206566875,1.7038820496305846,0.7057175137313175,1.5340574306662613,1.2812420116035799,,,0.5158180382284114,inf,,,0.8643359951482575
427,,0.0,0.0,1.6115603052854754,1.5801722807925986,0.8039094363927098,1.6263652799970516,1.7148303096331774,,,0.49759852643134905,inf,,,0.9295255324596712
428,,0.0,0.0,1.4730302656081167,1.4768502776937482,0.7255738088149287,1.5162086564518664,1.4403955995785371,,,0.541134803179459,inf,,,0.9314443030521048
429,,0.0,0.0,1.4860970516634344,1.3968604744490107,0.7920757426426195,1.2500769162591672,0.8543165350450346,,,0.5451288209179292,inf,,,0.9287353192360245
430,,0.0,0.0,1.6633717845512868,1.6439108516932202,0.62985096859377,1.5815641476875804,1.7210635654195594,,,0.541134803179459,inf,,,0.9452772541525946
431,,0.0,0.0,1.5563086600371177,1.5302462027672517,0.8336435107024304,1.2568633349117457,1.0634156832271309,,,0.49759852643134905,inf,,,0.9480256007147527
432,,0.0,0.0,1.3471503260576285,1.341355739572605,0.7741477173593253,1.2807978118664385,1.130439727370674,,,0.5490601803369085,inf,,,0.9511356869513069
433,,0.0,0.0,1.5370174409077602,1.5113467523232966,0.7405628960033253,1.083437594900506,0.8409953323369952,,,0.5202020156036558,inf,,,0.8401944870866404
434,,0.0,0.0,1.474586877682973,1.4430237203830072,0.8464165894379982,1.3256923975486181,1.1391232886738076,,,0.5451288209179292,inf,,,0.9324465205304125
435,,0.0,0.0,1.6439994957243622,1.6443178302686066,0.33139698504576154,1.362278131598237,0.9676150178115137,,,0.5567373465730988,inf,,,0.9654204037671422
436,,0.0,0.0,1.6366246878430815,1.623863440911393,0.7972007434226901,1.5720316693445235,1.5211077602891496,,,0.5370774965580548,inf,,,0.8979882097293624
437,,0.0,0.0,1.6222032883196373,1.5542306657026317,0.8057413833866085,1.413587773992457,1.4688522946867673,,,0.585052858160615,inf,,,0.8896626725779692
438,,0.0,0.0,1.6359266970487762,1.606865260996106,0.7091377878611282,0.6756703651521974,0.7690272272755843,,,0.541134803179459,inf,,,0.940393671940676
439,,0.0,0.0,1.570284848613337,1.511373877594071,0.8031733082298264,1.4161717548533879,1.4440012872488852,,,0.552929491858785,inf,,,0.9481715828467456
440,,0.0,0.0,1.4144204255622594,1.3864132341529871,0.6402530723440002,0.8534509170509829,0.8508863455586954,,,0.5567373465730988,inf,,,0.9492061063093316
441,,0.0,0.0,1.375337293426858,1.286296370314929,0.7067746896958608,1.3610006711179985,0.9876764806786356,,,0.5451288209179292,inf,,,0.9505489072020534
442,,0.0,0.0,1.7562243051144688,1.6608712396623826,0.6291232950096874,1.0937343895693652,0.8763187871525289,,,0.5641709578113449,inf,,,0.9517730037017967
443,,0.0,0.0,1.582169966095997,1.547734169437325,0.5222328957633889,0.94870798759751,0.7811988176736852,,,0.5287703885177266,inf,,,0.9351952049876533
444,,0.0,0.0,1.7620491310517057,1.7197407508016405,0.7487406946992273,0.670868878464571,0.6020991130110056,,,0.5370774965580548,inf,,,0.9021915260049562
445,,0.0,0.0,1.6780133924082195,1.6964377785859264,0.6365285412031998,0.6790898580512007,0.5704458146953919,,,0.5287703885177266,inf,,,0.9282811305763927
446,,0.0,0.0,1.5857846136862004,1.5310090610924794,0.7044155288276962,0.6501741126436382,0.6256423700694665,,,0.1687963801566332,inf,,,0.9298491697818158
447,,0.0,0.0,1.5857846136862004,1.5716876957015258,0.766306878813017,0.6796776537731085,0.69378497337486,,,0.22807408875533447,inf,,,0.9411061392626421
448,5.7037824746562,-5.7037824746562,0.0,1.5857846136862004,1.5065121749096442,0.25126844229836237,0.7636503000898266,0.46028438849830355,,,0.21876365787541036,5.703782474656201,inf,,0.9522943100925639
449,5.7037824746562,-5.494643783918806,0.0,0.9257257882989463,0.8812239313337218,0.6207141062579555,2.9134743707005066,2.2254031776847514,,,0.5915533975974677,5.7411382611999695,inf,,0.7826635495509445
450,,0.0,0.0,1.6642860735130556,1.6498857858773865,0.8945785263696613,2.157561318619681,1.762834289475364,,,0.5567373465730988,inf,,,0.8498903797298607
451,,0.0,0.0,1.5229279181520257,1.5133544864761626,0.5031878463327568,2.12051268682988,2.0373126364386747,,,0.524519217297268,inf,,,0.9487259736669956
452,,0.0,0.0,1.517141997035293,1.508769758037235,0.8933519043515652,1.991999883336608,2.0271601162346955,,,0.541134803179459,inf,,,0.9494723308317263
453,,0.0,0.0,1.6765294537955127,1.647825574602752,0.8261589412448305,1.9152891429546075,2.2649982246196023,,,0.49759852643134905,inf,,,0.9258079367479044
454,,0.0,0.0,1.6052916994167263,1.6003576916887396,0.8631268098535896,1.75045334806539,1.809524295430201,,,0.5567373465730988,inf,,,0.92096136019025
455,,0.0,0.0,1.6653254811479123,1.6621699645477355,0.7278293929220009,2.046856990800642,2.315532186820041,,,0.552929491858785,inf,,,0.9517974828342156
456,3.344552796838593,-3.344552796838593,0.0,1.5060305285224467,1.2577896679626481,0.6791481201752788,1.9414504375820902,1.1005325805272366,,,0.5202020156036558,3.3413573813061386,inf,,0.9055552073149138
457,4.070075621541062,-4.070075621541062,0.0,1.4287110937527092,1.3348947369032418,0.6151831202475403,2.2047216285908897,1.5723683545731917,,,0.5158180382284114,4.063492098739336,inf,,0.8454002071960646
458,5.655262172017004,-5.655262172017004,0.0,1.6511570940193938,1.587206005515794,0.767336972537008,1.9537833636183388,1.1315406058367803,,,0.5748741956352443,5.636123826182386,inf,,0.8913842830879632
459,5.7037824746562,-5.7037824746562,0.0,1.3985897322093315,1.3659821732428097,0.7590240539474936,2.7014542098795276,1.7901923774859778,,,0.5490601803369085,5.703782474656201,inf,,0.740705193954497
460,5.61829432238714,-5.61829432238714,0.0,1.6807233787274223,1.6343335542763247,0.5388010228401446,1.7453394151117443,1.0649882306057556,,,0.6207552362147116,5.58748201896004,inf,,0.4791113263177854
461,,0.0,0.0,1.6343978961254084,1.615073219946407,0.445503790522903,1.7053216551724026,1.4071473190090766,,,0.5370774965580548,inf,,,0.7767582207024996
462,,0.0,0.0,1.6454423248984011,1.588699493211049,0.6319604688037921,1.2368126486683777,0.598568719593223,,,0.5158180382284114,inf,,,0.9523455061353532
463,,0.0,0.0,1.6411177804014148,1.5745928475743058,0.7593559753727387,1.8228464420525754,0.6580270483655544,,,0.5451288209179292,inf,,,0.7901734202918482
464,2.7961092059535484,2.9043343674371385,-5.700443573390687,1.3704085760825633,1.3420743803664754,0.83689492143906,3.789353328976203,4.398009022184818,2.9046544579804694,,0.5370774965580548,2.795789115410217,2.911332260511499,inf,0.7560943877212477
465,3.840599857108183,-3.840599857108183,0.0,1.6482333775752651,1.5753974324841453,0.8684636709264075,3.338552224103689,2.7030496648116515,,,0.524519217297268,3.8376372940697503,inf,,0.6406117659850341
466,3.952741486445462,-3.952741486445462,0.0,1.7070992071701685,1.7107700166673845,0.8291298769909003,3.0434928469264406,2.829671210444321,,,0.5748741956352443,3.949955659596796,inf,,0.9384373111822406
467,4.31748811353631,-4.31748811353631,0.0,1.228471345265874,1.2125926631640374,0.6335269844681408,2.2581718909846673,1.4250238995130218,,,0.585052858160615,4.31748811353631,inf,,0.8067576890578197
468,,0.0,0.0,1.7121381359696635,1.6754515020345218,0.6265529222716721,1.2893934473785398,1.116488795147324,,,0.5604843169999094,inf,,,0.94975458387748
469,,0.0,0.0,1.7112944082923716,1.7106056778102028,0.6746496877534339,1.2810264632577313,1.335936069419392,,,0.5068466436745385,inf,,,0.9483881811665348
470,,0.0,0.0,1.779145882889447,1.767580351368311,0.8284840731511363,1.1028957242474944,1.0946871241074325,,,0.4928685327679205,inf,,,0.8687021125485059
471,,0.0,0.0,1.661841725159451,1.5991117690885712,0.6728104888991484,1.232816296018117,1.3724402239116729,,,0.5641709578113449,inf,,,0.9104544753441979
472,,0.0,0.0,1.6433513299968907,1.6491005469821092,0.6530905119628199,0.9831424164421215,1.1459957385009214,,,0.21876365787541036,inf,,,0.9425472353655625
473,,0.0,0.0,0.9855677137277971,0.9769194874767387,0.5145018986398434,1.413364344034823,1.4859249025649235,,,0.1792956407887421,inf,,,0.9394574613769443
474,,0.0,0.0,1.2303507640887852,1.2403570039496885,0.7818290139828816,1.6818061572707013,1.5748099496288825,,,0.4732203808476458,inf,,,0.9378975758278411
475,,0.0,0.0,1.6053664777585968,1.6067143450373373,0.7359164917603321,2.0622584512908446,2.1617366238874736,,,0.5641709578113449,inf,,,0.9367198070081818
476,5.7037824746562,-5.7037824746562,0.0,1.6784984609389217,1.643378516688052,0.56567220275431,2.076696185420229,1.6383964159744577,,,0.4576907132971797,5.703782474656201,inf,,0.594778530730075
477,,0.0,0.0,1.6175732536649439,1.6153133702724567,0.7661913566511876,2.3737334080882393,2.5823515171403204,,,0.5287703885177266,inf,,,0.8860697708193749
478,,0.0,0.0,1.6367270627039283,1.6101374356908664,0.8635488259681992,2.2790831132198446,2.977629135841427,,,0.5202020156036558,inf,,,0.894039363336183
479,,0.0,0.0,1.4806728941985094,1.472168889368383,0.5435087313737197,1.334486787730626,1.5201811360630748,,,0.468121228110369,inf,,,0.9399530108957799
480,,0.0,0.0,1.773810468940481,1.7788024171760666,0.41877121862746997,0.7399322977831144,0.8638524850583377,,,0.5202020156036558,inf,,,0.9393649466944292
481,,0.0,0.0,1.6771799024665734,1.603142452746963,0.7438667813282162,1.1891576459292543,1.0491292647025467,,,0.541134803179459,inf,,,0.9502109242000361
482,,0.0,0.0,1.6883071401571224,1.6245280380410143,0.7203954816193787,1.2923074569771311,0.925014465917225,,,0.5604843169999094,inf,,,0.9135990223857776
483,,0.0,0.0,1.7236397872162048,1.6952526918975743,0.7096385437042877,1.9503241630814339,1.4601693222263143,,,0.47824363442641393,inf,,,0.9484557402727507
484,,0.0,0.0,1.690116927379431,1.6721487302295577,0.6449078503799534,1.3174813818074984,2.0086502208298675,,,0.5329562494928909,inf,,,0.9418128664217117
485,,0.0,0.0,1.2433843407826537,1.2380497272103221,0.8361178781859074,1.4034015494187153,2.3351433259026084,,,0.44144624493110796,inf,,,0.9236367414668237
486,,0.0,0.0,1.6520866380338477,1.6278204624318664,0.7854544419097759,1.1177254075515577,1.6623334605805056,,,0.4629450596409901,inf,,,0.9358593297483412
487,,0.0,0.0,1.4670226373147666,1.4751391164149155,0.6804939122813984,0.8638680254214475,1.2060178068596041,,,0.12360019792221849,inf,,,0.9355491015873887
488,,0.0,0.0,1.4670226373147666,1.4146804247770222,0.6394630650949515,1.7481160622931922,1.6850029077938988,,,0.18952474069199465,inf,,,0.9499793224728753
489,,0.0,0.0,1.4670226373147666,1.4724991807016663,0.6821742409532865,1.370351344091352,0.758018883366637,,,0.15800541964703757,inf,,,0.9383122194646137
490,,0.0,0.0,1.567843064114831,1.572115468799678,0.8175378683430553,1.8223844212715665,1.5594451817290658,,,0.5022576003740722,inf,,,0.8910745343237466
491,,0.0,0.0,1.6593043537149001,1.630262427332406,0.6267163187331848,0.8006848076416155,0.7960245112951724,,,0.5451288209179292,inf,,,0.9286692535733633
492,,0.0,0.0,1.5616729012307025,1.5635592665589286,0.8282935259188622,1.3589780097220279,1.4626877117045298,,,0.5641709578113449,inf,,,0.9498172581060556
493,,0.0,0.0,1.7579648631957807,1.7209678325823232,0.6163800474397801,1.2058949077042596,1.0295159425875617,,,0.468121228110369,inf,,,0.9502206111488423
494,,0.0,0.0,1.4493631596321075,1.4479057701193419,0.842583643191793,1.6669259197823698,1.294603149107846,,,0.5451288209179292,inf,,,0.9502498507857698
495,,0.0,0.0,1.6476696558288861,1.618357316685415,0.7223501280110003,0.8907138127255972,1.0023266478877415,,,0.48319206230712763,inf,,,0.9500477331152404
496,,0.0,0.0,1.4057589746169867,1.3787656516264606,0.7293831155696223,1.2863021304549278,1.3542697361162546,,,0.1995021272786615,inf,,,0.932581718674584
497,,0.0,0.0,1.640871481546979,1.667419147895272,0.6271059952930726,1.0495964950783234,1.1252859649297717,,,0.5947193981915972,inf,,,0.9128036852067217
498,,0.0,0.0,1.71623448167624,1.7189760640007263,0.7160869053134374,1.0667299846956675,1.2785422310923358,,,0.524519217297268,inf,,,0.9385176340490876
499,,0.0,0.0,1.579600741514413,1.567043941883158,0.5884802203362184,1.2723749041729437,1.217356165080026,,,0.5202020156036558,inf,,,0.8712420464185562
500,,0.0,0.0,1.3940652919376455,1.3558034149893126,0.7227606559443445,1.3805993136871513,1.198559230757266,,,0.5329562494928909,inf,,,0.8738331971968212
501,,0.0,0.0,1.6298818025833317,1.475719890245544,0.6442507586351162,0.8996163822602152,0.5219898556513658,,,0.581717464821069,inf,,,0.9175100302042535
502,,0.0,0.0,1.689507348433934,1.6430099934213123,0.7352776869508447,1.3578747180147588,0.8835990765954085,,,0.5068466436745385,inf,,,0.9173214073422871
503,,0.0,0.0,1.5710133158088362,1.5813806978062914,0.8086604073075492,1.389583640312067,0.8871947155741013,,,0.5022576003740722,inf,,,0.9434700882302399
504,,0.0,0.0,1.549718536227695,1.5250164305673548,0.8386493169608707,1.6587250406472411,1.1372039806727408,,,0.47824363442641393,inf,,,0.943395208108802
505,,0.0,0.0,1.5452276148825996,1.4406075134563754,0.5915288625914764,0.8075621962037409,0.7021939338993866,,,0.5202020156036558,inf,,,0.9167178760135651
506,4.667341502564676,-4.667341502564676,0.0,1.4659639719250528,1.4480338713678866,0.5705254335632706,1.1203296251625368,0.34031106065459404,,,0.5068466436745385,4.6576337555238325,inf,,0.6196406433009152
507,4.56777151656936,-4.56777151656936,0.0,1.6111325626262942,1.5766702646067208,0.6019550447910854,2.32804105632593,1.5775512895959491,,,0.5641709578113449,4.562749470104139,inf,,0.645590974887231
508,,0.0,0.0,1.5359926677355806,1.5395219373706865,0.8571990406150297,2.6611931287707655,1.9018991523908184,,,0.5713653840954815,inf,,,0.9187789987051026
509,5.703782474656201,-5.646744649909639,0.0,1.621976168272243,1.6104651269084362,0.8343772340135466,2.28994114586754,1.3101966337836735,,,0.4629450596409901,5.713832810509703,inf,,0.943049922421115
510,5.7037824746562,-5.7037824746562,0.0,1.612113228283194,1.5877430111728648,0.8032080724808042,2.2402954566539353,1.59058778360242,,,0.524519217297268,5.703782474656201,inf,,0.6925420008120057
511,,0.0,0.0,1.643422863943926,1.5896149026844455,0.7478663498508029,2.1416014132890466,2.077533852047129,,,0.5287703885177266,inf,,,0.9395446307119587
512,,0.0,0.0,1.6364676535635168,1.6232673051200002,0.7342196496454185,1.8853404916593632,1.7802409783449125,,,0.49759852643134905,inf,,,0.8853127700322474
513,5.7037824746562,-5.7037824746562,0.0,1.4738608593029454,1.4274236444636708,0.4681648764071428,1.5956678478227382,1.3795913276925507,,,0.5113665138247345,5.703782474656201,inf,,0.6581300515329139
514,,0.0,0.0,0.9771652362716146,0.9045083960456515,0.7585108505946836,1.5723380964802365,1.0575839595918224,,,0.5883313578629602,inf,,,0.9482415271084942
515,,0.0,0.0,1.1652457608750086,1.1227475212092404,0.710910224975515,1.0021653795243763,1.2398225286824198,,,0.27183033608702345,inf,,,0.9307886758643952
516,,0.0,0.0,1.6836270781722034,1.643518643533005,0.5348803326564102,1.485220820266571,0.7341244283772665,,,0.5158180382284114,inf,,,0.8002067723308012
517,,0.0,0.0,1.6378428345129281,1.6469401520300457,0.7336348776529938,1.1373860430175908,0.7295067098498054,,,0.524519217297268,inf,,,0.9476052669664735
518,,0.0,0.0,1.4452584384664275,1.4204984334515496,0.8315882045296894,1.3354071364859335,1.3414497792884794,,,0.4880666971167561,inf,,,0.9476644990496157
519,,0.0,0.0,1.5829993215447793,1.5660954790385262,0.7249096417269068,1.2193635572168198,1.08245371010788,,,0.5202020156036558,inf,,,0.9169133179827424
520,,0.0,0.0,1.5360681342505464,1.522630101692572,0.8269962440423206,1.7827334816100207,1.9560831567903236,,,0.5451288209179292,inf,,,0.9451709468591587
521,5.703782474656201,-5.589706825163077,0.0,1.582700904961223,1.563972023517191,0.2469435733646569,1.1586960821882897,0.8680553895373329,,,0.21876365787541036,5.72398518197372,inf,,0.6832263275520843
522,,0.0,0.0,1.582700904961223,1.5348034898754122,0.3605344218281543,1.6204269488925493,1.7319665376330837,,,0.2548524784312949,inf,,,0.9290973272406752
523,,0.0,0.0,1.582700904961223,1.5643345304578078,0.6772122028843981,0.9466034887662772,0.7826218154980275,,,0.1687963801566332,inf,,,0.9035286954821558
524,,0.0,0.0,1.5113136307916668,1.5007365943238435,0.47560073503572275,0.6433765665268616,0.5205831415995584,,,0.3116047106179316,inf,,,0.9317367949684621
525,,0.0,0.0,1.7396944559466807,1.7279656730950266,0.5237607329908035,1.301655149815369,1.192125736731893,,,0.5022576003740722,inf,,,0.9516218777911662
526,,0.0,0.0,1.6995993900784139,1.6656300452562283,0.6858876661080876,1.5631716660295338,1.4167635654901025,,,0.5202020156036558,inf,,,0.9549128330881461
527,,0.0,0.0,1.5077499404402985,1.4688217140590747,0.6660236244780918,0.4903019252003012,0.30708643756480064,,,0.2961247884481232,inf,,,0.9085790344868782
528,,0.0,0.0,1.5077499404402985,1.5155801201594992,0.7111615679183898,0.8086652821252128,0.7066438805498537,,,0.22807408875533447,inf,,,0.9224399337319453
529,5.010635294096255,-5.010635294096255,0.0,1.5077499404402985,1.4848765742588927,0.6430827155952658,1.6132736499999336,0.8741331179192229,,,0.21876365787541036,5.0106352940962555,inf,,0.94409978674802
530,,0.0,0.0,1.4186191946034576,1.3752121949280047,0.772702087421966,3.1172601375589917,1.923461355675899,,,0.38804190201132227,inf,,,0.952858990251709
531,,0.0,0.0,1.6960750019210822,1.6677613034453387,0.5939253152766907,1.259576371234095,0.7991585595249486,,,0.5883313578629602,inf,,,0.9357120107958715
532,,0.0,0.0,1.75221686374876,1.7353144995618763,0.47795441805825306,1.1852881976337848,0.820255917659322,,,0.5567373465730988,inf,,,0.9268936834600284
533,,0.0,0.0,1.257921861047636,1.2507306460910714,0.5278870080722178,1.4072637696743369,0.9800456816363676,,,0.5113665138247345,inf,,,0.9441181376395918
534,,0.0,0.0,1.6286537114179127,1.6002408033098152,0.7832657307845563,1.935852914873772,1.5526056729033042,,,0.541134803179459,inf,,,0.9422518861176663
535,,0.0,0.0,1.6582175906090075,1.6305686211994599,0.7968894156223715,2.0109335963644757,1.4248633874698124,,,0.4928685327679205,inf,,,0.94870301549576
536,,0.0,0.0,1.2918581983105102,1.246245171942205,0.6533272880618421,1.1944442056559337,0.7697015882712652,,,0.5022576003740722,inf,,,0.9390627273119985
537,,0.0,0.0,1.4816080231989521,1.4422779993508645,0.6472562223149358,1.5775165369292443,1.296266511339294,,,0.20924377657122822,inf,,,0.9125485417348194
538,,0.0,0.0,1.6014645041087452,1.5669393672629237,0.718154914238244,2.0803704943980823,1.519723582588671,,,0.5883313578629602,inf,,,0.9364803470289422
539,,0.0,0.0,1.7011620670606313,1.6602725404007155,0.7168484178835797,2.553714136392553,3.0505233113587638,,,0.5641709578113449,inf,,,0.9159664680408056
540,,0.0,0.0,1.7431235846065736,1.7158059660298492,0.6740567154715184,2.192533734501173,2.4772918761722043,,,0.6008849035917525,inf,,,0.9449321843308135
541,,0.0,0.0,1.5127324079767799,1.4817178491655112,0.7213354687024914,2.096163195720747,2.1707139714916464,,,0.5202020156036558,inf,,,0.894560444698035
542,,0.0,0.0,1.5409087011628393,1.5476098951971335,0.7205758821000094,1.8956305169193155,1.6422057987273775,,,0.5451288209179292,inf,,,0.9457638292582178
543,,0.0,0.0,1.4868961714887539,1.4938236734766457,0.7026037240937666,1.1002953242210851,1.6272217323248195,,,0.5978297680564633,inf,,,0.9337463081210943
544,,0.0,0.0,1.617832612402593,1.5385986061498054,0.6240684679239709,1.4128900798156996,1.4578203196529025,,,0.5915533975974677,inf,,,0.9533294422816926
545,,0.0,0.0,1.658414662546059,1.6574721726944306,0.8291610853011081,2.418360367587965,2.199901762991348,,,0.5748741956352443,inf,,,0.9481713681351136
546,,0.0,0.0,1.6359171738171732,1.641800977203385,0.7042655961191012,2.6127710694527795,3.3630295276322197,,,0.62595550513784,inf,,,0.9388903726582627
547,,0.0,0.0,1.7023873974915555,1.6902099480375974,0.6983624734281544,2.4551899183821986,2.7058237077409917,,,0.6068309995095971,inf,,,0.9500098076892085
548,,0.0,0.0,1.6705871858294468,1.6090198958080382,0.7805942907310629,2.041290293400301,2.3648861038216547,,,0.5068466436745385,inf,,,0.9219961750358158
549,,0.0,0.0,1.7531060275338128,1.6779106233662442,0.6425382662245969,1.1699938026201795,1.096564931706357,,,0.5748741956352443,inf,,,0.9105970418354925
550,,0.0,0.0,1.5782592761958236,1.4423124913935372,0.6165388481221393,1.0553703101811847,1.0205727919451222,,,0.4629450596409901,inf,,,0.9495441202683682
551,5.703782474656203,-0.5703782474656203,0.0,1.4519138029674217,1.3314529049764157,0.5281670557604085,1.5645836751807587,1.3748755437323896,,,0.541134803179459,8.006367567650246,inf,,0.557887787568947
552,5.7037824746562,-5.7037824746562,0.0,0.9774560548678237,0.9146002238681447,0.6727329870375196,2.164070812972621,2.558816161462527,,,0.47824363442641393,5.703782474656201,inf,,0.7195446549690558
553,,0.0,0.0,1.5683022538996938,1.459114233119056,0.6506428081308442,1.5152338589903014,1.5283780511164258,,,0.4928685327679205,inf,,,0.839308043289391
554,,0.0,0.0,1.6247511874310354,1.5992696631054064,0.5931695438607935,1.6636783111466054,1.8712711004290021,,,0.5567373465730988,inf,,,0.9317746673977104
555,4.759246927069193,-4.759246927069193,0.0,1.4497014778382427,1.3860379330520805,0.6624267033325357,2.2467903893723555,1.5970074054782821,,,0.585052858160615,4.740608156883195,inf,,0.7815658323885025
556,5.604431378775941,-5.604431378775941,0.0,1.7087341010078276,1.672701204521615,0.6129111566180047,2.3060764964280196,2.250099796790852,,,0.5202020156036558,5.569834502146462,inf,,0.6574597134825578
557,,0.0,0.0,1.5948493251192417,1.5601820988793194,0.5695267768931901,1.3895257346723378,1.3025333212086678,,,0.5748741956352443,inf,,,0.8589612219149159
558,5.010635294096255,-5.010635294096255,0.0,1.3142503098522014,1.300998281653155,0.8156437481937053,3.1777205724283424,3.7755915733224805,,,0.524519217297268,5.0106352940962555,inf,,0.9495413556863098
559,,0.0,0.0,1.6319253314929663,1.6380872817561367,0.7530447033558179,1.2949392670589355,1.2318731238110505,,,0.22807408875533447,inf,,,0.8957684492425178
560,,0.0,0.0,1.6319253314929663,1.6159586239811385,0.749829225357615,1.0063480641289586,0.962025091871257,,,0.26342377874763145,inf,,,0.835524070900253
561,5.7037824746562,-5.7037824746562,0.0,1.6319253314929663,1.5950238847435751,0.7942480386066253,2.247101474437428,1.3950567277399486,,,0.2461092077232671,5.703782474656201,inf,,0.9436115721461674
562,,0.0,0.0,1.366178826867039,1.2508018787851858,0.4422762863351415,0.2021193721466942,0.24916121971596747,,,0.3480560589391537,inf,,,0.9459605895908599
563,,0.0,0.0,1.6516698133107706,1.5729687045172125,0.5258072773199617,0.2809052850826259,0.29073155936330286,,,0.5068466436745385,inf,,,0.9486407454101476
564,,0.0,0.0,1.7588415920621567,1.7392226004435825,0.6933568549333914,0.18217043175580824,0.3034451807656734,,,0.48319206230712763,inf,,,0.8509123710212428
565,,0.0,0.0,1.7450941102392483,1.7077001446071887,0.9411357055013699,0.1445231566972458,0.28809383996155813,,,0.4732203808476458,inf,,,0.7630818183729333
566,,0.0,0.0,1.7739961126758474,1.7509885415576811,0.8694161280726981,0.24633618075608413,0.4501402238795483,,,0.4732203808476458,inf,,,0.8370885172496151
567,,0.0,0.0,1.7836506192780748,1.7536992234320008,0.949702383524468,0.3059907775962046,0.5807274185934779,,,0.42445136339222655,inf,,,0.8087476291056487
568,,0.0,0.0,1.7761028677747916,1.7607662751232447,0.9489673286540004,0.30478800795779815,0.5836167763613085,,,0.44144624493110796,inf,,,0.783674280294764
569,,0.0,0.0,1.6995546826073769,1.6856975251118944,0.9572616822391592,0.33017914182620034,0.6386819925036924,,,0.40055318934786044,inf,,,0.7984984138870641
570,,0.0,0.0,1.636575690398947,1.6325792959441063,0.9624761172876521,0.29210646360756237,0.5276836646005524,,,0.41268473150466,inf,,,0.7877288520050691
571,,0.0,0.0,1.7547210721463775,1.701503055114251,0.9278059336677699,0.2288031699831184,0.3777347931388924,,,0.4066654671944331,inf,,,0.7766961342580476
572,,0.0,0.0,0.7730355833842886,0.7316219008630123,0.597945155527364,0.2918396146356395,0.37224555820505334,,,0.5113665138247345,inf,,,0.9121426061561783
573,,0.0,0.0,1.6083467153258502,1.6024974168674826,0.4338843948509654,0.06809669699734584,0.07820821781171326,,,0.5451288209179292,inf,,,0.9409431752206925
574,,0.0,0.0,1.5529389689558606,1.5327835296729309,0.8364929993839914,0.03274376888769942,0.061016202403242535,,,0.45235697871908603,inf,,,0.7868024948232113
575,,0.0,0.0,1.7170232866404302,1.7125751558835522,0.8276452102007913,0.0358370547012166,0.06631505872546695,,,0.4066654671944331,inf,,,0.8042800785875573
576,,0.0,0.0,1.4474155781910918,1.3956973481974615,0.48481584363696967,0.3811852388374463,0.3102592655584564,,,0.4880666971167561,inf,,,0.9435472733059536
577,,0.0,0.0,1.6957399327298044,1.6386150573732259,0.5370388093514074,0.12032371911998614,0.15663759993936802,,,0.4066654671944331,inf,,,0.8938071774756354
578,,0.0,0.0,1.765196468171503,1.7472208327923449,0.9270068238708186,0.16312358473374475,0.28189199422379335,,,0.4629450596409901,inf,,,0.7269260490635797
579,,0.0,0.0,1.7609591982161978,1.6144914407991993,0.8663159407857512,0.31293718157561207,0.4451306141955148,,,0.468121228110369,inf,,,0.7644281938846893
580,,0.0,0.0,1.7252490744752254,1.6951191335294449,0.6735431749148425,0.7255823833369994,0.48680514093743965,,,0.581717464821069,inf,,,0.8714644127028055
581,,0.0,0.0,1.6668977529641635,1.6183648615031914,0.7291933211000738,0.22022170833281937,0.31972291700062094,,,0.5022576003740722,inf,,,0.7938303067847968
582,,0.0,0.0,1.6275713285353401,1.5363279011701845,0.6517646642961064,0.4731888905768968,0.4727708468814925,,,0.40055318934786044,inf,,,0.8804487985304806
583,,0.0,0.0,1.5676191861600328,1.5553033927650768,0.8035624446721753,0.19233441642085033,0.3406601706756461,,,0.44694259446804574,inf,,,0.7170705616475688
584,,0.0,0.0,1.7083403475756205,1.6111992342297086,0.7943646137894009,0.16990208863019698,0.23677580305900026,,,0.4928685327679205,inf,,,0.7768614916800004
585,,0.0,0.0,1.739705942323308,1.70603096021965,0.8932265604337101,0.06028209275453725,0.12494804820509073,,,0.4732203808476458,inf,,,0.7725292556098443
586,,0.0,0.0,1.6665806140295514,1.619049551691523,0.9388103265584465,0.08496619039873611,0.16346139666971554,,,0.48319206230712763,inf,,,0.7398881043287012
587,,0.0,0.0,1.6606234459621163,1.6194106872793808,0.9508109602613234,0.08094113070422788,0.17933677365283107,,,0.468121228110369,inf,,,0.7737711809684737
588,,0.0,0.0,1.3387083628165657,1.2878346631612034,0.9279130207320779,0.11931992750106371,0.2447626605357662,,,0.4732203808476458,inf,,,0.8063317569990256
589,,0.0,0.0,1.5015517507629341,1.4784095858835187,0.9538360347505731,0.09705330928274902,0.20448360590685993,,,0.44694259446804574,inf,,,0.7506322501014886
590,,0.0,0.0,1.0834137087947724,1.0653572675973206,0.9483025479482942,0.13547061947534997,0.2883555166360119,,,0.41861278947482794,inf,,,0.7924868883571787
591,,0.0,0.0,1.2988124547209385,1.268394606468565,0.9608057732097758,0.1287328960243065,0.2634865538497914,,,0.38804190201132227,inf,,,0.8102262016041113
592,,0.0,0.0,1.7086169952307573,1.5596922127900028,0.6372797693087294,0.4864283259348792,0.43951182097339886,,,0.5677978065141052,inf,,,0.9334015031968758
593,,0.0,0.0,1.7152407427740506,1.712281493343573,0.7066423185277543,0.17307955820326162,0.19785307101571334,,,0.4928685327679205,inf,,,0.8820274094036181
594,,0.0,0.0,1.3056867905288003,1.2021458975595218,0.4022302014215599,0.573939933294076,0.283148899232493,,,0.524519217297268,inf,,,0.8256376462815708
595,,0.0,0.0,1.2448642238099032,1.2048497244622227,0.6113779574155882,1.9026122941547,1.4236586786780299,,,0.5329562494928909,inf,,,0.8759371689294884
596,,0.0,0.0,1.7382400190144536,1.719538436721786,0.8551144498526336,0.04451066074112264,0.07740119275400287,,,0.5022576003740722,inf,,,0.784141805146806
597,,0.0,0.0,1.7295394428138489,1.6852163543434473,0.8499880202533502,0.03394656320021873,0.06744858813551854,,,0.524519217297268,inf,,,0.7804833580244175
598,,0.0,0.0,1.5677183780780917,1.5443246735973775,0.875659067021053,0.0418122037412193,0.0838149996587416,,,0.5287703885177266,inf,,,0.8002066933740178
599,,0.0,0.0,1.3563795078063008,1.3486416063043132,0.8728407162961608,0.042898511856131485,0.08685203833638422,,,0.43586655696697996,inf,,,0.8161784579576401
600,,0.0,0.0,1.4847386885076743,1.4257449957121016,0.9045383243719117,0.04251810717443853,0.08368233704537295,,,0.4880666971167561,inf,,,0.8106743821502003
601,,0.0,0.0,1.4827010783827685,1.425818742428823,0.8936643120776053,0.04322652239634795,0.08619109814120113,,,0.4576907132971797,inf,,,0.8128990597712207
602,,0.0,0.0,1.6985539785072454,1.642463721184146,0.9193529522130117,0.06048663235932576,0.12139324125561526,,,0.48319206230712763,inf,,,0.8147235004837079
603,,0.0,0.0,1.421058847698347,1.4088047593660116,0.9203527328995985,0.08063597198876965,0.16274422925561835,,,0.5022576003740722,inf,,,0.8148045546730717
604,,0.0,0.0,1.5286244562070723,1.515531633049194,0.8617521199290796,0.05611406261501652,0.09704771239455945,,,0.48319206230712763,inf,,,0.7710512679984639
605,,0.0,0.0,1.5471156332793181,1.498155383319143,0.9167072520755917,0.06278726164292302,0.11081782715977506,,,0.48319206230712763,inf,,,0.7976608413623246
606,,0.0,0.0,1.6336615732201565,1.605762297141994,0.9158323456749609,0.07936170689301175,0.15945037273008777,,,0.43586655696697996,inf,,,0.8164030458004164
607,,0.0,0.0,0.8838953677616433,0.8338533537278406,0.40708935414474345,0.18451093043104105,0.17819261689887528,,,0.44144624493110796,inf,,,0.9192759059287696
608,,0.0,0.0,1.6703877676448482,1.6597329664686777,0.8174117330933696,0.5304046801402648,0.4245380493204446,,,0.552929491858785,inf,,,0.8909359607106729
609,,0.0,0.0,1.539347291901901,1.5070323439032904,0.8193615039534364,0.3189721604082771,0.37262391213888685,,,0.45235697871908603,inf,,,0.8113872997836721
610,,0.0,0.0,1.7265158863762247,1.7331050396625558,0.3869944695941682,0.5151332592784376,0.590008273852801,,,0.43586655696697996,inf,,,0.9004051458846494
611,,0.0,0.0,1.7363564460514587,1.6827641297254503,0.6430010017712884,0.5257237192723332,0.7252992251525249,,,0.524519217297268,inf,,,0.8486317892891461
612,,0.0,0.0,1.6603886496142573,1.5919941327506089,0.7237833556715811,0.7497458235708223,0.9502516434139999,,,0.468121228110369,inf,,,0.8760861304272954
613,,0.0,0.0,1.5891979508581622,1.5949962916856637,0.6912294649630563,0.36791698670927797,0.4929101678079901,,,0.5022576003740722,inf,,,0.836605981148899
614,,0.0,0.0,1.7701575651273105,1.7616733533478626,0.5796234724545776,0.36881399870994985,0.48481546617160837,,,0.5451288209179292,inf,,,0.8701977113929211
615,,0.0,0.0,1.6016439156482387,1.5798970486231592,0.8319338115248828,0.41774685782801957,0.6647799932944312,,,0.47824363442641393,inf,,,0.7706406693930931
616,,0.0,0.0,1.7166848538994057,1.701876667925575,0.8629039021515837,0.43753446063841667,0.651580264482443,,,0.1687963801566332,inf,,,0.7108389080641697
617,,0.0,0.0,1.3694484167135537,1.3504793461836677,0.8039148610019313,2.0269843860600645,1.9235287020127152,,,0.49759852643134905,inf,,,0.9130441666526671
618,,0.0,0.0,1.5010549023214326,1.4404095472267324,0.8432443679174129,2.0156317368762595,1.5808824921368978,,,0.5022576003740722,inf,,,0.9271733211981312
619,,0.0,0.0,1.7015786323918705,1.6729612227413682,0.7390250155343118,1.795971496688076,1.4904041369405487,,,0.5567373465730988,inf,,,0.9236168899530813
620,,0.0,0.0,1.778506794819862,1.7655708093852436,0.8364133038584634,1.5390256678601768,1.5514736046037334,,,0.5451288209179292,inf,,,0.9416536385361131
621,,0.0,0.0,1.6692232605680664,1.6371526992725312,0.7351717710620629,1.3016470516945446,1.1050081635108768,,,0.585052858160615,inf,,,0.948691632861342
622,,0.0,0.0,1.6614596071028096,1.635316718670437,0.7116007991362948,0.7395714431981094,0.9355589377010038,,,0.5567373465730988,inf,,,0.8465648185141589
623,,0.0,0.0,1.5690236962492499,1.557037683395725,0.6843425656923946,1.1514554350635962,1.102083159772923,,,0.524519217297268,inf,,,0.942431187470967
624,,0.0,0.0,1.508388732862906,1.4839804128740686,0.6880635250553659,0.8494756654077886,0.9839473429466076,,,0.47824363442641393,inf,,,0.9492055491541044
625,,0.0,0.0,1.287551267972616,1.2683455530154482,0.6978228878665291,0.8621101143779075,1.0930706021075551,,,0.48319206230712763,inf,,,0.9257909228491878
626,,0.0,0.0,0.9786538452061502,0.9305602607869451,0.7392443671515789,1.1159920915756394,1.195049095088865,,,0.5370774965580548,inf,,,0.9364381496557315
627,,0.0,0.0,1.5099748926251548,1.4755557092929272,0.7352157804366998,0.8876526802906504,1.1518723136568272,,,0.4629450596409901,inf,,,0.9055637732942453
628,,0.0,0.0,1.739059478620714,1.6939300546797138,0.5850283990553554,0.8201011193598533,0.8667796442881308,,,0.4576907132971797,inf,,,0.9096016967774596
629,,0.0,0.0,1.6694995415616845,1.6231361011932113,0.6410830263311971,0.6212559177232352,0.7962323426825307,,,0.44144624493110796,inf,,,0.9171520761476775
630,,0.0,0.0,1.7305437283456209,1.7266264953805799,0.6809412214458624,0.8425416919089005,1.0168192658189628,,,0.5022576003740722,inf,,,0.9471825943028058
631,,0.0,0.0,1.7286740711846529,1.7134657735487278,0.7622145801780346,0.5268483808142886,0.6472924376982613,,,0.5113665138247345,inf,,,0.9448694033899654
632,,0.0,0.0,1.7066077580949996,1.6668934311220147,0.8447551259790945,0.5213247731808798,0.7186769217363266,,,0.5022576003740722,inf,,,0.9308275480439852
633,,0.0,0.0,1.6535551530017052,1.5685850556652818,0.6701947051462046,0.7388766947621712,0.7148866990870445,,,0.4928685327679205,inf,,,0.9438480639692304
634,,0.0,0.0,1.4954672934544022,1.4781849913982197,0.6850844143784492,0.6085621389543087,0.6014851281471882,,,0.4928685327679205,inf,,,0.9481733831022251
635,,0.0,0.0,1.7743193603859888,1.7770541148514836,0.8365242798425048,0.5248051918949063,0.67390855935699,,,0.49759852643134905,inf,,,0.9111485415551115
636,,0.0,0.0,1.5098278992083987,1.4893285114187522,0.6577447798050963,0.8769531796167611,0.7510162915183352,,,0.5287703885177266,inf,,,0.9497106283847054
637,,0.0,0.0,1.2352728532062147,1.181558787106699,0.6892578289070146,0.6301347799632848,0.753601904728763,,,0.5490601803369085,inf,,,0.9385856431335029
638,,0.0,0.0,1.7150190997402692,1.6755632982823419,0.5407240248848137,0.46888433624992787,0.5369336394475281,,,0.5158180382284114,inf,,,0.7662708962022086
639,,0.0,0.0,1.2518316843283626,1.217750097020415,0.7543985672703865,0.520164689282841,0.6110791449223231,,,0.4629450596409901,inf,,,0.7509379447341439
640,,0.0,0.0,1.7222143138985357,1.574103943518615,0.6070032424717081,0.7902409044805031,0.7983122031492585,,,0.5068466436745385,inf,,,0.8957066925042969
641,,0.0,0.0,1.6424471387410704,1.6369493256625478,0.7521810365848377,1.3782599583865114,1.326331777749619,,,0.5490601803369085,inf,,,0.9058523554080987
642,,0.0,0.0,1.4083849825742591,1.3880320391381704,0.5072061667441877,1.1631183794031348,0.610578870423472,,,0.48319206230712763,inf,,,0.6131086454720459
643,5.7037824746562,-5.7037824746562,0.0,1.6703545776027937,1.6633707577350392,0.0924310224784173,1.149529348220349,0.6105210989444534,,,0.524519217297268,5.703782474656201,inf,,0.6263987794195617
644,,0.0,0.0,1.7360070770280023,1.726839923302791,0.49023792281541356,0.3379255434197347,0.36870763752606905,,,0.44694259446804574,inf,,,0.937371285512771
645,,0.0,0.0,1.5446740926775475,1.4875924986673743,0.6776464484447278,0.5522170090054905,0.39579267183662015,,,0.49759852643134905,inf,,,0.9414263983287137
646,,0.0,0.0,1.678586208722952,1.6377556882211959,0.6094649459730352,0.5517389265318067,0.2798614763485118,,,0.4629450596409901,inf,,,0.9477640055421305
647,,0.0,0.0,1.627704992613794,1.6063025850051462,0.6859337317914297,1.141110373612804,0.8679914831910049,,,0.47824363442641393,inf,,,0.8621942854842324
648,,0.0,0.0,1.6564194420644245,1.6449985328653332,0.7964447514332744,1.200404181734644,0.9452252754294741,,,0.4732203808476458,inf,,,0.8626450769640645
649,,0.0,0.0,1.7091578069809594,1.711795467576295,0.8199679117272237,1.4252350687935293,1.320210796163651,,,0.4732203808476458,inf,,,0.9499640619471653
650,,0.0,0.0,1.7340157973844106,1.7213199178049032,0.6227189995647925,1.2378114014104777,1.2201780639604565,,,0.43586655696697996,inf,,,0.945023878323253
651,,0.0,0.0,1.7366600564125407,1.7171520320203937,0.5715653636948603,1.0157058811572988,1.2362502078398405,,,0.45235697871908603,inf,,,0.5788801749072959
652,,0.0,0.0,1.6073806158379502,1.609761399448026,0.584205187265415,1.0429552653098846,0.6160633752978604,,,0.4928685327679205,inf,,,0.8122584085943749
653,,0.0,0.0,1.565425797020986,1.4929285045570102,0.665439825115595,0.7319396652422638,0.44948611037944297,,,0.21876365787541036,inf,,,0.9301298819327506
654,,0.0,0.0,1.565425797020986,1.5234112828311128,0.7588759053343761,1.4207660446502905,1.3444420322247392,,,0.1995021272786615,inf,,,0.8482876319190927
655,5.703782474656203,-4.639076412720378,0.0,1.565425797020986,1.5430296782337862,0.389204399706768,1.3957001771206385,0.791535405013438,,,0.1792956407887421,5.910396724019201,inf,,0.6946865573436882
656,,0.0,0.0,1.7470993451154868,1.624511981800069,0.24649313685065075,0.6059672942392714,0.4291446564006054,,,0.585052858160615,inf,,,0.9517568488514386
657,,0.0,0.0,1.6069518550175346,1.630813152202354,0.6043637629759213,0.24400264362534105,0.2560344172559291,,,0.541134803179459,inf,,,0.9268260577029674
658,,0.0,0.0,1.4958941465433502,1.3730319108382607,0.3702900113814812,0.7160016309963234,0.44176144238673454,,,0.43586655696697996,inf,,,0.9267010212452075
659,5.010635294096255,0.6898082792944322,-5.700443573390687,1.621527082861724,1.536687860562168,0.41158149733110266,1.265611941610274,0.8835022042928957,2.0464464308314336,,0.5641709578113449,5.0106352940962555,0.6964860818254599,inf,0.6644113207044946
660,,0.0,0.0,1.5210355178080939,1.486396263082417,0.7110133577788178,0.7905945343983917,0.7476810546827696,,,0.2548524784312949,inf,,,0.9405266357072993
661,,0.0,0.0,1.549515866733477,1.506578522402648,0.6473016607355611,0.5627464350736601,0.5913991563273869,,,0.5022576003740722,inf,,,0.9309272993888614
662,,0.0,0.0,1.3776586681190397,1.2703947120961538,0.36729546673888763,0.43201338369571113,0.36957304920841394,,,0.4928685327679205,inf,,,0.9502885884227121
663,,0.0,0.0,1.3822352944575955,1.372746570782142,0.572190279657615,0.5805775519169588,0.5205660863641586,,,0.1687963801566332,inf,,,0.9366623040381985
664,,0.0,0.0,1.3822352944575955,1.3226935327209284,0.4451352195147951,1.291350691070229,0.9778424955771248,,,0.22807408875533447,inf,,,0.9217760058237352
665,,0.0,0.0,1.3822352944575955,1.3737090510954677,0.7744854123550851,1.1466923941197131,0.8724115308554783,,,0.21876365787541036,inf,,,0.9448350987768136
666,,0.0,0.0,1.48741506987092,1.4703724868772698,0.802725726837341,1.7513827130322774,0.842936472884811,,,0.4928685327679205,inf,,,0.9477246068355514
667,,0.0,0.0,0.8896990060002599,0.8668175428654672,0.7895988903653435,2.0887871276958325,1.3095053762012125,,,0.5567373465730988,inf,,,0.9486167297218683
668,,0.0,0.0,1.296571370149103,1.2566723662767303,0.6724374208700997,1.4361627120291862,1.0695347605969097,,,0.6097226960127671,inf,,,0.9400971421527992
669,,0.0,0.0,1.6381536057817527,1.560789446113522,0.7407463210057516,0.769883436215894,0.5562524204836109,,,0.4928685327679205,inf,,,0.9297392417200492
670,,0.0,0.0,1.5694742431704174,1.5277793677732794,0.6791238157177645,0.6012681833408617,0.48940660169100003,,,0.5158180382284114,inf,,,0.9179894460187431
671,,0.0,0.0,1.7076122568976908,1.6700925533549187,0.6518669434778509,1.2818468117654076,1.8517609627533607,,,0.49759852643134905,inf,,,0.9423003380206999
672,,0.0,0.0,1.676381053470345,1.6337241310434454,0.9339670317414227,1.292045947495656,2.2116189504363124,,,0.5287703885177266,inf,,,0.8694578796385787
673,,0.0,0.0,1.268294586459953,1.2408168113869305,0.6510312575629456,0.8325445897771355,0.9945702682179048,,,0.5451288209179292,inf,,,0.9111091847578806
674,5.703782474656199,-1.4829834434106117,0.0,1.6526638578339656,1.6104893023479032,0.4305907087932471,1.5810675039595097,1.1425036133892,,,0.48319206230712763,7.05085612262281,inf,,0.671605272934893
675,5.070708049744783,-5.070708049744783,0.0,1.575672777263414,1.440969793706332,0.2690447816678174,1.1921304555706964,0.8741950154572389,,,0.5113665138247345,5.054935552992836,inf,,0.5258266347558275
676,,0.0,0.0,1.605458980397775,1.5843786700719262,0.6830195382583341,1.0148419297369788,0.6162963677263809,,,0.552929491858785,inf,,,0.9328698542555731
677,5.7037824746562,-5.7037824746562,0.0,1.6133953052989671,1.5301871730737984,0.6196557678624425,1.8233878545043423,0.9503949558442684,,,0.5641709578113449,5.703782474656201,inf,,0.5727739696811984
678,5.1654381644213085,-1.9243832899182425,-3.241054874503066,1.7289408729183329,1.662438163053582,0.5691418908253985,1.9700425196787925,0.6205243224951364,1.1842472864024312,,0.541134803179459,5.129043525146558,1.1427229871155828,inf,0.6977522595899787
679,,0.0,0.0,1.6049983390301634,1.5304115014285222,0.5450132593730468,1.3860993511385802,0.6999609587804512,,,0.47824363442641393,inf,,,0.9068784798404272
680,,0.0,0.0,1.5696138119197625,1.5588179766552306,0.5478013884955524,1.2094628821178086,0.7336762799068555,,,0.552929491858785,inf,,,0.6637338017363518
681,5.7037824746562,-5.7037824746562,0.0,1.4033033204692582,1.3614871147210437,0.4688081621190928,1.6709080274164012,0.84499113346361,,,0.5113665138247345,5.703782474656201,inf,,0.6378653047792407
682,,0.0,0.0,1.7176985910219487,1.73971369458408,0.39823587006802813,1.3713365243939668,1.3244966209337998,,,0.5641709578113449,inf,,,0.7572972661019579
683,,0.0,0.0,1.6778669623626956,1.6485660614854478,0.7533956010579225,1.9049120594175901,1.000517865020811,,,0.5490601803369085,inf,,,0.855123488594612
684,5.7037824746562,-5.7037824746562,0.0,1.7131789855216588,1.5795591677832805,0.40522002686697944,1.8128872851021496,1.4101016670656479,,,0.5677978065141052,5.703782474656201,inf,,0.5594316116169381
685,,0.0,0.0,1.5034049606503597,1.454946533666405,0.6705119076798607,1.332342659362455,1.0309197025979513,,,0.5451288209179292,inf,,,0.9548750809512545
686,5.7037824746562,-5.7037824746562,0.0,1.592824649707767,1.594726186492257,0.6611718382101996,2.3654388835258913,1.9598770263096457,,,0.4732203808476458,5.703782474656201,inf,,0.7060728794816478
687,3.986167105191021,-3.986167105191021,0.0,1.5190974644497612,1.4948657602216084,0.4920118235157276,2.3955899278945934,1.8065053927824186,,,0.5947193981915972,3.9822070622852506,inf,,0.5805796528679189
688,4.498130239829516,-4.498130239829516,0.0,1.7014835979078946,1.6902744146944406,0.6703734119279273,1.6495226173145097,1.0774728791659989,,,0.552929491858785,4.472194503297292,inf,,0.943336719685406
689,,0.0,0.0,1.383227291665614,1.384445363919969,0.7438910285534717,1.9593153014356117,1.4883705525609578,,,0.5068466436745385,inf,,,0.9502308194821745
690,,0.0,0.0,1.5373783808005035,1.5526646048627541,0.7700864785148283,2.3766139583814696,1.5461963004649024,,,0.5604843169999094,inf,,,0.9520888653569478
691,,0.0,0.0,1.4582437637158878,1.4211665587880478,0.7963040711403899,2.1236746552875996,1.4917744386720013,,,0.5604843169999094,inf,,,0.9437078743674526
692,5.010635294096255,-5.010635294096255,0.0,1.6714475396484823,1.6422889623851489,0.7351387425886023,2.153271624125902,1.6075390608108169,,,0.5068466436745385,5.0106352940962555,inf,,0.9342030324681363
693,5.7037824746562,-5.7037824746562,0.0,1.2517775950755292,1.2332240609567848,0.8272263236835449,2.477056010800407,1.2963036501079834,,,0.5641709578113449,5.703782474656201,inf,,0.9324863802328381
694,,0.0,0.0,1.5217210949675148,1.4973938945382397,0.7678444245247225,1.0942442325873087,1.0633320338768864,,,0.47824363442641393,inf,,,0.9515475179483561
695,,0.0,0.0,1.2140456346408328,1.1372590449421123,0.29225087003131855,0.6857622632561071,0.5554186014943058,,,0.49759852643134905,inf,,,0.6997253087620091
696,,0.0,0.0,1.3418113613819003,1.3313235893961461,0.5401142145393606,0.7320827498389948,0.6916878455721124,,,0.4629450596409901,inf,,,0.924275185796113
697,,0.0,0.0,1.6212846041277345,1.5536575728368802,0.7595635813923807,1.8536177734500483,1.2648736353767445,,,0.5883313578629602,inf,,,0.9513893634926848
698,5.7037824746562,-5.7037824746562,0.0,1.4981393722452898,1.4514596022275388,0.373387303484396,1.8576190426595338,1.863930103214212,,,0.5567373465730988,5.703782474656201,inf,,0.6208465378192027
699,,0.0,0.0,1.601763952217119,1.5511418876491465,0.611314945440708,1.2462038767819348,1.0941863898343798,,,0.5158180382284114,inf,,,0.9133881482325865
700,,0.0,0.0,1.528286846789681,1.53118261312254,0.6265824887235367,0.6978014785382977,0.7110372328093032,,,0.49759852643134905,inf,,,0.8754419956392596
701,,0.0,0.0,1.682450942146203,1.6331921688717126,0.4495523589898241,0.7257291257001685,0.5636991253812837,,,0.541134803179459,inf,,,0.9527802813793046
702,,0.0,0.0,1.6827113908337519,1.6555934961131984,0.683573060090666,1.0866872300411465,0.8030909806966495,,,0.5287703885177266,inf,,,0.9370372506255038
703,,0.0,0.0,1.6575679118760562,1.4441249977422652,0.5564517826000361,0.861859824245503,0.6334210972403708,,,0.5113665138247345,inf,,,0.9062193124258268
704,,0.0,0.0,1.6466503884801513,1.6435205771580745,0.6350233231228923,2.123610869288511,1.682943312049297,,,0.552929491858785,inf,,,0.9390183307475983
705,,0.0,0.0,1.6092874430319903,1.5620485049770412,0.35876192732741735,1.5585052315391514,1.4049485892081088,,,0.48319206230712763,inf,,,0.5169839298857446
706,,0.0,0.0,1.7055728865664779,1.6940920915019035,0.807193633911966,0.7798748589784017,0.7398637165233395,,,0.47824363442641393,inf,,,0.9297099459060099
707,,0.0,0.0,1.7194793717409913,1.669147417345028,0.6115823168435449,0.9690386409492836,0.8571600276059547,,,0.45235697871908603,inf,,,0.9485598010680073
708,,0.0,0.0,1.6961707301417543,1.6403958727568204,0.6658345645019094,1.2674687506726243,0.6431688432412328,,,0.5604843169999094,inf,,,0.9488771171582078
709,,0.0,0.0,1.6172360572650826,1.627036897985847,0.6179844101753335,2.587601607522975,2.3604761156203073,,,0.5604843169999094,inf,,,0.5989824535137537
710,,0.0,0.0,1.6451311219850768,1.5936558792380888,0.7635691617187378,2.149784652147126,2.446402360702635,,,0.4928685327679205,inf,,,0.9343873534968835
711,,0.0,0.0,1.6284373855401189,1.615337907707287,0.884052860633689,2.3100732413567404,2.2571912361270354,,,0.5022576003740722,inf,,,0.9415772353780697
712,5.703782474656203,-4.087710773503612,0.0,1.4550259374260581,1.4514763380242413,0.5270281370236742,1.8914153933758806,1.4129082567708457,,,0.5567373465730988,6.036926921184739,inf,,0.8009862659366587
713,,0.0,0.0,1.7148651604212035,1.6804362090310014,0.8631993608790419,1.9886880109371947,1.8636368718751055,,,0.5451288209179292,inf,,,0.9466626980650636
714,,0.0,0.0,1.3135550943077017,1.3051757865771594,0.6069337732596704,1.965718535894684,1.626964194448598,,,0.5451288209179292,inf,,,0.6427037334156713
715,,0.0,0.0,1.5847475560767466,1.5591741334565992,0.627626360233801,2.3958124106467213,1.6992477529343764,,,0.6038851895711802,inf,,,0.8014973251611813
716,,0.0,0.0,1.6978108735673059,1.667255576519127,0.8346486845912647,2.2822476330158152,1.9132433199390073,,,0.6097226960127671,inf,,,0.9025216506423228
717,,0.0,0.0,1.7072483576874213,1.6752077461665498,0.7318189121151837,1.6152181997391262,1.0108917474625525,,,0.524519217297268,inf,,,0.9242351428455962
718,5.7037824746562,-1.42594561866405,0.0,1.5812051720199147,1.5528916541636568,0.594459966634667,1.3117555411128718,1.087648031071436,,,0.5287703885177266,7.090076835776092,inf,,0.9459276436516468
719,,0.0,0.0,1.565015435200118,1.5402327153961752,0.525679456586981,0.6021582019446785,0.7611409160328872,,,0.5748741956352443,inf,,,0.933237466972401
720,,0.0,0.0,1.356208324581601,1.3601398580433424,0.6859922198568122,0.6062646474427668,0.9052498940109104,,,0.43586655696697996,inf,,,0.8765419011349314
721,,0.0,0.0,1.7738919200810586,1.7252124554309056,0.6711571866188728,0.5440822132785221,0.5647738214419663,,,0.4576907132971797,inf,,,0.924701060196711
722,,0.0,0.0,1.5660684521693613,1.5133329958652537,0.8550061652496049,0.46375900524655056,0.6416899788320322,,,0.43586655696697996,inf,,,0.8692330884923405
723,,0.0,0.0,1.4136585935390815,1.3788765021532643,0.6287070357497513,0.49813611585323514,0.7590657372605631,,,0.5113665138247345,inf,,,0.8627836704400709
724,,0.0,0.0,1.67912890929423,1.6742717738328667,0.9511283909262631,0.5638462209086023,0.8521410600049963,,,0.4576907132971797,inf,,,0.8031385735885406
725,,0.0,0.0,1.781638037297289,1.7553914107059214,0.9529340006925079,0.5000436339002035,0.7498854442455121,,,0.4629450596409901,inf,,,0.831357759789019
726,,0.0,0.0,1.7735866150410258,1.7474871308402409,0.9515782426267938,0.5364307114033646,0.8144292354780229,,,0.42445136339222655,inf,,,0.8190392738605865
727,,0.0,0.0,1.7647008295184976,1.7339248190678067,0.9611391020191543,0.6481574561330714,1.062281426704299,,,0.4302020962658841,inf,,,0.8010164795825191
728,,0.0,0.0,1.7865802432410292,1.7705370833855745,0.967823142030524,0.7642165853448311,1.2982136250415504,,,0.5113665138247345,inf,,,0.8220641679195585
729,,0.0,0.0,1.7177440169135774,1.6927326096986222,0.9665661551632,0.7797214753598993,1.378280873810263,,,0.5329562494928909,inf,,,0.763588597765084
730,,0.0,0.0,1.2801783181234136,1.2532091504147558,0.5423993007114833,0.8871793253497499,1.4833757377017904,,,0.5113665138247345,inf,,,0.8959717735976855
731,,0.0,0.0,1.6491811786407184,1.5870473482343501,0.731543229484708,1.0714813158420264,1.1489829404109304,,,0.48319206230712763,inf,,,0.8816045781285708
732,,0.0,0.0,1.6832635114888723,1.6657797448593972,0.8890898721867082,0.3192575347862317,0.44911603076132506,,,0.38804190201132227,inf,,,0.7922718233010415
733,,0.0,0.0,1.2143943187219024,1.1950297945784258,0.9130484900883655,0.377802612654106,0.46457894102874897,,,0.4302020962658841,inf,,,0.7978924649465712
734,,0.0,0.0,1.4733197764716923,1.431957743002978,0.8361890568448325,0.46284464664775243,0.6041966382147501,,,0.44694259446804574,inf,,,0.826764441093245
735,,0.0,0.0,1.5943158055799223,1.5941157295261412,0.9619762601938829,0.4488437489377945,0.6932569063208565,,,0.42445136339222655,inf,,,0.8231602280731132
736,,0.0,0.0,1.4833239858076464,1.4563282634472474,0.7919054717005549,0.7060787708927309,0.8410571727515821,,,0.4732203808476458,inf,,,0.9273402583362875
737,,0.0,0.0,1.5137690417778242,1.484333808268242,0.8684313704231096,0.5485810659395916,0.8082635472765048,,,0.45235697871908603,inf,,,0.7827708749280455
738,,0.0,0.0,1.6787481755921843,1.5844085173684335,0.9540203641027913,0.7980336641068538,1.091725363278718,,,0.4302020962658841,inf,,,0.7890717540602152
739,,0.0,0.0,1.6473181492549744,1.6300395815923108,0.8186825831528673,0.5439860871983936,0.5124354203912211,,,0.47824363442641393,inf,,,0.8648918848839049
740,,0.0,0.0,1.6707816958982034,1.6386812395946686,0.9381845049799195,0.4125580774699644,0.6908688321299737,,,0.47824363442641393,inf,,,0.824489096980687
741,,0.0,0.0,1.782043471051078,1.7644230123953006,0.9497198877554451,0.4826754150864737,0.9480684368189343,,,0.468121228110369,inf,,,0.7928368545464738
742,,0.0,0.0,1.7819928782968362,1.7482270938188131,0.9710743351936956,0.499551809526168,0.9409310149448417,,,0.41268473150466,inf,,,0.7807680065620071
743,,0.0,0.0,1.772384671484922,1.7414763534152886,0.9646060901850149,0.4100679746049625,0.773194086287027,,,0.4732203808476458,inf,,,0.8008116537586185
744,,0.0,0.0,1.5313723927824603,1.5074205783210148,0.535848151017726,0.48735936478395275,0.713028749608224,,,0.4629450596409901,inf,,,0.9058616807767625
745,,0.0,0.0,1.7555324792885996,1.7119188877656473,0.889136885573379,0.11298877149728843,0.2070154715893609,,,0.4302020962658841,inf,,,0.7628774932309573
746,,0.0,0.0,1.7612512665650137,1.7251891721263792,0.9249632015754664,0.14617355571607835,0.24101994201018195,,,0.4928685327679205,inf,,,0.7824344647323751
747,,0.0,0.0,1.7167037609662459,1.6351617836327668,0.6273591812409494,0.49627263438968455,0.44677730102092167,,,0.5022576003740722,inf,,,0.9293728380511973
748,,0.0,0.0,1.5900841576083047,1.5517718630353017,0.6315767674824411,0.2894914565598719,0.38874186076683065,,,0.5202020156036558,inf,,,0.8670835506289413
749,,0.0,0.0,1.7091994332074059,1.6360672938395702,0.889188409829623,0.1697623299713664,0.28375580595041694,,,0.45235697871908603,inf,,,0.8039538915625645
750,,0.0,0.0,1.5279434844142774,1.477894824099462,0.5829152768734772,0.3892444312953439,0.4995736582893032,,,0.4302020962658841,inf,,,0.9036324353885643
751,,0.0,0.0,1.637846628315565,1.5755235946015758,0.9416276693068064,0.5565775604138182,0.8662724703609137,,,0.45235697871908603,inf,,,0.8266055407716659
752,,0.0,0.0,1.6766427108125743,1.6879054668227789,0.40409061219536246,0.4341709880388045,0.5753731890420173,,,0.4302020962658841,inf,,,0.9463785800960586
753,,0.0,0.0,1.6754587141892903,1.617318731770095,0.9621444042349375,0.30061477604569237,0.5913720847280977,,,0.44144624493110796,inf,,,0.7830213033217125
754,,0.0,0.0,1.6676290393648445,1.6409884157483146,0.932618694678137,0.28554763457492194,0.5466336822842865,,,0.40055318934786044,inf,,,0.8151042764979703
755,,0.0,0.0,1.5753115639461877,1.565845028866755,0.9433868847029597,0.37109014281043823,0.7225917866984981,,,0.3480560589391537,inf,,,0.8080761947950309
756,,0.0,0.0,1.5935841076137096,1.5546359484511125,0.9432723642808939,0.46160953989796644,0.8595753705615938,,,0.3943459996787778,inf,,,0.800103430090644
