,bvp+temp_XAp0,bvp+temp_XAp1,bvp+temp_XAp2,bvp+temp_XCond1,bvp+temp_XCond2,bvp+temp_XDist,bvp+temp_XFuzz1,bvp+temp_XFuzz2,bvp+temp_XK2_1,bvp+temp_XK2_2,bvp+temp_XPermEn,bvp+temp_XSamp0,bvp+temp_XSamp1,bvp+temp_XSamp2,bvp+temp_XSpec
0,5.703782474656203,-4.715126845715794,0.0,1.7482169842635793,1.7060179364148784,0.6691333131201851,2.9191974291483302,3.0536655268015793,,,0.5370774965580548,5.89413620314742,inf,,0.9176026883759457
1,5.7037824746562,-5.7037824746562,0.0,1.5078125564879599,1.4902854122760942,0.7360473384708078,2.7736938524735204,2.2992579511863735,,,0.552929491858785,5.703782474656201,inf,,0.9319824090551406
2,5.010635294096255,-5.010635294096255,0.0,1.4907288595372061,1.4697520201164758,0.8094916267674918,2.9649498066480664,2.168456424252073,,,0.5068466436745385,5.0106352940962555,inf,,0.9197612974806811
3,,0.0,0.0,1.4608010067318002,1.4394571258752775,0.7313950024175733,2.878717510202967,3.1053475557820587,,,0.5490601803369085,inf,,,0.8968719596665055
4,,0.0,0.0,1.7068663511513946,1.663380287682292,0.6961220612071642,2.9174045595511404,3.082061776987728,,,0.45235697871908603,inf,,,0.9393478382085078
5,,0.0,0.0,1.7296416607688916,1.7017318156296342,0.8701026718631354,3.101496227364734,2.1212053547348106,,,0.49759852643134905,inf,,,0.945904681967046
6,5.7037824746562,-5.7037824746562,0.0,1.620760027970918,1.5975988131360603,0.8369080896165465,2.930308294486494,3.204009862026148,,,0.5329562494928909,5.703782474656201,inf,,0.9368722540398029
7,5.010635294096255,-5.010635294096255,0.0,1.6168798998340455,1.5679852329463948,0.7906408573840633,3.147415338620834,4.912159361299073,,,0.4928685327679205,5.0106352940962555,inf,,0.9256223850408967
8,5.292515147523966,-5.292515147523966,0.0,1.7456872603584515,1.7252521918908803,0.6988549070084441,3.2204575151174732,4.135741772040984,,,0.48319206230712763,5.237954216820946,inf,,0.8072730376378484
9,4.65247444860071,-4.65247444860071,0.0,1.7530673758116253,1.7282451169092714,0.7312948330105701,2.9588842596756137,2.4202669242165666,,,0.5287703885177266,4.644835442380523,inf,,0.8895897664358446
10,5.7037824746562,-5.7037824746562,0.0,1.7537946712672028,1.750317043040009,0.7978954234038719,4.167631654756685,5.6046166487255205,,,0.45235697871908603,5.703782474656201,inf,,0.6829055215121786
11,5.7037824746562,-5.7037824746562,0.0,1.5914684019906642,1.5696537163138833,0.7103519724308583,3.442052783632192,3.326506982668955,,,0.5329562494928909,5.703782474656201,inf,,0.8017812636798469
12,4.605170185988091,-4.605170185988091,0.0,1.754440543621332,1.7463045945095865,0.6381353815685255,3.1816208605746445,3.58114227105131,,,0.5158180382284114,4.605170185988091,inf,,0.8195510718175414
13,5.131823125416092,-5.131823125416092,0.0,1.5132417443390793,1.508508902524764,0.5466765620294548,3.5251535914802448,2.3785835693415116,,,0.4880666971167561,5.079628165583207,inf,,0.7441876508277006
14,5.652951681415138,-5.652951681415138,0.0,1.3911662869279515,1.3758216176569822,0.7867855376999543,3.2588264367456277,8.955018484679865,,,0.5202020156036558,5.633013403767994,inf,,0.6612668066683942
15,4.298149005755745,-4.298149005755745,0.0,1.7544164451215225,1.736715792429512,0.713926953629944,3.787099573750263,2.046240881099656,,,0.4576907132971797,4.296052832816246,inf,,0.5672235197977918
16,4.0943445622220995,-4.0943445622220995,0.0,1.5804761392208924,1.5551758295929947,0.6454987785365185,3.4788579866209743,2.864592444198599,,,0.47824363442641393,4.0943445622221,inf,,0.6715140827550188
17,,0.0,0.0,1.6678483479789756,1.66505213011191,0.6099961151631219,2.966222646340302,2.8471571394162267,,,0.468121228110369,inf,,,0.8306186282533995
18,4.604211245746585,-4.604211245746585,0.0,1.705788473037025,1.6909516793119235,0.6797304660485053,2.893204400731701,2.0817525523658955,,,0.48319206230712763,4.604059691704064,inf,,0.7599022189122657
19,5.703782474656202,-3.4602947012914287,0.0,1.340691588933204,1.327471363850158,0.6638179665626188,2.4399424378822503,2.1924835566052208,,,0.5287703885177266,6.203558262235607,inf,,0.521791242803582
20,5.010635294096255,-5.010635294096255,0.0,1.5920236108173769,1.5877768732107687,0.7577837762813765,2.78471498850658,2.2165472478637738,,,0.5287703885177266,5.0106352940962555,inf,,0.6118544803963633
21,4.964682581843996,-4.964682581843996,0.0,1.65353486357309,1.6157523009282935,0.7407264644084863,3.352985370718737,7.005194446884418,,,0.5490601803369085,4.955515994875176,inf,,0.7070725399314421
22,4.605170185988091,-4.605170185988091,0.0,1.666263651925116,1.6648149359306672,0.6545594217777728,3.437338121244311,7.824785812263162,,,0.5202020156036558,4.605170185988091,inf,,0.7867565374477911
23,4.31748811353631,-4.31748811353631,0.0,1.4701155400403976,1.4675497237462058,0.6827863945738212,3.0588082195237676,2.340475794201341,,,0.541134803179459,4.31748811353631,inf,,0.7221190350919461
24,3.757872325600888,-3.757872325600888,0.0,1.7631239483452217,1.7569189487550347,0.7009658098156004,3.731446079989955,1.9062220135630907,,,0.42445136339222655,3.757872325600888,inf,,0.729266707242375
25,3.9120230054281455,-3.9120230054281455,0.0,1.6937029237465464,1.6719481609652105,0.5735655998736825,3.758478248767289,4.89498492789916,,,0.4928685327679205,3.912023005428146,inf,,0.8125376133013904
26,3.9120230054281455,-3.9120230054281455,0.0,1.7122103564589013,1.7231585571298302,0.8000470005734898,3.4624477117271724,7.000786157975114,,,0.5329562494928909,3.912023005428146,inf,,0.8099516473330933
27,4.256387017899636,-4.256387017899636,0.0,1.560396006762994,1.5122397834819274,0.7367236923944706,4.13679600928301,3.3564458610627526,,,0.4629450596409901,4.246719042648103,inf,,0.6122610991564308
28,3.9120230054281455,-3.9120230054281455,0.0,1.6427086934068966,1.662690273213196,0.7417174867707615,3.7028128212098848,6.973326592992648,,,0.524519217297268,3.912023005428146,inf,,0.6953775966285606
29,4.0943445622220995,-4.0943445622220995,0.0,1.6308249596295017,1.6385925827443486,0.7367594784025676,3.0601790639040263,3.458555581128824,,,0.468121228110369,4.0943445622221,inf,,0.5507089257771296
30,4.0943445622220995,-4.0943445622220995,0.0,1.4287712080659678,1.390668752872452,0.7794778036546692,3.1669869890141134,2.0563180540650965,,,0.43586655696697996,4.0943445622221,inf,,0.667010076493243
31,4.10550173978781,-4.10550173978781,0.0,1.722426832125545,1.7710390394422686,0.7406809396564531,3.3425707615661455,2.463440483480143,,,0.47824363442641393,4.104394898075602,inf,,0.7551997886816945
32,4.0943445622220995,-4.0943445622220995,0.0,1.6676034774981332,1.6544903440869831,0.730037433173978,3.438077756481638,3.7422104734562525,,,0.18952474069199465,4.0943445622221,inf,,0.7406182754736784
33,4.975366434834345,-4.975366434834345,0.0,1.608868811952309,1.5501842109921984,0.6765223271713114,2.820630466757196,2.9307318421611166,,,0.552929491858785,4.963433692611962,inf,,0.8535926544509861
34,4.448862926622623,-4.448862926622623,0.0,1.6720031013473795,1.6589297625853412,0.7976741027787123,3.7098754507355958,8.123131394876445,,,0.468121228110369,4.438714570970454,inf,,0.8815808361603753
35,3.401197381662155,2.299246191728532,-5.700443573390687,1.3745888465901421,1.3394113153346077,0.6912240871054454,3.3347460875780857,2.5102935445368524,2.299246191728531,,0.4629450596409901,3.4011973816621555,2.3059239942595604,inf,0.7534524686177884
36,,0.0,0.0,1.7043919263728229,1.6811779026133307,0.510275286548223,2.3046261720733923,2.3977462501505236,,,0.5202020156036558,inf,,,0.7173404109046303
37,,0.0,0.0,1.5850535809377462,1.5684342140649896,0.5205548057235957,2.0768165348852166,1.7913070052532611,,,0.5202020156036558,inf,,,0.7487824797338055
38,3.569768126455574,-0.9387941695060258,-2.630973956949548,1.5612795315892987,1.5321501097045953,0.7865240240192941,3.1928416521605367,2.7864001104880387,2.9424986509518956,,0.5202020156036558,3.5680393676077236,2.9122718965474736,inf,0.7631284307367258
39,4.31748811353631,-4.31748811353631,0.0,1.7480306430232484,1.7320458474170466,0.766473023090436,3.3672749814515135,1.7345528403404065,,,0.5329562494928909,4.31748811353631,inf,,0.8460005068183855
40,3.186858741798786,-3.186858741798786,0.0,1.6316082125081222,1.5891312646296385,0.8191611927108242,3.511479279922589,2.1939150164740524,,,0.4629450596409901,3.1860860020452098,inf,,0.7531143485871938
41,5.7037824746562,-5.7037824746562,0.0,1.606817406408541,1.5957176717932293,0.7141365678075444,2.7858671641372936,2.7673484502513745,,,0.4629450596409901,5.703782474656201,inf,,0.6983289463009152
42,4.882238009862003,-4.882238009862003,0.0,1.7152878453377998,1.6850983217360245,0.6064364231259735,3.385381982682435,5.3613938852643415,,,0.41861278947482794,4.86365310374761,inf,,0.7162297290603494
43,3.9387635004245922,-3.9387635004245922,0.0,1.6472351091508037,1.6122996231932816,0.8040602134164476,3.163086090650296,2.177950585881519,,,0.5113665138247345,3.93677117511734,inf,,0.6910144801608754
44,,0.0,0.0,1.6909723487797876,1.6519810670616302,0.6705782948033202,2.5622236817361967,2.801744721417076,,,0.44144624493110796,inf,,,0.7397282805425729
45,3.9648962568983923,-3.9648962568983923,0.0,1.621230192816721,1.5676455241387195,0.5770922454708536,3.1548086081275244,3.8556996973937885,,,0.5158180382284114,3.961563450988282,inf,,0.7207167223831465
46,4.0943445622220995,-4.0943445622220995,0.0,1.6208372965305005,1.6190607815172904,0.7104709396290757,3.6608107364841747,2.3741417999231054,,,0.5287703885177266,4.0943445622221,inf,,0.6691346216268792
47,4.0943445622220995,-4.0943445622220995,0.0,1.561871208435643,1.5429767109479233,0.7165021298926249,3.4591781814117564,3.4944759679003266,,,0.541134803179459,4.0943445622221,inf,,0.7505838123256771
48,,0.0,0.0,1.68655970511071,1.6827473210211927,0.5682604531816197,2.802027849175676,2.6299363178617345,,,0.4576907132971797,inf,,,0.7610242472722695
49,5.010635294096255,-5.010635294096255,0.0,1.5258039318625705,1.496107936284755,0.5980859629167841,2.918090063503589,3.1104472738352653,,,0.5158180382284114,5.0106352940962555,inf,,0.5153470119434089
50,3.624340932976365,-3.624340932976365,0.0,1.7387191433737952,1.7327945215913731,0.7913508794807231,3.6981173498238,4.3410447930526095,,,0.5451288209179292,3.624340932976365,inf,,0.5785910984261207
51,4.605170185988091,-4.605170185988091,0.0,1.7244841550235406,1.7049228796116778,0.6319428469940273,3.3706001462043944,5.5676141899262594,,,0.4880666971167561,4.605170185988091,inf,,0.7635188326451948
52,4.0943445622220995,-4.0943445622220995,0.0,1.5516878910557317,1.5109684490846327,0.6846434128989237,3.095811212078153,2.263366816174006,,,0.5202020156036558,4.0943445622221,inf,,0.6961093215417526
53,4.0943445622220995,-4.0943445622220995,0.0,1.6733436076779324,1.663200508104162,0.7555841826216564,3.517406506472996,6.866816744179182,,,0.5022576003740722,4.0943445622221,inf,,0.6952390408869095
54,5.19085356104184,-5.19085356104184,0.0,1.7033991968787972,1.620360732883877,0.715158748359234,1.9422018757186408,1.2155200374457849,,,0.541134803179459,5.149897361429764,inf,,0.8350758629829612
55,5.7037824746562,-5.7037824746562,0.0,1.6790685535176855,1.6164365937575498,0.5405443047374975,2.827622582493333,2.5147081626521883,,,0.4928685327679205,5.703782474656201,inf,,0.5968075141655487
56,,0.0,0.0,1.6137134332878493,1.6027454243310684,0.5519453718937188,2.689355209175239,2.9708794979433093,,,0.44694259446804574,inf,,,0.5955902116282715
57,4.0943445622220995,-4.0943445622220995,0.0,1.593772081058184,1.5948705465761108,0.6303274107481263,3.3212203377070013,2.443226748067131,,,0.5158180382284114,4.0943445622221,inf,,0.6050256759080798
58,,0.0,0.0,1.6353883078883673,1.6315308353458275,0.6452406730695075,2.4197377964201663,1.5971957830183707,,,0.5451288209179292,inf,,,0.7351716228974952
59,5.7037824746562,-5.7037824746562,0.0,1.4673004861318675,1.455405250647097,0.8182077793070031,3.2874699671021093,2.8455157045660013,,,0.4629450596409901,5.703782474656201,inf,,0.8834336275619038
60,5.7037824746562,-5.7037824746562,0.0,1.6507484861448498,1.6487819273535644,0.6200873066959649,3.1062349184954505,2.6864930622896144,,,0.5158180382284114,5.703782474656201,inf,,0.762708783086998
61,5.010635294096255,-5.010635294096255,0.0,1.7059690267383905,1.6833728961245678,0.6731197048285943,2.7992886502279983,3.3137240839031414,,,0.5068466436745385,5.0106352940962555,inf,,0.5758357758197233
62,4.605170185988091,-4.605170185988091,0.0,1.4946948879951516,1.4947899479307383,0.6808878819160471,2.9401312357833027,2.3238489679530048,,,0.4576907132971797,4.605170185988091,inf,,0.8598569059592822
63,5.049913634327985,-5.049913634327985,0.0,1.5311030009842863,1.4689296658916897,0.709091535110001,2.492572096878488,1.2309168108502555,,,0.5748741956352443,5.03937776296191,inf,,0.8239077464996352
64,5.010635294096255,-5.010635294096255,0.0,1.7436290875802496,1.6963155613053882,0.7528760766183104,3.0872581251743827,2.6835348033048785,,,0.468121228110369,5.0106352940962555,inf,,0.7893831392680299
65,4.0943445622220995,-4.0943445622220995,0.0,1.6824086864474426,1.6504769223667204,0.5264556232244783,2.647853159500806,2.0833402797060243,,,0.5567373465730988,4.0943445622221,inf,,0.7501333707815442
66,3.329079345610217,-3.329079345610217,0.0,1.5992988214588282,1.5174730429466456,0.7067649614114496,3.507684300152121,6.254207649450932,,,0.541134803179459,3.3282567572604402,inf,,0.8321972451442563
67,4.093129085176806,-4.093129085176806,0.0,1.4760952951892512,1.4298858292930345,0.6750392657056878,3.459139372028912,5.972600245608765,,,0.5451288209179292,4.093012116988322,inf,,0.771510150743515
68,3.757872325600888,-3.757872325600888,0.0,1.5104975631805346,1.4593323987050322,0.6270129852997082,3.302048633124291,5.042600812938072,,,0.5158180382284114,3.757872325600888,inf,,0.685436751978786
69,4.31748811353631,-4.31748811353631,0.0,1.436836946522127,1.4145736124307051,0.7912006143937107,3.2190974685072176,3.023286489103287,,,0.5113665138247345,4.31748811353631,inf,,0.7259996189927895
70,4.073402707098791,-4.073402707098791,0.0,1.7559989101138003,1.7463099435642426,0.714394414289714,3.4662008370414763,3.739550210157603,,,0.5567373465730988,4.058334124699067,inf,,0.8213780945170401
71,5.7037824746562,-5.7037824746562,0.0,1.7499253545801943,1.7677446659016436,0.7239441069542555,3.3800105610031235,3.5695155265625487,,,0.5287703885177266,5.703782474656201,inf,,0.6993198700057346
72,4.605170185988091,-4.605170185988091,0.0,1.7201603608722462,1.6865392672135424,0.7282500920623372,3.5987085156010767,5.313237397931594,,,0.5113665138247345,4.605170185988091,inf,,0.6640883037391977
73,3.401197381662155,-3.401197381662155,0.0,1.5824735840113349,1.5790283655056678,0.7221087959021617,3.204323432430215,2.69495810677006,,,0.5113665138247345,3.4011973816621555,inf,,0.6079953206763564
74,5.010635294096255,-5.010635294096255,0.0,1.617714399969072,1.5698570316662064,0.6459881473862268,3.335713881620718,2.5227978322129525,,,0.4576907132971797,5.0106352940962555,inf,,0.7022218603100258
75,4.913323668150295,-4.913323668150295,0.0,1.5036525571769341,1.4979431093543727,0.55536625104686,2.7241795467924708,2.2815476471673426,,,0.5113665138247345,4.897306608789252,inf,,0.6224792853238074
76,,0.0,0.0,1.596057664040294,1.6127487682831712,0.8009841455096877,2.9884028734030355,2.768605900591034,,,0.5113665138247345,inf,,,0.9411172051666281
77,5.010635294096255,-5.010635294096255,0.0,1.7117306854115877,1.6865548700165884,0.6620385045782395,3.2008942699781398,1.8490799159137277,,,0.47824363442641393,5.0106352940962555,inf,,0.6236412401522032
78,5.010635294096255,-5.010635294096255,0.0,1.594360653140635,1.6073714843114468,0.762446552424792,3.1206910476191605,2.555092954788015,,,0.5370774965580548,5.0106352940962555,inf,,0.8713296348043287
79,4.5269856181433035,-4.5269856181433035,0.0,1.4636278663034328,1.445380153368915,0.7424358249678786,3.6821308391807426,3.184342113272964,,,0.541134803179459,4.515939052260149,inf,,0.6278145183598538
80,4.0943445622220995,-4.0943445622220995,0.0,1.4386179563230277,1.390067037980149,0.5826550327327258,3.477924368896402,5.207732997943017,,,0.5202020156036558,4.0943445622221,inf,,0.714433738783026
81,3.624340932976365,-3.624340932976365,0.0,1.7586686164451786,1.7326514368149548,0.6847058842265469,3.4023867087763517,1.9631016250963862,,,0.5451288209179292,3.624340932976365,inf,,0.6712218303971496
82,3.9120230054281455,-3.9120230054281455,0.0,1.4731943009172077,1.4709531861862382,0.6926790997092648,3.1198573902033737,6.821403586660739,,,0.5329562494928909,3.912023005428146,inf,,0.6251440172240486
83,3.757872325600888,-3.757872325600888,0.0,1.6749758285622236,1.6805675967117086,0.5957135243111606,3.5053399881210763,3.8351160993281215,,,0.5202020156036558,3.757872325600888,inf,,0.7872413004557994
84,3.305887201857831,-3.305887201857831,0.0,1.5963287570175941,1.5748800222157362,0.6666044607956626,3.6105608579396553,4.746267988275899,,,0.5287703885177266,3.3058872018578307,inf,,0.6657480765186665
85,3.305887201857831,-3.305887201857831,0.0,1.7004294893362402,1.6748220192703192,0.8007703605763566,4.177095516938719,1.6077503703505238,,,0.5022576003740722,3.3058872018578307,inf,,0.6451277744009496
86,3.757872325600888,-3.757872325600888,0.0,1.4635720495770517,1.4636913376900562,0.8166783863805708,3.66339254460663,5.606181751215468,,,0.5022576003740722,3.757872325600888,inf,,0.7664875036235804
87,3.7262698960130844,-3.7262698960130844,0.0,1.720550938774273,1.6818941032130572,0.6853196329627881,4.145376898949583,2.347358942136214,,,0.541134803179459,3.72462177943411,inf,,0.6667846017185007
88,4.605170185988091,-4.605170185988091,0.0,1.5498364235362514,1.5637101383762209,0.739201157356868,2.971238280060093,2.0084349028142445,,,0.47824363442641393,4.605170185988091,inf,,0.5675045571004276
89,,0.0,0.0,1.5217436177139867,1.5173243356463777,0.7038683517958131,2.163657686918535,2.373570669785405,,,0.49759852643134905,inf,,,0.9506986452357802
90,5.010635294096255,-5.010635294096255,0.0,1.592915670597781,1.5651559781610942,0.7352619774371529,2.8466079950129544,2.1758996613251607,,,0.4928685327679205,5.0106352940962555,inf,,0.7204896922487558
91,4.605170185988091,-4.605170185988091,0.0,1.44267429952912,1.414331336862094,0.7662142593843352,2.9049048860762468,2.8191831234731217,,,0.49759852643134905,4.605170185988091,inf,,0.8891747349668867
92,3.757872325600888,-3.757872325600888,0.0,1.6707034479278304,1.6381567731727356,0.6965201747258745,4.068957392080834,4.277988431918048,,,0.45235697871908603,3.757872325600888,inf,,0.5989942931083736
93,4.0943445622220995,-4.0943445622220995,0.0,1.5467189158728707,1.4906437552605856,0.7853693244211608,2.9268173159703306,2.5587996484776525,,,0.47824363442641393,4.0943445622221,inf,,0.5373580158938416
94,3.690661524646545,-3.690661524646545,0.0,1.5017381212516456,1.4887302564958158,0.804010797151997,3.118950662507817,2.1871999471791725,,,0.4928685327679205,3.68843510840567,inf,,0.753187676059176
95,3.1631127385223032,-3.1631127385223032,0.0,1.6545816722665467,1.6464693359603013,0.8607981290719711,3.565958610042387,2.4679914215953507,,,0.5022576003740722,3.1624429828337983,inf,,0.6755312951700672
96,4.0943445622220995,-4.0943445622220995,0.0,1.4956148198077954,1.49558609884038,0.6896061420704217,3.7471910832565642,11.92663572033834,,,0.5202020156036558,4.0943445622221,inf,,0.7752797432077632
97,3.8666650981808144,-3.8666650981808144,0.0,1.4385536434861073,1.4080833191268498,0.6688741491979402,3.6922600411758686,2.57043514347288,,,0.3943459996787778,3.863232841258714,inf,,0.6123975271868058
98,4.647068247159268,-4.647068247159268,0.0,1.624938042212594,1.615907105947357,0.7471211186877706,3.2840819349105,1.9316458133631467,,,0.3751344627501719,4.64022182404701,inf,,0.7087455224546029
99,4.516947683769545,-4.516947683769545,0.0,0.998269843753876,0.9783426624102722,0.7655540290250815,3.314017720548029,3.9640688946512985,,,0.47824363442641393,4.5078418420275295,inf,,0.8300355731349394
100,5.7037824746562,-5.7037824746562,0.0,1.6838406400003603,1.6328723320776006,0.6832216436586016,2.4966584696432554,2.551957773156274,,,0.5567373465730988,5.703782474656201,inf,,0.6704832858740867
101,4.198478219502065,-4.198478219502065,0.0,0.6974362785311276,0.6870515440061521,0.5432165253169469,2.8270003492847495,2.5292127401235027,,,0.1792956407887421,4.1923249705823045,inf,,0.8629644620050647
102,4.170268466410819,-4.170268466410819,0.0,1.5859075084435093,1.591965439357466,0.8046792085738652,4.0872367063562525,4.692996544300592,,,0.5748741956352443,4.156219965940188,inf,,0.8463833626238596
103,3.6232834749411404,-3.6232834749411404,0.0,1.6916336295712862,1.6848443540914981,0.6424721472567059,3.3487607273097884,4.090910733870438,,,0.541134803179459,3.617282568608919,inf,,0.8607696333324462
104,4.585991381157972,-4.585991381157972,0.0,1.382177506821384,1.368716158038464,0.5415035583626443,3.116894900107638,5.23450275024066,,,0.43586655696697996,4.583191279269316,inf,,0.8462659778892562
105,5.703782474656203,-4.639076412720378,0.0,1.6135614578719553,1.5795617983994512,0.5437729338416196,2.3933734163803444,1.9721364384443687,,,0.5713653840954815,5.910396724019201,inf,,0.8337618772881837
106,,0.0,0.0,1.646182293707581,1.6399859111225379,0.532525216395699,3.5579232039486066,4.878976099267393,,,0.43586655696697996,inf,,,0.7976477607455259
107,5.7037824746562,-5.7037824746562,0.0,1.6711333855553123,1.648091190227618,0.6772718137388897,3.4134775744565715,5.51873352275695,,,0.4576907132971797,5.703782474656201,inf,,0.8087832483959675
108,3.624340932976365,2.0761026404143217,-5.700443573390687,1.4693139930723116,1.4629338595061327,0.6705656621768697,3.4580999175426004,11.655649708401114,2.0761026404143212,,0.47824363442641393,3.624340932976365,2.0827804429453507,inf,0.6914962618297573
109,2.684956190062012,1.9168750946605657,1.0952622017828268,1.5737126607667034,1.458551468987938,0.8103630461887671,3.7461622582432677,5.5158266810929355,1.9171720364109421,1.0952622017828277,0.4732203808476458,2.6846592483116343,1.9238498389419716,1.1019623755533916,0.6763188809180171
110,2.9243229619438904,2.7761206114467964,-5.700443573390687,1.61895049856965,1.5865252416631281,0.7316306993831626,3.1032534153344113,1.9403473083425866,2.776308185341713,,0.4302020962658841,2.924135388048974,2.782985987872742,inf,0.8159946633928528
111,5.7037824746562,-5.7037824746562,0.0,1.569314091456509,1.5405281129890815,0.6624618956725378,2.557616230163819,2.104706401018657,,,0.5287703885177266,5.703782474656201,inf,,0.5810463535021557
112,3.7754933705411484,-3.7754933705411484,0.0,1.7315430882135092,1.675227531968073,0.721818914157727,2.9532455766891172,4.026980255151962,,,0.5370774965580548,3.7703305605229294,inf,,0.7001498709199991
113,3.9120230054281455,-3.9120230054281455,0.0,1.6422064814876118,1.5882840017297781,0.6991463135360252,2.941189417429909,3.7323377975430425,,,0.49759852643134905,3.912023005428146,inf,,0.6784292120564164
114,5.7037824746562,-5.7037824746562,0.0,1.6616251970032485,1.6388870666819995,0.7347862005663965,2.959213322363126,2.2280922467854545,,,0.4576907132971797,5.703782474656201,inf,,0.551486204419248
115,3.624340932976365,-3.624340932976365,0.0,1.6261960960599984,1.537693314003357,0.6671127514637611,2.902949142514929,4.196927514903972,,,0.4928685327679205,3.624340932976365,inf,,0.7577774984009553
116,3.3365398646391307,-3.3365398646391307,0.0,1.6347564518264628,1.6187212426426052,0.7550234688058723,3.6037478512032735,8.504847273627586,,,0.47824363442641393,3.334473749619247,inf,,0.7011904416856831
117,2.70805020110221,2.992393372288477,-5.700443573390687,1.2680286086962185,1.2242154597735988,0.8548333605134228,4.105966623944308,9.238765228445821,2.9923933722884763,,0.48319206230712763,2.70805020110221,2.999071174819506,inf,0.7142433111870582
118,5.010635294096255,-5.010635294096255,0.0,1.5912933467271722,1.583820637100093,0.7659867669189155,2.515830919895983,2.2279572783911945,,,0.5113665138247345,5.0106352940962555,inf,,0.8477596285596188
119,5.010635294096255,-5.010635294096255,0.0,1.6279384855515193,1.6082372636291673,0.6307438146633942,1.7264415587415252,0.7469158995054261,,,0.1354413587855425,5.0106352940962555,inf,,0.9531377373626551
120,,0.0,0.0,1.6279384855515193,1.631682721410328,0.6669284012589477,1.77544557076688,0.5539256314568435,,,0.20924377657122822,inf,,,0.915459041749683
121,5.703782474656201,-4.791177278711209,0.0,1.148126641020252,1.1137371026631473,0.5425748122924618,1.9840646167375533,0.5432673199086548,,,0.5567373465730988,5.8781358618009785,inf,,0.8798693973483377
122,4.071647651691325,-4.071647651691325,0.0,1.3431581013152831,1.3331319198160791,0.6197218043817806,2.390315036188452,0.7505422502745249,,,0.47824363442641393,4.058334124699067,inf,,0.6769997826311818
123,,0.0,0.0,0.5441814295331392,0.49911324476617175,0.6509061940895728,2.9946453871766434,8.12962567777421,,,0.23718601089358102,inf,,,0.6437990094736258
124,4.45034349942729,-4.45034349942729,0.0,1.5838300067650046,1.5893936223178309,0.7616231317268727,3.1332695417034606,3.9017730225829355,,,0.49759852643134905,4.4302836076816545,inf,,0.8333481572127458
125,5.7037824746562,-5.7037824746562,0.0,1.65390968787413,1.6539100318455797,0.7672342258887128,2.724326306775265,3.1017427689651136,,,0.4066654671944331,5.703782474656201,inf,,0.8897051940310113
126,5.7037824746562,-5.7037824746562,0.0,1.4728004935388563,1.450233025839597,0.6574498454917481,1.8131596298871864,1.7858431226704714,,,0.5370774965580548,5.703782474656201,inf,,0.7743656868644471
127,5.7037824746562,-5.7037824746562,0.0,1.537388431091832,1.472732297429335,0.6528651265993826,1.9713958705551238,1.9935366310427103,,,0.4629450596409901,5.703782474656201,inf,,0.8056843717579595
128,,0.0,0.0,1.5626105058487554,1.5683646693952928,0.7289198817539909,1.6509711507060558,1.7824943861780238,,,0.44144624493110796,inf,,,0.7587613023077323
129,,0.0,0.0,1.626435663649052,1.6047846653065316,0.7016053528223316,1.7160391916654256,1.7028183128274252,,,0.44694259446804574,inf,,,0.8205222186901385
130,,0.0,0.0,1.4082752285290845,1.3942479738386777,0.8025427389893391,1.7406269334690447,1.9899336788651492,,,0.4928685327679205,inf,,,0.7141663982001754
131,,0.0,0.0,1.706351521079077,1.6803538329959478,0.7861931110950429,1.647931911092699,1.9816570543283016,,,0.49759852643134905,inf,,,0.7764518141734398
132,,0.0,0.0,1.475655365234849,1.4535178426782436,0.7866747332706002,2.3001851574698646,2.4121427246290135,,,0.5329562494928909,inf,,,0.8436104741504868
133,,0.0,0.0,1.619299222539295,1.624618534267015,0.7328658677012078,2.125920470900118,2.199385377953805,,,0.468121228110369,inf,,,0.7855399989887216
134,,0.0,0.0,1.1811588892078586,1.1870669920437578,0.8186925938981978,2.0827753483142737,2.400217131019594,,,0.38804190201132227,inf,,,0.716953701588282
135,,0.0,0.0,1.4123319080054848,1.399987303334564,0.6960274327550205,1.9025587030050246,2.2409902711330045,,,0.47824363442641393,inf,,,0.7494909984414675
136,,0.0,0.0,1.4408761815125117,1.442722589257037,0.7470117618737283,2.1672252142602026,2.9681091208153068,,,0.5329562494928909,inf,,,0.7800384748920622
137,,0.0,0.0,1.4145316817247873,1.40015984460966,0.7258450839269501,2.0028499324909887,2.0988216190898266,,,0.4302020962658841,inf,,,0.7582229976594078
138,5.010635294096255,-5.010635294096255,0.0,1.3938783831132942,1.3732504086830142,0.8664820933318673,2.2120723418305905,2.0243074361821627,,,0.45235697871908603,5.0106352940962555,inf,,0.8680496940915579
139,,0.0,0.0,1.3091652864957335,1.2770137184418038,0.7599103514238134,2.087117704115826,2.3025649544798967,,,0.5113665138247345,inf,,,0.8551038406182412
140,,0.0,0.0,1.4528970296432178,1.4268102730568748,0.7172415511740002,2.1254503170113512,1.534028409213783,,,0.42445136339222655,inf,,,0.7893433741755164
141,5.7037824746562,-5.7037824746562,0.0,1.5340422065532564,1.538759944066938,0.8621825461118893,2.4756873118984393,3.406124375249697,,,0.47824363442641393,5.703782474656201,inf,,0.8337979369471739
142,,0.0,0.0,1.3532984555079983,1.3140455470486154,0.8700129999426589,2.2437053974374987,2.4118450836793377,,,0.5677978065141052,inf,,,0.8312785356539378
143,,0.0,0.0,1.3633652388959625,1.3517024470847006,0.8764076374231784,2.084429799905601,2.7944563128696935,,,0.4066654671944331,inf,,,0.7846080413244838
144,,0.0,0.0,1.4280022618675234,1.3912933489646453,0.7065623155846509,2.242396686062127,2.4392715012983377,,,0.43586655696697996,inf,,,0.8445569003655404
145,4.176907676208359,-4.176907676208359,0.0,1.1468884351284552,1.1113560321911606,0.7226983592409525,2.3326323108951934,1.7093574767148527,,,0.5287703885177266,4.171225606558059,inf,,0.6948731829707464
146,4.605170185988091,-4.605170185988091,0.0,1.585762372772069,1.5166653449122438,0.6741664096523521,3.5989097240148546,8.317900329792463,,,0.5158180382284114,4.605170185988091,inf,,0.7721513374894566
147,,0.0,0.0,1.6162436129177955,1.608527669143957,0.8526627016483124,2.6035866364859386,2.044091992702039,,,0.4302020962658841,inf,,,0.6948368303975083
148,,0.0,0.0,1.6999998543639814,1.6480505676059263,0.79488068047901,1.2233950396513977,1.3156917665218262,,,0.4732203808476458,inf,,,0.7225980687038691
149,,0.0,0.0,1.7051025492371283,1.6766835206627215,0.5608345722960582,1.7494948283801188,1.6661047086898453,,,0.5158180382284114,inf,,,0.8459250746872786
150,,0.0,0.0,1.3033132744754066,1.2920342141822618,0.615347294852972,2.189484296138622,2.1177974364790284,,,0.47824363442641393,inf,,,0.7657139724820082
151,,0.0,0.0,1.7280828664002184,1.7181469516560859,0.6358836427916096,2.275992309611898,2.246505644413388,,,0.44694259446804574,inf,,,0.846969771201174
152,,0.0,0.0,1.5888358934545201,1.5062801736828362,0.7563692633220149,1.7633848854701821,1.6654095013839054,,,0.45235697871908603,inf,,,0.8814774234754222
153,5.010635294096255,-5.010635294096255,0.0,1.6451511136062358,1.5966723819482869,0.6781109758910634,2.2118351027316274,1.3515785836536311,,,0.4732203808476458,5.0106352940962555,inf,,0.8888093968272862
154,5.010635294096255,-5.010635294096255,0.0,1.6897227925680862,1.6132915682662519,0.7667342149391585,2.382596452501306,2.209401901780131,,,0.49759852643134905,5.0106352940962555,inf,,0.875575735259898
155,5.7037824746562,-5.7037824746562,0.0,1.530321493031885,1.4800108759898305,0.9328069473866952,2.380190110832398,2.4903993368927444,,,0.4302020962658841,5.703782474656201,inf,,0.8102181153806935
156,,0.0,0.0,1.7259959652073729,1.7030624582727028,0.8207116672185997,2.108243262930884,1.8520662764224198,,,0.42445136339222655,inf,,,0.837811792055536
157,,0.0,0.0,1.5221776626121026,1.5349828958294616,0.5780121080652172,2.0116290237270285,2.180601365411786,,,0.48319206230712763,inf,,,0.8548330837674701
158,,0.0,0.0,1.5871419389889985,1.5723467514150602,0.8857768084080208,2.198554904350521,2.8665435896548797,,,0.5329562494928909,inf,,,0.8646166899505313
159,,0.0,0.0,1.4322887608365487,1.4040106775887375,0.7260445760305346,2.286901026772887,2.709505620650221,,,0.44694259446804574,inf,,,0.8804218165488439
160,,0.0,0.0,1.4294163058787155,1.426826296353701,0.9609169751386377,2.4314250765895467,2.369017765783788,,,0.5202020156036558,inf,,,0.8801738006782218
161,,0.0,0.0,1.6766213151340512,1.6664395858113399,0.8431625955179697,2.223471310715886,1.9196217072377242,,,0.4629450596409901,inf,,,0.8698804195704123
162,,0.0,0.0,1.7641762983168274,1.720986002955573,0.8902508382841917,2.104096846447629,2.3311034819809944,,,0.4302020962658841,inf,,,0.8665266841426464
163,,0.0,0.0,1.6443162121465849,1.584339731799034,0.7670787147750251,1.7793142557970845,2.134284338378958,,,0.41268473150466,inf,,,0.8383441943779764
164,,0.0,0.0,1.4404309440352585,1.435666750804363,0.5939441655287414,2.0494782624207777,2.3152830704364704,,,0.49759852643134905,inf,,,0.8817016614717492
165,,0.0,0.0,1.6022522845986065,1.579099452909926,0.904150497130014,1.5026226097812694,1.9214151950213085,,,0.4880666971167561,inf,,,0.8162428238909002
166,,0.0,0.0,1.4239018083897463,1.42623207024427,0.9100074271326152,1.737849569586238,2.459039510371748,,,0.42445136339222655,inf,,,0.8428290105400462
167,,0.0,0.0,1.3631341719938133,1.3441397990376756,0.924285855007092,1.4657677208806952,1.7798692774327987,,,0.44144624493110796,inf,,,0.8114877944522753
168,,0.0,0.0,1.407725141982424,1.4026888232354686,0.5913314835453704,1.724812031707414,2.0760300947520856,,,0.48319206230712763,inf,,,0.7729387427041362
169,,0.0,0.0,1.5047653060405881,1.4855819905718903,0.8785909719149555,1.619644368622528,1.592025998770294,,,0.34100769111774265,inf,,,0.8204189240054839
170,,0.0,0.0,1.312843599556139,1.3145124580979157,0.7343616820885953,1.979200430862335,2.1817027947846626,,,0.4066654671944331,inf,,,0.7289703790456122
171,,0.0,0.0,1.3118654715591016,1.3203575318848726,0.7157627543390944,1.833042601762592,2.125289745159525,,,0.4066654671944331,inf,,,0.8255150479490286
172,,0.0,0.0,1.4618963211527836,1.4055306032625727,0.7704687971400322,1.6961764020508576,1.8445841057359167,,,0.43586655696697996,inf,,,0.8188514333155182
173,,0.0,0.0,1.4019834851459012,1.3640848720706196,0.8878010591914606,2.1755002714401903,1.9117602473867277,,,0.4629450596409901,inf,,,0.8130876422158095
174,5.7037824746562,-5.7037824746562,0.0,1.4327106952883193,1.406140084021763,0.866380560534527,2.035053201628302,1.5845416560182657,,,0.43586655696697996,5.703782474656201,inf,,0.8653138201294635
175,,0.0,0.0,1.4192461628273507,1.4031384948596715,0.8327835290257813,1.265812023960994,1.4281072476898438,,,0.4732203808476458,inf,,,0.7988611422557992
176,,0.0,0.0,1.4264091831909813,1.405156321146467,0.7440462308675813,1.0496795543724198,1.145167239280384,,,0.42445136339222655,inf,,,0.7076562178280812
177,,0.0,0.0,1.066340823596937,1.055708186589579,0.6852515340641118,1.1363353582667814,1.29163879299727,,,0.4576907132971797,inf,,,0.7552892611979207
178,,0.0,0.0,1.4752453388289595,1.470970035848829,0.5415554810268559,1.0352910779100042,1.0383158615109849,,,0.44144624493110796,inf,,,0.8849167014210786
179,,0.0,0.0,1.3814749000078304,1.37221136714546,0.7204653725169181,1.4220316177592063,1.591381187389386,,,0.468121228110369,inf,,,0.900794132122341
180,5.7037824746562,-5.7037824746562,0.0,1.5746323861228468,1.550681670130802,0.5259951046664765,1.1931935996236032,1.1253708076440314,,,0.3943459996787778,5.703782474656201,inf,,0.8398251126343084
181,,0.0,0.0,1.5747267878014486,1.5465738072655253,0.6147985664714959,1.3284487659138846,1.3918380300149944,,,0.4928685327679205,inf,,,0.8427465638372053
182,,0.0,0.0,1.7192193669359335,1.6709002840095073,0.6615261159146706,1.7003104084641336,1.689701461452105,,,0.47824363442641393,inf,,,0.8708474684400715
183,,0.0,0.0,1.3516917940011828,1.3069232891826792,0.7615329784195635,2.179970819216077,2.568820625292149,,,0.41861278947482794,inf,,,0.7500137976258004
184,,0.0,0.0,1.454041478780543,1.4299301118080516,0.9015421221938374,2.1813283807798967,3.3045002084842245,,,0.4880666971167561,inf,,,0.7610244362141476
185,,0.0,0.0,1.5689981605183523,1.5312602719322193,0.6741815974794919,2.308673565888611,2.5220648481811208,,,0.47824363442641393,inf,,,0.8353087788236379
186,,0.0,0.0,1.5132690907785729,1.51437703904009,0.8283421368738092,2.265477679799578,3.187512264280252,,,0.5451288209179292,inf,,,0.7376144509384533
187,,0.0,0.0,1.448787484471257,1.4044895341054855,0.7237839747308358,2.1491341292660677,2.1738626953956373,,,0.40055318934786044,inf,,,0.7135184492432943
188,,0.0,0.0,1.349734958904049,1.3393786791030855,0.7963334935967976,2.7694194999902573,2.4721928158341213,,,0.4302020962658841,inf,,,0.7849130905492907
189,,0.0,0.0,1.3632312471262802,1.3387735992837133,0.9402868061138578,2.178664793697714,2.9841348362635016,,,0.43586655696697996,inf,,,0.8221344429241444
190,,0.0,0.0,1.701354113963938,1.6884608456553323,0.9461094218053243,1.7380595270471337,2.1276477326924885,,,0.43586655696697996,inf,,,0.7554203243428899
191,,0.0,0.0,1.508447203650179,1.464897469719975,0.9145940361941197,1.894171252738695,2.2015943048750097,,,0.5370774965580548,inf,,,0.8193673246710639
192,,0.0,0.0,1.5932006224205475,1.5630703248201667,0.9212131837705831,1.6229431932367533,1.8298181843041836,,,0.4880666971167561,inf,,,0.7934872356799704
193,,0.0,0.0,1.4940981203777508,1.4970185573573522,0.8713561452623452,1.5806015454383964,1.708444406323021,,,0.44144624493110796,inf,,,0.8355375871214338
194,,0.0,0.0,1.589584159254568,1.5699991757069296,0.8144392066700741,1.2876115848969834,1.3812008158761644,,,0.4928685327679205,inf,,,0.7686835963777718
195,5.7037824746562,-5.7037824746562,0.0,1.734393968703089,1.6708667351157447,0.7126681950626903,1.7207842092744288,1.6372628124005266,,,0.4576907132971797,5.703782474656201,inf,,0.8682389800323241
196,,0.0,0.0,1.580835101964391,1.5313756505180176,0.869727184811071,2.1797183832314095,1.943957367017409,,,0.4576907132971797,inf,,,0.7568400662508339
197,,0.0,0.0,1.4648045509167336,1.426248196206686,0.9534679142875611,2.5029265252675486,4.146284982796146,,,0.3685265678147087,inf,,,0.8689768949928721
198,,0.0,0.0,1.5816748332271549,1.5385703172474023,0.8355292252533318,1.9458725439624336,1.775759312342505,,,0.47824363442641393,inf,,,0.8189624558974309
199,,0.0,0.0,1.2370084833519595,1.1656808162809786,0.7874419267419148,1.851380783496618,1.7573737354996852,,,0.42445136339222655,inf,,,0.8237377436532859
200,5.7037824746562,-5.7037824746562,0.0,1.5565677016149653,1.5242111420120255,0.6024595752453862,2.2440105367937235,2.1977205455956375,,,0.4066654671944331,5.703782474656201,inf,,0.8743340324766441
201,5.7037824746562,-5.7037824746562,0.0,1.7318676828412491,1.7450976676377332,0.7512063055546635,1.5339713052412316,1.5496605471447065,,,0.41268473150466,5.703782474656201,inf,,0.8056440232387242
202,,0.0,0.0,1.7105980513802561,1.6868583439761133,0.5993722546994182,2.100936807113417,1.8214226485076934,,,0.34100769111774265,inf,,,0.8696399139613209
203,,0.0,0.0,1.4463374524485941,1.4247174138993641,0.8245781926079364,1.9825813754551755,2.450982683344845,,,0.3480560589391537,inf,,,0.8261548480036484
204,,0.0,0.0,1.5899966189427481,1.5548720724248493,0.6883113576776806,1.3393060994286692,1.5553290129200283,,,0.43586655696697996,inf,,,0.7374051938179184
205,,0.0,0.0,1.6946951042138236,1.6360963996857352,0.654047851176258,1.38884283516,1.488538097227879,,,0.4629450596409901,inf,,,0.8598207201530309
206,,0.0,0.0,1.2627340402595943,1.260233051546012,0.8608839642559093,1.6022333813329042,1.8782785599001943,,,0.47824363442641393,inf,,,0.834350153140587
207,4.605170185988091,-4.605170185988091,0.0,1.5697939938772612,1.5506270839615977,0.5125818867636031,2.112894715716397,1.635142328272564,,,0.4302020962658841,4.605170185988091,inf,,0.7225093116926588
208,4.426807301067987,-4.426807301067987,0.0,1.4573066999590707,1.4137886073956942,0.8398906069557688,3.041763291994899,3.9901774737672753,,,0.4302020962658841,4.417308448818521,inf,,0.8602442225140619
209,4.605170185988091,-4.605170185988091,0.0,1.6261805535133234,1.592639535499454,0.7333766086989909,2.3406399670221076,1.4750508480554752,,,0.4928685327679205,4.605170185988091,inf,,0.7317513226184112
210,5.7037824746562,-5.7037824746562,0.0,1.6515477709583097,1.6365009540713933,0.6934648054233669,1.8663768827105396,1.2743789908289422,,,0.44144624493110796,5.703782474656201,inf,,0.9194580781182489
211,5.7037824746562,-5.7037824746562,0.0,1.35658406463266,1.304114313947795,0.5845738437135749,2.0179332182528005,1.5720129430176857,,,0.43586655696697996,5.703782474656201,inf,,0.7085308006263066
212,,0.0,0.0,1.4400379295275367,1.381495995121207,0.5726725669833326,1.2313737926865536,0.8229751927936875,,,0.5329562494928909,inf,,,0.9417346760106549
213,4.605170185988091,-4.605170185988091,0.0,1.4371451361824197,1.3824977819337523,0.5296973876259297,1.9904227468202238,1.6862364848314595,,,0.5490601803369085,4.605170185988091,inf,,0.9436149223477248
214,5.604431378775941,-5.604431378775941,0.0,1.5725778974433275,1.5556241111418418,0.7454027973455168,2.4659893013980434,1.9928237981450931,,,0.5202020156036558,5.569834502146462,inf,,0.8726074757400115
215,4.605170185988091,-4.605170185988091,0.0,1.6949287029436928,1.6924755690072206,0.4607032417747599,2.741714595161928,2.6658856154389134,,,0.41268473150466,4.605170185988091,inf,,0.6772635758434101
216,5.7037824746562,-5.7037824746562,0.0,1.5133401467984617,1.4476493892997273,0.7473473682028344,2.681941958753267,1.7254848985327773,,,0.524519217297268,5.703782474656201,inf,,0.8748232180881852
217,,0.0,0.0,1.4840546448566057,1.4979012815844108,0.69739562935488,1.8912780481414446,1.856731591592904,,,0.49759852643134905,inf,,,0.8974295782609923
218,,0.0,0.0,1.4873247054484782,1.4847962943997768,0.6527855292029032,1.8425185259675998,1.5406372603771243,,,0.4880666971167561,inf,,,0.9172806351871792
219,,0.0,0.0,1.4413677068285482,1.411106099708561,0.5894459544283448,2.0561874278315364,1.6325157789801037,,,0.5451288209179292,inf,,,0.7284838793303353
220,,0.0,0.0,1.6874706609159913,1.662274374967315,0.6044363516027109,1.3282245526127945,1.484442195046786,,,0.5022576003740722,inf,,,0.8016671360186131
221,,0.0,0.0,1.7315794668293216,1.6760540276084552,0.6359832597711218,1.4039098611180107,1.1973756110314695,,,0.3338418249889409,inf,,,0.8732847580835635
222,5.010635294096255,-5.010635294096255,0.0,1.693732396280204,1.6763134136900748,0.5449853014084853,1.9902893408450537,2.395016353654925,,,0.4732203808476458,5.0106352940962555,inf,,0.7595651875257606
223,5.703782474656203,-4.353887288987568,0.0,1.654365473569424,1.659005545576828,0.6295272153491227,2.001652091252696,1.579173320605309,,,0.41268473150466,5.973842945758163,inf,,0.9183623994624786
224,5.7037824746562,-5.7037824746562,0.0,1.7233596460316938,1.6608226856273007,0.550592617840055,1.6467811940836332,1.6075991548907174,,,0.5068466436745385,5.703782474656201,inf,,0.911467307058893
225,4.0943445622220995,1.6060990111685873,-5.700443573390687,1.6233876005608143,1.607761799013242,0.7069625036298839,3.1873489180271446,2.1869549015032326,1.6060990111685858,,0.4880666971167561,4.0943445622221,1.612776813699615,inf,0.6537262989487087
226,4.346256320781489,-4.346256320781489,0.0,1.5246130249940033,1.5189053618442878,0.789908646261528,2.9746330755640824,3.583272364812362,,,0.524519217297268,4.3428059215206005,inf,,0.7003338353054586
227,3.624340932976365,2.0761026404143217,-5.700443573390687,1.6024151823436066,1.6038755294480034,0.6726685379391504,3.844303056168643,4.426839464608856,2.0761026404143212,,0.47824363442641393,3.624340932976365,2.0827804429453507,inf,0.7218845243457657
228,4.361789167027498,-4.361789167027498,0.0,1.6563116816121821,1.582402837878182,0.5976970829658121,1.9049848956449456,1.2180633324278614,,,0.5641709578113449,4.348806796793737,inf,,0.8461719742272731
229,4.314512866185454,-4.314512866185454,0.0,1.6495079440624472,1.6470206967057033,0.6269472366196308,2.5648606525156694,1.44141285573629,,,0.44144624493110796,4.314160323443636,inf,,0.7190882465564201
230,4.605170185988091,-4.605170185988091,0.0,1.459921351388299,1.4595011449275783,0.5917193192331379,2.9343669804957027,4.055912327975559,,,0.524519217297268,4.605170185988091,inf,,0.6543650181077871
231,5.7037824746562,-5.7037824746562,0.0,1.6022109863467813,1.5666256531337575,0.5535104498399945,2.049639810564777,2.0048592117285935,,,0.5202020156036558,5.703782474656201,inf,,0.5488788554707863
232,,0.0,0.0,1.7407068995614388,1.750538100032736,0.7486243817802692,2.3778254687729636,2.1582718571900554,,,0.5287703885177266,inf,,,0.9240228194274902
233,,0.0,0.0,1.5914932127121904,1.566990116820062,0.654837815916642,2.5221411344560285,3.4303059637487787,,,0.4629450596409901,inf,,,0.7172102804770021
234,5.7037824746562,-5.7037824746562,0.0,1.3341547222870542,1.3320485848388752,0.5698140407649425,2.492594385565373,2.8282058522968754,,,0.45235697871908603,5.703782474656201,inf,,0.7918087964233438
235,5.010635294096255,-5.010635294096255,0.0,1.698932990127492,1.6517694006113257,0.6223847445039087,2.815050509360591,2.553338886808234,,,0.5451288209179292,5.0106352940962555,inf,,0.6048198561868454
236,4.371188767060643,-4.371188767060643,0.0,1.747164923928596,1.7099659016456965,0.7332337778891023,2.1696787141436302,1.8075454493848073,,,0.44144624493110796,4.365278777372659,inf,,0.8244424418257682
237,3.6755279668157663,-3.6755279668157663,0.0,1.6360376597595545,1.5630688991057118,0.6863707409316039,2.656198382059509,3.2611183104781545,,,0.5567373465730988,3.673443645984097,inf,,0.8181320422439632
238,3.5065578973199822,-3.5065578973199822,0.0,1.5773359763714847,1.5853496797655073,0.8380472160598348,4.165798833041153,20.24625092368775,,,0.45235697871908603,3.506557897319982,inf,,0.6489932842186156
239,4.31748811353631,-4.31748811353631,0.0,1.7182355745870557,1.704548604548082,0.7543508506085224,3.2840998142906206,1.9013208261751129,,,0.552929491858785,4.31748811353631,inf,,0.7251735458396602
240,5.010635294096255,-5.010635294096255,0.0,1.5987005729629924,1.574734305965717,0.6145649336339268,2.9779587648226302,2.251106753364211,,,0.45235697871908603,5.0106352940962555,inf,,0.7142205729652106
241,3.6252998732178714,-3.6252998732178714,0.0,0.26704003265873155,0.26417173284051704,0.6540953615157112,3.4459597617563356,5.56713545877235,,,0.15800541964703757,3.6251746137249428,inf,,0.7017716253743551
242,3.511269218746237,2.1891743546444498,-5.700443573390687,1.721444159754638,1.7062163327538082,0.6850424288130267,3.462547030224734,2.546983207596549,3.471034291315413,,0.5567373465730988,3.511012247669362,2.196109128252354,inf,0.5642162404528606
243,4.326118575709863,-4.326118575709863,0.0,1.696410179606517,1.699513916568892,0.7530257117878421,3.3344568039420315,3.1604515396463446,,,0.5947193981915972,4.325016379957102,inf,,0.7628590165248451
244,4.515988743528038,1.1844548298626485,-5.700443573390687,1.5543336637223502,1.531502666172405,0.7343078068233017,3.107508762167817,3.3396903019965563,,,0.5748741956352443,4.50683428526723,1.2002870906544862,inf,0.7715531832501153
245,4.605170185988091,-4.605170185988091,0.0,1.7125652000072744,1.7214186727958953,0.7584632769693157,2.841186951187256,2.961427212893454,,,0.43586655696697996,4.605170185988091,inf,,0.8178057103194446
246,,0.0,0.0,1.5823122804807637,1.5107580997233363,0.7354462309340463,2.849887087736901,1.9411461942833932,,,0.5158180382284114,inf,,,0.613505591571473
247,,0.0,0.0,1.628657382931506,1.602526012431275,0.5465695338417825,2.8533700115008367,2.9468200746293354,,,0.4576907132971797,inf,,,0.7921048246282336
248,4.0943445622220995,-4.0943445622220995,0.0,1.6446443505781083,1.6428454463739948,0.6598027750446659,2.997423195436709,3.625534818360772,,,0.5287703885177266,4.0943445622221,inf,,0.9098867844029337
249,5.010635294096255,-5.010635294096255,0.0,1.647986199701247,1.6351956132320906,0.5454311539743525,2.6967166650291867,1.768484878715487,,,0.5113665138247345,5.0106352940962555,inf,,0.6580040616151935
250,5.010635294096255,-5.010635294096255,0.0,1.52813934106992,1.5443311230415344,0.6355489071904346,3.041481392027216,3.798559939061283,,,0.5713653840954815,5.0106352940962555,inf,,0.8527927563036126
251,,0.0,0.0,1.7363774965063623,1.6857995204723644,0.743931201851759,3.1258281138222714,3.25564356448187,,,0.4302020962658841,inf,,,0.9102503261169163
252,4.557223173912794,-4.557223173912794,0.0,1.4150770072542933,1.3776363904831084,0.6547377549598032,3.485077793228679,2.0109753517466844,,,0.41861278947482794,4.551102964717815,inf,,0.7271447916252004
253,5.7037824746562,-5.7037824746562,0.0,1.694936258920589,1.6842407655377465,0.5383356987275326,3.3123423711747226,2.955274316688472,,,0.5202020156036558,5.703782474656201,inf,,0.8416374318415892
254,,0.0,0.0,1.559682279025151,1.5373302656974066,0.6374433118206247,2.577984914133407,2.207500121146058,,,0.5068466436745385,inf,,,0.8631133372301554
255,5.7037824746562,-5.7037824746562,0.0,1.3419300163448535,1.3381576561033646,0.671619732629821,2.7413650582368896,1.2736194887532117,,,0.5490601803369085,5.703782474656201,inf,,0.8154091745973736
256,3.757872325600888,-3.757872325600888,0.0,1.6896852007065353,1.679164243363387,0.6183870708717245,4.134517736442836,2.6756457861797074,,,0.5068466436745385,3.757872325600888,inf,,0.7189626922957701
257,5.010635294096255,-5.010635294096255,0.0,1.5488282356599374,1.5215304479620806,0.5327804221153145,2.9623630742847964,2.2105869948040415,,,0.4302020962658841,5.0106352940962555,inf,,0.6917145754296643
258,5.010635294096255,-5.010635294096255,0.0,1.512997397237075,1.4973333735384726,0.5997921679837607,3.3306296949510834,3.869666725149398,,,0.44144624493110796,5.0106352940962555,inf,,0.8153589842467515
259,5.7037824746562,-5.7037824746562,0.0,1.6407672008924028,1.6030837048025812,0.7132832338669877,3.2181814885023066,1.948777245734377,,,0.47824363442641393,5.703782474656201,inf,,0.7687249049272555
260,5.7037824746562,-5.7037824746562,0.0,1.6708282841270778,1.6973769420335625,0.6322009179855486,3.4464518704245948,6.154954660261913,,,0.5451288209179292,5.703782474656201,inf,,0.4937569992625289
261,,0.0,0.0,1.6984614931968132,1.645059830791452,0.6154657309960861,3.0175468530210936,3.8786744231616237,,,0.5677978065141052,inf,,,0.8959398893239794
262,5.010635294096255,-5.010635294096255,0.0,1.6929435177590555,1.6724368960043154,0.7288492781130271,2.759308460950226,1.9131501538239566,,,0.4732203808476458,5.0106352940962555,inf,,0.7240351185699087
263,3.8530521192005716,-3.8530521192005716,0.0,1.6668995168292753,1.6955913439755756,0.6956576130884604,3.309593985074397,4.013704459930245,,,0.5783247308855777,3.8448837025905176,inf,,0.7644315511716795
264,4.605170185988091,-4.605170185988091,0.0,1.4545616675479303,1.4520185431645076,0.7163174780084958,3.0668468752934346,2.978988537506112,,,0.524519217297268,4.605170185988091,inf,,0.8428092776331775
265,3.3985402030571215,-2.7121991708094133,-0.6863410322477081,1.614162168262637,1.564624255362773,0.6989743160962315,2.968181149458599,1.9017477092850879,,,0.4880666971167561,3.3975374208306683,4.426508590025624,inf,0.7861787081070131
266,3.7604415035980083,-3.7604415035980083,0.0,1.597966052798765,1.5317403438876638,0.60750661111175,3.178868012180517,3.3263252635454634,,,0.4629450596409901,3.760256116956164,inf,,0.6493906069013948
267,4.888995761663805,-4.888995761663805,0.0,1.314567415786432,1.312936101241943,0.7079767137982568,3.061029649694005,1.4540538170299118,,,0.5370774965580548,4.870873351721097,inf,,0.8024175820028858
268,3.719459157628462,-3.719459157628462,0.0,1.638047067794305,1.6074551514527098,0.5921141628985734,2.9877503411604533,1.6775018318021906,,,0.5202020156036558,3.7168217857705304,inf,,0.663881044755176
269,3.5089135580331092,-3.5089135580331092,0.0,1.753345097370561,1.7147619158094154,0.8363716231180157,3.65922243784806,4.734221261642265,,,0.5287703885177266,3.5087825923420928,inf,,0.7643288986012918
270,5.7037824746562,-5.7037824746562,0.0,1.6584889890075059,1.6429752479760795,0.6809940504392245,3.0615819432764573,2.3969892766471905,,,0.4880666971167561,5.703782474656201,inf,,0.6376021036402388
271,5.010635294096255,0.6898082792944322,-5.700443573390687,0.990110036108355,0.9744293581350311,0.5885818147689977,2.1745859346058953,1.6637111644261369,0.6898082792944307,,0.524519217297268,5.0106352940962555,0.6964860818254599,inf,0.7017712639058831
272,4.361599364645583,-4.361599364645583,0.0,1.4769218656047784,1.388926096842007,0.679983348492057,2.7743696703988383,2.079507112401115,,,0.5490601803369085,4.3565755022443575,inf,,0.9154383116057676
273,,0.0,0.0,1.5803841626773445,1.5394971652577059,0.6458098720758417,2.8414033328285906,2.827711791564614,,,0.5287703885177266,inf,,,0.9438929696111926
274,4.150874261888366,-4.150874261888366,0.0,1.281412862623318,1.2635703678451269,0.6625019266073493,2.98107404610038,2.6576416074371845,,,0.4629450596409901,4.146339857340481,inf,,0.897152073188107
275,5.7037824746562,-5.7037824746562,0.0,1.1925837350375847,1.1613121941307376,0.7189883528726578,2.6212890974441945,1.725389414637442,,,0.4732203808476458,5.703782474656201,inf,,0.9132956144748896
276,4.3357079781249235,-4.3357079781249235,0.0,1.6748686921946878,1.6320879102471322,0.6713785671570148,2.364760194582568,1.6486436437455367,,,0.5713653840954815,4.33344813311504,inf,,0.8726346318223287
277,5.7037824746562,-5.7037824746562,0.0,1.7501740085805377,1.7380847049754937,0.7061462474381925,2.7922057973148506,3.1287682361220917,,,0.5113665138247345,5.703782474656201,inf,,0.5754496791071572
278,4.053626081204784,-4.053626081204784,0.0,1.620542087825035,1.5413268612687545,0.74377463299903,3.4858825693613236,4.602451807135946,,,0.5068466436745385,4.050646706956381,inf,,0.6401477519515604
279,4.605170185988091,-4.605170185988091,0.0,1.6278312807685493,1.62314319634674,0.7518110292490549,3.2279880361218307,4.313297041921503,,,0.5113665138247345,4.605170185988091,inf,,0.7548341736589785
280,4.605170185988091,-4.605170185988091,0.0,1.725577554930934,1.7330258260010278,0.6469768990626121,3.6118214014438292,7.283577554461076,,,0.5158180382284114,4.605170185988091,inf,,0.6706050396926821
281,4.572566217776889,-4.572566217776889,0.0,1.5400097586557524,1.5166244220391292,0.7873362519373714,2.824834337178056,2.0092502578136933,,,0.541134803179459,4.56808851108356,inf,,0.6751907111351882
282,5.703782474656201,-5.1714294436882895,0.0,1.7140294137738383,1.717361020065137,0.676668913436808,3.1828505180373705,3.2523527970884047,,,0.5202020156036558,5.801762883016405,inf,,0.8303212926174113
283,5.7037824746562,-5.7037824746562,0.0,1.43329590670558,1.3930917922859243,0.633834098733429,2.9788839833886347,3.307175304219779,,,0.4928685327679205,5.703782474656201,inf,,0.7619801784561876
284,,0.0,0.0,1.6822485247631476,1.6661034675614588,0.39190241644970286,2.4747001028675344,1.9406542294812406,,,0.5068466436745385,inf,,,0.767812710279763
285,5.7037824746562,-5.7037824746562,0.0,1.6942819839773346,1.666299937804604,0.7506917615605493,2.6691799812321837,1.9563278873025518,,,0.5567373465730988,5.703782474656201,inf,,0.8546020517979052
286,,0.0,0.0,1.606328744602142,1.5799314798168065,0.48470896551967385,2.4916623818015853,2.74175792635775,,,0.41861278947482794,inf,,,0.933358649767244
287,4.31748811353631,-4.31748811353631,0.0,1.6504202277428983,1.6427388456478627,0.6811658569247054,2.8363215679317473,3.096197985095791,,,0.49759852643134905,4.31748811353631,inf,,0.8530064959784717
288,5.7037824746562,-5.7037824746562,0.0,1.7610191467915968,1.7365041305635638,0.8137558146535093,3.531580850767607,2.666345762326369,,,0.47824363442641393,5.703782474656201,inf,,0.9252876692592781
289,5.010635294096255,-5.010635294096255,0.0,1.7342590529896735,1.7075981397183866,0.5948929154007888,3.13774271840839,3.242647515923405,,,0.5567373465730988,5.0106352940962555,inf,,0.9452942645184405
290,5.010635294096255,-5.010635294096255,0.0,1.5757483136141883,1.555802807006441,0.6546581936271153,3.3471348637683183,2.5095540416946647,,,0.5604843169999094,5.0106352940962555,inf,,0.8220954845821521
291,5.7037824746562,-5.7037824746562,0.0,1.6065191188285324,1.6096695064383288,0.5224311409939152,2.7605274837767495,3.3885181972214595,,,0.4928685327679205,5.703782474656201,inf,,0.7247571191589965
292,3.9120230054281455,-3.9120230054281455,0.0,1.5745810535504186,1.5365573884502552,0.7206075085333911,3.199367917037183,7.338360042633257,,,0.5068466436745385,3.912023005428146,inf,,0.7275746062534042
293,4.605170185988091,-4.605170185988091,0.0,1.701598376896834,1.6836050268847296,0.7366068102867519,3.233942387112694,2.8568275836811377,,,0.5113665138247345,4.605170185988091,inf,,0.7753428098451517
294,5.7037824746562,-5.7037824746562,0.0,1.5638920057342571,1.5107707052082602,0.6748204712257252,2.3855431929781927,2.206436791398108,,,0.48319206230712763,5.703782474656201,inf,,0.8319337957373556
295,,0.0,0.0,1.602980758617996,1.5741136126187862,0.857264546360193,3.167285970365954,2.2008980599893277,,,0.42445136339222655,inf,,,0.9497193623690601
296,5.7037824746562,-2.9849794950700783,0.0,1.5604622850508036,1.542104115083579,0.8125446917035538,2.99372577582443,2.2343859500199246,,,0.5068466436745385,6.351319143964094,inf,,0.9500304915008193
297,5.7037824746562,-5.7037824746562,0.0,1.5672791734442264,1.552045766047338,0.7710002044004489,3.325017900013653,2.8791250220435396,,,0.47824363442641393,5.703782474656201,inf,,0.8143072981356866
298,,0.0,0.0,1.6779427125294595,1.5303721958933059,0.40825518014091305,0.4087059590094024,0.10569610768434656,,,0.1354413587855425,inf,,,0.8354403722942721
299,5.7037824746562,-5.2855050931814125,0.0,0.27573700532890444,0.05283697008566836,0.2521439399927363,0.21684810709092486,0.12225130598507919,,,0.5202020156036558,5.779943835621765,inf,,0.6985581833700828
300,3.402320229201809,0.35349041948703785,-3.755810648688847,1.436363456415644,1.4166282879377898,0.6714725318620404,2.9420924570751015,3.1004324884179657,,,0.524519217297268,3.400864103872035,2.7234971167023785,inf,0.5182956193486126
301,4.437355643724553,-4.437355643724553,0.0,1.6611270303269077,1.6081417550075392,0.7586551960741307,3.268594953798229,3.51217624428224,,,0.5370774965580548,4.427489008750639,inf,,0.909325454478482
302,3.546211519324298,-3.546211519324298,0.0,1.5218682225985143,1.5106247077894783,0.8588103801609721,4.175258624861189,9.205200466004479,,,0.5202020156036558,3.544682914670912,inf,,0.5342313712904492
303,3.401197381662155,-3.401197381662155,0.0,1.731079608375115,1.7048144916711576,0.8149138417668393,4.095740221519524,9.645221602065751,,,0.5490601803369085,3.4011973816621555,inf,,0.6090745630527717
304,3.6670709786162123,-3.6670709786162123,0.0,1.42286985763644,1.4203340214339806,0.7429140274859405,3.492400260697717,17.833007709761514,,,0.541134803179459,3.6651629274966204,inf,,0.8819248945225364
305,5.7037824746562,-5.7037824746562,0.0,1.6077891977749952,1.6369407150043016,0.7844542355334014,3.68553000892694,8.511649240910675,,,0.45235697871908603,5.703782474656201,inf,,0.8848118207584059
306,4.0663885901803605,-4.0663885901803605,0.0,1.722741590728378,1.6928135089620933,0.7352406170784315,3.1432258300613998,2.6937139344434806,,,0.5068466436745385,4.064138720165035,inf,,0.8334313523839455
307,3.757872325600888,-3.757872325600888,0.0,1.6414358735225423,1.5448554122297293,0.6952991788679026,3.063030134013836,1.7980575509964134,,,0.5783247308855777,3.757872325600888,inf,,0.7842585162428926
308,3.4226206865125794,-3.4226206865125794,0.0,1.7172490336737427,1.7173390251048297,0.7690296218512915,4.072588634415917,4.729907005249037,,,0.5158180382284114,3.421740282893485,inf,,0.8070512138395003
309,3.757872325600888,-3.757872325600888,0.0,1.7023044231316036,1.6944296560018168,0.673209104918895,3.5083759160952486,4.549842996410872,,,0.5677978065141052,3.757872325600888,inf,,0.8284768453724726
310,4.0943445622220995,-4.0943445622220995,0.0,0.8667038001786047,0.7695845123030355,0.6527056904790782,1.759423701846818,0.2793445208119969,,,0.3116047106179316,4.0943445622221,inf,,0.9289247794092312
311,,0.0,0.0,0.8667038001786047,0.837979258403759,0.8198786795744137,0.1435619439312894,0.16878468221395243,,,0.26342377874763145,inf,,,0.9385775916828462
312,,0.0,0.0,0.8667038001786047,0.8484807580103187,0.8042570924163818,0.17896196423993474,0.20256438805974436,,,0.31914402280573173,inf,,,0.9517318761947814
313,5.7037824746562,-5.7037824746562,0.0,1.4701191084853873,1.4085872189992767,0.5944523898857399,2.2401052833169874,1.3690552688986584,,,0.5068466436745385,5.703782474656201,inf,,0.9199672534264269
314,5.010635294096255,-5.010635294096255,0.0,1.502855299812994,1.475955451663166,0.6955238072672655,2.741529343646443,2.9474921940945396,,,0.541134803179459,5.0106352940962555,inf,,0.7607831803805282
315,3.757872325600888,-3.757872325600888,0.0,1.7192154889575133,1.705826230732909,0.7781381961533556,4.295323570383935,7.896705177930611,,,0.4880666971167561,3.757872325600888,inf,,0.6435351343266542
316,3.9144539595187315,-3.9144539595187315,0.0,1.6890290538137467,1.6741725065198416,0.8244163480357776,3.209272884582657,2.2161482113371935,,,0.49759852643134905,3.9142477004502574,inf,,0.822777097359676
317,,0.0,0.0,1.6134787795191465,1.5678908365905446,0.5168118778815952,1.9199747059439198,1.3458443705895742,,,0.5113665138247345,inf,,,0.8502739855932236
318,5.7037824746562,-5.7037824746562,0.0,1.6367705908148105,1.6269482986625132,0.8212639632548492,2.2525887182748474,1.0578360351011984,,,0.21876365787541036,5.703782474656201,inf,,0.6617603984396838
319,5.703782474656202,-0.2661765154839561,0.0,1.1802730651019198,1.1652248754585643,0.6101469770371448,1.0576156453198078,0.24237166497710105,,,0.585052858160615,8.768507619697143,inf,,0.9471023857107908
320,4.4594112692791885,-4.4594112692791885,0.0,1.6934308132960596,1.6031326097220733,0.726775731489658,3.1173680729200064,2.854851305089522,,,0.5202020156036558,4.449116556014747,inf,,0.7056548589246632
321,5.306242580801381,-5.306242580801381,0.0,1.68050498929682,1.6602919023824962,0.5311632368163969,3.0457615990165086,3.1387457198667694,,,0.5329562494928909,5.219300826229812,inf,,0.6230837979775129
322,,0.0,0.0,1.6509543097521027,1.4842896668677668,0.5865060317725838,3.3383709627346567,7.921877902004081,,,0.4880666971167561,inf,,,0.6435202674056845
323,3.5065578973199822,-3.5065578973199822,0.0,1.6236403075491537,1.6004022698951414,0.7590201007541405,3.616465543408621,2.820759674504551,,,0.47824363442641393,3.506557897319982,inf,,0.7120243033098407
324,4.0943445622220995,-4.0943445622220995,0.0,1.5294343456328219,1.523422737590812,0.7878069217769288,3.3367213076388005,6.433055384884339,,,0.5113665138247345,4.0943445622221,inf,,0.6553598334411777
325,5.449628508450887,-5.449628508450887,0.0,1.7025268265497198,1.6909449314982372,0.7027975616390103,2.689743932383743,2.4154196415472406,,,0.5158180382284114,5.391407789614049,inf,,0.671594545714762
326,,0.0,0.0,1.6731043709439113,1.663343858725198,0.7971928495877654,3.2251815728128634,2.42659015857491,,,0.43586655696697996,inf,,,0.9523352678022191
327,5.7037824746562,-5.7037824746562,0.0,1.7355718663060171,1.7198778109366895,0.826843643724745,3.612826266818683,2.9095853595968477,,,0.48319206230712763,5.703782474656201,inf,,0.9523240338199239
328,5.010635294096255,-5.010635294096255,0.0,1.6639746576200585,1.5678563147053461,0.714057348934464,3.6546948902873058,3.4584063505072744,,,0.4880666971167561,5.0106352940962555,inf,,0.6200889411455429
329,,0.0,0.0,1.6755153963916558,1.6748171253324604,0.6806869399144515,2.8979939995603385,1.8157280700803216,,,0.4928685327679205,inf,,,0.7103891658553455
330,4.31748811353631,-4.31748811353631,0.0,1.6134676045188785,1.602397091627946,0.7073692714134261,2.7909279453520193,3.479337582350773,,,0.6038851895711802,4.31748811353631,inf,,0.6742641897903843
331,4.0943445622220995,-4.0943445622220995,0.0,1.6035090790982591,1.571194727870708,0.7179047872422004,3.278167496814481,2.3308962549767847,,,0.45235697871908603,4.0943445622221,inf,,0.5700880293141126
332,3.3876702603682483,-3.3876702603682483,0.0,1.6794705439823148,1.693289111085636,0.8152994089527796,3.751644619994808,6.97249773647464,,,0.47824363442641393,3.386965799415431,inf,,0.5518544376203293
333,2.870569130599985,-2.870569130599985,0.0,1.5775557381695346,1.5588024263693578,0.7720118890207043,3.894684977675257,3.66284433019765,,,0.5158180382284114,2.870569130599985,inf,,0.6008888092265037
334,3.0187298973829746,-3.0187298973829746,0.0,1.7644665067478231,1.7569439422808224,0.789773976914499,4.082824231297874,9.571289914869666,,,0.4732203808476458,3.0182051294060495,inf,,0.7041880573847578
335,5.3177830711772955,-4.85690853834193,0.0,0.022340379843483554,0.021845836583424743,0.6027520449555722,2.6109371891683373,2.1879849061271908,,,0.21876365787541036,5.350780936083778,inf,,0.6668352360565049
336,4.041407865489477,-4.041407865489477,0.0,1.291105621248425,1.275868685399943,0.7005764375511586,3.123685541855548,2.5337758043865968,,,0.5915533975974677,4.037334307505321,inf,,0.8124324901201722
337,2.774404019275327,-2.774404019275327,0.0,1.7177142000860406,1.7033923787853669,0.8221862036082364,3.7674469578746765,6.183093104150286,,,0.6038851895711802,2.7727665158219015,inf,,0.5522643724454707
338,4.269884155922612,-4.269884155922612,0.0,1.6726998455744708,1.6606336394910508,0.6889983930159111,3.5282160995470773,5.737538360039603,,,0.585052858160615,4.2655283746056,inf,,0.5358891675115209
339,3.9120230054281455,-3.9120230054281455,0.0,1.658895170735681,1.5903037955046178,0.6192218781889582,4.07346385861914,19.070433689255054,,,0.5641709578113449,3.912023005428146,inf,,0.6078290231265822
340,3.5065578973199822,-3.5065578973199822,0.0,1.618454898254255,1.5381220878774076,0.703091408356741,3.837945087372327,15.936645955531832,,,0.5370774965580548,3.506557897319982,inf,,0.7834674192755906
341,3.632352816533836,-3.632352816533836,0.0,0.9326437490474646,0.9098926385216027,0.7913300354655863,3.7523320589157065,2.9212348343933816,,,0.6207552362147116,3.6318691993971566,inf,,0.6528575875342264
342,2.9892784214402335,-2.9892784214402335,0.0,1.4352133822488473,1.4038327709000924,0.786545634370935,3.835105772086025,15.818276664717995,,,0.5287703885177266,2.9890877308353225,inf,,0.8199955865725668
343,3.353542291759993,2.346901281630694,-5.700443573390687,1.7485028859403309,1.7387515800106135,0.6947142524630828,4.243954958486771,55.077522853251736,2.348036355897963,,0.5451288209179292,3.3524072174927233,2.354714158428992,inf,0.6561313414182831
344,3.377369836711074,-3.377369836711074,0.0,1.5642196062621463,1.5716086690299518,0.8825086065319566,3.8759108677007226,4.220137349587077,,,0.6284777104787076,3.3765047690717838,inf,,0.7631522055190767
345,2.5573646243595607,3.143078949031126,-5.700443573390687,1.6866629566261897,1.6566948218361393,0.8206522644760957,4.28516460246737,4.710659616542764,3.143252928017521,,0.581717464821069,2.5571906453731654,3.14993073054855,inf,0.6045133988276674
346,3.27775352329785,-3.27775352329785,0.0,1.6316414046505945,1.6252896736250455,0.6839737382986066,4.2820798545206245,13.535304580503738,,,0.5883313578629602,3.2769169811518184,inf,,0.7844283902403815
347,3.5065578973199822,-3.5065578973199822,0.0,1.4724682837160796,1.4599495957394182,0.8214942247195354,3.518660003316144,6.9806506763531395,,,0.6068309995095971,3.506557897319982,inf,,0.7554683456991527
348,3.443717342249641,-3.443717342249641,0.0,1.3092165721770743,1.2762819061724722,0.8090471214992762,3.5139287907872587,4.016828238152671,,,0.5329562494928909,3.4406314509075626,inf,,0.524321674271183
349,2.8368112311397975,-2.8368112311397975,0.0,1.7083168271299782,1.6834882759088552,0.8398266276796896,3.938746836242192,3.4763875460305176,,,0.5883313578629602,2.8360729844887858,inf,,0.7435423265824163
350,2.870569130599985,2.1367272622307563,-5.0072963928307415,1.572470220492846,1.5304582559841577,0.7774586762033738,3.635086704905122,4.854604385238885,2.136727262230756,,0.5329562494928909,2.870569130599985,2.1434050647617853,inf,0.6404178445658687
351,2.983767302909965,0.40980780098148095,-3.393575103891446,1.7393915734033571,1.7047886483794146,0.7743114960454724,3.6322890765828335,6.336975831382436,,,0.5329562494928909,2.9813911562833333,3.2443902427369835,inf,0.693941894092934
352,3.2188758248681997,-3.2188758248681997,0.0,1.6400067582060303,1.6025221352282235,0.8789253454730387,5.072551299560804,8.455088975272671,,,0.49759852643134905,3.2188758248682006,inf,,0.6309345485914138
353,2.5265884299249253,2.480707962905816,-5.0072963928307415,1.4280066671397607,1.39377233278808,0.7202468735200139,3.775847736759076,6.145013696574608,2.482678242806513,,0.541134803179459,2.5246181500242284,2.489356045337542,inf,0.5641519676143631
354,3.698055726127959,-3.698055726127959,0.0,0.2808836675166153,0.2744564084300253,0.6708107045307533,5.12894235852485,9.507015891611193,,,0.35499006010413947,3.693780332713647,inf,,0.5336145071479661
355,,0.0,0.0,0.2808836675166153,0.2645903413115716,0.8643717274338597,2.1429266484082192,0.9900537754777585,,,0.36181263880445963,inf,,,0.8977072215423738
356,,0.0,0.0,0.2808836675166153,0.25111426630002226,0.8678732119403191,2.7771370147486416,2.1103652053263273,,,0.2961247884481232,inf,,,0.9103224820351408
357,4.2244948612096875,-4.2244948612096875,0.0,1.5014557790599439,1.4477181709502769,0.7850125616050221,3.2245725293698135,3.9775011000749223,,,0.5068466436745385,4.213128098212068,inf,,0.8240332300694334
358,4.605170185988091,-4.605170185988091,0.0,1.681799366806271,1.6656748065806477,0.8697091886939133,3.3038966133669487,3.4621346329892444,,,0.4576907132971797,4.605170185988091,inf,,0.8754182003163595
359,3.8955802662465717,-3.8955802662465717,0.0,1.3966636011495137,1.3182013462493607,0.7333404715094073,3.450051422794549,3.602963135626613,,,0.47824363442641393,3.8944014040783266,inf,,0.9013117868017856
360,4.0943445622220995,-4.0943445622220995,0.0,0.2158981202507178,0.21158566169774481,0.587237299688917,2.66859505033531,4.415544400353321,,,0.49759852643134905,4.0943445622221,inf,,0.9392572893330312
361,4.003183783825123,-4.003183783825123,0.0,1.7396512522632637,1.7154547741943271,0.6647322423127294,2.017879892682797,1.428813134847271,,,0.48319206230712763,3.9990343824177756,inf,,0.5629834514106596
362,5.7037824746562,-5.7037824746562,0.0,1.7198368999140299,1.6952018739514594,0.5593621202101474,1.949871515530139,1.6513077305472699,,,0.4732203808476458,5.703782474656201,inf,,0.753547325048926
363,5.010635294096255,-5.010635294096255,0.0,1.572135998020968,1.557338997032444,0.7333337508312844,2.5876459175850552,2.5885485868167395,,,0.41268473150466,5.0106352940962555,inf,,0.5833575824500826
364,3.4112018956038566,-3.4112018956038566,0.0,1.5991925368903765,1.5942798014926198,0.7896036133150856,3.585752739643534,11.611764475293779,,,0.5490601803369085,3.4085577360684476,inf,,0.7068832453992812
365,3.5116618288650923,-3.5116618288650923,0.0,1.726028849761406,1.6933343669597667,0.7236622606264514,3.5595249630326946,3.432551062563079,,,0.5490601803369085,3.5113843406969107,inf,,0.7245997381990837
366,4.714645765177295,-4.714645765177295,0.0,1.7111494632200352,1.6676152276585319,0.6999292407672237,3.126904410405083,10.54345899048898,,,0.5604843169999094,4.699480865459333,inf,,0.8749144290845058
367,4.605170185988091,-4.605170185988091,0.0,1.7167527442446544,1.6738273834586366,0.7484146568521175,2.830914404959884,3.4747827198865124,,,0.44694259446804574,4.605170185988091,inf,,0.8156035785693433
368,4.323241754985346,-4.323241754985346,0.0,1.7489724484509546,1.7272741334993105,0.606854666856983,2.448356319185533,2.5071817531369414,,,0.468121228110369,4.322500655359855,inf,,0.6442346382035203
369,,0.0,0.0,1.699529979399166,1.671021209702633,0.6846341527023649,2.387584927897735,2.122281354766441,,,0.5068466436745385,inf,,,0.9264893286793622
370,3.9120230054281455,-3.9120230054281455,0.0,1.6649331194324752,1.6258397858586662,0.6497331421133737,1.9465216805122085,1.2907321011697401,,,0.5490601803369085,3.912023005428146,inf,,0.7257310289310709
371,4.661730331890672,-4.661730331890672,0.0,1.7166855205410982,1.7295674449521918,0.7358939808866503,2.544581047023943,2.3428341898327423,,,0.5370774965580548,4.633341062954788,inf,,0.8240293614393854
372,4.24905742446662,-4.24905742446662,0.0,1.6496519980851199,1.6623722826753686,0.676722358850731,2.2233360365604202,2.0197472514019554,,,0.5713653840954815,4.243618264969855,inf,,0.8483383342141858
373,5.7037824746562,-5.7037824746562,0.0,1.5256610419832264,1.4626097215876308,0.6373478466621338,2.4634639406101893,2.2984507423386513,,,0.4629450596409901,5.703782474656201,inf,,0.7567276303098831
374,4.605170185988091,-4.605170185988091,0.0,1.6061314650551841,1.5813397026523306,0.6979799203907854,2.7670611581345934,2.883282438398825,,,0.43586655696697996,4.605170185988091,inf,,0.7259733835276855
375,4.605170185988091,-4.605170185988091,0.0,1.7134936525809472,1.686129102087438,0.6501658198970773,2.3139708099620147,1.923608834627121,,,0.4880666971167561,4.605170185988091,inf,,0.5590607915425152
376,4.605170185988091,-4.605170185988091,0.0,1.6509256535204362,1.6461464977182403,0.6167949291197701,1.981435266434561,1.605884929121149,,,0.4928685327679205,4.605170185988091,inf,,0.7830403258964599
377,5.010635294096255,-5.010635294096255,0.0,1.5747872477013243,1.5515290667700896,0.6787611780091283,2.2422936560029045,1.8346315773250668,,,0.5068466436745385,5.0106352940962555,inf,,0.7965157079585979
378,,0.0,0.0,1.524821070085912,1.5164878637007142,0.5026417822575127,1.6074723065554608,1.1530432666831605,,,0.4732203808476458,inf,,,0.9137185429355246
379,,0.0,0.0,1.718900776696314,1.6715639300939522,0.32077550202031624,1.2677468517831358,1.2591706599609211,,,0.41268473150466,inf,,,0.9289613523156531
380,,0.0,0.0,1.6516247104127584,1.626031577572212,0.7396248131189429,1.4800023537758806,1.471424179516583,,,0.468121228110369,inf,,,0.7623581082524754
381,,0.0,0.0,1.6698335328667322,1.6518388484252515,0.8762535664513633,1.424091054152709,1.8258412362416583,,,0.4928685327679205,inf,,,0.745801762496155
382,,0.0,0.0,1.7451349453539826,1.7123045946307096,0.9390283703430636,1.7398959226855553,2.4361242101991505,,,0.44694259446804574,inf,,,0.7888249688259326
383,,0.0,0.0,1.4457273102489447,1.4244343489951545,0.921613987445376,1.6983090023066016,1.5759047106679727,,,0.43586655696697996,inf,,,0.7946333853151818
384,,0.0,0.0,1.5128697790271253,1.497800193955596,0.8520289092740096,2.0763092332408264,1.558341904490216,,,0.3943459996787778,inf,,,0.863509573025914
385,,0.0,0.0,1.4965633278220118,1.4819189693922694,0.8571604089217727,2.2624953020182517,2.949426374762195,,,0.41268473150466,inf,,,0.8619823029809753
386,5.010635294096255,0.6898082792944322,-5.700443573390687,1.4589754339215066,1.4291809522692611,0.6821859089906424,2.8562285001310506,2.59800344194019,0.6898082792944307,,0.468121228110369,5.0106352940962555,0.6964860818254599,inf,0.8929124704144596
387,,0.0,0.0,1.6072894020002892,1.5830318553350216,0.9198766629484095,2.7004186085682123,3.6398344970046104,,,0.5604843169999094,inf,,,0.8453274735185556
388,5.7037824746562,-5.7037824746562,0.0,1.1882058153506716,1.1566614836373794,0.7844504424723407,3.0837069262396586,3.983524714012752,,,0.5451288209179292,5.703782474656201,inf,,0.7907540130819857
389,5.7037824746562,-5.7037824746562,0.0,1.61998385540922,1.552849480094813,0.7017148555526957,1.84784515627395,1.3362876842100377,,,0.48319206230712763,5.703782474656201,inf,,0.8182492756855245
390,,0.0,0.0,1.5906810332529158,1.5758311574210104,0.5371954479678317,1.2857843972330594,1.3156671596957707,,,0.41861278947482794,inf,,,0.8931338750807971
391,,0.0,0.0,1.6310941990967307,1.582378772951159,0.9786440755423045,2.4479932836358884,2.769014992242473,,,0.42445136339222655,inf,,,0.8449727818898621
392,,0.0,0.0,1.5446492936879155,1.4698719222048935,0.9499828431426882,2.969372630854899,5.18874698453423,,,0.4880666971167561,inf,,,0.8750427829174784
393,,0.0,0.0,1.5326202592703766,1.5273270660548648,0.6627478050025333,1.9986129984034304,2.3242967798700396,,,0.5022576003740722,inf,,,0.9040970420266737
394,4.350092081747513,-4.350092081747513,0.0,1.6192445651768996,1.5378656854332156,0.5660936720997012,2.2542734730521845,2.3358996733895605,,,0.5567373465730988,4.346230582401964,inf,,0.6595176273060009
395,,0.0,0.0,1.507867159647375,1.4942866340815126,0.5516418346089942,1.079587731607672,0.992894483156401,,,0.47824363442641393,inf,,,0.8395533290684798
396,,0.0,0.0,1.6919516342347651,1.6737790654957005,0.7701436918874459,0.9065054211703597,1.080489454336556,,,0.4732203808476458,inf,,,0.7775870132850942
397,,0.0,0.0,1.6609690176280352,1.6369229814190709,0.8915660844153048,0.8027989966656035,1.028649168506913,,,0.47824363442641393,inf,,,0.8075433191459497
398,,0.0,0.0,1.3495137253364178,1.316851213366571,0.804717610173021,1.0301471110363272,1.3261258714529174,,,0.4066654671944331,inf,,,0.817567825629784
399,,0.0,0.0,1.69860086162877,1.6731918150608789,0.887503370439969,0.733064868611059,1.0637356521841366,,,0.44144624493110796,inf,,,0.7332132141870722
400,,0.0,0.0,1.5509940809949336,1.5368232364728236,0.683781071894118,0.8759166965871258,1.3134093504159454,,,0.524519217297268,inf,,,0.7888664179128971
401,,0.0,0.0,1.6915598764646917,1.6863354175767076,0.5657551294425588,0.8552830867738336,1.1671830606203233,,,0.524519217297268,inf,,,0.8035414739394474
402,,0.0,0.0,1.647043709132765,1.6357513813986526,0.7109017187095638,0.9102137863315987,1.3351075333628786,,,0.42445136339222655,inf,,,0.7435364541701622
403,,0.0,0.0,1.2661118732779095,1.2707638222008248,0.7496323674435607,0.9395545993629182,1.395095635986371,,,0.42445136339222655,inf,,,0.775499622591703
404,,0.0,0.0,1.2713968635636048,1.2751866250864774,0.6295180783621236,0.9306685304534281,1.3809406578973393,,,0.48319206230712763,inf,,,0.7742522640182717
405,,0.0,0.0,1.5839131730072353,1.5847901942103193,0.7010638766810787,0.8871487674867268,1.224325249691005,,,0.468121228110369,inf,,,0.8076240212744967
406,,0.0,0.0,1.3722076631687847,1.351415756962566,0.6485316981889732,0.9970805034364836,1.1754402405682742,,,0.5068466436745385,inf,,,0.8504871279526786
407,,0.0,0.0,1.1740674983014174,1.157816195092468,0.8108769390119552,0.9251527071894423,1.2899273401767366,,,0.4732203808476458,inf,,,0.7879067226829468
408,,0.0,0.0,1.393282565886287,1.3432161389377302,0.7958770676538159,1.1160559329261464,1.3498827979093,,,0.468121228110369,inf,,,0.8522031605538885
409,,0.0,0.0,1.4815879475345586,1.4626275905179786,0.7865744879771973,0.9306895458254286,1.1618540216507585,,,0.44144624493110796,inf,,,0.8358013049651142
410,,0.0,0.0,1.6311165147967923,1.6394137180656225,0.3548123381714485,0.9885144146105715,1.0983479057435017,,,0.44694259446804574,inf,,,0.9350382174343538
411,,0.0,0.0,1.1395343429012383,1.1088282423745706,0.7691699670986833,1.2548835479897928,1.138859360124532,,,0.45235697871908603,inf,,,0.8739533374315556
412,,0.0,0.0,1.1800789772117406,1.0890674353004781,0.5585277375773412,1.4040988544337656,1.3773432376412362,,,0.6207552362147116,inf,,,0.9044654288867192
413,,0.0,0.0,1.3377729911767309,1.3506399053815894,0.6093826671334492,1.1044697317785366,1.2583289220435934,,,0.4880666971167561,inf,,,0.8224814969437885
414,,0.0,0.0,1.5315343689883332,1.47053980145929,0.5064112391206627,1.0679629194140265,1.2164613305617817,,,0.4302020962658841,inf,,,0.8812525728539987
415,,0.0,0.0,1.594788621408255,1.5770710698819228,0.9009549698151577,1.2473066162242459,1.4567591982018466,,,0.4629450596409901,inf,,,0.793387077869598
416,,0.0,0.0,1.4355386798671776,1.3925997681877365,0.9376807632313504,0.965308625781585,1.2429810703006634,,,0.5022576003740722,inf,,,0.7745255343040571
417,,0.0,0.0,1.4260859791806408,1.3870073349147773,0.7164961957267061,0.8770781978596124,1.2077709744613094,,,0.48319206230712763,inf,,,0.827944603412116
418,,0.0,0.0,1.5124963343050564,1.5058755815047653,0.7299460241339375,0.7469993769462469,0.9830065615913798,,,0.4576907132971797,inf,,,0.7888137375097679
419,,0.0,0.0,1.5422366596388861,1.5180655497628912,0.8846923524317787,0.7454381501883963,1.0260779838716172,,,0.45235697871908603,inf,,,0.6985292282353018
420,,0.0,0.0,1.519165349023719,1.5198006039088918,0.35768398453025935,0.9275099550396565,0.9644530261465977,,,0.44144624493110796,inf,,,0.9016129158915622
421,,0.0,0.0,1.027557103145421,1.003458047348333,0.37369266362871195,0.9126790946660307,1.0529463015534033,,,0.48319206230712763,inf,,,0.880285805848098
422,,0.0,0.0,1.373002691682252,1.35896586536422,0.4400855334953659,0.8466743295445545,1.1086135468563938,,,0.4732203808476458,inf,,,0.892377714789485
423,5.7037824746562,-5.7037824746562,0.0,1.4080878448232674,1.3579667653909882,0.61602774427298,1.809332052884035,1.5064447821931661,,,0.5068466436745385,5.703782474656201,inf,,0.8159995659152807
424,4.709239563735853,-4.709239563735853,0.0,1.5591381785860674,1.3625914381886022,0.6392665525746222,2.1926228469361635,1.5273082881717395,,,0.5490601803369085,4.694608748635332,inf,,0.908460017892695
425,5.010635294096255,-5.010635294096255,0.0,1.6474559738191852,1.6069292002327074,0.6828431799337216,2.553394329926078,2.71753572886156,,,0.5287703885177266,5.0106352940962555,inf,,0.7137278111988561
426,,0.0,0.0,1.6200365628601543,1.551904677756367,0.8412260945845569,1.5669736740386457,1.633861079504691,,,0.3751344627501719,inf,,,0.7547702625529609
427,,0.0,0.0,1.2885810416200236,1.2094241657635414,0.5681625880582813,2.0896096094573053,2.7514870309626818,,,0.4066654671944331,inf,,,0.7223263205393757
428,3.563486364553901,-3.563486364553901,0.0,1.4108307547542462,1.3449142391364364,0.7572076092726644,2.962545918269998,2.4365483064420244,,,0.4880666971167561,3.5617574466745974,inf,,0.6877989188686131
429,5.029119218911187,0.5188041250911208,-5.5479233440023075,1.0491362037397343,0.9980475642687326,0.6143058469532565,2.610489456926642,3.018855909649582,0.8473997448415532,,0.45235697871908603,5.024058314428396,0.7101833677125131,inf,0.7408272228935261
430,5.701471984054335,-5.701471984054335,0.0,1.3690701134972567,1.2669810848418586,0.7343617833552906,3.145410968769201,2.6576070423771907,,,0.44144624493110796,5.700454684563526,inf,,0.8202922539718699
431,,0.0,0.0,1.6256509126978111,1.6279115512436186,0.6875795359487311,2.1219706285128033,1.8356072477482868,,,0.3685265678147087,inf,,,0.9178477154884173
432,4.605170185988091,-4.605170185988091,0.0,1.7168679479525626,1.7034817937186744,0.7672569886201313,2.765964840702019,5.419920697607119,,,0.40055318934786044,4.605170185988091,inf,,0.8218867416197566
433,5.7037824746562,-5.7037824746562,0.0,1.7408888022075688,1.7062109677423714,0.8074090939120153,2.725153870230855,2.6375664975591464,,,0.4928685327679205,5.703782474656201,inf,,0.8298363992376926
434,5.7037824746562,-5.7037824746562,0.0,1.371413629383216,1.3460624120636218,0.8059237833434155,2.5599428850900963,2.9976095282867674,,,0.45235697871908603,5.703782474656201,inf,,0.8370813754734877
435,,0.0,0.0,1.4584299974848025,1.4327285172982993,0.9400910040156775,2.596249735631623,3.063161040826088,,,0.45235697871908603,inf,,,0.7861344992469045
436,,0.0,0.0,1.370557560202133,1.3571963400583005,0.8824786147320715,3.020622532112083,2.2348486143744597,,,0.43586655696697996,inf,,,0.8525763947102482
437,,0.0,0.0,1.490106091291036,1.4771755500047712,0.9656716748153199,2.6901250474291376,2.553339551355423,,,0.43586655696697996,inf,,,0.7898473945436172
438,,0.0,0.0,1.6093003403034185,1.5634728246963048,0.9728761792330408,2.1665424894626493,1.991847176154605,,,0.5022576003740722,inf,,,0.8426230877342373
439,,0.0,0.0,1.4182187113021163,1.423630484053887,0.6666480239486074,1.374734720825039,1.4334747905420515,,,0.41861278947482794,inf,,,0.8872220923312002
440,5.010635294096255,-5.010635294096255,0.0,1.2857804074865822,1.2449484932717438,0.5934847707902751,1.393020543473447,0.8706619180280413,,,0.4576907132971797,5.0106352940962555,inf,,0.6931513234582966
441,5.010635294096255,-5.010635294096255,0.0,1.670765044768896,1.6441335924748317,0.8038023096434329,2.9564638836775066,2.9451665847649267,,,0.5329562494928909,5.0106352940962555,inf,,0.834447112003143
442,5.701471984054334,-5.701471984054334,0.0,1.5574400837105569,1.3991698128869032,0.6153510258735001,2.0809642182957697,1.7098265854005068,,,0.4302020962658841,5.700454684563526,inf,,0.8795090167190786
443,,0.0,0.0,1.6511178409087817,1.6163302317285455,0.8895818869953362,1.7237259650268784,2.35834129888287,,,0.43586655696697996,inf,,,0.7657382519292318
444,,0.0,0.0,1.2668788316989312,1.2484759196930453,0.8711874177036861,1.6117887249055591,2.4739467120290843,,,0.468121228110369,inf,,,0.7610339041151077
445,,0.0,0.0,1.525102881913769,1.5112671566779516,0.7957517306188338,1.4367288424414653,1.7996205239342733,,,0.41268473150466,inf,,,0.785582290755344
446,,0.0,0.0,1.6579357852824836,1.6393036641102356,0.8658860635340644,1.1594515432045511,1.44606514858037,,,0.5068466436745385,inf,,,0.7548765487200073
447,,0.0,0.0,1.4292226630974367,1.421585912460422,0.7602991155175836,1.0105528199768576,1.3324943488487617,,,0.45235697871908603,inf,,,0.7911295283522017
448,,0.0,0.0,1.5712920767811906,1.5434150466352872,0.6023576448727366,1.1764051032005398,1.1489663716572196,,,0.48319206230712763,inf,,,0.8515569355092927
449,,0.0,0.0,1.647713640700155,1.6141296723021312,0.778164862897907,1.4549406214569398,1.7206777408696483,,,0.5158180382284114,inf,,,0.7846163707557744
450,,0.0,0.0,1.6747937296174458,1.6651309205816098,0.574285658120098,1.4406033215131917,1.7546934737791,,,0.45235697871908603,inf,,,0.8930999695930707
451,,0.0,0.0,1.7149182346618443,1.6648365508647003,0.8902307379390701,1.154163330241917,1.411082935798588,,,0.44694259446804574,inf,,,0.7663581248980883
452,,0.0,0.0,1.7021970654197056,1.64726763062303,0.8259157191879701,1.9465263183414252,2.3351292991584494,,,0.4928685327679205,inf,,,0.8638793672289948
453,,0.0,0.0,1.713155634526414,1.7041605432049751,0.7978080324947077,1.7854889067345896,2.388626149540559,,,0.5604843169999094,inf,,,0.8281067557381633
454,,0.0,0.0,1.389823696853629,1.3732134930806823,0.736879482067168,1.7034959099918747,2.2559095376799023,,,0.43586655696697996,inf,,,0.8097651153255955
455,,0.0,0.0,1.7627185782261663,1.7370588945760443,0.9039418247302471,1.6381551724414536,2.4026951999847936,,,0.4576907132971797,inf,,,0.759821435685198
456,,0.0,0.0,1.3317401661261652,1.30996130949205,0.8700870246975101,1.7883553915240593,2.759135208702597,,,0.48319206230712763,inf,,,0.7656052561356106
457,,0.0,0.0,1.327027056708109,1.2682682587941347,0.6859341341022306,1.844403294648175,2.3440828204653124,,,0.4302020962658841,inf,,,0.872709437963399
458,,0.0,0.0,1.6874978077070952,1.6623927785756625,0.8580181802395584,1.590227333401378,1.9017873458176247,,,0.4880666971167561,inf,,,0.7745491217028062
459,,0.0,0.0,1.53413358724307,1.5208444043254563,0.8824395317535135,1.4427283373039608,2.0894108034123797,,,0.5202020156036558,inf,,,0.7393905728599962
460,,0.0,0.0,1.6077785108979716,1.583233842520211,0.9100591388069736,1.412403885111981,1.6826101397681634,,,0.49759852643134905,inf,,,0.7511604946683879
461,,0.0,0.0,1.137906302406622,1.0871510531661932,0.5224572633349635,1.7672898953577534,2.4437902241243106,,,0.4302020962658841,inf,,,0.895177259651334
462,,0.0,0.0,1.526939229074039,1.5152829838345996,0.6918156249515177,1.9146511075326935,2.110911699280322,,,0.4928685327679205,inf,,,0.8800710531424633
463,,0.0,0.0,1.584703130794404,1.5609195532064775,0.5437982084902595,1.0490798962387644,1.2038250461615119,,,0.44144624493110796,inf,,,0.9175766715207254
464,,0.0,0.0,1.6707643627277862,1.5985281952868764,0.8707922207901576,0.653625614421012,0.7791692852793569,,,0.36181263880445963,inf,,,0.8113311218206903
465,,0.0,0.0,1.6078959317943706,1.574460059367548,0.9225141725451808,1.1077432102194904,1.6970873063685725,,,0.4928685327679205,inf,,,0.8533374873676931
466,,0.0,0.0,1.610149868029986,1.5762158457776045,0.7079293900324688,1.4882718168706741,1.3404286397753302,,,0.41861278947482794,inf,,,0.9014016198905337
467,,0.0,0.0,1.7604898437824765,1.7737782377364069,0.8983084030519264,1.5595580802854434,1.6009834852678841,,,0.4576907132971797,inf,,,0.8507333221224145
468,,0.0,0.0,1.566227397002713,1.5764638738258359,0.6017919245236463,2.0002859081138236,2.0469414905385186,,,0.44144624493110796,inf,,,0.7734892461249591
469,,0.0,0.0,1.7101127500629905,1.6946404207378316,0.9409916818030152,1.6412912677856768,1.7276741081291533,,,0.4880666971167561,inf,,,0.8028402326657922
470,5.7037824746562,-5.7037824746562,0.0,1.312963437861328,1.24776942488989,0.5075114370148469,1.5304179647452785,2.0150534374662055,,,0.41861278947482794,5.703782474656201,inf,,0.8945980563894986
471,,0.0,0.0,1.7550000260292102,1.7025455330052806,0.9391297412957703,1.587446740000874,1.9123564392033106,,,0.48319206230712763,inf,,,0.8469043222001557
472,,0.0,0.0,1.209119127745726,1.1744275132730069,0.6493743671626103,1.689133623921166,1.8861290694458002,,,0.44694259446804574,inf,,,0.9006743318323407
473,,0.0,0.0,1.7502350962126656,1.743529689373048,0.45707342321769445,1.2915355846875756,1.3138766813693272,,,0.5113665138247345,inf,,,0.8955770510082736
474,,0.0,0.0,1.5377557554871304,1.49906059632473,0.7989026193736386,1.1606120753763374,1.3240841068874034,,,0.42445136339222655,inf,,,0.8599616772913569
475,,0.0,0.0,1.7781575654640234,1.7649825468477394,0.9350065874487685,1.222696341814203,1.5495614244603155,,,0.4928685327679205,inf,,,0.7896661017279109
476,,0.0,0.0,1.7476713857745487,1.7054577564351623,0.9523421803496169,1.14612802112227,1.4440150350128353,,,0.41268473150466,inf,,,0.7463011697171159
477,,0.0,0.0,1.6268575483679972,1.6087883689152054,0.43294131196900854,1.7045320433758295,1.7609869498087796,,,0.42445136339222655,inf,,,0.921300758422563
478,,0.0,0.0,1.770188025585186,1.7682855472052814,0.7125969140828143,0.9955730359816265,0.9644878847247071,,,0.5641709578113449,inf,,,0.8481779401295352
479,,0.0,0.0,1.4635885225081555,1.4631216315726807,0.6625108912079478,0.9579347142207146,0.9099931050394587,,,0.468121228110369,inf,,,0.8859903501092654
480,5.010635294096255,-5.010635294096255,0.0,1.540161605965689,1.500474544575748,0.3202647369840157,0.9874439655915703,0.8080875443991559,,,0.47824363442641393,5.0106352940962555,inf,,0.652126912640149
481,5.009283743735893,-5.009283743735893,0.0,1.061582894115629,0.9321464707445878,0.684553797189948,1.7279419461442507,0.6526031728377635,,,0.5287703885177266,5.008970014777194,inf,,0.6600692783941717
482,4.0943445622220995,-4.0943445622220995,0.0,1.5283802901635481,1.5009633391040968,0.7230962812960169,2.847944184400865,1.583179414540119,,,0.5677978065141052,4.0943445622221,inf,,0.7851501396250318
483,5.7037824746562,-3.1751055775586177,0.0,1.748898789931579,1.7239538771178937,0.6407704157266532,1.9157565952412527,1.5783542537360304,,,0.5567373465730988,6.289571136895647,inf,,0.8907844571388968
484,,0.0,0.0,1.3263215218309279,1.3126583483993095,0.5109630751967777,1.8764827279686966,1.74201655513378,,,0.524519217297268,inf,,,0.7064862994323786
485,,0.0,0.0,1.4894411379062138,1.5014558485861458,0.5347097270552282,1.928785163270567,1.4238677461542997,,,0.5567373465730988,inf,,,0.9012841576833919
486,5.7037824746562,-5.7037824746562,0.0,1.7476515574918385,1.7836973290674125,0.56604182433292,1.8458993142033289,1.3623800388096845,,,0.48319206230712763,5.703782474656201,inf,,0.9433818805576586
487,,0.0,0.0,1.629230648019421,1.6298471302016935,0.5775951740077744,1.5762413255360612,1.1670279939008006,,,0.47824363442641393,inf,,,0.7268835596394317
488,4.605170185988091,-4.605170185988091,0.0,1.5556906618067317,1.5560558802989863,0.544811972792033,2.097304574125607,1.3599509909477079,,,0.45235697871908603,4.605170185988091,inf,,0.8075984661677988
489,,0.0,0.0,0.893240769613113,0.868269918936235,0.5141036151285195,1.5435728546824454,1.154628983581549,,,0.4928685327679205,inf,,,0.826450639159848
490,5.7037824746562,-5.7037824746562,0.0,1.615116733883773,1.6063198433528878,0.5031505396749117,1.6080224751850345,1.0338677841258872,,,0.5158180382284114,5.703782474656201,inf,,0.9490449726963712
491,5.7037824746562,-5.7037824746562,0.0,1.7677763928710575,1.7859536436481496,0.5637077819507801,1.883812681502554,1.4466699829763177,,,0.5068466436745385,5.703782474656201,inf,,0.9190393735159873
492,5.7037824746562,-5.7037824746562,0.0,1.6503878621547479,1.607193116818305,0.5926436241133611,2.176384004316138,1.5352656513113447,,,0.5451288209179292,5.703782474656201,inf,,0.7714728027024988
493,4.0943445622220995,-4.0943445622220995,0.0,1.534771018373819,1.50001129913395,0.7511879140515619,2.466628774623958,1.4493531170492453,,,0.5022576003740722,4.0943445622221,inf,,0.8262398892709799
494,4.404630086062062,-4.404630086062062,0.0,1.5498180878491417,1.5138355270332027,0.4820503358972974,1.2895178726134517,1.0956848718773742,,,0.41268473150466,4.385588526240242,inf,,0.8165156583976267
495,,0.0,0.0,1.6692822999570518,1.6500141523250476,0.6332707389412561,1.3091032726376817,1.1050797910664836,,,0.48319206230712763,inf,,,0.8765666872970477
496,3.0646656721582115,-3.0646656721582115,0.0,1.565357213909456,1.5332264215407252,0.7449339979795224,2.672863704306951,1.9246063775883049,,,0.5641709578113449,3.0644870781430202,inf,,0.6590621891847983
497,5.7037824746562,-5.7037824746562,0.0,1.609921828715041,1.614110827738378,0.5810215971894429,1.5100291311602774,1.114965916364978,,,0.5287703885177266,5.703782474656201,inf,,0.8990291433060528
498,3.9314706381528337,-3.9314706381528337,0.0,1.4093683382859639,1.395701230516395,0.6431298239368188,2.593577416999773,2.2720110143378243,,,0.5202020156036558,3.9299607061148136,inf,,0.7145507388231402
499,4.661935301123234,-4.661935301123234,0.0,1.648251574596585,1.6172418056996256,0.5902547014124957,1.9563723218574016,1.6884545585325224,,,0.541134803179459,4.6529608498244395,inf,,0.7819861454376283
500,5.7037824746562,-5.7037824746562,0.0,1.5830332456112859,1.573047915514373,0.6763020882613535,1.951701885315209,1.6098067237149947,,,0.5068466436745385,5.703782474656201,inf,,0.8923383871587588
501,4.443109285173588,-4.443109285173588,0.0,1.5780130482910848,1.5796758259999535,0.6356107371848589,1.7770723813100164,1.4282329419261814,,,0.5287703885177266,4.433086038287357,inf,,0.8065272337344085
502,5.7037824746562,-5.7037824746562,0.0,1.6137162357590515,1.5962896391088457,0.5399762753538315,1.8638692298289654,1.449739812212301,,,0.5158180382284114,5.703782474656201,inf,,0.6891795977531198
503,5.010635294096255,-5.010635294096255,0.0,1.6329525468280384,1.6231067623516429,0.5268702798799835,1.3755816544481754,1.2603403756938216,,,0.4928685327679205,5.0106352940962555,inf,,0.911789753144643
504,4.605170185988091,-4.605170185988091,0.0,1.6090054510751486,1.5598422137089754,0.6455534978677248,2.3463306909024593,1.9533554698517532,,,0.5158180382284114,4.605170185988091,inf,,0.83029196447422
505,,0.0,0.0,1.5590402097960783,1.5279898362636086,0.6723217584845149,1.4752984093175214,1.2913599410687093,,,0.5451288209179292,inf,,,0.7796961005637287
506,,0.0,0.0,1.366385852798192,1.3735596454650822,0.7487189333311418,1.6537452250045106,1.5228088656912462,,,0.48319206230712763,inf,,,0.8557063682325775
507,,0.0,0.0,1.3854878768288843,1.3516476708506238,0.5640749558045295,1.7166228294208274,1.6052786023275596,,,0.541134803179459,inf,,,0.9124411322434173
508,4.371890607517077,-4.371890607517077,0.0,1.442252643406834,1.3780265141560533,0.6231765144224855,1.798786712633188,1.3569733536313966,,,0.5641709578113449,4.360917671463646,inf,,0.7984441787024121
509,5.010635294096255,-5.010635294096255,0.0,1.7511642552791997,1.6256876916832343,0.7454120499909964,2.0100260996436274,1.3260395011819677,,,0.5713653840954815,5.0106352940962555,inf,,0.7701473682982726
510,,0.0,0.0,1.4143221873523173,1.416310915783138,0.5954721821109508,0.9620780602054501,1.051321636048208,,,0.48319206230712763,inf,,,0.8587541202634091
511,,0.0,0.0,1.6020705319455208,1.571123579668173,0.636984526828693,1.4211568594230075,1.437210708797797,,,0.5287703885177266,inf,,,0.902179017868024
512,5.7037824746562,-5.7037824746562,0.0,1.392149950897122,1.3327547213937165,0.6401833831803065,1.6710454539689625,1.7762349715266652,,,0.5158180382284114,5.703782474656201,inf,,0.9485759418766796
513,4.31748811353631,-4.31748811353631,0.0,1.6351241517377977,1.5520379202279462,0.777873462409781,2.335477290883819,1.760029725794841,,,0.5947193981915972,4.31748811353631,inf,,0.9176311024008035
514,3.401197381662155,-3.401197381662155,0.0,1.5822607100338133,1.5155939718899305,0.7973882325923587,3.4871593344213982,6.306677248282593,,,0.524519217297268,3.4011973816621555,inf,,0.6710015244763621
515,4.416258958411422,-4.416258958411422,0.0,1.5526589685259053,1.5574175638226353,0.8051431761024711,2.755273794184582,1.8399132903954047,,,0.5677978065141052,4.407230489037172,inf,,0.890646308127713
516,4.340502679332452,-4.340502679332452,0.0,1.579163098898491,1.5918662956679286,0.7693877689193122,3.879517109316848,5.712999630822729,,,0.4928685327679205,4.33769082085383,inf,,0.8655523212705325
517,3.752711130192483,1.9477324431982037,-5.700443573390687,1.4829813140511976,1.3960665080587826,0.7943030222107458,3.0287631881498482,2.1374790862645607,1.9506338952131494,,0.49759852643134905,3.749809678177537,1.957311697744179,inf,0.6178830584997955
518,3.7382877213492915,-3.7382877213492915,0.0,1.3453774609929852,1.300239062491875,0.6316751062779072,1.9594234275332354,1.5023142454076248,,,0.5158180382284114,3.7371364271217096,inf,,0.7593304427140645
519,4.5089555559366055,-4.5089555559366055,0.0,1.688696492911466,1.6537964210215155,0.6517038873575861,1.9785378936192584,1.0864591692626253,,,0.5158180382284114,4.487881099464992,inf,,0.7857458622836904
520,,0.0,0.0,1.650102676214321,1.589371228645858,0.7447763592710116,1.9125950728286623,1.7001413898945004,,,0.5604843169999094,inf,,,0.945388657127293
521,4.424889420584975,-4.424889420584975,0.0,1.6565328533957644,1.556617781716047,0.5987623663068016,1.7149449655741535,1.4499799041318047,,,0.5451288209179292,4.415468521896514,inf,,0.8789872285432548
522,,0.0,0.0,1.3433174908663532,1.2502176730534584,0.6616010345688133,1.5779545925841845,1.33530000288258,,,0.5113665138247345,inf,,,0.8829062925827322
523,5.7037824746562,-5.7037824746562,0.0,1.7011608165837675,1.6798024557637374,0.7622291072963716,2.0319005202268086,1.498963425432704,,,0.5158180382284114,5.703782474656201,inf,,0.8369196923924426
524,5.7037824746562,-5.7037824746562,0.0,1.5285111616336935,1.5143641962614636,0.7819079353273949,2.1626278394942693,1.4041389380892193,,,0.581717464821069,5.703782474656201,inf,,0.9454227089772518
525,5.703782474656201,-0.07605043299541601,0.0,1.518239143117921,1.478302828463982,0.6368274424474349,2.1874153170932407,1.5417443850196317,,,0.4880666971167561,10.021270588192511,inf,,0.8660168167763463
526,5.010635294096255,-5.010635294096255,0.0,1.6673607466768723,1.6475278927625316,0.6483565840480424,1.9726657975445896,1.1922174639472933,,,0.4629450596409901,5.0106352940962555,inf,,0.8372731071269433
527,4.277395374904213,-4.277395374904213,0.0,1.710110089501579,1.6777441804494857,0.765595137244437,2.78639971595074,2.041756970682499,,,0.5287703885177266,4.267111906211244,inf,,0.8912014291841805
528,3.9444863177845573,-3.9444863177845573,0.0,1.6579379248937105,1.6151113299307573,0.7487427734075723,2.66889451023151,2.0098655407070254,,,0.5022576003740722,3.937910776380274,inf,,0.8191945678598602
529,5.7037824746562,-5.7037824746562,0.0,1.6256827310758792,1.637383422115172,0.6661688035143488,2.1261794998309616,1.1682573094080477,,,0.585052858160615,5.703782474656201,inf,,0.8908791598538679
530,4.646484588690347,-4.646484588690347,0.0,1.5667475891273757,1.560342128440356,0.7186964693522802,2.633426724707066,2.8356687500154174,,,0.5713653840954815,4.600735588920226,inf,,0.9412515158734995
531,5.010635294096255,-5.010635294096255,0.0,1.641261101966756,1.6323139136221425,0.7352486909651498,2.8576230038509856,2.3296301317594614,,,0.49759852643134905,5.0106352940962555,inf,,0.7452473056877916
532,5.010635294096255,0.6898082792944322,-5.700443573390687,1.7505471103877128,1.7213802762567725,0.5801362461720134,2.1452257899036935,1.8096818905118348,0.6898082792944307,,0.4928685327679205,5.0106352940962555,0.6964860818254599,inf,0.7504361528543934
533,5.7037824746562,-5.7037824746562,0.0,1.3993380298969889,1.3694767670107881,0.6902031247496379,2.6187766830632317,1.2701704919554468,,,0.552929491858785,5.703782474656201,inf,,0.7779405359983718
534,5.010635294096255,-5.010635294096255,0.0,1.4773554954661112,1.4537978818099333,0.7114819799542298,2.357950449741799,2.1718625888925747,,,0.5202020156036558,5.0106352940962555,inf,,0.928831338940414
535,5.010635294096255,-5.010635294096255,0.0,1.506185749757447,1.5018761096434945,0.7508423156550033,2.592072438693524,1.612924643746323,,,0.468121228110369,5.0106352940962555,inf,,0.9352035177574426
536,,0.0,0.0,1.426076548622822,1.35546149099703,0.5838964563881556,1.9655369224108301,1.9749608128369294,,,0.5022576003740722,inf,,,0.9320443476036879
537,,0.0,0.0,1.5753941106624465,1.529928725646795,0.7414679735089188,1.6813849682355444,1.225446492148379,,,0.5113665138247345,inf,,,0.8944943485122755
538,,0.0,0.0,1.6126265207459936,1.6217902429346236,0.5877141108662979,2.1316987335077053,2.041871167045521,,,0.4928685327679205,inf,,,0.9357353477674851
539,5.7037824746562,-5.7037824746562,0.0,1.3129509508352946,1.2508053455310455,0.6156724741569243,2.3532955211112965,1.5017525605733066,,,0.43586655696697996,5.703782474656201,inf,,0.7810475565179781
540,5.010635294096255,-5.010635294096255,0.0,1.5947815514374626,1.578627395563505,0.7150399995736557,2.0479056793216808,1.146185168200463,,,0.5202020156036558,5.0106352940962555,inf,,0.940512489713679
541,4.603252305505079,-4.603252305505079,0.0,1.631638080546609,1.6317438176184926,0.7131154736455815,2.1606949573870255,1.608470580747241,,,0.5287703885177266,4.602950429249779,inf,,0.9003469542873674
542,5.010635294096255,-5.010635294096255,0.0,1.198687975735753,1.1922239014768843,0.6764301034930065,2.7684257181307204,1.9614100845072637,,,0.5329562494928909,5.0106352940962555,inf,,0.6223533066319944
543,4.605170185988091,-4.605170185988091,0.0,1.4883442038243415,1.4952024778868427,0.6378912794778533,2.580984615311622,2.0999262124967832,,,0.5490601803369085,4.605170185988091,inf,,0.7048810291881471
544,,0.0,0.0,1.6773580267672064,1.6385817431627168,0.6098966180910416,1.4337242037905307,1.2538338382664704,,,0.5287703885177266,inf,,,0.819941995890275
545,5.010635294096255,-5.010635294096255,0.0,1.5436490854466618,1.5482909870736523,0.764128379352964,2.8415283961402884,1.2812958730648107,,,0.49759852643134905,5.0106352940962555,inf,,0.9399357124349801
546,5.7037824746562,-5.7037824746562,0.0,1.5113385265324388,1.456988669818558,0.7455091011273045,2.7424876665011206,2.5149661476863328,,,0.5329562494928909,5.703782474656201,inf,,0.8639904199399647
547,5.010635294096255,-5.010635294096255,0.0,1.5481453440948374,1.5272616603954312,0.8437486342175673,2.9664070368777917,3.295159630822078,,,0.5451288209179292,5.0106352940962555,inf,,0.9203442035726909
548,4.605170185988091,-4.605170185988091,0.0,1.3976478715968321,1.3511478623625248,0.7035384120338158,2.8419147699333447,2.5814874360091817,,,0.5451288209179292,4.605170185988091,inf,,0.9343401500462039
549,3.9253932529263684,-3.9253932529263684,0.0,1.668505823061419,1.6310633952272293,0.6971914459452384,2.058712892569105,1.3572332725048648,,,0.5490601803369085,3.9243205332385522,inf,,0.8530583656001169
550,5.036050690716786,-5.036050690716786,0.0,1.4924753310315924,1.459083285663497,0.65481213937496,2.0202169461975523,1.67906121847393,,,0.21876365787541036,5.029138765660815,inf,,0.9482834418105552
551,4.290103148855959,-4.290103148855959,0.0,1.302890699090403,1.3234744296991976,0.7801679708223109,3.5426262191916744,6.64686959784199,,,0.4928685327679205,4.287120576919914,inf,,0.8605020352182405
552,5.7037824746562,-5.7037824746562,0.0,1.455987203925907,1.4223703390233835,0.6925228106719941,2.148959647235511,1.41005478567499,,,0.541134803179459,5.703782474656201,inf,,0.9298155715875465
553,5.19085356104184,-5.19085356104184,0.0,1.6417160433206361,1.6064167247170897,0.57534956639099,1.4266672174364392,0.600093340274801,,,0.5068466436745385,5.149897361429764,inf,,0.9379129233043709
554,5.218579448264238,-5.218579448264238,0.0,1.5703210743804754,1.5813507765971997,0.417378113824046,1.7885796524425839,0.8673814224580327,,,0.5113665138247345,5.173154223594031,inf,,0.8536216218117001
555,4.5706483372938775,-4.5706483372938775,0.0,1.5716817325824846,1.5617448512341585,0.5434363802903884,1.6639942415090359,0.8134288917697672,,,0.4880666971167561,4.56594947283481,inf,,0.7134866992266415
556,5.632157265998339,-5.632157265998339,0.0,1.6896980922260225,1.679000703168986,0.6839378292527459,2.0300195903286116,1.2357564257513536,,,0.5113665138247345,5.605446573935339,inf,,0.8130314390119631
557,4.691669409051166,-4.691669409051166,0.0,1.1936227444636405,1.090321633200446,0.5596356404913665,1.712986406101185,1.2672181555098905,,,0.45235697871908603,4.678936336227701,inf,,0.872954413947897
558,,0.0,0.0,1.5244502111097415,1.5309004100505583,0.5214936393793959,1.530488343089352,1.0499191242331618,,,0.5022576003740722,inf,,,0.9524858817320075
559,5.7037824746562,-5.7037824746562,0.0,1.6444148000766856,1.655747989342864,0.7157451858577366,2.2037269705455,1.0157889774434028,,,0.524519217297268,5.703782474656201,inf,,0.8552412769766925
560,,0.0,0.0,1.6650990213533508,1.628961749368753,0.5673190783672515,1.7066798031289452,1.0079348085905417,,,0.5567373465730988,inf,,,0.65322856568874
561,,0.0,0.0,1.5425145565371408,1.5233565003493272,0.5432568273840812,1.5518215078419526,1.2168634247295602,,,0.4928685327679205,inf,,,0.9372680693972014
562,5.7037824746562,-5.7037824746562,0.0,1.42047011707141,1.3871467292156958,0.6633238594262514,2.2050483752565233,1.6646471520875892,,,0.4880666971167561,5.703782474656201,inf,,0.9340937761066086
563,,0.0,0.0,1.425512252544866,1.3948947757407093,0.692326677910181,1.5760134947778868,1.0290763072143265,,,0.4732203808476458,inf,,,0.9275657194780148
564,,0.0,0.0,1.6881262690684335,1.6536207337080595,0.6193914628363761,2.0361365442064727,1.6165040714674448,,,0.6008849035917525,inf,,,0.9479213129155143
565,5.7037824746562,-5.7037824746562,0.0,1.5034003995232506,1.4387411447124416,0.7059713460155214,1.6151891016789406,1.017004463528271,,,0.48319206230712763,5.703782474656201,inf,,0.9511822678790105
566,,0.0,0.0,1.7133346418931619,1.7026368400362544,0.5123153345481579,1.1714012355199952,0.8632539400148749,,,0.5604843169999094,inf,,,0.9508345280163546
567,,0.0,0.0,1.660732346974973,1.657223358465748,0.7825702467891296,1.9524093761475745,1.3950838739712907,,,0.552929491858785,inf,,,0.9039798114185366
568,,0.0,0.0,1.5725233667886425,1.569923303337541,0.61603116628414,2.240743034638553,1.4616777285156157,,,0.5490601803369085,inf,,,0.9505721509398048
569,,0.0,0.0,1.7205546714561852,1.7118737964448536,0.6640681665615685,2.1188542355455633,2.0993871252354555,,,0.5158180382284114,inf,,,0.9477006862570518
570,4.837417957855047,-4.837417957855047,0.0,1.346254919688064,1.3150461505893396,0.6107571022809858,2.741296463724481,2.958813246730207,,,0.541134803179459,4.813151489562624,inf,,0.6923969946819674
571,4.31748811353631,-4.31748811353631,0.0,1.6791176180505902,1.653821641012374,0.6862306100388315,3.3042566294403373,4.744238854917622,,,0.5022576003740722,4.31748811353631,inf,,0.8506091833292618
572,4.608217319252632,-4.608217319252632,0.0,1.578441343338561,1.557224928904177,0.6253206630442125,2.2386693953811023,1.567302695585417,,,0.585052858160615,4.55321044705738,inf,,0.8568367336521813
573,4.31748811353631,-4.31748811353631,0.0,1.6941294258837754,1.6664706761942223,0.6024259420264629,2.5496137901260574,1.791280688801126,,,0.5713653840954815,4.31748811353631,inf,,0.7574795966658954
574,,0.0,0.0,1.1401562122462177,1.0332408265946136,0.5142720259970298,2.1626112385788487,1.941178093785119,,,0.5113665138247345,inf,,,0.9179602058895727
575,5.7037824746562,-5.7037824746562,0.0,1.7091618875031842,1.7241213141353766,0.6099372691499801,3.0620537687507525,3.400793856705604,,,0.44694259446804574,5.703782474656201,inf,,0.9466141405847155
576,,0.0,0.0,1.6649761138790888,1.6763982077590998,0.7573599449841695,3.087346651523422,3.396051112047664,,,0.47824363442641393,inf,,,0.9412343039139985
577,4.605170185988091,-4.605170185988091,0.0,1.5919355334059815,1.563856019582183,0.7709566497987362,2.9345939062632023,4.076890935153266,,,0.5604843169999094,4.605170185988091,inf,,0.9314594317589638
578,5.005229092654813,-5.005229092654813,0.0,1.5860971725034911,1.5488489300019246,0.7988985755384361,3.112174642599187,4.324553358024283,,,0.468121228110369,5.003990751377587,inf,,0.7696857177420424
579,3.9392487979104955,-3.9392487979104955,0.0,1.4921559792681574,1.4866779829013872,0.6182435836548567,2.705291357527219,1.6087693300411723,,,0.524519217297268,3.9333601428162774,inf,,0.7938462359851025
580,5.60303465830432,-5.60303465830432,0.0,1.6540579596710225,1.568843749203107,0.7658968264682752,1.7300662592279874,1.2436066743867387,,,0.5370774965580548,5.552493027109975,inf,,0.7867479657825646
581,5.010635294096255,-5.010635294096255,0.0,1.7027807102065164,1.6682557413292114,0.6279765872811843,2.735694194551975,2.7038359705326345,,,0.552929491858785,5.0106352940962555,inf,,0.7127902497907644
582,,0.0,0.0,1.5865038873704198,1.5753555175693508,0.6200160477060118,2.28015835968069,1.6863747767941653,,,0.5202020156036558,inf,,,0.7365970300407553
583,4.605170185988091,-4.605170185988091,0.0,1.306753381877603,1.2574985807142463,0.7622005548252713,2.1721913885631516,1.1789219875640584,,,0.5068466436745385,4.605170185988091,inf,,0.7664207425437871
584,4.605170185988091,-4.605170185988091,0.0,1.6560913822300147,1.556784799629958,0.5271384346138229,1.3439986204447583,0.8934032262283256,,,0.45235697871908603,4.605170185988091,inf,,0.9497951439078103
585,3.624340932976365,-3.624340932976365,0.0,1.6386853801536443,1.6050956449390466,0.7335299914198514,2.9263378060202845,2.016698863863202,,,0.5202020156036558,3.624340932976365,inf,,0.7206974982567866
586,3.851390404696091,-3.851390404696091,0.0,1.6973507102114256,1.6848719688990799,0.576891490969401,2.487311512518786,2.6104638935772506,,,0.5567373465730988,3.848526693869019,inf,,0.8479306399913451
587,5.7037824746562,-5.7037824746562,0.0,1.6975216757731593,1.6545817442938155,0.661699156090751,2.1608821410483103,2.050366556391213,,,0.5713653840954815,5.703782474656201,inf,,0.5936963117319414
588,,0.0,0.0,1.5713560135500402,1.5502305293778071,0.6482355645433638,2.0301077425060763,1.42499737758226,,,0.5370774965580548,inf,,,0.8041401979560262
589,5.703782474656203,-4.60105119622267,0.0,1.6535081125303503,1.6320398987594475,0.6858011314222664,2.2512520528016102,1.3594988141143185,,,0.44694259446804574,5.918627223155716,inf,,0.9176318657793315
590,5.7037824746562,-5.7037824746562,0.0,1.3753841046931057,1.3379361022717693,0.6219317904797035,1.8863015688033296,1.4355972583208652,,,0.5490601803369085,5.703782474656201,inf,,0.6967822146078689
591,4.40475167551335,-4.40475167551335,0.0,1.4963375268816266,1.4315786981314624,0.6851781262880929,2.6841388467433713,2.1161574712445246,,,0.5158180382284114,4.396350961962035,inf,,0.798779728476834
592,5.606349259258953,-5.606349259258953,0.0,0.9538866292476516,0.9274581574858896,0.6513097488674914,2.542363483351943,1.4917099206327933,,,0.5451288209179292,5.569834502146462,inf,,0.7481735904051963
593,4.658446980164804,-4.658446980164804,0.0,1.531586517826812,1.5405955420820934,0.7498843035733488,2.2513901364003863,1.4032072125476098,,,0.5677978065141052,4.645992180508347,inf,,0.8413427464885139
594,,0.0,0.0,1.3534732983026454,1.32551146270515,0.6730933427018014,1.837805948160249,1.3737057026656054,,,0.552929491858785,inf,,,0.7713456422761926
595,3.9505847468374107,-3.9505847468374107,0.0,1.519586662200255,1.4889609939269701,0.6088097699154429,2.5309178804498225,1.981809211860324,,,0.5604843169999094,3.9390516778160656,inf,,0.8252685168742276
596,,0.0,0.0,1.6386789586018653,1.6148614799599297,0.677212341681737,1.9134074413316953,1.890700640876531,,,0.5287703885177266,inf,,,0.9063218389892509
597,,0.0,0.0,1.5040140262072894,1.4465534120117323,0.5024046757897036,1.5820839891344611,1.2560032865874715,,,0.5068466436745385,inf,,,0.87296539390484
598,5.7037824746562,-5.7037824746562,0.0,1.5898179395015433,1.520544644262381,0.6638387178540404,1.6510710303638925,1.3740729505547264,,,0.44694259446804574,5.703782474656201,inf,,0.7425354590771885
599,,0.0,0.0,1.549319819665849,1.5375821860918424,0.4383946003690872,1.604156235298451,1.606442917905448,,,0.49759852643134905,inf,,,0.7808676300859537
600,5.2393738636810365,-5.2393738636810365,0.0,1.655857815256621,1.532817736470281,0.6255435315788294,1.59499384818004,1.366140483329882,,,0.5068466436745385,5.190958848227537,inf,,0.928442198738555
601,4.10922079897638,1.591222774414307,-5.700443573390687,1.5164347981543147,1.4805267438929115,0.7236102782053202,2.3232348660365414,1.2538241370380692,1.5926759908364452,,0.4629450596409901,4.107767582554241,1.5993537933674744,inf,0.6598811795529853
602,2.998721964651758,-2.998721964651758,0.0,1.4914857732917108,1.4840786661712915,0.8361582628486665,4.345259613573119,2.95407326639343,,,0.581717464821069,2.998625343336419,inf,,0.5763452109693044
603,3.1388331171946646,-3.1388331171946646,0.0,1.5296167308327202,1.4916752440391594,0.7901824372026238,3.684185270196518,7.057656206018981,,,0.5451288209179292,3.138833117194664,inf,,0.8015097897252489
604,2.659260036932778,2.3480363558979636,-5.0072963928307415,1.7485773060240088,1.706610928586778,0.7148596633888314,5.073278273912945,31.559080923408924,2.348036355897963,,0.524519217297268,2.659260036932778,2.354714158428992,inf,0.7272144744804585
605,2.865615401400523,-2.865615401400523,0.0,1.0802003881469295,1.053688398524637,0.8988604660343704,3.896447318770036,1.8801693200428784,,,0.5677978065141052,2.8654840423883856,inf,,0.6856433572157996
606,3.048396832122364,2.652046741268323,-5.700443573390687,1.3612044624036488,1.2929271685869594,0.8121414450843402,3.2978020753048183,3.0159131425337553,2.652481894919751,,0.6097226960127671,3.047961678470936,2.65915969745078,inf,0.6636619677634829
607,5.010635294096255,-5.010635294096255,0.0,1.7744255993887825,1.757819743528704,0.5328685966256476,1.8229602663044462,1.4576601964773515,,,0.41861278947482794,5.0106352940962555,inf,,0.8102135830271868
608,,0.0,0.0,1.3211412671674863,1.262337477980664,0.5748544565367778,1.8798091629865195,1.1328842286425589,,,0.5451288209179292,inf,,,0.8773464854815878
609,3.7191646875462188,-3.7191646875462188,0.0,1.6793081971844384,1.6516621030862768,0.6898488314396871,2.967736825970242,2.3302399948137014,,,0.5287703885177266,3.712716876927792,inf,,0.540928597430825
610,4.605170185988091,-4.605170185988091,0.0,1.4816576405303463,1.4300417662242393,0.7973805419078085,3.0181088818768096,2.0573306272440495,,,0.5783247308855777,4.605170185988091,inf,,0.8102669558575469
611,3.0099741565758342,1.9973222362549072,-5.0072963928307415,1.5769953885511792,1.547010419513786,0.7711208922785605,3.5609755830934526,2.6331795990106306,1.9981410989446096,,0.5158180382284114,3.0091552938861317,2.004818901475639,inf,0.8620315085049861
612,5.010635294096255,-5.010635294096255,0.0,1.682731614516684,1.5942903794296914,0.5331064833781242,1.808220765306605,1.1855987162702,,,0.5287703885177266,5.0106352940962555,inf,,0.7467674103355461
613,3.952133747922815,-3.952133747922815,0.0,1.5809302409204296,1.5080401491792599,0.6072100465499702,2.52639977223493,1.2984304869528889,,,0.5370774965580548,3.949378791971915,inf,,0.6516940552784818
614,3.932078376675481,-3.932078376675481,0.0,1.1148772182731737,1.057398466606866,0.7524493199312369,3.7638033030737743,3.4711605439690416,,,0.5641709578113449,3.9305264769927057,inf,,0.7190951440492773
615,4.15682475659008,-4.15682475659008,0.0,1.617923886409903,1.5303607065826619,0.7916407444672348,3.0250538256514736,3.084252731703523,,,0.6097226960127671,4.151973675058737,inf,,0.7984223264757948
616,3.848307391099546,-3.848307391099546,0.0,1.618125742213735,1.5531896877015894,0.5751915283935897,2.704596295871997,1.5310370506514364,,,0.5490601803369085,3.8454033180867504,inf,,0.8326465094416524
617,3.0097608240896707,2.690682749301016,-5.700443573390687,1.516852396310525,1.456826267001547,0.7891159514334368,3.294819055698688,3.4533955537094645,2.69106302891232,,0.6180765742263259,3.009380544478367,2.697740831443349,inf,0.7553261425543641
618,3.306867966331924,2.393575607058763,-5.700443573390687,1.2229676220394479,1.1896342898642884,0.7174264574565582,3.6404437266654277,6.365403177753302,2.3936468671500153,,0.44694259446804574,3.306796706240671,2.4003246696810447,inf,0.8085988159427195
619,3.506206695601122,2.1942368777895647,-5.700443573390687,0.9520888383408284,0.9332412675142339,0.8703142482970393,4.256579416255044,4.875777472228265,2.1942559778709,,0.5329562494928909,3.5061875955197865,2.2009337804019293,inf,0.760170452426796
620,4.605170185988091,-4.605170185988091,0.0,1.5443466369603938,1.4835413265336614,0.7955259462597009,2.761866701366647,2.747337160236268,,,0.44694259446804574,4.605170185988091,inf,,0.6015661533347939
621,,0.0,0.0,1.3908061544619885,1.3537173618116733,0.780458516239435,3.338669377315895,3.124052454512773,,,0.5370774965580548,inf,,,0.8376007546068741
622,,0.0,0.0,1.7629666419745929,1.6840099157925492,0.6811758341425903,2.962641430937046,2.405545273595589,,,0.4880666971167561,inf,,,0.9110768422142208
623,3.305887201857831,-3.305887201857831,0.0,1.4859232077232565,1.4321499539448073,0.8115791812019981,3.4689372869687425,2.360588968089918,,,0.552929491858785,3.3058872018578307,inf,,0.8186399646726099
624,4.0943445622220995,1.6060990111685873,-5.700443573390687,1.5768884530847396,1.5453767885626404,0.7545924394495785,3.719667969661428,4.6068603138785225,1.6060990111685858,,0.49759852643134905,4.0943445622221,1.612776813699615,inf,0.8424353864014243
625,3.9120230054281455,-3.9120230054281455,0.0,1.718983764676982,1.708149573442205,0.8103960575341874,3.888863964278719,5.768854809603365,,,0.468121228110369,3.912023005428146,inf,,0.8350192922235106
626,3.4872418027827137,-3.4872418027827137,0.0,1.2250817919324202,1.166126996430635,0.7610201539855014,4.364643383020006,1.8496707483284913,,,0.48319206230712763,3.4863922277253874,inf,,0.6839477746573327
627,3.274012373671877,-3.274012373671877,0.0,1.7226459006511528,1.6182701004321687,0.719605057746695,2.710693532707207,2.4387431434691758,,,0.48319206230712763,3.271925045958016,inf,,0.7410894727382314
628,3.4851762373850352,-3.4851762373850352,0.0,1.523643878939711,1.4399875790057852,0.8572505189235444,3.2196625404006407,2.22016968933091,,,0.5113665138247345,3.476639576829014,inf,,0.7748449469380939
629,4.043388429243015,-4.043388429243015,0.0,1.4637920077599995,1.4201748533644718,0.720733317278461,2.285919122669604,2.0089270703918984,,,0.49759852643134905,4.0398563769380305,inf,,0.5910796556084088
630,5.010635294096255,-5.010635294096255,0.0,1.7028410526713782,1.674020452636205,0.4615516822326532,1.3162056645425215,1.074132594791754,,,0.47824363442641393,5.0106352940962555,inf,,0.925339577702634
631,4.246825988953477,-4.246825988953477,0.0,1.5929318305128413,1.5615033343808724,0.764440451041428,2.61513733320961,1.8618704371387222,,,0.47824363442641393,4.241298975178764,inf,,0.9069847230135518
632,5.7037824746562,-5.7037824746562,0.0,1.6730218875529137,1.639117574349583,0.6946078582902343,1.6919964198453294,1.1193743642671539,,,0.524519217297268,5.703782474656201,inf,,0.7418350654945007
633,,0.0,0.0,1.259845371241254,1.2120368202677927,0.6603311747492305,1.5507589181674064,1.0217145577699036,,,0.4880666971167561,inf,,,0.7336249694068431
634,,0.0,0.0,1.4267896663940067,1.3549507041822235,0.6895385849457122,1.3800802511719745,1.0327587912219827,,,0.44144624493110796,inf,,,0.9234185308746446
635,,0.0,0.0,1.7451392716210583,1.7335440977416563,0.6901721639935734,1.6442889525935072,1.821323626575589,,,0.5202020156036558,inf,,,0.8936128437344418
636,,0.0,0.0,1.6510800485508517,1.6128043017016778,0.6074895520781679,1.5097868064489386,1.433218766723818,,,0.41861278947482794,inf,,,0.9006974395666855
637,,0.0,0.0,1.682468358511592,1.6398397683477701,0.5674482980944215,1.517974564353674,1.3590033895062539,,,0.5287703885177266,inf,,,0.9180413191875688
638,,0.0,0.0,1.770055314808004,1.764758008253845,0.666772427816621,1.6096220279017877,1.4141579623941172,,,0.40055318934786044,inf,,,0.8857165970816705
639,,0.0,0.0,1.74055615423231,1.7578551958783921,0.6491568396341507,1.5831312444463574,1.3174342593455608,,,0.42445136339222655,inf,,,0.8724607058917073
640,5.010635294096255,-5.010635294096255,0.0,1.537035740065305,1.5144614073756084,0.5509828456838407,1.7378847427087205,1.2477336348280745,,,0.4880666971167561,5.0106352940962555,inf,,0.9374410103448171
641,,0.0,0.0,1.5254895342911277,1.5089026304407225,0.5347724056441143,1.1490637022199615,0.6855605368513291,,,0.5567373465730988,inf,,,0.9489383124869822
