,bvp+temp_XAp0,bvp+temp_XAp1,bvp+temp_XAp2,bvp+temp_XCond1,bvp+temp_XCond2,bvp+temp_XDist,bvp+temp_XFuzz1,bvp+temp_XFuzz2,bvp+temp_XK2_1,bvp+temp_XK2_2,bvp+temp_XPermEn,bvp+temp_XSamp0,bvp+temp_XSamp1,bvp+temp_XSamp2,bvp+temp_XSpec
0,,0.0,0.0,1.6131094809041608,1.5741240286426788,0.5453334959028974,1.2809629965142328,1.3824664083371074,,,0.49759852643134905,inf,,,0.9057849633220627
1,,0.0,0.0,1.5744288265943098,1.5699761680081359,0.7462398273885575,2.2495277579081137,3.0256073650728275,,,0.44694259446804574,inf,,,0.9187575502216144
2,,0.0,0.0,1.7229826949338114,1.6722355070318797,0.8037391102640992,2.338605793695223,2.5536882357067294,,,0.48319206230712763,inf,,,0.9112189226671429
3,,0.0,0.0,1.6389676764406278,1.6145632431244314,0.4658569145409132,1.830912810148464,2.225532484329555,,,0.5022576003740722,inf,,,0.9478057409006929
4,4.951167078240391,-4.951167078240391,0.0,1.7345015985974859,1.6933231642771187,0.7758634408562087,2.789745576451462,2.511445919467402,,,0.5022576003740722,4.939866223208049,inf,,0.8952837574099224
5,4.31748811353631,-4.31748811353631,0.0,1.5639122583740006,1.5226956785118833,0.6109460413852363,2.441520349369058,2.492547485670927,,,0.5567373465730988,4.31748811353631,inf,,0.8513886738006051
6,,0.0,0.0,1.4968935432078732,1.486204065923065,0.5862851880211825,2.5244876493538446,5.784734644501903,,,0.47824363442641393,inf,,,0.7268730492145039
7,,0.0,0.0,1.5340703205157067,1.542693071651009,0.40121866924348204,2.0125796016800295,4.1601128882821214,,,0.5113665138247345,inf,,,0.9167275504734501
8,,0.0,0.0,1.7185385201835788,1.6643261228919521,0.43079386519889384,2.220538770794333,3.4993678809113584,,,0.48319206230712763,inf,,,0.787325826192442
9,5.7037824746562,-5.7037824746562,0.0,1.5921215428576128,1.5699747966783264,0.5318993729456514,1.708522390064176,1.7135363007093052,,,0.5022576003740722,5.703782474656201,inf,,0.7913206137338794
10,5.703782474656201,-4.772164670462355,0.0,1.5197932099276088,1.4819396868352666,0.46844597814138866,1.8228580283291909,2.314129621938897,,,0.42445136339222655,5.882112010180618,inf,,0.6757140001934977
11,,0.0,0.0,1.312147053992666,1.3183860537626753,0.7375627449485536,1.8790707647855485,2.0283807743205378,,,0.4302020962658841,inf,,,0.9459593212389115
12,,0.0,0.0,1.7305931698439851,1.676577498225489,0.3925760537137946,1.2798929839675757,1.6078688507749277,,,0.5202020156036558,inf,,,0.717987285797896
13,,0.0,0.0,1.5528391696686732,1.5369030763144653,0.9695928182633614,0.5073872360092884,0.9859960969820019,,,0.4576907132971797,inf,,,0.8927788568417957
14,,0.0,0.0,1.5448799738249346,1.5113732129270938,0.960670244232392,0.2636923759442573,0.4965300670108776,,,0.5202020156036558,inf,,,0.8696651290760897
15,,0.0,0.0,1.5725570874648498,1.5435660968557987,0.9271603800777806,0.3003484051911832,0.6102747610644488,,,0.3943459996787778,inf,,,0.8573012045256239
16,,0.0,0.0,1.5759737825953852,1.5583792259931601,0.8126446304287369,0.4855651134587596,0.9039884036797454,,,0.4629450596409901,inf,,,0.8169787992370459
17,,0.0,0.0,1.5166293206124417,1.4963620282109005,0.5884850942150562,0.4012434442798751,0.7014018119781922,,,0.5202020156036558,inf,,,0.8594115543092231
18,,0.0,0.0,1.6861864158710682,1.666005908734345,0.9510193422127291,0.9508354900670157,1.9172358744156583,,,0.45235697871908603,inf,,,0.8868043776174818
19,,0.0,0.0,1.508680056551868,1.4769135751870028,0.9388289764572484,0.9637108187007779,1.7790044025714051,,,0.5329562494928909,inf,,,0.9020366741875143
20,,0.0,0.0,1.644071079765312,1.6231489616504535,0.9600056097804847,1.0525755057262938,1.742087740352908,,,0.49759852643134905,inf,,,0.8953635641162248
21,,0.0,0.0,1.6011211571330004,1.5706802016160706,0.9558157000452256,1.1670440135600029,2.6139657711023236,,,0.5567373465730988,inf,,,0.8828438153239945
22,,0.0,0.0,1.580403038292349,1.5539567387753628,0.9362099420929976,1.29006967035123,3.014968987422186,,,0.49759852643134905,inf,,,0.8711614837879835
23,,0.0,0.0,1.5665381819086195,1.5400282692224745,0.9280693389313706,1.530150787797484,2.253937828748666,,,0.5329562494928909,inf,,,0.8510840504169607
24,,0.0,0.0,1.7036502768723247,1.6768534388256224,0.3202895345114057,1.3352908097251541,1.3118643693431442,,,0.468121228110369,inf,,,0.6585230469776128
25,,0.0,0.0,1.6427978219065533,1.638075479457203,0.8504670122674042,1.2130957332163421,1.0850807580886208,,,0.41861278947482794,inf,,,0.9202733975765192
26,,0.0,0.0,1.7165681833399422,1.6511579101151965,0.30661037731769564,1.6280776329862905,1.1912293156617095,,,0.49759852643134905,inf,,,0.651334553792652
27,,0.0,0.0,1.576298703797444,1.5450191387439158,0.8646842294187602,2.109807134980367,2.106924547731888,,,0.5287703885177266,inf,,,0.9114419152048504
28,,0.0,0.0,1.7146530800690039,1.6945401477249948,0.904174929660911,2.132208162419789,2.365983655235163,,,0.42445136339222655,inf,,,0.9119722526552075
29,,0.0,0.0,1.70766071657276,1.6671773220832813,0.9221806039805319,2.1021016124866994,2.988771164129872,,,0.5202020156036558,inf,,,0.9261716307996607
30,,0.0,0.0,1.687529176398894,1.6652077376583208,0.9514979218438506,2.1554341013611835,2.570425405335059,,,0.42445136339222655,inf,,,0.9288824498338628
31,,0.0,0.0,1.5485211232856342,1.5384664306576519,0.4701948096727031,1.382851860988482,1.189645672591645,,,0.468121228110369,inf,,,0.9294409839236633
32,,0.0,0.0,1.4926671062886163,1.4772812092683776,0.8104371997652969,0.9070693956075001,1.052945622053867,,,0.4629450596409901,inf,,,0.9049456011229474
33,,0.0,0.0,1.685717784798562,1.6621168328478726,0.37782340754427235,1.02137202867501,0.9671485698150835,,,0.47824363442641393,inf,,,0.9445727021742643
34,,0.0,0.0,1.5021224329479042,1.4776513866140504,0.4428071801434786,2.424101467211291,1.8034812283933377,,,0.45235697871908603,inf,,,0.9510386596536982
35,5.7037824746562,-5.7037824746562,0.0,1.462207184361347,1.4531308934879732,0.4496376910269278,1.4822220319900674,2.17488681605837,,,0.43586655696697996,5.703782474656201,inf,,0.9379502568623699
36,,0.0,0.0,1.7001409439683637,1.669223595243409,0.9691188185647358,1.6488876049523655,2.3286237957069194,,,0.43586655696697996,inf,,,0.8898682882374619
37,,0.0,0.0,1.5261173571737598,1.5040420788491784,0.9741989942172393,1.9231670382229649,2.64178121844676,,,0.47824363442641393,inf,,,0.9065977075306777
38,,0.0,0.0,1.4486015398636163,1.4181512139525536,0.970263664043156,2.095710632267225,2.460385541102155,,,0.44144624493110796,inf,,,0.8830580832925101
39,5.7037824746562,-5.7037824746562,0.0,1.6079790267329321,1.5571081223442873,0.3032700166209131,0.8082985857925128,0.3513340784253379,,,0.41861278947482794,5.703782474656201,inf,,0.9496396111227945
40,,0.0,0.0,1.6872617926287616,1.6177917108778885,0.9544427943574368,0.2173618241296656,0.39783963766241653,,,0.4629450596409901,inf,,,0.8916044600069392
41,,0.0,0.0,1.6334821061113372,1.5363996472962973,0.9215477946863236,0.6835543872431128,0.6634360896384683,,,0.5370774965580548,inf,,,0.8984753319647123
42,,0.0,0.0,1.5010332744956234,1.4887822333077443,0.9242826605572517,0.8193991452794775,1.3142351295507373,,,0.5113665138247345,inf,,,0.8996256351671108
43,,0.0,0.0,1.6150774909591452,1.5831168326972613,0.9405557656070445,0.7448930349723519,1.2053304085008136,,,0.5068466436745385,inf,,,0.8840566017261533
44,,0.0,0.0,1.2806674589539961,1.2676565257342771,0.8547891749986476,0.40759692111268725,0.5496692129742948,,,0.5068466436745385,inf,,,0.9380560674026922
45,,0.0,0.0,1.557345305224533,1.5273830772060524,0.9355778636547655,0.4866434914701639,0.7938193922010273,,,0.5113665138247345,inf,,,0.8700203878979246
46,,0.0,0.0,1.662013805877725,1.6380955518110487,0.12951902015650832,0.3992603421455813,0.46745355246456416,,,0.48319206230712763,inf,,,0.9625599139231418
47,,0.0,0.0,1.3595237769130095,1.3374303686232143,0.8426344326216721,0.3709465020839397,0.42231787455031605,,,0.4880666971167561,inf,,,0.8954044483392841
48,,0.0,0.0,1.5508781923553645,1.5220391909569007,0.16947784027721213,0.8106926429116261,0.8113025407395673,,,0.5370774965580548,inf,,,0.9369501896215873
49,,0.0,0.0,1.3923323772987624,1.4023000472121034,0.9347807548440803,1.0119507786957636,0.9021315920856476,,,0.4928685327679205,inf,,,0.8617640278653408
50,,0.0,0.0,1.6655342390546113,1.621244175808856,0.9508706752855527,0.6256096876748899,0.914104795839181,,,0.44694259446804574,inf,,,0.9134986470167894
51,,0.0,0.0,1.3283015161310274,1.257517461601898,0.38761170909351655,0.8507772170919574,1.0394505078469427,,,0.44144624493110796,inf,,,0.9482700929936895
52,,0.0,0.0,1.4904526283082278,1.465022452058047,0.8701988946973351,1.4470952882136192,1.648118168543392,,,0.5158180382284114,inf,,,0.8666393554806692
53,,0.0,0.0,1.4795813033952312,1.4411886309333617,0.9336434283566262,1.2714152857437708,1.9689214606752143,,,0.541134803179459,inf,,,0.895957661075216
54,,0.0,0.0,1.592134124543078,1.576293390964173,0.549668530891398,1.3132739761618577,1.1074080585736978,,,0.541134803179459,inf,,,0.9558827453784662
55,,0.0,0.0,1.7103311831644332,1.676183473850595,0.9490913994684617,1.8016145087676871,2.6910472014749054,,,0.5113665138247345,inf,,,0.915236534283186
56,,0.0,0.0,1.6307091162539016,1.6025777634148755,0.43991273085544563,1.3520438930570624,1.0233970343554903,,,0.541134803179459,inf,,,0.9484323576785051
57,,0.0,0.0,1.6015932364129122,1.5963853616390717,0.9375437409668833,0.1388790433254152,0.277312673788758,,,0.42445136339222655,inf,,,0.9016522867607291
58,,0.0,0.0,1.7810854682229238,1.7689548586703707,0.5327648257372356,0.11353633323507012,0.21153650231241838,,,0.49759852643134905,inf,,,0.7948807006731288
59,,0.0,0.0,1.6267533647387675,1.5619544648323216,0.19684955952857,0.14926973813535968,0.20934402851264716,,,0.42445136339222655,inf,,,0.9071640055804122
60,,0.0,0.0,1.62811817012029,1.582910373368191,0.9558406901009742,0.21803178582680974,0.47780314445015115,,,0.4732203808476458,inf,,,0.8768561012406111
61,,0.0,0.0,1.744574462182992,1.7101635144459655,0.9458048069578942,0.28417957207887334,0.635864921318753,,,0.41268473150466,inf,,,0.8663140356664984
62,,0.0,0.0,1.6769406488605814,1.636166404435186,0.9431432252869063,0.378776616189323,0.8515209220800395,,,0.44144624493110796,inf,,,0.8180764066144147
63,,0.0,0.0,1.650650737241737,1.6315381683589674,0.30431187797491266,0.3973183249956905,0.6568649407685763,,,0.47824363442641393,inf,,,0.967503146969706
64,,0.0,0.0,1.4806652177204196,1.458659785679283,0.6120595338585402,0.46295843016937016,0.624743417504823,,,0.468121228110369,inf,,,0.9408597461250724
65,,0.0,0.0,1.454038524208604,1.4020701958253932,0.9789149267240996,0.49540087428991586,0.8169610044942028,,,0.43586655696697996,inf,,,0.8671570270928767
66,,0.0,0.0,1.7619869230491243,1.7538329437263054,0.32768252743012943,0.25631645663726044,0.33017254736023166,,,0.4732203808476458,inf,,,0.9598574585436612
67,,0.0,0.0,1.6666789988737845,1.6299504979537498,0.9278332595197246,0.08298796580264808,0.18215397510490455,,,0.44144624493110796,inf,,,0.8675358062746302
68,,0.0,0.0,1.7190937395383523,1.7205967463844623,0.9185790248393186,0.14424623047054028,0.29290139637652834,,,0.44694259446804574,inf,,,0.8795395050423976
69,,0.0,0.0,1.6363642853460436,1.5938055837209328,0.9575203216455449,0.2512897808112099,0.5109884313392099,,,0.4066654671944331,inf,,,0.8913019074716961
70,,0.0,0.0,1.5547767278256952,1.5209122010872724,0.9314814129992977,0.2739326361548771,0.5802079564475779,,,0.4732203808476458,inf,,,0.861611862699568
71,,0.0,0.0,1.5689910334777253,1.5424900071200727,0.724868918609008,0.3178309979308693,0.6454717688348675,,,0.4066654671944331,inf,,,0.9055060128956862
72,,0.0,0.0,1.677852738433322,1.656343597655065,0.38044125120665623,0.41989517958422656,0.4906136775633174,,,0.4576907132971797,inf,,,0.9543816189728377
73,,0.0,0.0,1.6290517949272805,1.5983470980960581,0.4229211631886701,0.3630268947549177,0.47852105396693834,,,0.4066654671944331,inf,,,0.949533382204748
74,,0.0,0.0,1.5923260985018672,1.5663918723356876,0.899669831817556,0.6658194177009252,1.2062692794580872,,,0.5287703885177266,inf,,,0.890027764100969
75,,0.0,0.0,1.691164511296403,1.6617504909281526,0.4167096542547685,0.46101933077779866,0.6213153325694043,,,0.5068466436745385,inf,,,0.9519918291981239
76,,0.0,0.0,1.699904621391934,1.692048299841872,0.284397290537865,0.28975154984875257,0.34798068751804945,,,0.47824363442641393,inf,,,0.9612714329389815
77,,0.0,0.0,1.7639490945894236,1.7104080463769085,0.9504339525677955,0.34902873437411275,0.603045437777237,,,0.4732203808476458,inf,,,0.8527698059183789
78,,0.0,0.0,1.6088237750408174,1.6075399391723202,0.9621228035110659,0.4694837878237531,0.9278902757852148,,,0.3751344627501719,inf,,,0.8367975229666004
79,,0.0,0.0,1.2450365724744257,1.2430516172614583,0.21430480853539,0.2512014753121851,0.29756724236250803,,,0.5113665138247345,inf,,,0.9706892783186684
80,,0.0,0.0,1.509899728910074,1.5213920782106543,0.12056708873457844,0.11215591153562222,0.11587010295639305,,,0.4732203808476458,inf,,,0.9630163703340304
81,,0.0,0.0,1.5594005963310422,1.537672480564789,0.9267404500895445,0.14262146401137665,0.29829284564008995,,,0.40055318934786044,inf,,,0.8634667772523371
82,,0.0,0.0,0.9488300567698171,0.9391448183759473,0.9506630284484414,0.1870939703942185,0.41680881584826257,,,0.1354413587855425,inf,,,0.8592386973683654
83,,0.0,0.0,1.5819419970184236,1.5811580232384796,0.5435627492628751,1.6244660706388907,0.8862826260502785,,,0.5641709578113449,inf,,,0.9538374526629735
84,,0.0,0.0,1.6252075177605223,1.5792301225001069,0.7032590284635128,1.6176857822171065,1.2081711123968752,,,0.5748741956352443,inf,,,0.953527926031709
85,,0.0,0.0,1.4022232766790914,1.3710777553940623,0.3919377988313845,1.0214958951477477,0.5746920008095062,,,0.5883313578629602,inf,,,0.9529865280296145
86,,0.0,0.0,1.690965858604981,1.666585192429739,0.5606995936374298,1.183724777623686,0.9341078682052226,,,0.541134803179459,inf,,,0.9494288057777235
87,,0.0,0.0,1.6885744802468412,1.6542781062141438,0.5774178167903019,1.3647735704659283,1.0780595285749435,,,0.524519217297268,inf,,,0.9386838232870843
88,,0.0,0.0,1.492332693827444,1.4527416065061696,0.6220238120588989,1.187378196569288,0.9963734233818013,,,0.5567373465730988,inf,,,0.9393054863969335
89,,0.0,0.0,1.5023595203266547,1.4912320859946753,0.4261150001905583,1.1280404628123017,0.8775826728525544,,,0.5022576003740722,inf,,,0.9426910221614031
90,,0.0,0.0,1.5705659515340669,1.5563097772084815,0.6858686259506076,1.5293603835001817,1.1096811884646747,,,0.44694259446804574,inf,,,0.9506916934667032
91,,0.0,0.0,1.4315106915481497,1.400834592024323,0.5625982833392928,1.9110900526494454,1.3285423752120606,,,0.585052858160615,inf,,,0.9102197351848413
92,,0.0,0.0,1.4650750440185298,1.4720776845515255,0.5123020001548452,2.095117225627463,2.0058678869611435,,,0.552929491858785,inf,,,0.7227408076632341
93,5.703782474656201,-5.665757258158493,0.0,1.675942578172631,1.5930213311529329,0.5712171437878676,1.7287347208782191,1.6891542499316594,,,0.5202020156036558,5.710471462806998,inf,,0.6225175894593119
94,,0.0,0.0,1.7665187819477108,1.7485683300557715,0.4397480640412541,1.5426212422092043,2.0530118918752587,,,0.3943459996787778,inf,,,0.7643005339450342
95,5.7037824746562,-5.7037824746562,0.0,1.6362010304270234,1.6164455063789267,0.6324287897335295,2.547044409245842,1.9366542964227702,,,0.5713653840954815,5.703782474656201,inf,,0.8634819691257526
96,,0.0,0.0,1.6722140706571973,1.6489011280842802,0.661802266501831,1.9442923859731531,2.2949670905080732,,,0.5677978065141052,inf,,,0.9456900901289415
97,,0.0,0.0,1.5921572326270275,1.589493710071851,0.7292961540490028,1.310802922737689,1.0152439754202272,,,0.5158180382284114,inf,,,0.9480465119734208
98,,0.0,0.0,1.6771525990511253,1.6421411295019042,0.37023872127164476,0.9142543476976721,0.4998520009961621,,,0.5022576003740722,inf,,,0.9521651030888634
99,,0.0,0.0,1.7173615118671597,1.703862938666747,0.5134990804078874,1.1495181594668764,0.7297257851371253,,,0.4928685327679205,inf,,,0.9426419225422135
100,,0.0,0.0,1.5475200104703972,1.5252028418346577,0.6264051015643701,1.5056132314811155,1.281999773081684,,,0.524519217297268,inf,,,0.9390790426921231
101,5.7037824746562,-5.7037824746562,0.0,1.699922298182786,1.6872045544161614,0.4465767372767071,1.4037416347800864,0.9720462239457659,,,0.5748741956352443,5.703782474656201,inf,,0.9485708791946329
102,,0.0,0.0,1.5308139947867323,1.5343139435830109,0.38507098749204327,0.9263702475160467,0.6160854154748856,,,0.44694259446804574,inf,,,0.9510001161882741
103,,0.0,0.0,1.6240850793478152,1.5397586936517957,0.5426096561553247,0.9030206800728057,0.40337280257034225,,,0.47824363442641393,inf,,,0.9537796295825247
104,,0.0,0.0,1.5768226206321663,1.5866429733190484,0.6885773845601149,1.6396841477197097,0.9825444972544353,,,0.4928685327679205,inf,,,0.8892944570326445
105,,0.0,0.0,1.5314636131546737,1.49377664052281,0.83001229792385,1.968908934362379,1.413956457298257,,,0.5158180382284114,inf,,,0.9047722702386227
106,,0.0,0.0,1.6438724803349285,1.6491199932068479,0.7086980008489513,1.8149638921371405,1.2399950557192534,,,0.4576907132971797,inf,,,0.9092865336779486
107,,0.0,0.0,1.6202106964432659,1.5725905583765443,0.30907966896007305,0.7207278708911325,0.499589235003592,,,0.5068466436745385,inf,,,0.9278143336238723
108,,0.0,0.0,1.7708424738342683,1.7589532471040914,0.5210146874752217,0.4209899520034145,0.30095529003737276,,,0.468121228110369,inf,,,0.9518944876849327
109,,0.0,0.0,1.756026312291321,1.733793834621446,0.566795833054292,0.8593511225469189,0.3910720902092354,,,0.5490601803369085,inf,,,0.8718844981768344
110,,0.0,0.0,1.5311331043587093,1.5090581513388492,0.5867083362600044,1.4832961598253067,0.9784801194870898,,,0.552929491858785,inf,,,0.910506615240452
111,,0.0,0.0,1.2522120441872637,1.1400497617597025,0.5679851282185214,1.3933578003799543,0.5540287171581944,,,0.5604843169999094,inf,,,0.933787438604544
112,,0.0,0.0,1.7400802678218235,1.6845300690455673,0.6913820724366044,1.7731962724474826,1.4526105334089108,,,0.6068309995095971,inf,,,0.9310855979748175
113,5.7037824746562,-5.7037824746562,0.0,1.6054937203670625,1.5980616365486366,0.3468523091079438,0.8222537971565359,0.4439727433293378,,,0.48319206230712763,5.703782474656201,inf,,0.6192281447751508
114,,0.0,0.0,1.311969878358669,1.2999779291519573,0.7555839164763334,0.9574792977378251,1.0146555130133157,,,0.48319206230712763,inf,,,0.9295266538069172
115,,0.0,0.0,1.528000871420385,1.516177688857625,0.5550776243382097,1.307390601738678,0.8862544183993413,,,0.5329562494928909,inf,,,0.946730509868855
116,,0.0,0.0,0.07830835683644703,0.07787420141758354,0.4404574393657248,0.8402143136371985,0.3210925063039102,,,0.21876365787541036,inf,,,0.9547849676863551
117,5.160504954757865,-5.09169822202776,0.0,0.9738442160145497,0.9526613380521319,0.6165275036447305,1.874564197093284,0.6446003685388348,,,0.49759852643134905,5.1384686656061405,inf,,0.6982776795679251
118,,0.0,0.0,1.7634669443183733,1.7334180560448236,0.56625273888449,1.346248809555732,0.4574901878905544,,,0.4302020962658841,inf,,,0.7920790151537993
119,4.0712504983615325,-4.0712504983615325,0.0,1.5341608151631958,1.5237797097609265,0.8073186696261987,2.485979364914656,1.6987223684062855,,,0.5370774965580548,4.069326799246813,inf,,0.6153303714663654
120,,0.0,0.0,1.5063321540005188,1.3577802594299013,0.4309646371709764,1.13654731529292,0.6284698420707366,,,0.585052858160615,inf,,,0.9090975797684208
121,5.703782474656204,-2.224475165115919,0.0,1.6968803488231718,1.6629246346321853,0.4899368837897488,1.2296105345471067,0.5449229132406981,,,0.5202020156036558,6.645391014514646,inf,,0.6915276795745946
122,,0.0,0.0,1.5518675010055616,1.5126538076497276,0.7410326889011131,0.711289338577604,0.622706574404081,,,0.4928685327679205,inf,,,0.946539793114737
123,,0.0,0.0,1.5636152863615236,1.5424850500423433,0.3421808790495628,0.4440297394991194,0.444121821988608,,,0.4629450596409901,inf,,,0.9538173591003541
124,,0.0,0.0,1.403466693686203,1.3873775869728238,0.4433314600168448,0.8069982313818248,0.911169930278339,,,0.4629450596409901,inf,,,0.9349052923210002
125,,0.0,0.0,1.4723199680377697,1.4639060758785878,0.48844028235683007,0.9735295163030135,0.8939411656469235,,,0.5329562494928909,inf,,,0.9453980203133716
126,,0.0,0.0,1.5462157435908184,1.5309861447412656,0.5482024698419224,1.1238066438993009,0.9825989690800008,,,0.49759852643134905,inf,,,0.9493837886240631
127,,0.0,0.0,1.7291505222844834,1.7250630287456106,0.3507157394325886,1.1152987972117603,1.2437709517876159,,,0.4732203808476458,inf,,,0.9617290561739912
128,5.703782474656201,-0.03802521649770801,0.0,1.4887265789273385,1.4612629710023015,0.4718866939287244,1.1879458824584526,0.6318322925731163,,,0.44694259446804574,10.714417768752456,inf,,0.8171876340947423
129,,0.0,0.0,1.6402932784428275,1.6392564647557495,0.34910276677095364,0.32187280194414136,0.28167496721397184,,,0.42445136339222655,inf,,,0.9510159641823611
130,,0.0,0.0,1.3877231078185812,1.3854450181116147,0.12136201466534477,0.13718171467043402,0.1604849535649612,,,0.5202020156036558,inf,,,0.9424247609483823
131,,0.0,0.0,1.5797183446148186,1.5819898980846385,0.8791133253416904,0.061358152252950465,0.10181846680598987,,,0.468121228110369,inf,,,0.8739804435379369
132,,0.0,0.0,1.404909283800602,1.357112811779172,0.900652584939514,0.058131613469889404,0.10729010238406254,,,0.48319206230712763,inf,,,0.8966723273916664
133,,0.0,0.0,1.5539108786783653,1.5466242091698066,0.7983674772520764,0.0679940397899322,0.12123760964971948,,,0.4928685327679205,inf,,,0.8637458653666986
134,,0.0,0.0,1.6989522572817983,1.6679546529986848,0.5124540391014383,0.9947231361424674,1.0167752211796663,,,0.5022576003740722,inf,,,0.8991494432808873
135,,0.0,0.0,1.7603916693833146,1.71329634362426,0.39348979358392683,0.8253480025866633,0.972780307239462,,,0.5113665138247345,inf,,,0.9071482705975771
136,,0.0,0.0,1.3071516233423657,1.2747596393447869,0.40886174639307454,0.5941683753891226,0.5219558011826912,,,0.5158180382284114,inf,,,0.9429407691083252
137,,0.0,0.0,1.7347986667506017,1.7293162000927311,0.7196076385130371,0.06996268881475479,0.09943494198882959,,,0.5567373465730988,inf,,,0.7857654456581072
138,,0.0,0.0,1.745928324468614,1.720745504939539,0.8420776166479073,0.09410203921746114,0.1422004971961648,,,0.4732203808476458,inf,,,0.884870309169877
139,,0.0,0.0,1.6586950151496445,1.6366519171244847,0.8469926704991003,0.11610850767432147,0.15865134174627693,,,0.4629450596409901,inf,,,0.8802267437251494
140,,0.0,0.0,1.6639763003145787,1.638938161745458,0.20787215452772734,0.5662350181379632,0.6243222959115853,,,0.42445136339222655,inf,,,0.9429769242240356
141,,0.0,0.0,1.1908965133218183,1.1240115730793954,0.39083650486499066,1.1221648449645842,1.1379763653814097,,,0.45235697871908603,inf,,,0.9509061656279749
142,,0.0,0.0,1.1797743428552523,1.1775438459419496,0.32416694380487854,0.5567360430237029,0.30507234959255225,,,0.5713653840954815,inf,,,0.9542408894505394
143,,0.0,0.0,1.6201849363740026,1.485026648578209,0.8974815580117829,0.6831812164364923,0.8374215870610475,,,0.44144624493110796,inf,,,0.9327471737936699
144,,0.0,0.0,1.5743195573187196,1.5663295636324224,0.5779354631242143,0.18086201107292574,0.19848272805243175,,,0.4576907132971797,inf,,,0.9240381958359349
145,,0.0,0.0,1.3362954567544998,1.3192052022922713,0.891592704147844,0.15412331750918867,0.1716245038909827,,,0.5068466436745385,inf,,,0.8972418182298647
146,,0.0,0.0,1.6873672462487408,1.6620583950116665,0.8479097150864585,0.12513834320587192,0.16927225864038736,,,0.43586655696697996,inf,,,0.881389698428287
147,,0.0,0.0,1.5570233695648188,1.528861734281624,0.8764777514043063,0.11038082410654664,0.16401562460011082,,,0.45235697871908603,inf,,,0.9361192666094125
148,,0.0,0.0,1.6946666902674639,1.6707514855911274,0.9168830143332188,0.10669259590724961,0.19436703233059155,,,0.44694259446804574,inf,,,0.9010045997677845
149,,0.0,0.0,1.686881252800701,1.652790816278429,0.893536889430548,0.11838013188562596,0.20791625976987083,,,0.44144624493110796,inf,,,0.903904318617071
150,,0.0,0.0,1.5740651576869549,1.3931280321764294,0.8907723499972602,0.31421638539257724,0.3402744122657615,,,0.43586655696697996,inf,,,0.9178499863542754
151,,0.0,0.0,1.562886193115842,1.5351830622952811,0.8936441205761365,0.4310855044679997,0.5766412825978113,,,0.5202020156036558,inf,,,0.8985187942208562
152,,0.0,0.0,1.7046645400494662,1.6862050482158184,0.486131251871635,0.1959493101875565,0.19539576868907882,,,0.47824363442641393,inf,,,0.9438621002071161
153,,0.0,0.0,1.5701601154381608,1.504277974463449,0.9513310110313243,0.11970309002609551,0.21921224160066932,,,0.4732203808476458,inf,,,0.864809097501
154,,0.0,0.0,1.501276585938279,1.5112314453972684,0.29297232552280145,0.17699344445206575,0.26707305383412205,,,0.5202020156036558,inf,,,0.9309757804351264
155,,0.0,0.0,1.23445565876036,1.2317026806738889,0.9433298008982213,0.24523398604085075,0.40504315136877067,,,0.41861278947482794,inf,,,0.9083216681630187
156,,0.0,0.0,1.2508497600956987,1.2194900649019607,0.9586462741114048,0.37618445198888484,0.6952899307017437,,,0.5158180382284114,inf,,,0.8920931767054068
157,,0.0,0.0,1.2795136375975862,1.2246764679384134,0.9499538065357556,0.35909760953260006,0.6927882588179164,,,0.42445136339222655,inf,,,0.8786236679557642
158,,0.0,0.0,1.2836713777872286,1.2487918099984658,0.8999947637459965,0.2909459537516531,0.4110159612179355,,,0.5022576003740722,inf,,,0.9263317982388363
159,,0.0,0.0,1.5675300187799754,1.5731121191496293,0.4366720346280108,0.16161034071292676,0.2247482345830129,,,0.4066654671944331,inf,,,0.9208864798443495
160,,0.0,0.0,1.6962501086720398,1.6551013456699757,0.9360575951083859,0.37349621321379034,0.7034832508822051,,,0.44694259446804574,inf,,,0.8555416624073637
161,,0.0,0.0,1.4284876435871778,1.4274837478271907,0.531134372896183,0.3564814877950922,0.532619317911994,,,0.44144624493110796,inf,,,0.9495169290743475
162,,0.0,0.0,1.4924812040385416,1.4940285988053092,0.053879826464550515,0.14253294045812503,0.1874509908325506,,,0.44144624493110796,inf,,,0.968240930998172
163,,0.0,0.0,1.4008265975365002,1.3898625779449423,0.8774726954772332,0.09677666896147012,0.1903861218200072,,,0.41861278947482794,inf,,,0.8975514015596436
164,,0.0,0.0,1.4865651773040138,1.3955722841595088,0.41637281355300143,0.24836089936841232,0.2581186888454106,,,0.44144624493110796,inf,,,0.9449030075870226
165,,0.0,0.0,1.7381310313435252,1.6740669939196546,0.9052483098270007,0.2572257477840031,0.4110678287064295,,,0.3943459996787778,inf,,,0.8751135130170297
166,,0.0,0.0,1.6952140511577252,1.601316430021634,0.9233538487890737,0.5607381203751297,0.9978576829438595,,,0.38804190201132227,inf,,,0.865050216031256
167,,0.0,0.0,1.7767672131791181,1.6775242350091444,0.5542285780496811,0.6912531187484121,0.3371929732825595,,,0.5451288209179292,inf,,,0.9468080928196653
168,,0.0,0.0,1.2886443741963045,1.2889917659233816,0.2795143974117861,0.07351058051607223,0.08356442719514925,,,0.48319206230712763,inf,,,0.9240414490639891
169,,0.0,0.0,1.1033389880107871,1.0739692476451481,0.8140587220477072,0.04511111375663901,0.07288841804806578,,,0.4629450596409901,inf,,,0.795688249381339
170,,0.0,0.0,1.0901264544746148,1.0654106095568827,0.8300709472921498,0.04247184394073363,0.06274400438169743,,,0.4732203808476458,inf,,,0.7680941500953118
171,,0.0,0.0,1.2056265958824834,1.1887557132567406,0.7797334417598303,0.05668406802926988,0.08825103498127404,,,0.4880666971167561,inf,,,0.7934516108959483
172,,0.0,0.0,1.2350893045688074,1.2194934554156036,0.6802546207191841,0.06322927131491278,0.09435481941352239,,,0.5490601803369085,inf,,,0.8216697900531307
173,,0.0,0.0,1.0857620676500128,1.0593455777724186,0.9373131222016376,0.3348284353862093,0.4480388825498476,,,0.4732203808476458,inf,,,0.8638425862017811
174,,0.0,0.0,1.2770207874475612,1.2728641414576427,0.8088477578137255,0.1781039641926311,0.3194378010897768,,,0.44144624493110796,inf,,,0.8240758911795552
175,,0.0,0.0,1.4364128791558946,1.4120354258307484,0.9569453251425148,0.15851359814535093,0.2988989611641244,,,0.48319206230712763,inf,,,0.8506965166541495
176,,0.0,0.0,1.38933118534084,1.3504051806491126,0.9478917309251549,0.11401381735194674,0.21668470514119384,,,0.468121228110369,inf,,,0.8324803226175468
177,,0.0,0.0,1.4169495855377185,1.4109725661311772,0.38324483995970454,0.2612723499241679,0.2672937122738635,,,0.468121228110369,inf,,,0.8326387924563029
178,,0.0,0.0,1.6324185201038617,1.6361894059257727,0.36700631088357744,0.12492037732096144,0.15379889235752697,,,0.44144624493110796,inf,,,0.7689365424243131
179,,0.0,0.0,1.640331718991924,1.615170010572389,0.5662744050885201,0.24942613281505469,0.34510181576879906,,,0.49759852643134905,inf,,,0.9414716386719953
180,,0.0,0.0,1.369768976615423,1.2478350573711994,0.5945309108034262,0.18370741448351352,0.2264486731421735,,,0.4880666971167561,inf,,,0.868478270526977
181,,0.0,0.0,1.593400614590002,1.5882128325229572,0.8762870130217084,0.34365576985105195,0.6587746430264323,,,0.44144624493110796,inf,,,0.9073197098529556
182,,0.0,0.0,1.5471918521353243,1.509105905515716,0.9531119884271724,0.1840713387872479,0.38369958173397756,,,0.45235697871908603,inf,,,0.84984497611316
183,,0.0,0.0,1.5943216760222279,1.5854322452720577,0.7297767913019398,0.22827424667647897,0.4293891535299685,,,0.5451288209179292,inf,,,0.6746229810861843
184,,0.0,0.0,1.712786024309397,1.7082234175864945,0.34300201641893663,0.33650921698198694,0.35037269005202293,,,0.4629450596409901,inf,,,0.83210910642197
185,,0.0,0.0,1.7640708413223152,1.7220655598390178,0.7270093368081152,0.34420962070570815,0.5239845605323602,,,0.468121228110369,inf,,,0.9152559439985605
186,,0.0,0.0,1.6347188125311491,1.6139611424733582,0.8052383234527432,0.45070306221225337,0.6659961995817933,,,0.44694259446804574,inf,,,0.9166168236803947
187,,0.0,0.0,1.691163955534691,1.64053773586489,0.4492379749078521,0.5926353561348452,0.25748911165505783,,,0.5370774965580548,inf,,,0.9313138569556421
188,,0.0,0.0,1.644479398450964,1.5516299997951437,0.620700266241052,0.33141652321254234,0.48823070189557793,,,0.4732203808476458,inf,,,0.8380762797137306
189,,0.0,0.0,1.4989425893407498,1.444513505591224,0.32123446772021436,0.21402411401332974,0.2554087093085851,,,0.48319206230712763,inf,,,0.9470567117402227
190,,0.0,0.0,1.55407540411589,1.5498957239266857,0.5981910646155516,0.12574625959005348,0.14517833644951225,,,0.4928685327679205,inf,,,0.9034748413812804
191,,0.0,0.0,1.3516968842980528,1.3039114334047577,0.7752721108245622,0.0862128919413337,0.12645926900095258,,,0.45235697871908603,inf,,,0.8653495869113
192,,0.0,0.0,1.4667791606798364,1.4549063648197609,0.7855407625649878,0.10914607730929964,0.14448727648709,,,0.45235697871908603,inf,,,0.8754106367076298
193,,0.0,0.0,1.4479934918439494,1.419238571574186,0.17244800552823691,0.1577728060482327,0.12543195365835638,,,0.5370774965580548,inf,,,0.9634560213733753
194,,0.0,0.0,1.401464934039013,1.4153906953792268,0.20487260333510804,0.20254133559721865,0.15745252500903004,,,0.5490601803369085,inf,,,0.9494423874465238
195,,0.0,0.0,1.6517808352839514,1.5244213580503456,0.4860698182598802,0.3539272487440731,0.234392320584622,,,0.44694259446804574,inf,,,0.9477140853368246
196,,0.0,0.0,1.6752653273008922,1.6702504111983154,0.48814709966459474,0.13797957447876621,0.20594784072260502,,,0.4880666971167561,inf,,,0.9446161572901512
197,,0.0,0.0,1.5852408694471212,1.5547246849343646,0.18230876060572,0.18914289849286575,0.1696833683361784,,,0.5202020156036558,inf,,,0.9581832809539594
198,,0.0,0.0,1.6393809762756328,1.585971167175525,0.768138945532877,0.10642749130261767,0.1247088621471352,,,0.4576907132971797,inf,,,0.9300923323173547
199,,0.0,0.0,1.2464911546322848,1.2337506469917747,0.8842985299990832,0.050641006724095806,0.08242931309627831,,,0.5068466436745385,inf,,,0.9127916452058805
200,,0.0,0.0,1.5097914746262049,1.4511701427414576,0.8904788455944244,0.12739748895802316,0.1784465824680294,,,0.3265551233283096,inf,,,0.8939475377104984
201,,0.0,0.0,1.7002840292732075,1.6671271399438925,0.6058938393138676,0.20669094569315594,0.21339194514757281,,,0.524519217297268,inf,,,0.8367883748085547
202,,0.0,0.0,1.548442256973534,1.518740246122844,0.7770558330730453,0.4531957645311378,0.5248093381351684,,,0.5158180382284114,inf,,,0.8860441431757786
203,,0.0,0.0,1.5167429854221486,1.4831078999989256,0.6601561390223547,0.4588707347335695,0.5352179829390644,,,0.48319206230712763,inf,,,0.8800545795652531
204,,0.0,0.0,1.7755297438243811,1.7463826301457752,0.8130476064780019,0.45277661020671406,0.5300399137325909,,,0.43586655696697996,inf,,,0.8499694087077225
205,,0.0,0.0,1.78241795770831,1.726985364078751,0.8878679956863373,0.45747122443827565,0.6255308935726154,,,0.5068466436745385,inf,,,0.8559509147569806
206,,0.0,0.0,1.5573291071544113,1.4967478336481603,0.3935714256725796,0.4880487677149045,0.6019193430353769,,,0.43586655696697996,inf,,,0.9345589599135005
207,,0.0,0.0,1.601589607293921,1.5929451372815757,0.2676919119447871,0.1890186228542373,0.26694814877993994,,,0.4576907132971797,inf,,,0.9526943619555637
208,,0.0,0.0,1.5939838266130293,1.5683225080362282,0.7119714145385483,0.03185457705483775,0.05064448991116689,,,0.552929491858785,inf,,,0.8326916000905044
209,,0.0,0.0,1.5321908620727949,1.481396696754169,0.32928935223766925,0.14455665809118146,0.10962179999176266,,,0.5022576003740722,inf,,,0.9427404020708228
210,,0.0,0.0,1.5452351100946466,1.510259709445107,0.7901524076416364,0.0770586412946095,0.12216123682499687,,,0.5158180382284114,inf,,,0.8062987193874344
211,,0.0,0.0,1.6515241998789318,1.6328000363687243,0.6953657811602986,0.09244174409432886,0.11242601640535818,,,0.4629450596409901,inf,,,0.8673722033013013
212,,0.0,0.0,1.6245612081548182,1.6320258783124895,0.516361039067851,0.07479536992353454,0.10506292149884394,,,0.4928685327679205,inf,,,0.9010692480547362
213,,0.0,0.0,1.2798476893881747,1.2448356093719157,0.5778381341100592,0.5916546708119266,0.4081180065358687,,,0.4732203808476458,inf,,,0.9235979928649741
214,,0.0,0.0,1.489442237319667,1.455186908045503,0.6729133134122124,0.7818827550956294,0.7145055263791715,,,0.5329562494928909,inf,,,0.9137342009670839
215,,0.0,0.0,1.5679458617479365,1.5601608316389828,0.6007399880340727,1.412149105699152,0.6892911734922604,,,0.5022576003740722,inf,,,0.94715551515127
216,5.7037824746562,-5.7037824746562,0.0,1.7232417576745174,1.6382284635022724,0.6171601803624742,1.5918725671256895,0.768525948875237,,,0.4880666971167561,5.703782474656201,inf,,0.9554944711882957
217,,0.0,0.0,1.4408939261946094,1.433272845170418,0.5021383297956594,1.9285272936483255,1.1347020228438434,,,0.5451288209179292,inf,,,0.9325907440174463
218,,0.0,0.0,1.6003693917883406,1.5828529625470331,0.4901291097941819,1.508902805069507,0.8127332735504591,,,0.5370774965580548,inf,,,0.93154574677414
219,5.010635294096255,-5.010635294096255,0.0,1.4488469365429204,1.300718415419434,0.4684548861290191,1.787903506728006,1.476910255214547,,,0.5068466436745385,5.0106352940962555,inf,,0.8267580686693297
220,,0.0,0.0,1.733453328599364,1.670885184324074,0.8794821301821979,1.440953889057674,1.789693241152775,,,0.47824363442641393,inf,,,0.9111997948574642
221,,0.0,0.0,1.7383142907314446,1.7079767728812858,0.5972505377203072,1.1515106855757071,1.4168024627488252,,,0.5113665138247345,inf,,,0.8882907817639496
222,,0.0,0.0,1.7310344831671387,1.724954097169073,0.8606119222455589,0.9349410683049678,1.150096375573105,,,0.4880666971167561,inf,,,0.8827427657652449
223,,0.0,0.0,1.3117754618577502,1.3101040324344206,0.8472625900227836,1.021675977481344,1.1956159642160429,,,0.468121228110369,inf,,,0.8876997502492665
224,,0.0,0.0,1.6389908448272354,1.6532336074819383,0.7385388485610105,0.9158966920515154,1.0524137657000412,,,0.4576907132971797,inf,,,0.9462203150580535
225,,0.0,0.0,1.6997993245800256,1.7242728324088048,0.8311235680506565,1.1369444430964644,1.071267752501417,,,0.5451288209179292,inf,,,0.946733314525346
226,,0.0,0.0,1.6825060017268503,1.6315122232054453,0.7742065989464976,0.9765040184483049,0.813287550750977,,,0.48319206230712763,inf,,,0.9184313389971341
227,,0.0,0.0,1.5818073914357185,1.5776594597117697,0.6515484020114106,0.7034343696794131,0.7745869943163847,,,0.4928685327679205,inf,,,0.9275981796292214
228,5.7037824746562,-5.7037824746562,0.0,1.3860658898249432,1.310135866231484,0.45595232968153193,1.1059928396365635,0.8983579949063143,,,0.5490601803369085,5.703782474656201,inf,,0.9531625866791006
229,,0.0,0.0,1.7781515232099598,1.740907958937334,0.6475848080542137,1.7239007389553176,1.2109998302359313,,,0.5567373465730988,inf,,,0.9576201331034727
230,,0.0,0.0,1.4266656094309196,1.416036716852573,0.7360043161626716,1.4864169953856083,1.1754868666109484,,,0.5158180382284114,inf,,,0.949249679354602
231,,0.0,0.0,1.618390954896258,1.6062641177344468,0.3754326015558073,2.072111262215977,2.0208685145180634,,,0.552929491858785,inf,,,0.8618266335905471
232,,0.0,0.0,1.762851294986292,1.7449640697510898,0.8996870754643563,2.435863147441634,2.221514225674363,,,0.5641709578113449,inf,,,0.9201857215719594
233,,0.0,0.0,1.5458300948513397,1.5269416935870228,0.7846837506213206,2.0189866063403823,0.9752873195696927,,,0.5370774965580548,inf,,,0.9396462010561627
234,,0.0,0.0,1.67896928644474,1.6480072856319297,0.8124280635041384,2.328012784220485,2.2767425830199595,,,0.552929491858785,inf,,,0.9405094179798662
235,,0.0,0.0,1.4669319274434929,1.4441624530177246,0.6059537122916328,1.7921656523337648,1.6071754405706262,,,0.5287703885177266,inf,,,0.9376560353716892
236,,0.0,0.0,1.5143784086266043,1.4841557471078655,0.7719984476104265,1.7783515605645237,1.3801979264625437,,,0.47824363442641393,inf,,,0.9407541614838114
237,,0.0,0.0,1.5098862917333848,1.5033153264073067,0.7231549273073153,2.0967933822722484,1.962810830377912,,,0.5202020156036558,inf,,,0.9471319400313593
238,,0.0,0.0,1.5596966239951793,1.560417463887504,0.29563378786695477,1.6296817122102236,1.4436680985322594,,,0.581717464821069,inf,,,0.7057730062605546
239,,0.0,0.0,1.4617987827574588,1.406425282999526,0.7661333884540716,1.9587308445969598,1.6272363219156374,,,0.552929491858785,inf,,,0.890437815622924
240,,0.0,0.0,1.5338058876926721,1.5252307337111184,0.40878722356902847,1.2469244054299609,1.191822566513648,,,0.5068466436745385,inf,,,0.7897393396683208
241,,0.0,0.0,1.7276297250225157,1.7225859325950594,0.8490247065741591,0.8040564078454385,0.9799355183365897,,,0.42445136339222655,inf,,,0.9243117373026437
242,,0.0,0.0,1.2075054512570351,1.200797460562092,0.4917366603783267,1.2168833322210206,0.8966351161070205,,,0.5022576003740722,inf,,,0.6841177447111286
243,,0.0,0.0,1.7188333980800807,1.6263019662028146,0.5777735632084051,1.03894640394752,0.38014783575920363,,,0.40055318934786044,inf,,,0.6624545385491325
244,,0.0,0.0,1.5155496138801394,1.454004300409308,0.49724562119318644,0.9242214563794663,0.7069748384124074,,,0.3943459996787778,inf,,,0.9142024404746139
245,4.605170185988091,-4.605170185988091,0.0,1.702533408204074,1.6655024801723546,0.7088744556242964,2.0099813884524353,0.5940916209623719,,,0.5748741956352443,4.605170185988091,inf,,0.7664629690995235
246,4.31748811353631,-4.31748811353631,0.0,1.323136759070764,1.3007199049353597,0.726479733077058,2.546101796294704,2.5288702813262205,,,0.5158180382284114,4.31748811353631,inf,,0.9480262049870802
247,5.703782474656203,-2.034349082627379,0.0,1.4957241923942606,1.4271284936921453,0.6555926053264539,1.4288109629035406,0.8589792114986987,,,0.5567373465730988,6.734736114850496,inf,,0.9225718061717716
248,,0.0,0.0,1.7755214554128118,1.7702358047730218,0.524704598627681,0.7544207170364216,0.6283789789312578,,,0.5113665138247345,inf,,,0.9523090121989743
249,,0.0,0.0,1.588292603167141,1.5276011772112437,0.5793138827803639,1.4866058954501984,1.154843215173654,,,0.5370774965580548,inf,,,0.949740268121805
250,,0.0,0.0,1.5673807079258815,1.5322186086811431,0.7134651772295789,1.883518063436205,1.3218160099006182,,,0.5370774965580548,inf,,,0.9363883886945197
251,,0.0,0.0,1.7154444994568172,1.7216692664199087,0.6064639942053779,0.417425146626599,0.4402310977583636,,,0.44694259446804574,inf,,,0.9276755363673347
252,,0.0,0.0,1.6608795725605203,1.6145791102393972,0.5393391334820486,1.3182537078093264,0.8520810030116848,,,0.524519217297268,inf,,,0.954069168038941
253,,0.0,0.0,1.3824428272316598,1.376069494506846,0.5948201928888436,2.4587888530232487,2.0004621388706703,,,0.541134803179459,inf,,,0.6895430032478069
254,,0.0,0.0,1.3965330504811218,1.3818060266208356,0.7929054101803851,2.163079362515013,2.1800786987879976,,,0.5022576003740722,inf,,,0.9428026658546678
255,,0.0,0.0,1.559617014806486,1.5483653770102337,0.6516089648528772,1.911398921608329,2.140879996608388,,,0.524519217297268,inf,,,0.9222358505601481
256,,0.0,0.0,1.550570345458061,1.535636971611745,0.5141262821729382,1.7841840577064594,1.2638484326157546,,,0.524519217297268,inf,,,0.9471144598142673
257,,0.0,0.0,1.592365708773612,1.5648602254243378,0.6632108732340747,1.8113241409180265,1.7054534782963786,,,0.5022576003740722,inf,,,0.9272399299322758
258,,0.0,0.0,1.5616164535226167,1.5301039035551673,0.6358360028721334,1.200701325663206,1.1436306046121616,,,0.4066654671944331,inf,,,0.9353320061908398
259,,0.0,0.0,1.5959208994158116,1.5871384849873653,0.4800475181561291,0.9578937762149361,0.7173375928344253,,,0.49759852643134905,inf,,,0.9468308785481865
260,,0.0,0.0,1.546016263653607,1.4967860978312044,0.5653214569523975,1.4029487921705586,1.5092857169818354,,,0.4880666971167561,inf,,,0.9480982782934531
261,,0.0,0.0,0.9588464448869274,0.9342510660554062,0.7287847328102419,1.5575575807568913,1.0412630467689428,,,0.5158180382284114,inf,,,0.9248318056511102
262,,0.0,0.0,1.456645110593575,1.3562538052968567,0.6012365093716247,1.0536866650424133,0.7730703697394206,,,0.468121228110369,inf,,,0.9149873883523257
263,,0.0,0.0,1.6532346447623214,1.6435405276864097,0.5619379094684307,0.7659364957399348,0.5613186226433585,,,0.5113665138247345,inf,,,0.9534587611810627
264,,0.0,0.0,1.6331599025977874,1.5898179636374383,0.3204528140276532,0.6065903803707078,0.41961046685917214,,,0.468121228110369,inf,,,0.9521401082202146
265,,0.0,0.0,1.4190862398425061,1.3828726637290405,0.36561753963541643,0.6559075199580956,0.5285380986568152,,,0.4576907132971797,inf,,,0.8802490500090911
266,,0.0,0.0,1.6527006578204517,1.5746321724676393,0.5891746515720737,1.6360218674934635,1.5188811249955751,,,0.5604843169999094,inf,,,0.9040671164616307
267,,0.0,0.0,1.7745145579659527,1.7139134622113372,0.6131550358739769,0.8940405417792472,0.5155393594136821,,,0.5113665138247345,inf,,,0.9216535114546229
268,,0.0,0.0,1.7852367178473958,1.7351657968026248,0.7088596355802215,0.6008619494029327,0.5329085417811553,,,0.4880666971167561,inf,,,0.9423385709752278
269,,0.0,0.0,1.7729891349310933,1.7423071667623984,0.3674387560462852,0.7076639474991526,0.5212667694343769,,,0.524519217297268,inf,,,0.9256970648838839
270,,0.0,0.0,1.5195170542831102,1.5029930278373498,0.6902721263874018,0.9734208208973367,0.8309608102993002,,,0.4629450596409901,inf,,,0.9321856508087094
271,,0.0,0.0,1.6963413183550564,1.676720655743671,0.47346483272711204,0.5068085393022198,0.32345804460932426,,,0.5370774965580548,inf,,,0.9493599129278352
272,,0.0,0.0,1.6840158173863073,1.610389335816278,0.5121311600903803,1.2274579325484234,0.5378197666320035,,,0.48319206230712763,inf,,,0.9567149202089649
273,,0.0,0.0,1.6027698898003462,1.5695244910001465,0.4987886172818365,1.1030877494944278,0.644137729053174,,,0.42445136339222655,inf,,,0.9474245467487686
274,,0.0,0.0,1.5909297812500902,1.5675542901009767,0.4719179922441066,0.8875393866860226,0.6022881542135694,,,0.4629450596409901,inf,,,0.9411064364333699
275,,0.0,0.0,1.6727244044642804,1.669324274184126,0.37792179223838446,0.7051525558312026,0.4642991707025167,,,0.541134803179459,inf,,,0.9534249544583642
276,,0.0,0.0,1.3938332005401843,1.3784643303308732,0.5802288757062135,1.073816909250364,0.5296508536842108,,,0.5158180382284114,inf,,,0.9503468681391475
277,,0.0,0.0,1.491909408364985,1.446116808835034,0.5551318400809131,0.9716085148663022,0.6168013570759945,,,0.5641709578113449,inf,,,0.9499169336077957
278,,0.0,0.0,1.6269991705067355,1.6034987324423264,0.662275201901259,1.0554784783770959,0.491697992183026,,,0.552929491858785,inf,,,0.9474316708775719
279,4.888995761663805,-4.888995761663805,0.0,1.655257719231954,1.627256477347014,0.8027446930137652,3.0695570892120796,3.071246254611232,,,0.5490601803369085,4.870873351721097,inf,,0.9520464203035744
280,5.703782474656201,-0.07605043299541601,0.0,1.5624566667626238,1.528584479055891,0.6648935583471145,2.1965701627450938,1.7679330266799642,,,0.552929491858785,10.021270588192511,inf,,0.9524837275636272
281,5.7037824746562,-5.7037824746562,0.0,1.6630463533084225,1.665580109121143,0.5509841739078029,1.9615113678080744,1.183211079647123,,,0.5158180382284114,5.703782474656201,inf,,0.6833732317406709
282,,0.0,0.0,1.6841686996695473,1.6780447081002972,0.6965223088539282,1.4534207205404381,0.9739202167313126,,,0.524519217297268,inf,,,0.9328045217006773
283,5.7037824746562,-5.7037824746562,0.0,1.5165397288511537,1.4544210117702798,0.5341132649532446,1.1501165824209272,0.5286741567114763,,,0.5713653840954815,5.703782474656201,inf,,0.895838712138327
284,5.7037824746562,-5.7037824746562,0.0,1.5911874070048515,1.568065982829412,0.4972513184933847,1.4240895331405357,0.7613979788218037,,,0.468121228110369,5.703782474656201,inf,,0.8401905956252249
285,5.703782474656201,-3.669433392028823,0.0,1.7187317238371205,1.6354022015183798,0.6367165353533719,2.3291086226988997,1.416790920985831,,,0.5641709578113449,6.144874760407516,inf,,0.8680769261098188
286,,0.0,0.0,1.6341253109320653,1.6390485003529593,0.18783992501529886,1.0251684023878873,0.6601681132934163,,,0.585052858160615,inf,,,0.9596663105696982
287,,0.0,0.0,1.3082997782030013,1.264715534410326,0.5579327538427296,0.9950102170428492,0.5400836026275061,,,0.5490601803369085,inf,,,0.9296859523163524
288,,0.0,0.0,1.720300636587898,1.7246155442755178,0.6601636279518485,1.3171325340529403,0.6046295402488007,,,0.5022576003740722,inf,,,0.95030007554248
289,,0.0,0.0,1.5736863398305703,1.5923325929342504,0.2736107505650902,1.3838018428017187,0.8374258035883904,,,0.48319206230712763,inf,,,0.5762089091605267
290,,0.0,0.0,1.5111346009060076,1.4744800959951374,0.6370544490963568,1.5790128344654926,1.1056041292394334,,,0.5677978065141052,inf,,,0.9508143606255298
291,,0.0,0.0,1.3487278554973239,1.3314192452308633,0.3452704621089778,0.9297339069644246,0.5358237354266823,,,0.5202020156036558,inf,,,0.6812169394585056
292,,0.0,0.0,1.4981279556973444,1.4904345934045296,0.3777924790380905,1.083148460903044,0.8298706513451752,,,0.4732203808476458,inf,,,0.9569980189317588
293,,0.0,0.0,1.448761738778981,1.3818154280128974,0.5708440892570135,1.242655484174496,0.842079907400944,,,0.5202020156036558,inf,,,0.9119848957615729
294,,0.0,0.0,1.643099192282209,1.583250931432578,0.6180405753454287,0.9978678267504362,0.5613929506344117,,,0.4732203808476458,inf,,,0.9106764743672648
295,,0.0,0.0,1.712857951989337,1.6325749635521658,0.5298041827090805,1.3231402098476117,0.8292792156441784,,,0.552929491858785,inf,,,0.9473870263403896
296,,0.0,0.0,1.1736729751593336,1.1597203972922008,0.5866033354813496,1.5247790172314157,0.6124708678905177,,,0.5567373465730988,inf,,,0.9132876341488096
297,,0.0,0.0,1.7346710450974812,1.6901074789610782,0.5815680254640274,1.2274960137921584,0.5840330399865179,,,0.524519217297268,inf,,,0.8282915195522406
298,,0.0,0.0,1.6069771599564153,1.5849263334354393,0.4761081654201647,1.1954173171880882,0.683441783195408,,,0.4302020962658841,inf,,,0.9442099923252525
299,,0.0,0.0,1.75430910232489,1.783060284673056,0.5502998574780937,1.0158001416297977,0.7153666645548016,,,0.5883313578629602,inf,,,0.9448574823890018
300,5.7037824746562,-5.7037824746562,0.0,1.6849935904997844,1.6676722529653283,0.3775729499520653,1.4214305132834555,0.7594962222321262,,,0.49759852643134905,5.703782474656201,inf,,0.8397092927886831
301,5.7037824746562,-5.7037824746562,0.0,1.5600587779379964,1.5373510440442844,0.4712085792571482,2.1005951797834093,1.4981033236418684,,,0.5022576003740722,5.703782474656201,inf,,0.942581969443239
302,5.703782474656201,-0.45630259797249606,0.0,1.1569457871436248,1.1509043645603816,0.7620917431191883,2.592457674688199,1.8115542480200308,,,0.5370774965580548,8.229511118964457,inf,,0.944111563931054
303,,0.0,0.0,1.6418634413871558,1.6398452688225145,0.5353669198179586,1.8933659946814494,1.100785363718612,,,0.5783247308855777,inf,,,0.9489558068225675
304,5.703782474656201,-5.646744649909639,0.0,1.4634634581506392,1.4377529960010944,0.6335767056334488,1.556551507925182,1.0596100075769044,,,0.5158180382284114,5.713832810509703,inf,,0.8085831990198503
305,,0.0,0.0,1.7156694302483193,1.694045420233502,0.613537930137072,1.2886889433045579,0.6523167904185241,,,0.468121228110369,inf,,,0.9151032919035228
306,5.7037824746562,-5.7037824746562,0.0,1.7027466722245235,1.6429986666603513,0.6732970924465331,1.8753625266976888,1.2908486525278537,,,0.5113665138247345,5.703782474656201,inf,,0.6572941255046739
307,,0.0,0.0,1.579079466531054,1.5758379171532864,0.7040624224958675,2.647394054635785,2.7721417230812344,,,0.585052858160615,inf,,,0.7284520556399757
308,,0.0,0.0,1.497639302872396,1.4938560366641935,0.8035417913381715,2.238295299701904,1.8956552779851492,,,0.524519217297268,inf,,,0.9025335325258694
309,,0.0,0.0,1.4551550638377526,1.4146963141586746,0.7352558600453574,1.928136868943345,0.7233542411144516,,,0.5567373465730988,inf,,,0.9486016883553866
310,,0.0,0.0,1.5987889199682601,1.5213820048747526,0.5899349446437826,1.9811285398771623,1.0592323302875897,,,0.5158180382284114,inf,,,0.9517856844928899
311,,0.0,0.0,1.567841427610305,1.4987031295041333,0.5408250964110738,1.0755127389984458,0.9206802260335591,,,0.5287703885177266,inf,,,0.9519295663712539
312,5.703782474656201,-5.589706825163077,0.0,1.2522327324591762,1.1908923685331856,0.7013587076832792,2.0989789896714277,1.7450158021612352,,,0.5022576003740722,5.72398518197372,inf,,0.9455558476241765
313,,0.0,0.0,1.675001675992736,1.6225611723296804,0.8241268464771444,2.8122829339581012,2.7796758415125686,,,0.47824363442641393,inf,,,0.9405090518448102
314,,0.0,0.0,1.5455542147142822,1.5118714272005624,0.7396005235896886,2.414681715148889,2.1033642967019386,,,0.6097226960127671,inf,,,0.9366491526578312
315,,0.0,0.0,1.4267032005471818,1.3359286945125486,0.7616254852127522,2.3621132216357927,2.7070615278025607,,,0.552929491858785,inf,,,0.9414345434992396
316,,0.0,0.0,1.5930600800200285,1.5936827859449656,0.5497504692228863,1.3177489932050577,1.1552798349850213,,,0.4732203808476458,inf,,,0.945902470264808
317,5.7037824746562,-5.7037824746562,0.0,1.5370072506584669,1.4703164198558487,0.6579870288837384,2.0280666822323856,1.48020682690191,,,0.5490601803369085,5.703782474656201,inf,,0.7373974351897786
318,5.703782474656202,-0.24716390723510206,0.0,1.6089523646722512,1.6166736737375633,0.4752855200662842,2.022842241870744,2.0704919565138615,,,0.5641709578113449,8.842615591850866,inf,,0.8590259027882359
319,,0.0,0.0,1.2342157719467486,1.2239173670634842,0.5907628508762869,1.8252316176482026,1.118191757497857,,,0.585052858160615,inf,,,0.5958376656212521
320,,0.0,0.0,1.728441161087512,1.717132941961588,0.7599506181904239,1.3738343666664703,1.3529534563838719,,,0.524519217297268,inf,,,0.950995214230043
321,,0.0,0.0,1.67901689560501,1.6401251318601562,0.6324899474866963,1.6727950905035875,1.8360562739388961,,,0.5567373465730988,inf,,,0.9479693082134787
322,5.140022767800777,-5.140022767800777,0.0,1.7518021983138778,1.7099165361352886,0.6415495844048386,2.4036027916139036,2.081320977113476,,,0.468121228110369,5.10861570245646,inf,,0.8585117039164823
323,,0.0,0.0,1.7353862802597277,1.694135778982715,0.7573443648943136,1.9008279994308672,1.8312114227178107,,,0.6038851895711802,inf,,,0.8961514348196553
324,,0.0,0.0,1.750505686307856,1.7264986599049246,0.6908168891418305,1.2336716808701893,0.8249478191567918,,,0.5677978065141052,inf,,,0.9439166773494586
325,,0.0,0.0,1.5612056681784428,1.5638900489210166,0.5831242745773613,1.8035851757253667,1.665337486582457,,,0.5915533975974677,inf,,,0.9498618187173516
326,5.055517844560741,-5.055517844560741,0.0,1.3193898315698678,1.2835573742591613,0.45501478774219356,2.0767898676626513,1.8374614722066909,,,0.5567373465730988,4.942976645622441,inf,,0.74546599253801
327,,0.0,0.0,1.7400216288036752,1.6982455039724196,0.6677202911350064,1.7796104190002806,1.3252134756733311,,,0.5604843169999094,inf,,,0.9344249917611042
328,,0.0,0.0,1.6558160626161653,1.6320576641205318,0.6223152723504741,1.3643949383026224,0.7145929249683398,,,0.49759852643134905,inf,,,0.9489095649174033
329,,0.0,0.0,1.4554160666290457,1.447924101638568,0.7321703998215207,0.8768524621785084,0.6684203286617741,,,0.47824363442641393,inf,,,0.9475259929251434
330,,0.0,0.0,1.6113000315140589,1.5813284266150962,0.6480948487735965,1.1269646836221523,0.8148758284990052,,,0.4732203808476458,inf,,,0.9487530751814581
331,,0.0,0.0,1.6592911581911334,1.6315262240430168,0.6587269832152063,1.0701359379494857,0.7734502077556031,,,0.5287703885177266,inf,,,0.945187225186108
332,,0.0,0.0,1.2817936978799862,1.213316108204012,0.5501239252578638,0.7202190517739155,0.771239064018576,,,0.5641709578113449,inf,,,0.9530796439426363
333,,0.0,0.0,1.4156957515048179,1.4211818581029032,0.4971040857614724,0.9925956483078006,0.9285726921717703,,,0.581717464821069,inf,,,0.9470871621141531
334,,0.0,0.0,1.6633483455089109,1.5984183449701346,0.44300289751071514,1.2767012357893903,1.0931574565484181,,,0.43586655696697996,inf,,,0.9395067832790794
335,,0.0,0.0,1.659266463223688,1.629553572066897,0.6490123113503304,1.5459257337367314,1.3299460544199704,,,0.5641709578113449,inf,,,0.9458033772993093
336,,0.0,0.0,1.670735535330527,1.6470868869078656,0.6369786975756321,1.6513578867544174,0.8800930894599435,,,0.5883313578629602,inf,,,0.9357311371163066
337,,0.0,0.0,1.7734723773252694,1.7107698675990382,0.49010248388436156,1.5270550117633173,1.0174023409123354,,,0.49759852643134905,inf,,,0.9182819552208547
338,,0.0,0.0,1.669788324594195,1.6508437038080106,0.6984438339964341,2.079713691003689,1.6031764021076715,,,0.5451288209179292,inf,,,0.9288087510381404
339,,0.0,0.0,1.4125010728857832,1.3915878742862509,0.7567284207564787,2.5411549244358285,2.102145477583384,,,0.5748741956352443,inf,,,0.9140904484360007
340,,0.0,0.0,1.6678333382431103,1.6371080407246248,0.40676405608189775,1.4980138896106672,1.1087064853044066,,,0.4302020962658841,inf,,,0.9214077027313833
341,,0.0,0.0,1.50679165892946,1.44989261540588,0.7349982672779993,1.3359779986052334,0.9835413709506933,,,0.49759852643134905,inf,,,0.9365379490612817
342,,0.0,0.0,1.5225923135052315,1.434254458294603,0.4529549233144732,1.1491936774373037,0.8595040123151809,,,0.43586655696697996,inf,,,0.9315244630813431
343,,0.0,0.0,1.6735644287607132,1.6339146400623097,0.5191766840711878,1.5894656607380544,1.0638761203131222,,,0.43586655696697996,inf,,,0.784866673246252
344,,0.0,0.0,0.30083132870067514,0.29489962897382294,0.5934466143909398,1.8971316213904765,1.2958877240095243,,,0.47824363442641393,inf,,,0.9308135000316197
345,,0.0,0.0,0.7811150170243678,0.7431189157976729,0.6998013661612764,1.7745692448455452,1.499802758432189,,,0.585052858160615,inf,,,0.9529117447440937
346,,0.0,0.0,1.3374736555824562,1.2809898141276699,0.5858692012791117,1.9569417208901658,1.3191593785188935,,,0.541134803179459,inf,,,0.9520606144903596
347,,0.0,0.0,1.6577181373137106,1.6300560013933512,0.5024179930221182,1.6851091254122812,1.6195657519534699,,,0.524519217297268,inf,,,0.6165119870910868
348,,0.0,0.0,1.2928429943705493,1.2722500877791045,0.7519616409000525,1.826770469538532,1.7819272195546711,,,0.5748741956352443,inf,,,0.9064838973569518
349,,0.0,0.0,1.6390430787114614,1.5977114053076975,0.5350941560587537,2.41591837565432,1.3079472008132433,,,0.585052858160615,inf,,,0.5874795213754227
350,,0.0,0.0,1.502040831978811,1.4944998352733518,0.48507690881811316,1.9494358206312716,1.3299531569601883,,,0.5022576003740722,inf,,,0.9447340561526698
351,,0.0,0.0,1.63155359040467,1.5491244141927685,0.6206000657132671,1.5229142282808432,0.9456811887226062,,,0.5113665138247345,inf,,,0.9454457084893171
352,,0.0,0.0,1.721232251813697,1.7069545630525116,0.7309476290615904,1.127956405911964,1.0431725693098923,,,0.5202020156036558,inf,,,0.9461004758757179
353,,0.0,0.0,1.4014528962694668,1.3697866119112743,0.37045534756540505,1.2154049178052564,0.910802339219944,,,0.4629450596409901,inf,,,0.7823751591911319
354,,0.0,0.0,1.6672079512526186,1.6735748543965037,0.4947309839870679,0.9604841268258466,0.6568780447890701,,,0.4629450596409901,inf,,,0.9529053516599847
355,5.7037824746562,-5.7037824746562,0.0,1.579663995608981,1.5262997601199988,0.5638121769024524,1.8404108678414235,1.4816011647360832,,,0.4928685327679205,5.703782474656201,inf,,0.944883842157624
356,,0.0,0.0,1.4078249832582255,1.413119922578903,0.5271646437723998,1.9992207023837925,1.5047293269308677,,,0.5113665138247345,inf,,,0.9422869800984018
357,,0.0,0.0,1.726457387318415,1.7076565062201754,0.5063467040984436,2.1653097896991556,1.5594222005176723,,,0.585052858160615,inf,,,0.676017580191663
358,,0.0,0.0,1.7194188483635584,1.654687285920095,0.8189457896577358,1.8461859889494545,1.6488420365657441,,,0.4928685327679205,inf,,,0.9514945846335839
359,,0.0,0.0,1.6021509911330072,1.5611595230134527,0.38453476594153313,1.5341541710122828,1.080873721492686,,,0.5677978065141052,inf,,,0.6650517070350686
360,5.7037824746562,-5.7037824746562,0.0,1.7007506029573183,1.636318597459406,0.5840743377309264,2.799480896257342,2.5535280473647504,,,0.5677978065141052,5.703782474656201,inf,,0.7919591711736509
361,,0.0,0.0,1.6846845804455222,1.6278005713288841,0.610351316350415,1.7264221880533048,1.2608213295362294,,,0.585052858160615,inf,,,0.945381781070693
362,,0.0,0.0,1.7110364910712617,1.6949702400040192,0.5178211523724119,1.5084274891102107,1.1018768290821466,,,0.541134803179459,inf,,,0.9369444122920473
363,,0.0,0.0,1.5741758288217165,1.5302261503993009,0.5942190777962414,1.7704208893162512,1.3404392904045694,,,0.43586655696697996,inf,,,0.9242711261452922
364,,0.0,0.0,1.7201923853208587,1.717985481115519,0.698120936195338,2.2778769566184605,2.1244688090883357,,,0.44144624493110796,inf,,,0.9442734889857676
365,,0.0,0.0,1.767871073089291,1.7427661602998827,0.5964599433343292,2.449060426684026,1.3402426216052352,,,0.47824363442641393,inf,,,0.9534763007071301
366,,0.0,0.0,1.3210602955669273,1.3021375607907861,0.7176488378230752,1.8275065177660488,1.2984355919368986,,,0.49759852643134905,inf,,,0.9491119876669164
367,5.7037824746562,-5.7037824746562,0.0,1.549244751538659,1.5633534636273239,0.4638678335295292,2.030905842414589,1.3779437939693802,,,0.5158180382284114,5.703782474656201,inf,,0.6426990607472934
368,,0.0,0.0,1.5071673570145714,1.487681164438048,0.31614532096270553,1.6940812676271997,1.4934864468723268,,,0.5113665138247345,inf,,,0.8604432228614747
369,,0.0,0.0,1.741541724221415,1.7008067749346885,0.6345705839442107,2.015099384506637,1.6610505360451917,,,0.552929491858785,inf,,,0.9411752875229517
370,,0.0,0.0,1.6421251745415437,1.6081192785713194,0.4056391568907959,1.9400173317602465,1.7043544823320453,,,0.524519217297268,inf,,,0.649818066045385
371,,0.0,0.0,1.602993334582691,1.5887584264641237,0.5844970791236589,1.3301091197771426,0.9145827229656041,,,0.5113665138247345,inf,,,0.9300709589745549
372,,0.0,0.0,1.6655164767288042,1.6368149441362376,0.5340103103242307,1.5567927725286221,1.0545033083804551,,,0.585052858160615,inf,,,0.9476967923237345
373,,0.0,0.0,1.4030646214753066,1.3758952041892272,0.8260045425066113,2.0692404098639177,1.777777279837939,,,0.5068466436745385,inf,,,0.9454541293052553
374,,0.0,0.0,1.6667883660194744,1.6722730002334765,0.6531484504604139,2.121965987547326,1.809107311926606,,,0.5451288209179292,inf,,,0.908644017422377
375,,0.0,0.0,1.5773414505662195,1.5770704933851163,0.5124088012298633,1.557044913714695,1.5878632344303778,,,0.5567373465730988,inf,,,0.9511536998401905
376,,0.0,0.0,1.4730267178303986,1.478212300698019,0.582839802166102,1.9072072705356515,1.7687146588662996,,,0.5202020156036558,inf,,,0.9526638745253255
377,,0.0,0.0,1.4456262120386383,1.4295949258758949,0.6917708145131356,2.2612124269408085,1.9322939131581531,,,0.5068466436745385,inf,,,0.9135914326056432
378,,0.0,0.0,1.1133579400252924,1.1107135603006881,0.6544672850359678,2.1371048040039264,1.671755917599631,,,0.5783247308855777,inf,,,0.9066093539239967
379,5.703782474656202,-5.038341185946312,0.0,1.5228439109680783,1.4604881072842584,0.5414177849925482,1.9239925576155483,1.0696687348003475,,,0.5068466436745385,5.82783512332618,inf,,0.9123284023167967
380,,0.0,0.0,1.668190513793144,1.6192263056494154,0.47241945407633584,1.2782767987238528,1.023917880656,,,0.541134803179459,inf,,,0.8937924788567218
381,,0.0,0.0,1.5577241404934177,1.5293713746023727,0.6194080110288394,2.0571730065357063,1.7858315664859346,,,0.44694259446804574,inf,,,0.8974757181305103
382,5.7037824746562,-5.7037824746562,0.0,1.6226571987870362,1.5215477274840672,0.5520272480513181,2.654434888174293,2.5077058163962636,,,0.552929491858785,5.703782474656201,inf,,0.6062558803377486
383,5.7037824746562,-5.7037824746562,0.0,1.6126883274090555,1.5596312110410715,0.6990884886297458,2.294109067257319,1.8601630507635596,,,0.585052858160615,5.703782474656201,inf,,0.7899296568822127
384,,0.0,0.0,1.5753698763122952,1.5461547619936264,0.3392865453429635,2.078819414246874,1.6381151228036326,,,0.5287703885177266,inf,,,0.654356262036395
385,,0.0,0.0,1.5840678679672962,1.5854429858765462,0.621318149463434,1.333529100330371,1.0451440285390805,,,0.4732203808476458,inf,,,0.9378937817010012
386,,0.0,0.0,1.729340880337548,1.7224239139613475,0.593108130722995,2.3106958371746917,2.245080937645541,,,0.5604843169999094,inf,,,0.8053771242881932
387,,0.0,0.0,1.6418906499434167,1.6188904179158157,0.6697397800921234,1.6362276974639063,1.1155953576404027,,,0.5022576003740722,inf,,,0.9373039560302051
388,,0.0,0.0,1.7274942693752022,1.7218892937603074,0.6186950535306137,2.4744451937932417,2.6213717940580574,,,0.45235697871908603,inf,,,0.9475482070082256
389,,0.0,0.0,1.6478265704526542,1.6112735482805356,0.8858824915298104,2.3164279068574967,1.985091707644849,,,0.5022576003740722,inf,,,0.9466348646340428
390,,0.0,0.0,1.617393931330622,1.5830110146359675,0.6379591604205699,2.0082792297639713,1.2819563793521422,,,0.4928685327679205,inf,,,0.9436006876138128
391,,0.0,0.0,1.5844910611608733,1.53360609901814,0.6182075597076918,1.8997260981755917,1.4997365324304166,,,0.552929491858785,inf,,,0.9476454971133688
392,,0.0,0.0,1.6295487415494097,1.6119453060553313,0.8178438274138051,1.6377159838881077,1.7499208499711572,,,0.5113665138247345,inf,,,0.9412536444462496
393,,0.0,0.0,1.7258989761575578,1.6978502460129747,0.7347939513792238,1.7409162201496533,1.9380133141641298,,,0.5783247308855777,inf,,,0.9488692611365787
394,,0.0,0.0,0.06236667603779547,0.060621932697475886,0.5361183651141508,1.0695469045696298,0.4134457519516128,,,0.22807408875533447,inf,,,0.9507048957249529
395,4.424889420584975,-4.424889420584975,0.0,1.6237370880501019,1.5107044895233255,0.6029202002025041,1.8578820490277401,1.2877275696972026,,,0.541134803179459,4.415468521896514,inf,,0.9241255171541349
396,4.605170185988091,-4.605170185988091,0.0,1.6441718647652888,1.6238050227459806,0.7091713521985815,1.6524336448103711,1.0749504588379386,,,0.5370774965580548,4.605170185988091,inf,,0.6899679447238397
397,4.31748811353631,-4.31748811353631,0.0,1.1968836167454817,1.1888179091324023,0.7000283261425257,2.7278519012717135,1.8299446628601004,,,0.541134803179459,4.31748811353631,inf,,0.9104466504627118
398,5.535116660719948,-5.535116660719948,0.0,1.6540743203393071,1.6437994496838957,0.4582956696126202,1.8843320562231798,1.0130587718935293,,,0.5158180382284114,5.485986529668587,inf,,0.8437521578851024
399,4.605170185988091,-4.605170185988091,0.0,1.64256549006417,1.5568756584355734,0.7160527774276143,1.5820803604817635,0.6677017175643196,,,0.5202020156036558,4.605170185988091,inf,,0.8454324089068546
400,,0.0,0.0,1.2324390336539754,1.0826565635991603,0.3241877060267737,0.6340920531536094,0.3171385750059019,,,0.4732203808476458,inf,,,0.8013549366478261
401,,0.0,0.0,1.6987550357861205,1.6893367655106535,0.5086215937803866,0.2162251658856824,0.21843082594531146,,,0.4302020962658841,inf,,,0.934078452533325
402,,0.0,0.0,1.4801057980735033,1.4499216922590639,0.33350481583404523,0.8196101047188565,0.7266806231066032,,,0.5113665138247345,inf,,,0.96028694395639
403,,0.0,0.0,1.6428881165571716,1.618064708378761,0.33722850567433466,0.1648405330306945,0.15650485833271333,,,0.5451288209179292,inf,,,0.9499158075316788
404,,0.0,0.0,1.3476476154731958,1.353343852661097,0.22452155152361336,0.07201618993932636,0.04772225603574788,,,0.43586655696697996,inf,,,0.9432311383129608
405,,0.0,0.0,1.7414242765635888,1.705653991073908,0.671645256570014,0.04583181294970958,0.04750714990576397,,,0.4880666971167561,inf,,,0.8854468581520701
406,,0.0,0.0,1.7035402447787886,1.6948532381030792,0.8000058540218592,0.01452693660591305,0.019422718065840335,,,0.5022576003740722,inf,,,0.848051457705065
407,,0.0,0.0,1.5839922299600724,1.5905544652951178,0.7955106535384026,0.015569833267582595,0.020045034120193483,,,0.468121228110369,inf,,,0.8563530843796962
408,,0.0,0.0,1.534610266427055,1.5392220147367994,0.8045208925349058,0.017204770449356834,0.02370254355400099,,,0.40055318934786044,inf,,,0.8499613439907788
409,,0.0,0.0,1.5818292626549706,1.5712255526463401,0.8916839857907762,0.020935986819899954,0.03537092696242246,,,0.5068466436745385,inf,,,0.849640542406651
410,,0.0,0.0,1.5711228163647917,1.5546902469919663,0.902552026939831,0.01818162374802786,0.032529086487718226,,,0.3338418249889409,inf,,,0.8527637224519835
411,,0.0,0.0,1.5934943845367358,1.5813263166328335,0.907425814019676,0.0252734111166143,0.04353745915645326,,,0.5068466436745385,inf,,,0.8738400897367405
412,,0.0,0.0,1.4426792040989287,1.4032794612748016,0.41768735011642344,0.4714347018341952,0.2660162490960502,,,0.44694259446804574,inf,,,0.954652418523833
413,,0.0,0.0,1.3871425610472519,1.3153674591258302,0.8327905031145406,0.014070693426180609,0.022146160442108397,,,0.4880666971167561,inf,,,0.8297973622725094
414,,0.0,0.0,1.4650761724760093,1.475876746326557,0.29771576240946873,0.11432219419471512,0.06519947202596983,,,0.5113665138247345,inf,,,0.952927086790903
415,,0.0,0.0,1.3518535967376706,1.3361390608680266,0.9078953448130972,0.04353305967561321,0.08306769653540555,,,0.5068466436745385,inf,,,0.8450730469828573
416,,0.0,0.0,1.4572880706799167,1.4398829929927235,0.1809191316598414,0.14862782054200635,0.17270598843420304,,,0.44694259446804574,inf,,,0.9399409656803498
417,,0.0,0.0,1.4749448265440983,1.4050546234300603,0.44348679069954033,0.19272695559696207,0.22832501240241893,,,0.34100769111774265,inf,,,0.8957762098823318
418,,0.0,0.0,1.5170832200799413,1.517754541762685,0.9153606017801086,0.3158981882426777,0.5947565495117288,,,0.5158180382284114,inf,,,0.9111407523179383
419,,0.0,0.0,1.5407965535921564,1.5234617776940746,0.6426074345542651,0.22869966927559857,0.40786584553293226,,,0.4928685327679205,inf,,,0.9077060243098096
420,,0.0,0.0,1.6185847761808054,1.5895349975888151,0.6579824487194692,0.7908704265170295,0.8273924561546444,,,0.4302020962658841,inf,,,0.8865734256440477
421,,0.0,0.0,1.6441697744819659,1.6125347544294473,0.904689680928532,0.9155400375349751,0.9543598300005751,,,0.4928685327679205,inf,,,0.8660681589054745
422,,0.0,0.0,1.7410722990326792,1.6965963612815653,0.42901630718786354,0.15990345473890366,0.09464124010141886,,,0.44144624493110796,inf,,,0.9127476311055264
423,,0.0,0.0,1.7257884362950806,1.7010173628706244,0.8058564058794395,0.03578587661562257,0.06456215751036704,,,0.45235697871908603,inf,,,0.8711187223631695
424,,0.0,0.0,1.5859351481914006,1.5629564419373885,0.9512851486608951,0.048371243008849714,0.10176905429674973,,,0.4066654671944331,inf,,,0.8530081059120813
425,,0.0,0.0,1.6193422716091006,1.5074820792392818,0.9359245495174333,0.16486831742593835,0.29164540636330305,,,0.5068466436745385,inf,,,0.8746958596772775
426,,0.0,0.0,1.585806245510466,1.5126558851711347,0.8970379796502166,0.05531226100840335,0.11119298375841605,,,0.45235697871908603,inf,,,0.8769035509090656
427,,0.0,0.0,1.6599576528518425,1.6117109801219556,0.9005011326429628,0.053083889250346634,0.09561630596325174,,,0.3943459996787778,inf,,,0.8735028665045788
428,,0.0,0.0,1.650560078463802,1.6282356689400903,0.7426225966328064,0.2156700697770447,0.2549964884005786,,,0.48319206230712763,inf,,,0.8250176122714384
429,,0.0,0.0,1.5693939789237366,1.5504124385169864,0.8292291283544945,0.31913480795437704,0.370820331876652,,,0.541134803179459,inf,,,0.8517097893156684
430,,0.0,0.0,1.6697801420746212,1.5938961455327303,0.3856077614127727,0.16197351835534302,0.1388733106267968,,,0.44694259446804574,inf,,,0.9432242417477469
431,,0.0,0.0,1.6348543872692778,1.5948222917033423,0.9358503811771672,0.024655971738828233,0.05409807671827917,,,0.524519217297268,inf,,,0.8831840322678106
432,,0.0,0.0,1.383174172474658,1.349059858981219,0.9056106846532689,0.03211707971461609,0.06241440718650217,,,0.41861278947482794,inf,,,0.8613409217336083
433,,0.0,0.0,1.5402646973008567,1.3912598400354532,0.8702607020467206,0.23617565087727732,0.2757332884154442,,,0.4928685327679205,inf,,,0.9086378297603783
434,,0.0,0.0,1.5704188203476708,1.5430035146999266,0.9734753213069516,0.41454623774977184,0.7586101155569879,,,0.4302020962658841,inf,,,0.8922304210540408
435,,0.0,0.0,1.4394869402020583,1.392669765077152,0.3973177509061094,0.1567535478044625,0.2066308672590547,,,0.4880666971167561,inf,,,0.937912101587356
436,,0.0,0.0,1.307731513837002,1.3074112208688986,0.36633059194521655,0.029865833892619105,0.02883143403724138,,,0.5113665138247345,inf,,,0.904080075856386
437,,0.0,0.0,1.427578540106743,1.4161646585968437,0.7979542483543494,0.024909839884368366,0.04228317116489051,,,0.49759852643134905,inf,,,0.8483111652109456
438,,0.0,0.0,1.3760749151511313,1.3068500749625036,0.23784981153345525,0.15390100208749985,0.1298597522497261,,,0.41268473150466,inf,,,0.8973832828639892
439,,0.0,0.0,1.463964053789041,1.4369049150688857,0.8739893936017038,0.1261073888890597,0.20952853501273744,,,0.41268473150466,inf,,,0.9206906004742949
440,,0.0,0.0,1.5575848731694542,1.50484549477006,0.8857668675148163,0.1010441589356188,0.15401763833570245,,,0.45235697871908603,inf,,,0.9004383590495705
441,,0.0,0.0,1.4956577911512292,1.4721471758701277,0.9076426811237956,0.06905001895206357,0.09819869044513867,,,0.42445136339222655,inf,,,0.8750776379138837
442,,0.0,0.0,1.4759348208012877,1.4978426726035006,0.5086096516718009,0.11968040082799444,0.09813865930807307,,,0.4302020962658841,inf,,,0.9446252027429553
443,,0.0,0.0,1.4057942726547614,1.3859139912400364,0.8719930019691867,0.07007501209764053,0.0825570201452794,,,0.4576907132971797,inf,,,0.858765517613515
444,,0.0,0.0,1.666924572585307,1.6402679171600707,0.3804659730145282,0.2711154809957579,0.26876966169799,,,0.5329562494928909,inf,,,0.9038009943884494
445,,0.0,0.0,1.7550732896120653,1.637317469461513,0.7097283263236315,0.1778577228521269,0.30547641444457496,,,0.42445136339222655,inf,,,0.7297254530572895
446,,0.0,0.0,1.7341211558462852,1.5545546949217146,0.9470047882082647,0.6414587865375723,0.7262795478685878,,,0.45235697871908603,inf,,,0.8463142435132075
447,,0.0,0.0,1.713644152535633,1.6919664092075175,0.5263787200664023,1.172286078512524,0.5779811817830387,,,0.552929491858785,inf,,,0.9452058252770588
448,,0.0,0.0,1.755553189800608,1.721909204220469,0.6466898527492968,0.21891781205492306,0.22641935244161776,,,0.4629450596409901,inf,,,0.8808602953687117
449,,0.0,0.0,1.5697079089158308,1.5619355895565503,0.842646971718295,0.3100376452207507,0.34758005512224893,,,0.5022576003740722,inf,,,0.9027339330117077
450,,0.0,0.0,1.6604191127148133,1.633508319405428,0.8476185205514412,0.2782863767283507,0.27501745335509253,,,0.48319206230712763,inf,,,0.8675528828889281
451,,0.0,0.0,1.6354882262580626,1.5999090632298334,0.8769168212086413,0.3159236352743749,0.3530759826442199,,,0.468121228110369,inf,,,0.8493473713246413
452,,0.0,0.0,1.31611376299535,1.3026165389271889,0.6452745617154153,0.24556032950443035,0.2268183489644872,,,0.5068466436745385,inf,,,0.880049385735111
453,,0.0,0.0,1.5961962973406818,1.5903486362011712,0.8786438011158525,0.30027122511185744,0.36222842710483844,,,0.5068466436745385,inf,,,0.8917341585512613
454,,0.0,0.0,1.5154503026279678,1.4886793716867024,0.8760621423446187,0.290556188387259,0.3659475173851007,,,0.4629450596409901,inf,,,0.8854978368048803
455,,0.0,0.0,1.3926340549688274,1.3661784187062171,0.18614004400775674,0.37489480668867786,0.4375804755016706,,,0.4629450596409901,inf,,,0.9530206794052963
456,,0.0,0.0,1.5714084485333588,1.5239475137554062,0.5288657039691296,0.5199508479354922,0.6227057767149814,,,0.44144624493110796,inf,,,0.8834655791108423
457,,0.0,0.0,1.7452970145170572,1.6968571432717625,0.13004076514831037,0.07349010262431233,0.03363675098143348,,,0.5022576003740722,inf,,,0.9567398359980198
458,,0.0,0.0,1.7380427263754301,1.7421016092004598,0.8180483093574382,0.02492851838419068,0.04291901410449353,,,0.4880666971167561,inf,,,0.845495842662311
459,,0.0,0.0,1.756503778379765,1.7350871246366335,0.30803049804978505,0.07066796996742616,0.05238737428475615,,,0.4732203808476458,inf,,,0.9487524825544036
460,,0.0,0.0,1.7121287816708708,1.7120293351943463,0.32026211551275124,0.17659851705319354,0.20384370298585508,,,0.5022576003740722,inf,,,0.9052729456815024
461,,0.0,0.0,1.294847449903302,1.274029515154136,0.8520804828866982,0.2190931829542376,0.34430703374412164,,,0.4880666971167561,inf,,,0.8038345714421047
462,,0.0,0.0,1.4756952716616825,1.409584204307704,0.36792691778601705,0.3309711640962925,0.3483805159627121,,,0.4732203808476458,inf,,,0.9349497827811469
463,,0.0,0.0,1.7247900262893214,1.6847658017591998,0.7546942412806933,0.19365302219958436,0.252036894205682,,,0.49759852643134905,inf,,,0.8514828664297633
464,,0.0,0.0,1.5325210630568131,1.5349892575622834,0.8030444705612629,0.21820065216905493,0.23964623629313625,,,0.45235697871908603,inf,,,0.8754627369080737
465,,0.0,0.0,1.543868677879679,1.4931865063072114,0.8229562578449899,0.1975785839396815,0.2201547704351995,,,0.5113665138247345,inf,,,0.8649722947536317
466,,0.0,0.0,1.587640736648234,1.582867550047085,0.888619555696876,0.28149109614468676,0.3454072026708428,,,0.4880666971167561,inf,,,0.8929291253830933
467,,0.0,0.0,1.3726197473963349,1.3371287354275792,0.9228212065050052,0.48990036619658056,0.645160630259528,,,0.4576907132971797,inf,,,0.9225893658172697
468,,0.0,0.0,0.7920468212493936,0.7447571836109144,0.34895116486961075,0.33852062829199175,0.2956070656592746,,,0.44694259446804574,inf,,,0.9356466287123192
469,,0.0,0.0,1.6437700109568065,1.5659799623077253,0.6761492363395786,0.7074300424119175,0.46692527592077515,,,0.47824363442641393,inf,,,0.8815196394002967
470,,0.0,0.0,1.6951611952670655,1.6730986836808668,0.9175146567861969,0.6663149043425703,1.0313258159336072,,,0.4302020962658841,inf,,,0.8073611493863716
471,,0.0,0.0,1.5348564014587527,1.4530619366057238,0.9654183665044015,0.7708605891094032,0.9828955541624633,,,0.44144624493110796,inf,,,0.9096294988932281
472,,0.0,0.0,1.7515854896884013,1.675467619849498,0.34112102299375907,0.18224439065841858,0.15069563232930386,,,0.4928685327679205,inf,,,0.8925545841904355
473,,0.0,0.0,1.3510995129815941,1.3316828770182136,0.7873311825519884,0.08524473776364294,0.12783848830705002,,,0.4732203808476458,inf,,,0.8424832072288369
474,,0.0,0.0,1.6394022204908765,1.6080223124228228,0.8516243016124146,0.08688120075766419,0.16237074302547086,,,0.5490601803369085,inf,,,0.8243001125729911
475,,0.0,0.0,1.43490385715377,1.4312723848307125,0.2744845547127425,0.39883885968893873,0.35840126668797223,,,0.49759852643134905,inf,,,0.5950072122590793
476,,0.0,0.0,1.5812375064576192,1.557403409753188,0.6807640226760866,0.7475054785784353,0.6296847403461073,,,0.47824363442641393,inf,,,0.8540244487479279
477,,0.0,0.0,1.7520976192595477,1.7110733548951644,0.9409848194672512,0.6926724738339401,0.9415023248977104,,,0.38804190201132227,inf,,,0.8796784261950822
478,,0.0,0.0,1.6971255072048352,1.6667442151829415,0.7965474204984178,0.7317286934825246,0.8885638799255666,,,0.44144624493110796,inf,,,0.876133184026019
479,,0.0,0.0,1.6590436594954878,1.6314929105452483,0.5687821034747633,0.3948067761249455,0.5216849738838675,,,0.44694259446804574,inf,,,0.8799756528466172
480,,0.0,0.0,1.3141847712240025,1.2994930993031586,0.09089526355174836,0.38074338688597104,0.3962323155362278,,,0.44144624493110796,inf,,,0.9677351146500851
481,,0.0,0.0,1.586110162833001,1.5175714844815102,0.45221934844450523,0.8428353524199046,0.6875842083987327,,,0.4880666971167561,inf,,,0.9529779810101675
482,,0.0,0.0,1.4679321384663682,1.4645753460194437,0.4880313340325082,1.2950562103802339,1.3181512153194563,,,0.5022576003740722,inf,,,0.5736008574321096
483,,0.0,0.0,1.6053567164510634,1.5856215013001205,0.47135320214962606,1.7758610168555793,1.3364639670322942,,,0.581717464821069,inf,,,0.7013974348499529
484,,0.0,0.0,1.4385054579416754,1.409123943402514,0.692668699658929,1.474544445343315,1.1271209666329502,,,0.5158180382284114,inf,,,0.9316998780272334
485,,0.0,0.0,1.7226303247704924,1.6982387163203085,0.7735708140243203,2.5417426231178606,3.524939437119004,,,0.5022576003740722,inf,,,0.6465431151991246
486,,0.0,0.0,1.4978116705759772,1.4456177236752734,0.9073240518159116,2.045512290282189,1.8695217636272181,,,0.5451288209179292,inf,,,0.9239501152279355
487,,0.0,0.0,1.5312109643326073,1.4909528126178357,0.8478534059461205,1.2943570342955328,1.7028876242180684,,,0.4928685327679205,inf,,,0.8790437960562064
488,,0.0,0.0,1.5681557046512418,1.5227306332407153,0.8299075489370009,0.6285144814282806,0.7636262335039232,,,0.5287703885177266,inf,,,0.8230326807392363
489,,0.0,0.0,1.5843803525947422,1.5716581644102652,0.8084915361737507,0.5956547000714274,0.6156208085763675,,,0.49759852643134905,inf,,,0.9081966314821657
490,,0.0,0.0,1.5471208797242426,1.5149556359452965,0.6169481151241728,0.5424019474175054,0.622107415158146,,,0.5113665138247345,inf,,,0.9149628596962488
491,,0.0,0.0,1.6167971225805733,1.594512933287286,0.7107472894994047,1.032822024827103,1.085507619504389,,,0.5713653840954815,inf,,,0.9447121666002761
492,,0.0,0.0,1.755323595845449,1.7422962468021936,0.5864100245974982,0.662919151738293,0.6090403149153034,,,0.541134803179459,inf,,,0.9419543956156746
493,,0.0,0.0,1.7526183859263949,1.7356164287857638,0.8224313333352958,0.4103875290175853,0.5323221395292841,,,0.5202020156036558,inf,,,0.916379560459314
494,,0.0,0.0,1.7314040827054198,1.7390653487692664,0.4559565016965357,0.48582424700347226,0.45211039899764566,,,0.47824363442641393,inf,,,0.9419873336947976
495,,0.0,0.0,1.6501533861113344,1.5250505143767354,0.6323294920451269,1.1470080659295685,0.5791149015426549,,,0.47824363442641393,inf,,,0.9503700842584262
496,,0.0,0.0,1.5354641899872903,1.5263759664608856,0.6755498139510505,1.9820356708534634,1.596713280930338,,,0.5713653840954815,inf,,,0.7596403399545759
497,,0.0,0.0,1.716261134556412,1.6785770024724675,0.40805433382092193,1.6356787366737784,1.2785956028396352,,,0.5713653840954815,inf,,,0.5257695233687386
498,,0.0,0.0,1.5978777953365149,1.6023039136223522,0.7108130332199258,1.8885300524960769,1.580370479514728,,,0.5287703885177266,inf,,,0.9420005280185271
499,,0.0,0.0,1.5869629432137593,1.5300298240412957,0.5958072361728965,1.6550881296284545,1.219215878207674,,,0.5022576003740722,inf,,,0.9424825952363336
500,,0.0,0.0,1.6241641437055203,1.6154275785236314,0.7175655102905734,2.510096705521253,2.1767066690240724,,,0.5677978065141052,inf,,,0.9340434546649449
501,5.703782474656202,-2.129412123871649,0.0,1.7501739084794,1.7439847131620159,0.6970166526283399,2.0387327372000263,1.3430187619367717,,,0.5287703885177266,6.689066078017308,inf,,0.9452478403128729
502,,0.0,0.0,1.4327838959860297,1.4206708722960157,0.6538544981931499,1.661817376530032,1.370449865394901,,,0.43586655696697996,inf,,,0.9445690229474004
503,,0.0,0.0,1.4746174369333556,1.4518165407585677,0.64648598506577,2.5309072275256708,1.886265503211869,,,0.524519217297268,inf,,,0.9441794928874251
504,,0.0,0.0,1.6011890318917517,1.537796945064733,0.5613534017807043,1.7011687804586224,1.4819984810236437,,,0.47824363442641393,inf,,,0.9443606938520361
505,,0.0,0.0,1.030185447078853,1.017032729579394,0.35742913852871666,1.884730479485499,1.1922896755013186,,,0.581717464821069,inf,,,0.6880412142844536
506,,0.0,0.0,1.6618009296405247,1.6150724643653167,0.5540080355851035,2.2875438734835742,2.3329637610101126,,,0.41268473150466,inf,,,0.5837237475324244
507,,0.0,0.0,1.7420640126086016,1.7175134590243493,0.5031285316808025,1.8737724901623656,1.5374056031650345,,,0.5068466436745385,inf,,,0.9454989829436806
508,,0.0,0.0,1.4526021477657567,1.399593438860501,0.682544269334056,2.1085709564952104,1.879968581768933,,,0.5158180382284114,inf,,,0.9497627221822179
509,,0.0,0.0,1.5806120694390318,1.597161695399742,0.4264310550600906,1.5596999932258857,1.045950648372242,,,0.45235697871908603,inf,,,0.6765256130359327
510,,0.0,0.0,1.5841021201272834,1.5781638312078299,0.6345467420347864,1.0078940049981602,0.863230940333759,,,0.4880666971167561,inf,,,0.9481074609236293
511,,0.0,0.0,1.4302161897216847,1.4098577954632663,0.7644991313329459,2.030737066896632,2.121827225080208,,,0.5068466436745385,inf,,,0.8957407577279639
512,,0.0,0.0,0.46142802050401266,0.45056866706349347,0.676127149638838,1.6532921492798776,1.2755129729181953,,,0.1995021272786615,inf,,,0.8433336686348974
513,4.430643062034011,-4.430643062034011,0.0,1.5085287282968431,1.422754704900576,0.6702732108701104,2.2144687095017774,1.556322954849402,,,0.4302020962658841,4.420998489905975,inf,,0.7682779249140337
514,,0.0,0.0,1.5821167697447753,1.585764632566355,0.451308793621513,2.2147101084467673,1.6465747214033004,,,0.5604843169999094,inf,,,0.8166385078246304
515,,0.0,0.0,1.553345668529347,1.521114932065532,0.6649435044265297,1.745420883638605,1.3253633472567212,,,0.3751344627501719,inf,,,0.9340158682906654
516,,0.0,0.0,1.5181628381391703,1.4646984777328098,0.635456028787601,1.4227792150271077,1.0881714989159688,,,0.47824363442641393,inf,,,0.9484042595805815
517,,0.0,0.0,1.6057138536112676,1.582280913716335,0.5475327024166817,1.5130419795453012,1.1816648451735825,,,0.4928685327679205,inf,,,0.9510956729167187
518,,0.0,0.0,1.5778354474065877,1.5532485446440143,0.4590828384887484,1.011472207164231,0.8292309646413194,,,0.541134803179459,inf,,,0.9484418787140305
519,,0.0,0.0,1.6023071924062218,1.5735870985439466,0.627433097594653,1.6784934395294058,1.0017558050285498,,,0.541134803179459,inf,,,0.8941910319754115
520,,0.0,0.0,1.6303365299930808,1.6192211676280925,0.6242093319650678,2.0755427425723627,1.3163927591992102,,,0.44694259446804574,inf,,,0.8824773793136907
521,,0.0,0.0,1.3850304592627334,1.37821594060399,0.691544564240875,1.9793940584961058,1.665170475333582,,,0.5202020156036558,inf,,,0.941717576911849
522,,0.0,0.0,1.4978517874640462,1.4679992214616717,0.6246296941040339,2.4997504421375987,2.2418471498723433,,,0.4928685327679205,inf,,,0.6414491549479799
523,,0.0,0.0,1.6074571507315696,1.6075448806237729,0.32861608697664524,1.1101159636717173,0.8573885613669463,,,0.40055318934786044,inf,,,0.6917705335736034
524,,0.0,0.0,1.5093704810388338,1.4994978456985057,0.544169170125043,1.2301944941288756,0.8165459988153887,,,0.552929491858785,inf,,,0.9538727439268623
525,,0.0,0.0,1.683580451903175,1.6456381515958345,0.615416203159582,1.1009213323590803,0.9612898943166512,,,0.541134803179459,inf,,,0.9449915933739458
526,,0.0,0.0,1.6963159891044426,1.7064775727599428,0.659080693981066,1.697116569079774,2.0127649751711894,,,0.4880666971167561,inf,,,0.9515072749372576
527,,0.0,0.0,1.7065201097671496,1.6767067137140224,0.819462150229374,1.3642380806110461,1.2892959485419206,,,0.5022576003740722,inf,,,0.9477276176031382
528,,0.0,0.0,1.5299338264643039,1.4754755230691785,0.703560676300412,1.1367613572633026,0.8836567437212235,,,0.6008849035917525,inf,,,0.9520377902671409
529,,0.0,0.0,1.7469072566559576,1.7424759067865976,0.6717237760834835,1.2628814635293446,1.2909357388345188,,,0.468121228110369,inf,,,0.9534101641790003
530,,0.0,0.0,1.687447397134838,1.6371155109639852,0.8245366886188558,1.973154061173684,1.785702764348492,,,0.44694259446804574,inf,,,0.9225013732157556
531,,0.0,0.0,1.583581880616558,1.5698582742379024,0.771599459000864,1.7629144619885906,1.0343454860254095,,,0.5748741956352443,inf,,,0.9412853490985658
532,,0.0,0.0,1.6820380553255125,1.6407799668035339,0.6144653910085118,1.3747982614108363,1.170170351683906,,,0.48319206230712763,inf,,,0.9387590159373249
533,,0.0,0.0,1.740830354118851,1.6947087294800471,0.539983319684096,1.1336048516340687,1.0375899354736977,,,0.5158180382284114,inf,,,0.9411448638734647
534,,0.0,0.0,1.6139820448013698,1.6202587312483394,0.6695669970335208,0.860541718252718,0.6148865082216614,,,0.524519217297268,inf,,,0.8637052970892405
535,,0.0,0.0,1.722005036536129,1.67105124024024,0.47490830762625924,0.7870162089048613,0.5705098718533994,,,0.4066654671944331,inf,,,0.8930661251522344
536,,0.0,0.0,1.6565923979905468,1.6425293161742736,0.7271419114411356,1.692502255173732,1.3286841092824853,,,0.4576907132971797,inf,,,0.9475476343040623
537,,0.0,0.0,1.7597342595692145,1.6282590700404778,0.5149512657197438,0.5591260112394607,0.2824125452897531,,,0.4629450596409901,inf,,,0.9470766565738469
538,,0.0,0.0,1.5502092668534666,1.5170747714034833,0.7597819789423416,1.2845518421390314,0.9117506022472792,,,0.4880666971167561,inf,,,0.8492380721100875
539,,0.0,0.0,1.3137936032962363,1.2691029179680549,0.47633809012734907,0.9601153508493314,0.7402458097181607,,,0.5113665138247345,inf,,,0.9212341780654487
540,,0.0,0.0,1.735351905415461,1.7145679483641234,0.5597415415805566,1.2467668696431158,0.7120395209821047,,,0.4302020962658841,inf,,,0.9453396028758836
541,,0.0,0.0,1.5879922309523737,1.5319186095843855,0.6624521990645588,1.1238624073087513,0.7802947542440009,,,0.45235697871908603,inf,,,0.9257727558619305
542,,0.0,0.0,1.7009819623628728,1.6604792360277254,0.6264373687161905,0.9761847001084403,0.6145533025588753,,,0.5783247308855777,inf,,,0.9318088692229415
543,,0.0,0.0,1.5988200704179367,1.5435275251501048,0.58364162751731,0.9252115009485418,0.5072429466079691,,,0.468121228110369,inf,,,0.9497990281338361
544,,0.0,0.0,1.5103670567261966,1.4977239217465732,0.5804185865102929,0.8754703463207264,0.5373294390191984,,,0.5370774965580548,inf,,,0.9452727437364975
545,,0.0,0.0,1.6560062676738134,1.5927139007699858,0.573738575619276,1.2938982192219448,0.7831598660524319,,,0.5604843169999094,inf,,,0.9480284351838804
546,,0.0,0.0,1.6839344806707106,1.6879490632601388,0.6090220882207434,1.295126069008085,0.8257167922373998,,,0.4928685327679205,inf,,,0.9525246647466863
547,,0.0,0.0,1.775951368700508,1.7830162685903401,0.6227165166232952,1.7074937893126583,1.2426352696477916,,,0.552929491858785,inf,,,0.9506655768465807
548,,0.0,0.0,1.5409051068146038,1.5292906378779392,0.5944658745480775,1.8508828612649435,1.229889109474837,,,0.524519217297268,inf,,,0.954423682045947
549,,0.0,0.0,1.6603096198053222,1.619759126851165,0.616420249060973,1.1755504774147982,0.9892891972051314,,,0.5158180382284114,inf,,,0.9389210768433771
550,,0.0,0.0,1.7222464722559256,1.7084472544695526,0.6576524895785106,1.7349196382429672,1.222336190583205,,,0.5490601803369085,inf,,,0.9467091155945394
551,,0.0,0.0,1.2823900935712929,1.1798624026185398,0.5250982674810387,1.1867487901661284,0.9035637111663088,,,0.552929491858785,inf,,,0.9230033310301313
552,,0.0,0.0,1.5417090949476808,1.5023290765863235,0.6540161147439351,1.3610122469522916,0.9928805038998163,,,0.5068466436745385,inf,,,0.8888547479677967
553,,0.0,0.0,1.6589948878901137,1.635871946801134,0.8283618205831916,3.409065069951978,5.348043911107908,,,0.5883313578629602,inf,,,0.9286378637288303
554,,0.0,0.0,1.4516172044399336,1.4269790816587755,0.8577918087735423,2.3117390414205214,1.4394686072892733,,,0.5287703885177266,inf,,,0.9396217511057201
555,,0.0,0.0,1.485650555247442,1.4562416503802829,0.7474374754860864,1.91991035163685,1.7371331983339615,,,0.541134803179459,inf,,,0.9418724496149609
556,5.010635294096255,-5.010635294096255,0.0,1.677679855282989,1.6445295006687375,0.6696239913720684,2.8780621446794683,2.4967026543940474,,,0.5748741956352443,5.0106352940962555,inf,,0.852374607489505
557,5.7037824746562,-5.7037824746562,0.0,1.6278519938071443,1.6422743336610799,0.5931801413463045,2.181250776211046,2.6034522148411425,,,0.5490601803369085,5.703782474656201,inf,,0.9381321285118353
558,,0.0,0.0,1.356698979552717,1.2910577408109223,0.5870900019964762,2.1084252381536484,2.1289069587598446,,,0.5604843169999094,inf,,,0.9486760253382722
559,,0.0,0.0,1.7152827230575725,1.6593162045503387,0.6949952362749288,2.253345867648606,2.2405209656839036,,,0.5370774965580548,inf,,,0.9423626948687793
560,5.7037824746562,-5.7037824746562,0.0,1.5749629809087982,1.560333554864203,0.7460773106895163,2.0128860176735666,1.7457038713541384,,,0.5451288209179292,5.703782474656201,inf,,0.9471895852764416
561,,0.0,0.0,1.4874346712450723,1.4693237228023952,0.6533731937480388,1.0103384884594102,0.5687812970562913,,,0.5158180382284114,inf,,,0.9299353603412763
562,,0.0,0.0,1.6140856517170208,1.5975403853418766,0.770075265306441,1.2108267833978694,1.3580317212779691,,,0.5202020156036558,inf,,,0.9418183045114502
563,,0.0,0.0,1.6640935114743225,1.6622894972144833,0.6554683132784942,0.8703111758052243,1.0484747806613288,,,0.45235697871908603,inf,,,0.8680712202167896
564,,0.0,0.0,1.7607360157633596,1.7460327372147098,0.586268777759422,0.606187362860934,0.5595244150586037,,,0.4576907132971797,inf,,,0.8618685144088314
565,,0.0,0.0,1.6309564747331746,1.6278135014408492,0.5158348858041185,0.8422908587945471,0.5619316468359459,,,0.5641709578113449,inf,,,0.9524516082683933
566,,0.0,0.0,1.6146456921740366,1.541987832739959,0.5057925165175452,1.2796063258089847,0.9807046921123599,,,0.541134803179459,inf,,,0.9538548527143915
567,,0.0,0.0,1.67217415657179,1.5212177399480782,0.3628875049054343,0.874124895489506,0.5969554219830626,,,0.5451288209179292,inf,,,0.9533175684702903
568,5.7037824746562,-5.7037824746562,0.0,1.7142477873328739,1.688969062807381,0.30925135757027133,0.7447805475850549,0.7184700343874517,,,0.4928685327679205,5.703782474656201,inf,,0.6869904964871117
569,,0.0,0.0,1.2615482079148344,1.241569983408953,0.3543294669022317,1.620728141580109,1.2716206806793209,,,0.5978297680564633,inf,,,0.6115803089948556
570,,0.0,0.0,1.752373931289763,1.6998456907481496,0.4655787271417805,0.8617260636959049,0.45851271297881724,,,0.48319206230712763,inf,,,0.9397187728236326
571,,0.0,0.0,1.3670506773601305,1.3273369380133975,0.6415500075900155,1.106789568327798,0.6976845293199898,,,0.5287703885177266,inf,,,0.9503469171391148
572,,0.0,0.0,1.5315419866718767,1.5134834691581043,0.483606264467003,0.5864778305966684,0.45957655098397476,,,0.5748741956352443,inf,,,0.91056986162023
573,,0.0,0.0,1.3094406985638285,1.2287856036106244,0.3475035075360891,1.4153785488898427,1.3619154124283734,,,0.5370774965580548,inf,,,0.7878426832998673
574,,0.0,0.0,1.6721605225855751,1.62687908764801,0.7299229516986173,1.3657985871887846,1.0510816312303635,,,0.5158180382284114,inf,,,0.8759688378193747
575,,0.0,0.0,1.5676963984541166,1.5399964499341732,0.5038142627121507,0.9504090949053028,0.7094435460259131,,,0.524519217297268,inf,,,0.9260318914921499
576,,0.0,0.0,1.7031396924534583,1.6731961737475325,0.6455937131881514,1.0644238167418638,0.4821882501235055,,,0.5329562494928909,inf,,,0.9214149388805318
577,,0.0,0.0,1.5066756626023303,1.5091023236396655,0.7442480722798201,1.4396437313934658,0.8454884609995843,,,0.5329562494928909,inf,,,0.9243648413248374
578,,0.0,0.0,1.6217465658052426,1.567567279822429,0.7240344537599027,1.7072144215881193,1.1745000531804253,,,0.49759852643134905,inf,,,0.940735558295185
579,,0.0,0.0,1.5063070530638356,1.4681798234934997,0.693777206464542,2.1770098188104936,1.368821737528871,,,0.48319206230712763,inf,,,0.9427736373344769
580,5.509701264099416,-5.509701264099416,0.0,1.2861512731829123,1.2764895996185204,0.6370727745389888,2.1290223462385613,1.1534646377520312,,,0.5287703885177266,5.456922396724675,inf,,0.9527460750304866
581,,0.0,0.0,1.328402390062857,1.3108178588334543,0.6124375297942417,1.3914934114521156,0.6844950757243788,,,0.5158180382284114,inf,,,0.833680220852087
582,,0.0,0.0,1.574258109937844,1.5771569574977147,0.4840518871110496,1.9701976918521626,1.4366867399337633,,,0.5158180382284114,inf,,,0.8620571606196363
583,,0.0,0.0,1.6718903551972955,1.637659684338819,0.6226454300287966,1.3654183367698922,1.3206595365109866,,,0.4928685327679205,inf,,,0.9357289372292159
584,,0.0,0.0,1.3707318967640465,1.3565014259025578,0.5970673660657458,1.9312753227431838,1.5603282307999342,,,0.5641709578113449,inf,,,0.6909499143076323
585,,0.0,0.0,1.731493112018039,1.6903977891030963,0.7511901138731978,1.9325013462709761,1.245003783535044,,,0.6068309995095971,inf,,,0.9292040657880848
586,,0.0,0.0,1.480478083559451,1.4252415060283687,0.6916661202309313,1.8191172218421663,1.441249169788375,,,0.5783247308855777,inf,,,0.9062108617982001
587,,0.0,0.0,1.1962609832051068,1.1863485046173634,0.540937966795634,1.7106642668702432,1.7935194905969882,,,0.5677978065141052,inf,,,0.8950745167383618
588,,0.0,0.0,1.6375261781636254,1.5919056894948718,0.7279578823976136,2.233399783250077,2.014598737522057,,,0.5641709578113449,inf,,,0.9493980108955133
589,,0.0,0.0,1.7431290933811177,1.7269856768571878,0.5292974800499736,1.6261720098525971,0.8392399594411575,,,0.5604843169999094,inf,,,0.849199388767732
590,,0.0,0.0,1.6427094485442049,1.5743200512300115,0.5910590312771,1.7728729868023048,1.1547060410304892,,,0.5978297680564633,inf,,,0.7505147641018929
591,,0.0,0.0,1.6030068442375063,1.5340390092793958,0.6323549409554645,1.6062941298025093,0.8798868395286015,,,0.5947193981915972,inf,,,0.9448174635413638
592,,0.0,0.0,1.692741513364631,1.6625095554070044,0.663852329382496,1.4705050803559887,1.2347216227722597,,,0.5567373465730988,inf,,,0.9398135123636412
593,,0.0,0.0,1.483061102530293,1.375562773925043,0.591959719169221,0.721572699682786,0.38973139745976226,,,0.541134803179459,inf,,,0.9161745332378621
594,,0.0,0.0,1.5046747130785514,1.4668257598713008,0.5764944804822372,0.7112644645261752,0.439728350315967,,,0.4928685327679205,inf,,,0.8444203420370106
595,5.042982162522385,-5.042982162522385,0.0,1.6874495538677077,1.6593300468123429,0.378752826950893,1.4576638030360194,0.9455518296483529,,,0.5329562494928909,5.03424515973539,inf,,0.9283425602379862
596,,0.0,0.0,1.6002447312186703,1.564540028675845,0.5294937220748044,1.404820246117531,1.255493551806911,,,0.5287703885177266,inf,,,0.7012285323788959
597,,0.0,0.0,0.9942776196969738,0.9627635281721657,0.7818045041368114,2.192209032576893,1.619033924946398,,,0.5748741956352443,inf,,,0.9484084046765632
598,,0.0,0.0,1.4462397588478793,1.4082796010307492,0.6997263742704978,2.5011343048688035,1.3917301578408687,,,0.5604843169999094,inf,,,0.9499868927243775
599,,0.0,0.0,1.575995898967907,1.5467123454021836,0.5308610264092313,2.2181079796345093,1.44928812220842,,,0.5329562494928909,inf,,,0.7736209836789223
600,,0.0,0.0,1.591330929530345,1.5990260275401627,0.4752654343154314,1.0337835200282517,0.6484768856155041,,,0.5158180382284114,inf,,,0.6922047024712709
601,,0.0,0.0,1.6723703752912233,1.6133916636141772,0.5100332292239111,1.389036035283098,0.9047659177417029,,,0.5567373465730988,inf,,,0.9491899888222496
602,5.010635294096255,-5.010635294096255,0.0,1.595697724319347,1.5891358117233623,0.3420088064326314,1.2896417382123015,0.9437979180524192,,,0.5287703885177266,5.0106352940962555,inf,,0.6806990018046638
603,,0.0,0.0,1.6020664572705725,1.5584752058915683,0.653009384739923,0.9958436905877037,0.8092785887094399,,,0.5158180382284114,inf,,,0.8989598190289603
604,,0.0,0.0,1.6372900489305882,1.5981968821928425,0.7238990047915406,1.0746375940819461,0.8064118177108763,,,0.41861278947482794,inf,,,0.9532351964598784
605,,0.0,0.0,1.3395215765686168,1.298876496636336,0.7164741738113575,1.717011160961694,1.1920881562512256,,,0.47824363442641393,inf,,,0.9482494915122555
606,,0.0,0.0,1.5920171773179717,1.5276606160352002,0.6779313236895959,1.1063471914232472,0.8249479929350945,,,0.4880666971167561,inf,,,0.9328077267189889
607,,0.0,0.0,1.548079290772479,1.4614467139594316,0.6435879721612167,0.929136311467099,0.6550959384995897,,,0.5490601803369085,inf,,,0.9020633567539182
608,,0.0,0.0,1.5312496019071706,1.5165800837970191,0.7264533295369515,1.3164817434273541,1.0737355867618503,,,0.524519217297268,inf,,,0.9245138048419095
609,,0.0,0.0,1.1265185413709258,1.093216547209463,0.6131024711353827,1.362442879002874,0.7983114840193948,,,0.47824363442641393,inf,,,0.9439683940156642
610,,0.0,0.0,1.4932640147063032,1.4812998225763385,0.6407408438618234,1.8748595827933923,1.1813450815738038,,,0.541134803179459,inf,,,0.9304686351643996
611,,0.0,0.0,1.6221421211777218,1.6079088001736273,0.5717791567874939,1.417685642072667,0.967796031210953,,,0.4732203808476458,inf,,,0.9064500728938263
612,,0.0,0.0,1.3300979238940227,1.298790194890969,0.6999944510740173,1.1119212830206873,0.8304007629253398,,,0.4880666971167561,inf,,,0.9295872342372602
613,,0.0,0.0,1.6747435223179292,1.6175024882102256,0.47901152188917107,1.1279260341255921,0.8381339675630761,,,0.5287703885177266,inf,,,0.9474134086168337
614,,0.0,0.0,1.6852144540799383,1.6657785491130517,0.5803537725321325,1.8583626091482883,1.046029980887224,,,0.5748741956352443,inf,,,0.9316072407201322
615,,0.0,0.0,1.5776385746494874,1.5229678890065044,0.7813633898683849,1.8623022979242756,0.9555782656619682,,,0.5641709578113449,inf,,,0.9305033278631293
616,,0.0,0.0,1.4439138984792423,1.4123845063524256,0.6757852685529282,1.4770946542766792,1.3241292069882153,,,0.5451288209179292,inf,,,0.9443258662571876
617,,0.0,0.0,1.7078855903556485,1.6844894486704836,0.17344705713182904,0.9938748338088772,0.8696726707400795,,,0.5567373465730988,inf,,,0.7110611240214426
618,,0.0,0.0,1.7149978202180112,1.6771347836645598,0.5281033154716557,1.4221893254172475,0.9644675792436781,,,0.5329562494928909,inf,,,0.8468306159095723
619,,0.0,0.0,1.5677027305650004,1.540578446263132,0.5928801272372125,1.753442969404067,1.0587721528202891,,,0.4732203808476458,inf,,,0.9510232636669739
620,,0.0,0.0,1.4315556720499567,1.4242686780142686,0.5659512798069595,2.1826858207474356,1.4587582417690053,,,0.585052858160615,inf,,,0.9471199501854857
621,,0.0,0.0,1.7134386651521138,1.6351954917959044,0.6240546601761793,1.627743823000746,1.4901033880888996,,,0.4928685327679205,inf,,,0.9397918944052476
622,,0.0,0.0,1.5133848371180754,1.4910828110192207,0.6904840704869654,2.103591559382933,1.3879561337223505,,,0.5677978065141052,inf,,,0.953556190534291
623,,0.0,0.0,1.6017512086283743,1.6035988081251664,0.8611130238758744,2.2847190449766153,1.9118663457872604,,,0.585052858160615,inf,,,0.9412265639078996
624,,0.0,0.0,1.4623681747806287,1.4518991782587831,0.5761004963141022,1.845884419046066,1.395668886148916,,,0.4880666971167561,inf,,,0.9361489679961
625,,0.0,0.0,1.2289467267497984,1.2115574461921892,0.8330806805414083,2.1259010775382015,1.7123192719595566,,,0.45235697871908603,inf,,,0.9459076784410421
626,,0.0,0.0,1.6581308037193092,1.6161408601348175,0.7137156161772903,2.2322950430502355,2.5770166054050887,,,0.5329562494928909,inf,,,0.9490660928520929
627,,0.0,0.0,1.7252527452774158,1.7312334097427,0.6141988013009679,2.102531976609735,1.8257734367025815,,,0.4732203808476458,inf,,,0.9232269263548365
628,,0.0,0.0,1.5983369950585589,1.524546479004904,0.6441521100900488,1.4795788137488326,1.0380391838290335,,,0.5604843169999094,inf,,,0.9035293801620689
629,,0.0,0.0,1.6547943614648621,1.6392367914131087,0.5889018432626442,1.121659096253691,0.9768410326328945,,,0.5567373465730988,inf,,,0.9569872318307502
630,,0.0,0.0,1.6271640656268347,1.5445152733441594,0.7693483787645126,2.3077052894414907,1.4375068679728975,,,0.5370774965580548,inf,,,0.9497816019197731
631,,0.0,0.0,1.715952072003702,1.6883878330436013,0.7085693760005524,1.997112253544758,1.7973819457278348,,,0.552929491858785,inf,,,0.9513507403471541
632,,0.0,0.0,1.7014621062171853,1.7035702397524175,0.5555085736832892,1.9348543670096952,1.1674470119852807,,,0.5451288209179292,inf,,,0.6743593841125444
633,,0.0,0.0,1.2529585385370359,1.228962561123012,0.6482225473082264,2.4289765302206465,3.3271226307718047,,,0.5978297680564633,inf,,,0.9423428495478707
634,,0.0,0.0,1.6035677818993053,1.5671953983232552,0.8114534285297977,2.1283412084288056,2.313913564024761,,,0.5783247308855777,inf,,,0.94676005920401
635,,0.0,0.0,1.6045555287904587,1.559952960676642,0.5025453995051449,0.9140674482556318,0.7201755288757956,,,0.5158180382284114,inf,,,0.9306448321467234
636,5.703782474656201,-0.17111347423968604,0.0,1.0799992305754464,1.0639563813193194,0.32718247976506454,0.6131977320679325,0.3327116687147066,,,0.4576907132971797,9.210340371976182,inf,,0.6632835744041726
637,,0.0,0.0,1.537901565717689,1.5130189904757032,0.7658839240143701,2.501184749249387,2.228299865378258,,,0.5748741956352443,inf,,,0.6114795837784146
638,,0.0,0.0,1.6571792844751891,1.6074590593407636,0.6963186749142876,1.8626128249045746,1.067800089055214,,,0.5068466436745385,inf,,,0.9487197145980668
639,,0.0,0.0,1.2758629532735084,1.249817504119062,0.5368069826719252,0.7356457173148584,0.45783328790459266,,,0.4576907132971797,inf,,,0.9429802158367508
640,,0.0,0.0,1.4524906806649946,1.4207395389008075,0.6162521043162098,1.6973242327688993,1.550232489419381,,,0.4928685327679205,inf,,,0.838484414841702
641,,0.0,0.0,1.5057286651580504,1.4881490106933224,0.6477267640186471,1.9638113198344203,1.5844484648645323,,,0.541134803179459,inf,,,0.8782592582878068
642,5.7037824746562,-5.7037824746562,0.0,0.9611169106303623,0.9553129097897834,0.5324425447317427,2.181126789899317,1.8048494985843058,,,0.5158180382284114,5.703782474656201,inf,,0.6830275604921101
643,,0.0,0.0,1.5128883492046483,1.4805671933064033,0.651957541184323,1.099972164790512,0.4431473513700126,,,0.552929491858785,inf,,,0.9323742338436325
644,,0.0,0.0,1.671419775296894,1.637995435637285,0.6103864559123704,1.2938464017598095,0.5226499655870624,,,0.49759852643134905,inf,,,0.9521540979323607
645,,0.0,0.0,1.6865972155769002,1.6313995654882314,0.4108999794400005,0.4344587773245477,0.203243447903516,,,0.4576907132971797,inf,,,0.9517682180060681
646,5.703782474656204,-4.544013371476108,0.0,1.271813908511061,1.1092141830145086,0.6158111072712917,1.0867595814479314,0.34580140038841267,,,0.5202020156036558,5.931101397380892,inf,,0.9413516699598592
647,,0.0,0.0,1.6993274756759318,1.7004020130441246,0.6211130046042471,2.4379490253262053,2.5262419716607716,,,0.5713653840954815,inf,,,0.715897213954904
648,,0.0,0.0,1.5155289786917923,1.507584043319933,0.6523225292201249,2.034946919566193,0.9034963127740641,,,0.5329562494928909,inf,,,0.9333750111770803
649,,0.0,0.0,1.643649307528193,1.6233041269060455,0.6677873230789599,2.0291757187637205,1.046234297722214,,,0.5748741956352443,inf,,,0.9087095716449416
650,,0.0,0.0,1.7278945367891851,1.7263474630282614,0.7760260026949016,2.0691917414705614,1.1825362316349617,,,0.49759852643134905,inf,,,0.9070516708010631
651,5.703782474656201,-0.03802521649770801,0.0,1.6685018182189757,1.6119223796717495,0.7141361975588211,2.553187584114797,1.774623557883741,,,0.6309483474627791,10.714417768752456,inf,,0.9462266431756879
652,,0.0,0.0,1.7018864699599625,1.660802944923321,0.8667049061928861,0.34361595763636527,0.6109015604890229,,,0.4629450596409901,inf,,,0.9138559552685841
653,,0.0,0.0,1.6675034331366114,1.6692183252314066,0.4405311755590118,0.24275353035435357,0.39276915731251294,,,0.4629450596409901,inf,,,0.9173309557549556
654,,0.0,0.0,1.616435726351011,1.5350389106880264,0.3172612378865219,0.21463675838788426,0.3002836815586487,,,0.45235697871908603,inf,,,0.9556980485618152
655,,0.0,0.0,1.357082857004949,1.3249863851526815,0.9085048012108418,0.11408846624662061,0.20840171788476264,,,0.5370774965580548,inf,,,0.8473149267669218
656,,0.0,0.0,1.4339165850580038,1.4014416457940095,0.8819196808848303,0.1879831626161295,0.28783515790385783,,,0.468121228110369,inf,,,0.8965286809778036
657,,0.0,0.0,1.5620932699470926,1.5546851475509211,0.7702858010096808,0.1256746121984289,0.18665605508459174,,,0.468121228110369,inf,,,0.8861441024109258
658,,0.0,0.0,1.7671832925432827,1.768648757443211,0.6605564150242738,0.17998894046525563,0.28782602643497496,,,0.524519217297268,inf,,,0.9063947623842122
659,,0.0,0.0,1.7501893744666916,1.7543007944862599,0.8406582865379516,0.22158380782829504,0.2965167623578425,,,0.5068466436745385,inf,,,0.8884823231065784
660,5.703782474656202,-0.5133404227190581,0.0,1.4517199872440862,1.3968163644537868,0.45817687930883677,1.0581516976880456,0.4996481596817812,,,0.43586655696697996,8.111728083308073,inf,,0.9501771097997628
661,,0.0,0.0,1.6748804568519342,1.6637884047522475,0.4636054288002185,0.2910990788307001,0.3327773398999714,,,0.4732203808476458,inf,,,0.9061439933844947
662,,0.0,0.0,1.5179070525008207,1.4897523524347553,0.7379450208584327,0.06558684746302752,0.07337793944320611,,,0.4880666971167561,inf,,,0.8049027444192058
663,,0.0,0.0,1.4615433751937263,1.446450306767312,0.7262707498642829,0.023948124306722923,0.028572841333407737,,,0.5113665138247345,inf,,,0.8239811763481129
664,,0.0,0.0,1.3282055804872643,1.3135296653616235,0.8733991157455847,0.017908506055094822,0.023489859094380717,,,0.44144624493110796,inf,,,0.8139425992454171
665,,0.0,0.0,1.32488461781496,1.3000789974685147,0.805976550691476,0.037917878199239384,0.05123554155477972,,,0.468121228110369,inf,,,0.8777053830141259
666,,0.0,0.0,1.4879027377670913,1.479895371035958,0.8425737153162742,0.13326239500198933,0.16699257458731423,,,0.4732203808476458,inf,,,0.8626797669667501
667,,0.0,0.0,1.7014028990711363,1.651634484168439,0.8377978361051996,0.10760925849455212,0.15366890613997394,,,0.4880666971167561,inf,,,0.8355244907969024
668,,0.0,0.0,1.6907944749735822,1.6807382642642854,0.2414418524406831,0.16884335787457838,0.09259249044016435,,,0.3943459996787778,inf,,,0.9466147229765981
669,,0.0,0.0,1.5699359881149477,1.5231222930879316,0.8848129796249103,0.1562696932177678,0.21741700735473005,,,0.44144624493110796,inf,,,0.8866127682760391
670,,0.0,0.0,1.7760279569497563,1.7447870454897416,0.7596454385145222,0.1198297158479181,0.12436259870718827,,,0.5113665138247345,inf,,,0.8594069711954972
671,,0.0,0.0,1.7700625674775778,1.7139509613702208,0.4674363904456064,0.0895458214011855,0.0853085803459619,,,0.4732203808476458,inf,,,0.9081581348241227
672,,0.0,0.0,1.7469427787733511,1.7117342346659425,0.30374695882802105,0.1661237886441561,0.18652368516229545,,,0.5113665138247345,inf,,,0.9622926379552597
673,,0.0,0.0,1.5809556551214947,1.5674916535629186,0.4006494650554667,0.1521821950013625,0.18040604952297007,,,0.4928685327679205,inf,,,0.9352164324427643
674,,0.0,0.0,1.6558059418307725,1.6207986705617392,0.47447033451292264,0.2984433003216166,0.2099981179771701,,,0.4732203808476458,inf,,,0.9383129891285925
675,,0.0,0.0,1.7458274072534592,1.7467094446634532,0.8062953188726415,0.17273054865811757,0.2233297591018746,,,0.41268473150466,inf,,,0.8602077825635692
676,,0.0,0.0,1.776254964681247,1.7355163724359208,0.8303233593054854,0.2216376178661537,0.2742811253508761,,,0.4928685327679205,inf,,,0.8727574868482497
677,,0.0,0.0,1.7027740321071159,1.6624221253941653,0.12205312744403708,0.2608777346023791,0.2274984617201432,,,0.41861278947482794,inf,,,0.9674555692462328
678,,0.0,0.0,1.755742714126672,1.734706829932555,0.820844076819532,0.09641301456928857,0.11912554796527831,,,0.49759852643134905,inf,,,0.8216037434545432
679,,0.0,0.0,1.6704256438828473,1.6295518265459779,0.28106663600994064,0.3415239179388049,0.18730943696631974,,,0.5287703885177266,inf,,,0.9603911620299547
680,,0.0,0.0,1.5802828413443126,1.5621887092628433,0.23195867512639287,0.3023183133702207,0.3657247087285112,,,0.44694259446804574,inf,,,0.8177714603963067
681,,0.0,0.0,1.5900824946976015,1.489265163839513,0.2593896044193025,0.18383176053490313,0.17952411890146883,,,0.5202020156036558,inf,,,0.6831720479440435
682,,0.0,0.0,1.4664068247110154,1.4209415407022565,0.8281494411451934,0.07417227543432504,0.10817579156726832,,,0.5490601803369085,inf,,,0.8093981712984485
683,,0.0,0.0,1.3156208350393659,1.2825701322306533,0.8317094064234714,0.09336324885881526,0.13102444882376285,,,0.5113665138247345,inf,,,0.818371652177422
684,,0.0,0.0,1.7163744068047628,1.693087848283865,0.7734996461342454,0.10206068428382532,0.14750766342495955,,,0.47824363442641393,inf,,,0.8485230640033758
685,,0.0,0.0,1.6989588488169691,1.6688222352139974,0.832289696190413,0.11341836620769488,0.17451834938732966,,,0.49759852643134905,inf,,,0.8374547178846177
686,,0.0,0.0,1.50707308733255,1.4626583574153114,0.852598268380041,0.17761689372300937,0.25847028438260344,,,0.524519217297268,inf,,,0.8673370791351707
687,,0.0,0.0,1.6124308712461013,1.5787786936285773,0.9296021799657816,0.4028182480958346,0.7031317038147671,,,0.41861278947482794,inf,,,0.9050398918675028
688,,0.0,0.0,1.6575471454435986,1.6022916728018022,0.937265316209164,0.2723081343580834,0.5059550383023035,,,0.49759852643134905,inf,,,0.8914683876405869
689,,0.0,0.0,1.2538029781905509,1.1605252786917664,0.5399055374689694,0.2567040284361902,0.25452159562599674,,,0.44694259446804574,inf,,,0.9246970201820625
690,,0.0,0.0,1.6674205158549882,1.655975962168552,0.869093540751098,0.2413625464263129,0.3592333958076007,,,0.4302020962658841,inf,,,0.8817575777576134
691,,0.0,0.0,1.6427168027222523,1.5803162765199572,0.29451200385737886,0.13304649823677214,0.11780968415511797,,,0.4629450596409901,inf,,,0.9415654970805041
692,,0.0,0.0,1.5468128099604987,1.5536161003026303,0.2079519889466735,0.32453718291058253,0.34219447607670483,,,0.48319206230712763,inf,,,0.9666413178352272
693,,0.0,0.0,1.6416849335020562,1.621227955603875,0.9183262705496851,0.44150779695738623,0.6698568077631923,,,0.4066654671944331,inf,,,0.8894975549315234
694,,0.0,0.0,1.5577108855299238,1.5314777757059908,0.9172474140253402,0.48357819488762693,0.738253602756682,,,0.42445136339222655,inf,,,0.9153845560618021
695,,0.0,0.0,1.4992745060878183,1.5018373713038893,0.9238146198374604,0.44504804303800766,0.5715762430782759,,,0.4629450596409901,inf,,,0.9034180624556442
696,,0.0,0.0,1.5319628719495295,1.5007997528028667,0.9475541787398549,0.5028728649681631,0.6869510315999486,,,0.41861278947482794,inf,,,0.9069397621594859
697,5.7037824746562,-5.7037824746562,0.0,1.7309755180574047,1.7269937406906537,0.6143311492726424,1.3695037258129026,1.0135644446006047,,,0.38163879478178075,5.703782474656201,inf,,0.7361570341968768
698,,0.0,0.0,1.6415150151062676,1.627799410245472,0.8287191570537777,2.254718555789193,3.2759958761808674,,,0.47824363442641393,inf,,,0.9430285175241794
699,,0.0,0.0,1.4312039283645492,1.4266017398122304,0.7135680759633765,1.7476925082784145,2.506971768619655,,,0.4928685327679205,inf,,,0.908604663180544
700,,0.0,0.0,1.5678152311952163,1.5648588157169163,0.2922542777012494,0.4493630028734404,0.49057689910497804,,,0.4066654671944331,inf,,,0.6173848304587719
701,5.703782474656201,-2.9089290620746624,0.0,1.3906070303711349,1.406099323193483,0.39230156188202525,0.6572178047648463,0.45678050526288694,,,0.468121228110369,6.3771270279199666,inf,,0.8453210613699426
702,,0.0,0.0,1.2652048363794817,1.1805453127312493,0.7340284052335346,1.1973749267240459,1.0532555155105652,,,0.4732203808476458,inf,,,0.947941056162396
703,,0.0,0.0,1.5452848094780105,1.541494866899119,0.6787415818764517,2.1467411594295873,2.396354112851298,,,0.4629450596409901,inf,,,0.9359904640303216
704,5.7037824746562,-5.7037824746562,0.0,1.715695712734998,1.7167128328065184,0.4437549721607779,1.743378020886526,2.1312984991131203,,,0.5370774965580548,5.703782474656201,inf,,0.9491463579404621
705,,0.0,0.0,1.5696684977126634,1.563716053129942,0.6412403328191253,1.2324045119960523,0.7003762074815456,,,0.585052858160615,inf,,,0.9362642247378721
706,,0.0,0.0,1.6891447014521859,1.5838730520443174,0.6573873201469296,0.8774168642353581,0.4485137223883685,,,0.4928685327679205,inf,,,0.9495997865983972
707,,0.0,0.0,1.6754883222803572,1.6510922493504507,0.5508941759308306,0.4558838898806401,0.3893710084407858,,,0.48319206230712763,inf,,,0.9403801308112679
708,,0.0,0.0,1.7259459268739368,1.7221179030440303,0.6011938754377125,1.1949694960267927,0.8300648429916835,,,0.45235697871908603,inf,,,0.9374118295301413
709,,0.0,0.0,1.6221444808338707,1.6221403276267152,0.7101124951610958,1.2727749100345163,0.7060270524049426,,,0.45235697871908603,inf,,,0.9326194008535468
710,,0.0,0.0,1.6063194306095823,1.5700053446225957,0.45316541019685935,1.1382539156838383,0.8569746083084431,,,0.44694259446804574,inf,,,0.9393513732338206
711,,0.0,0.0,1.5757259836366564,1.5524370270358794,0.5506873308177445,0.6657055757101348,0.5001821610179487,,,0.4576907132971797,inf,,,0.9428965285873427
712,5.7037824746562,-5.7037824746562,0.0,1.7338069603556814,1.70655476142302,0.6758015096930284,1.1750527884966473,0.6322972522548653,,,0.5068466436745385,5.703782474656201,inf,,0.949305979793976
713,,0.0,0.0,1.7557789376276929,1.781250840534973,0.47594524544320016,0.542784540604695,0.38370422916044034,,,0.43586655696697996,inf,,,0.932885544646593
714,,0.0,0.0,1.521283048720705,1.509905015415499,0.7196816903900284,1.2492425978542565,0.5313985690071203,,,0.4732203808476458,inf,,,0.9403355053295819
715,,0.0,0.0,1.6091938432131494,1.5796554195190193,0.6243104247542808,1.9107379845328523,1.8796010044934683,,,0.4880666971167561,inf,,,0.9245978084905875
716,,0.0,0.0,1.4166689128132042,1.4321217358196634,0.5965406452082604,1.5332563682873075,1.139933815800425,,,0.48319206230712763,inf,,,0.9412308862016107
717,,0.0,0.0,1.6856243766754442,1.6814659112953443,0.6111694428810215,1.5995986978141834,1.6471210383650772,,,0.5370774965580548,inf,,,0.9507597550975585
718,,0.0,0.0,1.4934342530715878,1.4895249218264426,0.43991598647236635,1.1443835117781636,0.9825228696712991,,,0.5113665138247345,inf,,,0.9038823131790604
719,,0.0,0.0,1.6047230408160058,1.5816150263643767,0.6333844247087703,1.886689566741319,1.8944876967879751,,,0.4880666971167561,inf,,,0.9259572082063285
720,,0.0,0.0,1.3974726814692837,1.3667713990493389,0.8031234350951076,2.2086172682077696,2.04398591986346,,,0.45235697871908603,inf,,,0.9488342238209044
721,,0.0,0.0,1.4106222566729474,1.3721545460619338,0.6699973272123153,1.5555235687493172,1.4559417398223018,,,0.468121228110369,inf,,,0.9497032415271516
722,,0.0,0.0,1.7387527772409808,1.6651027246672103,0.2871771169207795,0.4924545433130008,0.3975515882480707,,,0.47824363442641393,inf,,,0.9362691769359628
723,,0.0,0.0,1.6016772633995437,1.5745144917535903,0.6647549610644852,1.0658828418742414,1.2001803432812128,,,0.5748741956352443,inf,,,0.9140515368418952
724,,0.0,0.0,1.517702025818346,1.523879162911675,0.5106756726589761,0.5535494620868763,0.6696349339494446,,,0.4732203808476458,inf,,,0.9455829573118983
725,5.010635294096255,-5.010635294096255,0.0,1.2712028075667825,1.2461339570114458,0.5105839389857925,2.4998635989499927,2.246630659505444,,,0.5287703885177266,5.0106352940962555,inf,,0.7424139403753199
726,4.605170185988091,-4.605170185988091,0.0,1.641361278834074,1.606059569464762,0.6749825098436354,3.1185279645148647,3.3767412331306903,,,0.5158180382284114,4.605170185988091,inf,,0.8888778277854744
727,,0.0,0.0,1.613926800645245,1.5374450130311625,0.7589322443760178,2.4308575028685486,1.6946446943459121,,,0.5370774965580548,inf,,,0.9413385444578968
728,,0.0,0.0,1.6857470052693553,1.6062334470974224,0.4429519046812573,1.3258501140215149,0.7868380020223191,,,0.49759852643134905,inf,,,0.9532123032818306
729,5.19778503284744,-5.19778503284744,0.0,1.454682106466433,1.251431855042598,0.4497468135420294,1.250056105054954,0.74180621782586,,,0.4629450596409901,5.155661066146513,inf,,0.7199648456486294
730,,0.0,0.0,1.6470181055854622,1.504256933468726,0.6620318942724525,1.2627950981960925,1.2015905204925421,,,0.47824363442641393,inf,,,0.93272421146003
731,5.7037824746562,-5.7037824746562,0.0,1.4211929224417803,1.4027848732159207,0.6754280769863656,2.2965772503546886,1.6015892636785911,,,0.5022576003740722,5.703782474656201,inf,,0.7343999020267401
732,,0.0,0.0,1.7515256187165047,1.7496217063556092,0.68929931492709,1.8496460826037056,1.6737968283614064,,,0.5287703885177266,inf,,,0.941425310992762
733,3.624340932976365,-3.624340932976365,0.0,1.6528926455372275,1.6348088256234614,0.7389707940297585,2.9829206421372367,1.9692229394927177,,,0.5068466436745385,3.624340932976365,inf,,0.7396680038837604
734,3.811003585213607,-3.811003585213607,0.0,1.6934767821136396,1.6745872378770201,0.7243786928384816,2.8015952796726706,1.7569150744968693,,,0.5451288209179292,3.808163615896587,inf,,0.7643058635476971
735,,0.0,0.0,1.65891633849433,1.6302177547974952,0.655505362848614,2.579089335157517,1.7853370089664842,,,0.552929491858785,inf,,,0.9286809101873054
736,4.033652520800454,-4.033652520800454,0.0,1.7167110136513197,1.7137821912367674,0.675426693585592,2.5494058187697153,1.7434140682948782,,,0.4732203808476458,4.027932796702849,inf,,0.7687830446014314
737,,0.0,0.0,1.743419200172672,1.7207768627971614,0.721675763057358,2.8683506412213835,2.6959765746290736,,,0.581717464821069,inf,,,0.7470497151256172
738,,0.0,0.0,1.7439001622296038,1.723601545231159,0.6952806425312305,2.0575406788648714,1.1216758880432907,,,0.5113665138247345,inf,,,0.9485495028407759
739,,0.0,0.0,1.6259693932428754,1.567535114466584,0.5176058555974543,2.259791591986296,2.8021743387052744,,,0.4576907132971797,inf,,,0.6928243490104823
740,5.703782474656201,-4.829202495208917,0.0,1.5604051706344635,1.5043718553938732,0.6179760847171664,1.7421206709013672,1.1398893110761124,,,0.5490601803369085,5.870230682293865,inf,,0.9495805872035814
741,5.010635294096255,-5.010635294096255,0.0,1.5490772804488606,1.5203586366850204,0.7485289679968876,2.9463359472488935,4.073161237668161,,,0.5370774965580548,5.0106352940962555,inf,,0.9450628116333051
742,,0.0,0.0,1.713875086274331,1.6760227117105226,0.6538104314507074,1.7963073433266834,1.6297626034495554,,,0.4880666971167561,inf,,,0.8809890366429143
743,5.010635294096255,-5.010635294096255,0.0,1.564144842206807,1.5042848067473364,0.5607271839837249,2.544167442473115,1.689668342030414,,,0.5604843169999094,5.0106352940962555,inf,,0.8874658498842095
744,4.31748811353631,-4.31748811353631,0.0,1.5944382520337101,1.5349777016909238,0.7263689792848312,3.6177073762388083,3.6194655076868743,,,0.4928685327679205,4.31748811353631,inf,,0.7872181778884787
745,4.417217898652927,-4.417217898652927,0.0,1.5256221558665586,1.5052912954517674,0.5723248857962622,2.8421149845293923,2.0040055681269884,,,0.5883313578629602,4.4081424818044415,inf,,0.8886514727178716
746,,0.0,0.0,1.6629585975393573,1.5840448996402496,0.7042730748445475,2.075798190909261,1.317981743308887,,,0.6468212168108125,inf,,,0.8931259847012571
747,5.703782474656202,-0.7224791134564522,0.0,1.6162447038234533,1.6195621337950206,0.665132164307547,2.1788474373908695,1.8246303244401392,,,0.581717464821069,7.769978789586016,inf,,0.9510187797619342
748,5.022187747105587,-5.022187747105587,0.0,1.7050319813912438,1.6346817822638053,0.6418023847780953,1.7664230889130745,0.9993562660186708,,,0.6068309995095971,5.019003543766773,inf,,0.9298354242255525
749,5.7037824746562,-5.7037824746562,0.0,1.73579521532048,1.7106550559129092,0.5770469282108062,2.514169303646098,1.994312877432773,,,0.6038851895711802,5.703782474656201,inf,,0.609787831108575
