,bvp+temp_XAp0,bvp+temp_XAp1,bvp+temp_XAp2,bvp+temp_XCond1,bvp+temp_XCond2,bvp+temp_XDist,bvp+temp_XFuzz1,bvp+temp_XFuzz2,bvp+temp_XK2_1,bvp+temp_XK2_2,bvp+temp_XPermEn,bvp+temp_XSamp0,bvp+temp_XSamp1,bvp+temp_XSamp2,bvp+temp_XSpec
0,2.6629735182323735,-2.643908489558826,-0.019065028673547448,1.652787339144696,1.6200835649290057,0.7803508020408038,3.6421825339360567,3.4041956219120744,,,0.4880666971167561,2.662758211910503,8.744806737401898,inf,0.48925865545384983
1,3.3138297168415254,-3.3138297168415254,0.0,1.5642653777993003,1.5358193558621875,0.7639573403407963,2.990126453735514,2.735315900891149,,,0.5748741956352443,3.3134918012430497,inf,,0.3904198628175801
2,3.50164107325595,-0.3940413994677159,-3.107599673788234,1.5246469919115366,1.4890542699539624,0.7796219873840677,3.365366455826884,2.3350078866247843,2.8119047026314012,,0.585052858160615,3.5013861089175875,2.812428639588052,inf,0.5999363920035983
3,2.572585262442232,1.7502232764241028,-4.322808538866335,1.5087231552234754,1.454627052135102,0.8150485671818859,3.838505978909681,4.708607235632419,3.117960115125177,,0.5490601803369085,2.572500014281326,1.755880540421408,inf,0.6829882079702946
4,2.4422079175780995,2.7644552228384454,-5.206663140416545,1.746904011971138,1.7235378087937427,0.7862445061359132,4.640874556133367,4.934055015685236,3.665479701260445,,0.552929491858785,2.4421026207964354,2.727137703476459,inf,0.6743859679677943
5,2.8889817072708133,-2.8889817072708133,0.0,1.5992338469590226,1.5678513650783223,0.7532435401329701,5.0201645244135875,9.159397754956228,,,0.5158180382284114,2.888573375954785,inf,,0.5888097328252927
6,2.8923939944539017,-2.8923939944539017,0.0,1.6136254234894665,1.6013467777243522,0.7831155097733649,3.9411032683894263,6.756282479077127,,,0.4732203808476458,2.8919730392631386,inf,,0.6579746922347429
7,3.767121366390523,-3.767121366390523,0.0,1.2838237037546445,1.1904818473381673,0.7807989781805167,5.229251892154949,9.451298911613726,,,0.5068466436745385,3.766480700137488,inf,,0.7919665454463127
8,3.0657406564650924,2.6347029169255944,-5.700443573390687,1.6838056020474061,1.6410451558889103,0.7998887083874439,3.8767870221738123,4.642222790305645,,,0.5748741956352443,3.063535376905354,2.643585999016362,inf,0.7785831529798816
9,3.0647251450409425,2.6357184283497443,-5.700443573390687,1.5530795823086787,1.4834991517429283,0.7826154115056024,3.2687166061116653,1.8167504809412276,2.8389937764472286,,0.6097226960127671,3.0647251450409425,2.6423962308807734,inf,0.5708147197225742
10,2.995732273553991,-2.995732273553991,0.0,1.7019901744650743,1.6563616353576829,0.8286849550320607,3.724438742215539,15.081325798944029,,,0.5883313578629602,2.995732273553991,inf,,0.6867324157963992
11,3.5153463354678314,2.1850972379228555,-5.700443573390687,1.4239799511554205,1.3508164495219948,0.7847346902927399,3.015456250036949,5.544758194197883,2.4288001814163844,,0.5451288209179292,3.51250145122083,2.194619924700886,inf,0.6422794420125055
12,3.554848941939099,-3.554848941939099,0.0,1.4828879356485873,1.469763792638655,0.713171932382962,3.7336510278307977,5.530014356105866,,,0.541134803179459,3.553183738660037,inf,,0.7662990989280127
13,2.8532310784018673,2.8472124949888196,-5.700443573390687,1.5689981462341578,1.5728706278678135,0.8318005454057141,4.887607064216613,7.957407101687212,3.140832061836081,,0.5713653840954815,2.852883313485173,2.8542380624365427,inf,0.6318878228860876
14,2.9409272601468195,-2.9409272601468195,0.0,1.571057816388112,1.575117715680391,0.7247125016912205,3.3740160166574715,4.663122319378086,,,0.5677978065141052,2.9397721081912915,inf,,0.5307723435884747
15,2.632743628020889,1.9690876567016886,-4.601831284722578,1.5837050213687767,1.5800034042206614,0.7220069069346835,3.7770287252546213,6.571686098666406,1.9693522704674409,,0.5490601803369085,2.6324790142551358,1.97603007299847,inf,0.5097359658728755
16,2.3776790568944404,2.081754412701503,-4.459433469595943,1.2340956209326346,1.2297384124803075,0.736699103443692,3.8215252965282716,8.681449994795752,2.2549655569735707,,0.585052858160615,2.3774283781591725,2.078364406754318,inf,0.4665569696283375
17,3.3628097810724373,-3.3628097810724373,0.0,1.6483318590085692,1.605634766165996,0.8320008369880276,3.1984701426293287,3.002819807317715,,,0.5451288209179292,3.3594158476472007,inf,,0.7616272056074187
18,3.757872325600888,-3.757872325600888,0.0,1.469583424902945,1.4383248245286062,0.7607489430536414,3.665589654417668,2.0178444738953414,,,0.552929491858785,3.757872325600888,inf,,0.7752826826978768
19,3.2188758248681997,-3.2188758248681997,0.0,1.3271041943837105,1.3292300074325405,0.8014279536246574,3.3244906767663376,6.041594267525894,,,0.5748741956352443,3.2188758248682006,inf,,0.5967986238741965
20,2.659260036932778,-2.659260036932778,0.0,1.5859995255530177,1.5921359740970646,0.7969760461859475,3.9553431621837203,2.2581703596505913,,,0.6068309995095971,2.659260036932778,inf,,0.6455025940590865
21,2.9869381016606638,2.713505471730023,-5.700443573390687,1.3661169219026097,1.3604473936491859,0.7068908293603686,3.827913801485487,7.7405839982561675,2.7137811551762354,,0.6309483474627791,2.986662418214451,2.720458957707265,inf,0.7495599161489918
22,2.657406803469164,-2.657406803469164,0.0,1.4066622918870662,1.3924963743110947,0.8447954672205978,5.809815315943667,34.94309119576022,,,0.6180765742263259,2.657357086786692,inf,,0.582933034103557
23,2.5322544518524714,3.1681891215382154,-5.700443573390687,1.5415241589920465,1.5303265219149143,0.7721812329439508,4.05280596428723,6.455391043321225,3.1683055438972474,,0.5748741956352443,2.532138029493439,3.174983346428277,inf,0.6050071075532361
24,3.3529057626729704,-3.3529057626729704,0.0,1.1499164803018465,1.1488631705117904,0.83540145993469,4.210933140118675,1.6373087558255426,,,0.6403206450210053,3.3508211743370886,inf,,0.7378039606549822
25,2.841898122096239,-2.841898122096239,0.0,1.2292512433601392,1.2165934264127323,0.8493056132353799,4.947308025298219,18.240041974640484,,,0.5947193981915972,2.839108463958623,inf,,0.7325183783986507
26,2.8098062353420175,2.8906373380486694,-5.700443573390687,1.45317857008226,1.3845360009815801,0.8208834162358897,4.214260069731486,3.244001888057583,2.890729718511976,,0.5490601803369085,2.80971385487871,2.8974075210430055,inf,0.6453757187841346
27,2.917856335616804,-2.917856335616804,0.0,1.5267392688335404,1.501341151647228,0.7934013013649541,4.398848408071029,10.127071012464427,,,0.5748741956352443,2.917537425968934,inf,,0.8160936547789165
28,2.813410716760036,-2.813410716760036,0.0,1.4921132755216158,1.4726700881067345,0.7861153567219957,3.860102054389581,4.793104036329509,,,0.5567373465730988,2.8134107167600364,inf,,0.5712596084332351
29,2.3344743154506116,2.267356969271966,-4.601831284722578,0.9614739182134364,0.9498719712526363,0.7966409297743764,4.33946003071,70.99116332255161,2.2674114682085125,,0.6068309995095971,2.3344198165140644,2.274089270739542,inf,0.5463781694646757
30,3.1903272591313057,2.510116314259381,-5.700443573390687,1.5052645289154274,1.4785287927088695,0.7857828873417712,4.024519790237855,11.245626080792764,2.5108568272290164,,0.5978297680564633,3.18958674616167,2.517534629760046,inf,0.8253275438206794
31,3.408579159611928,-1.387686120215899,-2.020893039396029,1.4661077146105606,1.4228295182326127,0.839366075896574,3.5879823425051116,2.18853463477057,,,0.5677978065141052,3.4031993843328285,3.3409264708675064,inf,0.642691495641787
32,2.8492299894330713,-2.8492299894330713,0.0,1.6075891357745817,1.5864602468551372,0.7909491934386209,4.333862599568284,4.77787145953594,,,0.5947193981915972,2.8488460110676663,inf,,0.4847789109855974
33,3.0615203255393824,2.6389232478513045,-5.700443573390687,1.482337846658961,1.456700000336448,0.868135372823454,4.9942749037624825,9.84800938614425,2.639046218442419,,0.585052858160615,3.0613973549482676,2.645724020973448,inf,0.5086885385064666
34,2.4849066497880004,-2.4849066497880004,0.0,1.2023877979730786,1.1976292631806922,0.8518707706419392,5.38771572696073,9.807641319326695,,,0.5370774965580548,2.4849066497880004,inf,,0.41740659560759175
35,2.919472992198576,-2.919472992198576,0.0,1.7803113201470178,1.7786518902306732,0.84666676027391,4.580058407099614,1.4833357641813585,,,0.44694259446804574,2.919182839750284,inf,,0.7059154425351056
36,2.5872543440906073,0.6728655590860062,-3.2601199031766135,1.352877057081956,1.3473467553679572,0.8619494950959266,4.060590032887364,92.76341017012761,,,0.5490601803369085,2.587013206059376,3.678888186750366,inf,0.7020161543445862
37,3.176543743665689,2.5238998297249977,-5.700443573390687,1.323826705828859,1.27991411619914,0.6664971073334185,3.560080971813611,2.3246483543013245,2.5263817643122786,,0.5451288209179292,3.1740618090784083,2.5330595668433076,inf,0.7126407007167957
38,3.0339159182237814,-3.0339159182237814,0.0,1.3047317520903858,1.276333424996291,0.778021351280804,3.812389027292416,44.39319001163662,,,0.6528756675646988,3.03308806009776,inf,,0.8049710374592256
39,3.1495054782178022,-3.1495054782178022,0.0,1.6020995087202086,1.5977453758579132,0.787899174918004,4.455694444064185,2.5676429420346256,,,0.6180765742263259,3.149142486853526,inf,,0.6514109125611127
40,2.995732273553991,-2.995732273553991,0.0,1.7232090181286237,1.6986634386702313,0.8269826272757288,3.933504121218341,1.7345931919506006,,,0.6008849035917525,2.995732273553991,inf,,0.5766090672237723
41,3.051739962927755,-0.0008160904480858377,-3.050923872479669,1.1784020657549636,1.137708599989355,0.7882515280425918,3.6180383033105645,7.685042455985204,,,0.49759852643134905,3.0477275686723715,3.2299386657169573,inf,0.827821905348813
42,2.9311937524164198,2.769249820974267,-5.700443573390687,1.4865639893919513,1.4888852603319445,0.7337791590151348,3.557307492072167,3.8387612434523386,2.7692498209742666,,0.48319206230712763,2.9311937524164198,2.7759276235052956,inf,0.4930614242515785
43,3.357672399551514,2.3427711738391728,-5.700443573390687,1.5867019752959721,1.5015460079105802,0.7467163752366044,3.068452251323329,4.103709439750311,2.3439008322689623,,0.5113665138247345,3.356542741121724,2.3505786347999917,inf,0.6284666425617741
44,3.0566759767007983,-3.0566759767007983,0.0,1.6149353927828725,1.5872019455369726,0.7165508468845722,4.1053500144561195,4.7506692159698,,,0.5158180382284114,3.0564263422262474,inf,,0.7031198477774362
45,3.9120230054281455,-3.9120230054281455,0.0,1.4512228746146891,1.402869642133726,0.7016682634891894,3.259915837076316,3.858234930840824,,,0.49759852643134905,3.912023005428146,inf,,0.6238954127980367
46,3.202066856256757,-3.202066856256757,0.0,1.0493203939909503,1.0210299184689742,0.8074861215429516,3.8123895310421534,3.538637881337218,,,0.5490601803369085,3.2015271865335877,inf,,0.7076413970722173
47,3.2594811341300276,-3.2594811341300276,0.0,1.7628836134979604,1.7227932232760588,0.6785570649181222,3.1520749065248554,2.6185424327723523,,,0.5677978065141052,3.258541081260632,inf,,0.6619808457448486
48,3.267962567195264,-3.267962567195264,0.0,1.3356006788122916,1.3083588071299972,0.6888434570125697,3.11200141665384,5.461855919125681,,,0.5883313578629602,3.26637515585471,inf,,0.6641551194542146
49,3.2092706999473752,-3.2092706999473752,0.0,1.5545854952225606,1.4820882874119314,0.8365768533735118,3.6186009115555544,12.365483602761866,,,0.5490601803369085,3.2089254940150327,inf,,0.7252701599473865
50,3.2896450781531,-3.2896450781531,0.0,1.2235977766201165,1.1976529345421258,0.7005517025877871,3.5483065248110393,3.392567026925756,,,0.6068309995095971,3.289059881725305,inf,,0.6352810420972318
51,3.4278887122954713,-3.4278887122954713,0.0,1.5249004849825964,1.4846235692134746,0.7914403466837968,3.6421458425956517,2.1184690528221375,,,0.5713653840954815,3.426857128442733,inf,,0.6342055113358767
52,3.14136609575319,-3.14136609575319,0.0,1.5883078950451437,1.559812315553485,0.7790673683325785,3.7985618016886065,3.4867609057612396,,,0.6380535849069913,3.1408865060065065,inf,,0.7025265999991764
53,2.7834935209904836,-2.7834935209904836,0.0,1.5599850543595348,1.5310013356505248,0.827488515102515,4.246939356293343,9.05273625793495,,,0.552929491858785,2.783133007226566,inf,,0.533403765461461
54,2.5942184535600377,2.00761283116254,-4.601831284722578,1.4929916743536635,1.4592273897831274,0.7303410497499914,3.936600615992558,3.5979767244095733,2.4099797467228643,,0.5748741956352443,2.593977744842362,2.0145313424112437,inf,0.5013199149489362
55,2.9580996507249053,2.7423439226657815,-5.700443573390687,1.447865297265714,1.4354595698665458,0.8604287756840795,3.480698386102909,2.3643499735117217,2.7428630658010715,,0.5158180382284114,2.957580507589615,2.749540868332101,inf,0.6422524893455167
56,4.0943445622220995,-4.0943445622220995,0.0,1.5860892062571663,1.5546800147122115,0.5905119295220255,3.055617592012788,4.275873488508631,,,0.44144624493110796,4.0943445622221,inf,,0.6942002517148298
57,3.757872325600888,-3.757872325600888,0.0,1.6899905177801815,1.662882031389685,0.6699596819803955,2.9949231251297186,3.3319200956772064,,,0.4880666971167561,3.757872325600888,inf,,0.5294258268781641
58,2.6862572611065305,-2.6862572611065305,0.0,1.3749685317122413,1.3217785749051152,0.6999563371045003,4.141364943935014,13.435385884949916,,,0.5567373465730988,2.6859626046382052,inf,,0.6809473155053448
59,2.5291334134617593,-2.5291334134617593,0.0,1.6115309973045138,1.6155300366514749,0.6753059799273956,3.576675095041628,11.502791482915647,,,0.6207552362147116,2.52906754557377,inf,,0.6646894249734092
60,3.8005206803530958,-3.8005206803530958,0.0,1.1480583683881367,1.1310370894459862,0.6571010962368925,3.437192205191915,2.7667127746277886,,,0.552929491858785,3.7981984113581904,inf,,0.6441475328058401
61,2.841989923680011,2.1653064691507304,-5.0072963928307415,1.4674794455314357,1.4104773525328602,0.7744708768328529,4.0567677741504955,8.425945683029562,2.165714799104008,,0.541134803179459,2.841581593726733,2.1723926016350377,inf,0.49970119106100175
62,3.400879681062807,-3.400879681062807,0.0,0.4618411493320731,0.3930784015509928,0.6180880447173784,3.3097121777269236,4.967536535248152,,,0.4928685327679205,3.400864103872035,inf,,0.5287436188426077
63,,0.0,0.0,1.6782853318533415,1.6177141892953137,0.6298962883199017,3.1054625199134036,2.995120213234777,,,0.5202020156036558,inf,,,0.7194352612047773
64,2.7615061843405715,2.9389373890501154,-5.700443573390687,1.1691794479651876,1.1313158952806477,0.7197145940058676,3.8946127943697646,8.619572409121586,2.9389925955613614,,0.5677978065141052,2.761450977829325,2.9456703980923904,inf,0.7702185277021948
65,2.3541492756413995,3.3462942977492873,-5.700443573390687,1.6250267834766352,1.6257220938198083,0.7741178673202178,3.6495884497164086,8.123554061428157,3.346448220104518,,0.6380535849069913,2.3539953532861686,3.3531260226355473,inf,0.754093336929815
66,2.97981277167339,-2.97981277167339,0.0,1.610223331180424,1.583804461372062,0.7920090191227082,3.2289261001807854,3.2917754449522594,,,0.585052858160615,2.9794215747296757,inf,,0.5469309596683568
67,3.247578288124123,-3.247578288124123,0.0,1.5617086140215684,1.5310036220885939,0.63116650385409,3.5469700692008246,3.239353620615233,,,0.5287703885177266,3.246475436466605,inf,,0.6414050172391994
68,3.193795776463826,-3.193795776463826,0.0,1.6166109202912191,1.5903313222033229,0.7225483574371687,3.6949180598755977,5.763934163013321,,,0.5113665138247345,3.1930997885532166,inf,,0.5419354032830621
69,2.928130041556792,2.7723135318338947,-5.700443573390687,1.4864611146799527,1.4072187535556122,0.5520039301314613,4.379091683676619,4.102875205448375,2.772577611066941,,0.4928685327679205,2.9278659623237453,2.7792554135979706,inf,0.8300514758067024
70,3.1857915056964723,-3.1857915056964723,0.0,1.435960185964998,1.4193982765150661,0.7049201759409961,3.7850094403979355,2.6469109204623322,,,0.5783247308855777,3.1850113109154443,inf,,0.5899364025076931
71,4.429684121792505,-4.429684121792505,0.0,1.4249535260570911,1.3702377921438234,0.6210030842016554,2.665262899000792,2.0184045518763676,,,0.5604843169999094,4.420074702311411,inf,,0.7224100056159443
72,3.7539351147794955,1.927443429937644,-5.681378544717139,1.5755242931673328,1.6020691190579486,0.704585128866258,3.1258327628098854,2.5238194606439053,,,0.524519217297268,3.7535957688336277,1.9568756939733702,inf,0.8186171440889364
73,3.1396335442713994,-3.1396335442713994,0.0,1.6214217683422072,1.5807205836188387,0.7097117573455191,2.8412747077912712,4.336848390981173,,,0.5202020156036558,3.139602643973693,inf,,0.683682174199992
74,5.010635294096255,-5.010635294096255,0.0,1.035915858030529,1.0014521523271225,0.6299441886042776,3.431189490584363,5.952695056044171,,,0.5068466436745385,5.0106352940962555,inf,,0.7439528397317694
75,,0.0,0.0,1.5923887391762808,1.5614848775275056,0.7853271310590437,2.7964798439478713,2.4773456802135323,,,0.5329562494928909,inf,,,0.8673627467402015
76,4.370229826819137,-4.370229826819137,0.0,1.4941495201896786,1.419415463414663,0.7131393636477084,3.5634488106126856,2.410447466012589,,,0.524519217297268,4.364405033324062,inf,,0.7991777433498193
77,3.350047585167167,2.3503959882235197,-5.700443573390687,1.3774782557858463,1.3794064883459052,0.843191575221891,4.390256811760013,8.709470746249927,3.487617718216752,,0.6207552362147116,3.3489212370967842,2.358200138824931,inf,0.6842018372348455
78,3.5619159240784826,-3.5619159240784826,0.0,1.5756370167149447,1.5663205759127776,0.6850439386990496,3.6120202209106207,4.882348505986851,,,0.5713653840954815,3.5601931131526134,inf,,0.6322291101268137
79,3.1388331171946646,2.5616104561960222,-5.700443573390687,1.2724690172048578,1.278490380706342,0.7323727085957094,2.9905398736793245,2.731161451419852,2.5616104561960222,,0.5677978065141052,3.138833117194664,2.5682882587270512,inf,0.6221792832117933
80,2.870569130599985,-2.870569130599985,0.0,1.5969652075611476,1.5700679364533647,0.787012059550239,4.36798998648491,3.2777382627528775,,,0.5783247308855777,2.870569130599985,inf,,0.5945570297365297
81,4.31748811353631,-4.31748811353631,0.0,1.6823505822545084,1.574336825894559,0.7749292665270855,2.4882981159928477,2.607696876866059,,,0.5713653840954815,4.31748811353631,inf,,0.8839688163986841
82,5.010635294096255,-5.010635294096255,0.0,1.2711556150316998,1.2738002104474415,0.5023552940964864,2.1752539447138233,2.258054997741915,,,0.5202020156036558,5.0106352940962555,inf,,0.7816674530587568
83,,0.0,0.0,1.7171605023765624,1.6882732571436756,0.5575513923426827,2.0141272886396524,2.4049544399714855,,,0.5202020156036558,inf,,,0.7548953011306483
84,4.956573279681832,-4.956573279681832,0.0,1.3397023974365818,1.2724885779995982,0.5418742218262691,2.2570305136428352,2.5214749885655587,,,0.49759852643134905,4.946096772958684,inf,,0.6311771293100296
85,5.7037824746562,-5.7037824746562,0.0,1.6721220068844587,1.6066556892866388,0.5479173200616877,1.3103403268478038,1.1464237171340774,,,0.468121228110369,5.703782474656201,inf,,0.7480215835319559
86,,0.0,0.0,1.7761781844368592,1.6924210820068466,0.8826041138162105,1.0668980001595851,1.1079494043601223,,,0.47824363442641393,inf,,,0.8342546283312339
87,5.703782474656203,-2.034349082627379,0.0,1.461766453855008,1.413510683492648,0.5620128504365326,1.1273838517888026,0.9900944694188583,,,0.468121228110369,6.734736114850496,inf,,0.5856089649857811
88,,0.0,0.0,1.6532318672379467,1.6202420024558941,0.9183741163772474,1.1754174102500803,1.5146638595563136,,,0.45235697871908603,inf,,,0.8260744324462919
89,,0.0,0.0,1.750545342781992,1.7286788099359918,0.851591946922057,1.3592580058444825,1.346541447364705,,,0.44694259446804574,inf,,,0.8492038537187045
90,,0.0,0.0,1.368018936595486,1.3342831828550696,0.6467019922962639,1.7255190475814535,2.0513627287578053,,,0.44694259446804574,inf,,,0.6705107260884334
91,3.1198120710085426,-3.1198120710085426,0.0,1.663315910289175,1.644339966756079,0.631377794417791,2.8725183246869626,5.14941340468255,,,0.5022576003740722,3.1192819041047115,inf,,0.7620450629693329
92,4.605170185988091,-4.605170185988091,0.0,1.5662304304136823,1.5326725012100124,0.6406334688130916,3.11850223772909,2.3229995949732465,,,0.6008849035917525,4.605170185988091,inf,,0.745574778360941
93,3.2087370818962184,-3.2087370818962184,0.0,1.4261431388689556,1.3968855710747015,0.7284962316505784,2.9751823310701186,2.4468851628494654,,,0.5713653840954815,3.2083755902343345,inf,,0.4731049724456799
94,2.492254608801647,3.20818896458904,-5.700443573390687,1.116315193444877,1.118190456842922,0.7763013185852923,5.1965594104121475,18.442742480573937,3.2083108785109467,,0.6380535849069913,2.4921326948797398,3.2149886810419757,inf,0.46152391787071123
95,2.3882215010786094,3.1406368142501506,-5.52885831532876,1.4336553656617292,1.4063555575558826,0.8804970864617786,4.677111939486947,14.352416245673146,,,0.5947193981915972,2.3879009385129275,3.3497830878189547,inf,0.7861098138767884
96,3.429644720889768,-3.429644720889768,0.0,1.6285990934194123,1.575805397496499,0.7126668521834973,2.946024275469081,1.9217102168396942,,,0.5713653840954815,3.4285685784582873,inf,,0.5419688525456972
97,2.7377161585630008,2.13276824613357,0.5971959212784137,1.5951161731966912,1.579792664548767,0.7325924816232885,4.53407338530891,37.02814434542463,3.1504941893495384,,0.6309483474627791,2.7369642112668524,2.3179713417259835,0.6966375854997138,0.5188449107056254
98,3.401197381662155,-3.401197381662155,0.0,1.6930751743984507,1.6488341013425025,0.6409788200497079,3.330804862834586,5.054369739193616,,,0.468121228110369,3.4011973816621555,inf,,0.6976743330871515
99,5.010635294096255,-5.010635294096255,0.0,1.714791429837483,1.7044998807191494,0.5991301743956895,2.819730329214377,2.837691693810822,,,0.5604843169999094,5.0106352940962555,inf,,0.5507452350565814
100,3.1388331171946646,2.5616104561960222,-5.700443573390687,1.443018987860393,1.3413113140305488,0.8212468878865695,3.6475558554796783,4.09973270249232,2.5616104561960222,,0.4629450596409901,3.138833117194664,2.5682882587270512,inf,0.5915894515008809
101,2.99619222603057,-2.99619222603057,0.0,1.7253632010012465,1.7242217757646532,0.6658592365559404,3.8308020033680914,3.3230569674545185,,,0.5022576003740722,2.996176816793141,inf,,0.5500468683086865
102,3.5065578973199822,-3.5065578973199822,0.0,1.7712929306079173,1.6881268818332529,0.7708856075611242,4.055618221870395,2.7152787193508683,,,0.5202020156036558,3.506557897319982,inf,,0.4720679242537137
103,2.512257386116572,2.0895738986060057,-4.601831284722578,1.7351940648152961,1.7276158237799406,0.7857920145769633,4.281112155373804,11.154641763071183,2.4952240749699715,,0.585052858160615,2.5120723178607696,2.0964367693928363,inf,0.6816096250955759
104,2.815396085757053,-2.815396085757053,0.0,1.7298198854120181,1.7324149013488925,0.8824940182456956,4.136734507206459,10.899922236575541,,,0.5748741956352443,2.813781155734452,inf,,0.49342324344982913
105,2.3527860651205956,2.249045219601982,-4.601831284722578,1.6115011283820149,1.6298200997748156,0.8227582182859133,5.055313528699631,37.58950951833471,2.249355422115066,,0.5915533975974677,2.352475862607511,2.2560332246460955,inf,0.6666416151900151
106,2.6118926916458047,1.8869888213298145,-4.498881512975619,1.5301550949463343,1.510945558494576,0.8823162414297768,4.092332881663852,22.367556769553396,1.9906052682559066,,0.6309483474627791,2.61122601646667,1.8845916325940575,inf,0.5803814501427519
107,3.8236006433853618,-3.8236006433853618,0.0,1.6972847219554001,1.6640365792308078,0.8257369300273345,3.7172646291685023,3.3461708775491457,,,0.6207552362147116,3.818735071004589,inf,,0.6510667956725067
108,3.3625049107807534,-3.3625049107807534,0.0,1.4849887683739222,1.4792093108531743,0.7877184273479911,4.30630992836312,14.83218891308475,,,0.5783247308855777,3.3613358482370246,inf,,0.7525629265224782
109,2.466684670603285,2.556839248193743,-5.023523918797028,1.6140760512693584,1.5887997499377444,0.8335400867152621,4.547548172688097,10.189845965232426,3.2340315062388503,,0.5883313578629602,2.466412067151836,2.559336864754468,inf,0.7588848559606521
110,2.5376611499767923,3.1627824234138946,-5.700443573390687,1.7587547302446562,1.741242965310049,0.7256690160902838,4.338331281325342,4.317242023343751,3.1631201913775553,,0.6207552362147116,2.537323382013131,3.1697979939085847,inf,0.6608482645582991
111,2.7427318162165633,-2.7427318162165633,0.0,1.7229557154830921,1.7179705742737488,0.7627933337844993,4.740819826607266,2.0653291747730274,,,0.6068309995095971,2.7405733928077702,inf,,0.6749512332062397
112,2.64375336505448,3.0566902083362066,-5.700443573390687,1.6629134729205064,1.6418242927391224,0.8149583399243137,4.720754393289883,19.711715753216914,,,0.6180765742263259,2.643511679964639,3.063609695957077,inf,0.6259106998404015
113,2.9194729921985756,-2.9194729921985756,0.0,1.5591128666494063,1.5054684568466428,0.7929200578445619,4.062277658553459,6.020455797943144,,,0.5641709578113449,2.919182839750284,inf,,0.7748213462106897
114,2.7340445655321393,-2.7340445655321393,0.0,1.4028184766841068,1.3843096830363284,0.8277477610111492,3.9717312522007275,2.4369267769773812,,,0.49759852643134905,2.7335389638693766,inf,,0.6829596441424642
115,2.45171470975477,0.1978792439929049,0.16071726274995735,1.7231396605445628,1.6888714934756568,0.8737040531629888,3.437078589990323,2.284997797937955,3.3588150649580264,0.8480883583457973,0.6153451465759925,2.4510851013124895,3.2661203936758523,0.6999268675453241,0.668839546776678
116,2.713509318103856,-2.713509318103856,0.0,1.6253733089302969,1.6104314546929839,0.7992523790151739,4.683075322657516,18.475083882206327,,,0.6008849035917525,2.712560356580096,inf,,0.6949283069527484
117,2.478172444096111,2.7837754698029853,-5.261947913899096,1.3609975798974527,1.3359922422464414,0.7940487804284219,3.6910999961434237,2.431864156525272,,,0.468121228110369,2.4779972414870652,3.3091668421081866,inf,0.7780778537782491
118,2.593553148872046,3.106890424518641,-5.700443573390687,1.436424000716659,1.4197221344880067,0.7540299192849899,4.2079297415992905,8.64497162942785,3.1081001800004473,,0.5978297680564633,2.5923433933902396,3.1147779825314763,inf,0.7896795894623725
119,2.8915665048430217,-1.862054956471459,-1.0295115483715627,1.5311339134883197,1.5239962278296728,0.7826679420608608,5.005764180944011,15.278984245634147,8.51031536888254,,0.47824363442641393,2.8905717778988316,4.528009124849296,inf,0.7423522820360472
120,2.4415443697910755,3.2588992035996114,-5.700443573390687,1.6261437798740912,1.6002879526799232,0.806175498928498,4.081469181040537,57.69893402744722,3.258979481445523,,0.5915533975974677,2.4414640919451633,3.265657283976552,inf,0.5459527794624744
121,2.5004716290296045,0.4927378727173455,-2.99320950174695,1.3950567399697698,1.3462686420178307,0.9260477399078807,4.7196836874591765,3.9517363249871966,4.326088196494326,,0.524519217297268,2.5000879717836644,3.8512311721804298,inf,0.6257730416285017
122,2.6618621790218144,-2.6618621790218144,0.0,1.3950567399697698,1.385635081294124,0.7927796063199378,4.223692751983096,14.598288199733304,,,0.5158180382284114,2.6618029499368903,inf,,0.522882694938717
123,3.360849405544991,2.339594167845696,-5.700443573390687,1.5409975034816543,1.5356030688236186,0.7084194613047708,3.731351938011972,2.2066579048150694,2.54398332963361,,0.524519217297268,3.3597355918545606,2.347385784067155,inf,0.7145393432583008
124,2.7693020515040225,-2.7693020515040225,0.0,1.592789980088622,1.5639883469886227,0.7322122793870977,3.9098236625359473,14.761572322809096,,,0.6180765742263259,2.7690394727286396,inf,,0.7362703430902603
125,2.955922755195316,-2.955922755195316,0.0,1.5625185884832513,1.5524898532115357,0.7773282710195513,3.692697140263316,2.473461265544352,,,0.6333676938231112,2.9548036180555535,inf,,0.6208105423200179
126,3.233646469847949,-3.233646469847949,0.0,1.5296774871228085,1.507347098094098,0.7374094875966186,3.1691663207328027,3.7589598759081118,,,0.585052858160615,3.2314546070750607,inf,,0.5475143899083085
127,3.469186355402,-3.469186355402,0.0,1.3517076442017475,1.3162182586965976,0.7826104221088508,3.3651752807524256,3.3936404939861218,,,0.5915533975974677,3.4676933729505195,inf,,0.6757835155665104
128,3.7583861612003115,-3.7583861612003115,0.0,1.3259645539082752,1.286055782083461,0.6673498552217174,3.173414964834808,4.686374974839207,,,0.5113665138247345,3.758348629491769,inf,,0.7483637417243659
129,5.692230021646868,-5.692230021646868,0.0,1.6146132221465344,1.589540901083131,0.6687449259479116,2.664314965170408,2.792290478311437,,,0.5713653840954815,5.687253172704991,inf,,0.7981432495797656
130,3.305887201857831,-3.305887201857831,0.0,1.0017844915101495,0.9934847276224376,0.6831991920178135,3.4858686382707424,9.343078477558496,,,0.4880666971167561,3.3058872018578307,inf,,0.6869596776875085
131,3.067936490500937,-3.067936490500937,0.0,1.1179811372729784,1.0970319525022174,0.7517567758021692,3.5681982830963834,9.144603858417323,,,0.4732203808476458,3.067825183293259,inf,,0.8549172834306711
132,2.9275629343318395,-2.9275629343318395,0.0,1.5957923166730623,1.5909720724963141,0.6761980520687644,3.715304980175662,2.612304638841903,,,0.6125606311107803,2.9272432326720694,inf,,0.7511763094531396
133,5.366450846783693,-5.366450846783693,0.0,1.5946244555053113,1.502889401994948,0.5874786815061529,1.8329086181125718,1.6379393164340048,,,0.5158180382284114,5.307245997292338,inf,,0.7631349366728942
134,,0.0,0.0,0.9888359673936991,0.9489411979066935,0.6867825429740334,1.3506923097322443,1.4726203938087157,,,0.47824363442641393,inf,,,0.7983512623138551
135,,0.0,0.0,1.618173411294987,1.6102148303745625,0.43934020317154715,1.4499255496868324,1.5239429771873498,,,0.42445136339222655,inf,,,0.6354153153853328
136,,0.0,0.0,1.4449261945493455,1.4342699018754883,0.4846860334894496,0.8413892319287718,0.8648106086836235,,,0.524519217297268,inf,,,0.9179832291352478
137,2.979884662553148,-2.979884662553148,0.0,1.3340509035455899,1.3061767162014848,0.7801436587329408,3.5579581796858886,1.4670392807317878,,,0.5158180382284114,2.9792029716027804,inf,,0.7083719569907774
138,3.942409931560471,-3.942409931560471,0.0,1.4323684522183742,1.3744282902025453,0.7348025339762432,2.943727204921697,4.182181807860969,,,0.5677978065141052,3.9401938823948424,inf,,0.7106530961571778
139,3.2188758248681997,-3.2188758248681997,0.0,1.6541524465468764,1.60552776123406,0.8089431228232051,4.544560253048744,7.349129564653604,,,0.541134803179459,3.2188758248682006,inf,,0.7719375156577153
140,4.440808922465576,-4.440808922465576,0.0,1.5291921860017428,1.4421758092115653,0.6648241788167177,1.9259677177599457,0.9718752053273736,,,0.552929491858785,4.415468521896514,inf,,0.7585278922565638
141,5.010635294096255,-5.010635294096255,0.0,1.2917481270656248,1.2335260272012547,0.6287373749223736,1.8212487914712576,1.6942485863626504,,,0.5490601803369085,5.0106352940962555,inf,,0.8812290907308339
142,3.0747937616858874,-3.0747937616858874,0.0,1.2398970359742325,1.2316106875817114,0.7882415248400938,3.6895618268845145,5.060841506666403,,,0.5604843169999094,3.074294596057093,inf,,0.7197158407074719
143,3.5450336889677336,-3.5450336889677336,0.0,1.6951973208201396,1.6688426283392896,0.7720191343117553,3.1198644127745845,4.724371181464981,,,0.4576907132971797,3.5435292902399516,inf,,0.5248936254033189
144,3.757872325600888,-3.757872325600888,0.0,1.6371374297158505,1.5843878657847048,0.7942383051692208,3.0450122686250016,5.520375967017959,,,0.45235697871908603,3.757872325600888,inf,,0.5647689112123778
145,3.0302287092974667,-3.0302287092974667,0.0,1.7095288193755815,1.6937687778325188,0.6182921696743214,2.8468113532896084,2.133435780198885,,,0.5113665138247345,3.029633825229672,inf,,0.5431771574136041
146,,0.0,0.0,1.6960970996424933,1.6615297397675586,0.6503512166516392,1.8976780710907462,1.2141498986039416,,,0.468121228110369,inf,,,0.824895630319506
147,5.7037824746562,-5.7037824746562,0.0,1.4927428266392062,1.5148525752827389,0.611470010288477,2.6519066393867536,3.324711664282659,,,0.47824363442641393,5.703782474656201,inf,,0.9037800024273301
148,,0.0,0.0,1.2710730410104707,1.2310789351847227,0.689737188514234,2.2218746587180895,2.829759241714819,,,0.49759852643134905,inf,,,0.6314610858700794
149,,0.0,0.0,1.5709540185518223,1.556781009134361,0.794748042716902,2.8214817569788444,6.693789099753484,,,0.5113665138247345,inf,,,0.8621498390601098
150,,0.0,0.0,1.2752087952862494,1.2603496410959285,0.7829044625090729,2.5506896338038807,3.200298718337112,,,0.524519217297268,inf,,,0.8585973828491059
151,,0.0,0.0,1.5851795540372278,1.552685478377052,0.8340499578843358,2.9696149918914045,2.936227447586088,,,0.5202020156036558,inf,,,0.869599507922064
152,4.5869503213994784,-4.224714776602077,-0.3622355447974015,1.7093979323262567,1.7257930083971453,0.573468891238038,3.332112452065358,2.185379527922839,,,0.5068466436745385,4.584278826956715,3.8788471431892466,inf,0.8814951309374962
153,,0.0,0.0,1.155823070695767,1.124309510002537,0.6596175309953755,2.712567702900577,2.8230274807993254,,,0.5713653840954815,inf,,,0.6691920528211385
154,,0.0,0.0,1.5337652035931684,1.4889648897027281,0.536718452201548,1.6765133302067776,1.4533335398522194,,,0.552929491858785,inf,,,0.9276823452656665
155,,0.0,0.0,1.7717500899341443,1.736991658816353,0.9074145291393889,1.595618442749835,1.7403831027751575,,,0.4629450596409901,inf,,,0.8811453597504837
156,,0.0,0.0,1.7811981050309817,1.72001568369365,0.6207257173282945,1.763960766136065,2.107308017519511,,,0.5022576003740722,inf,,,0.9207529816097372
157,,0.0,0.0,1.7572493437699506,1.7302546901931561,0.5444277719602656,1.7465335526186194,1.8387458272465662,,,0.44694259446804574,inf,,,0.935832430344559
158,5.7037824746562,-5.7037824746562,0.0,1.7587717552885591,1.7309941941540454,0.7203425030058028,2.429098050481479,2.675050383520557,,,0.41268473150466,5.703782474656201,inf,,0.7618866059042417
159,5.7037824746562,-5.7037824746562,0.0,1.761019440539481,1.6886631052579333,0.8827367771688021,3.3658714887854755,10.139885563553383,,,0.5748741956352443,5.703782474656201,inf,,0.8962935067921712
160,,0.0,0.0,1.7277002055662534,1.7035290341861589,0.9291271443378939,3.4525846562700604,2.570878920781272,,,0.468121228110369,inf,,,0.8900449743886942
161,,0.0,0.0,1.704210814311206,1.6877478232787513,0.8843161921410299,2.945066284523635,2.576113613236652,,,0.524519217297268,inf,,,0.9156488253382433
162,5.7037824746562,-5.7037824746562,0.0,1.5486781068967421,1.5328394599391644,0.7626850814332566,2.795543230962194,2.1571958824219983,,,0.541134803179459,5.703782474656201,inf,,0.9122678531106316
163,,0.0,0.0,1.5158816971698297,1.4783194879859818,0.8702192786263665,2.8854805689642897,7.088346182658198,,,0.47824363442641393,inf,,,0.9008236404210133
164,4.605170185988091,-4.605170185988091,0.0,1.6536557085556043,1.5867326003013862,0.7936991357481716,3.206944740402321,3.1818743613769427,,,0.49759852643134905,4.605170185988091,inf,,0.9097983405933537
165,5.010635294096255,-5.010635294096255,0.0,1.6132222317990865,1.5754235374713226,0.7398644492648904,3.6080355079443067,3.46437707414229,,,0.5451288209179292,5.0106352940962555,inf,,0.7352663489976339
166,5.010635294096255,-5.010635294096255,0.0,1.0772544714527585,1.0487597513335336,0.9014331628733974,3.446764246120814,4.566474246667292,,,0.38163879478178075,5.0106352940962555,inf,,0.8974766284653456
167,,0.0,0.0,1.1654771962332882,1.1376673185784747,0.602478870073859,1.8565060978224834,1.7092842296455024,,,0.48319206230712763,inf,,,0.8185350734216948
168,,0.0,0.0,1.7526248964735807,1.7312248427859651,0.7540219149836457,0.8728201708783999,0.9406682320206983,,,0.4576907132971797,inf,,,0.8481924831740304
169,,0.0,0.0,1.3666392370333134,1.363316847035241,0.31912871892651745,0.8581792605877768,0.937516459948047,,,0.43586655696697996,inf,,,0.8996227791853021
170,,0.0,0.0,1.669784424581568,1.6627071944796037,0.9376680396554611,0.7315069831418598,0.9772493520639823,,,0.49759852643134905,inf,,,0.7432100317224122
171,5.7037824746562,-5.7037824746562,0.0,1.3526995018527344,1.3128459533660608,0.3259480433973117,1.2239868879003404,1.3730500501215273,,,0.49759852643134905,5.703782474656201,inf,,0.7978841956256747
172,5.010635294096255,-5.010635294096255,0.0,1.1506809404849547,1.1187205579013437,0.36432856139598124,1.3977694035895365,1.6903136759492325,,,0.44694259446804574,5.0106352940962555,inf,,0.6667419031837872
173,,0.0,0.0,1.5248255145011766,1.4977452034871614,0.9448088423453004,1.1364270100903255,1.366497755476873,,,0.44694259446804574,inf,,,0.7659662491666253
174,,0.0,0.0,1.732585524280606,1.7118073582277098,0.9186882322235842,0.8181770463038077,1.1029149303298682,,,0.4302020962658841,inf,,,0.763644676127177
175,,0.0,0.0,1.008242373921698,0.91622134162052,0.534460845814335,0.8984245543163987,1.0845893441205074,,,0.4880666971167561,inf,,,0.6368693325643052
176,,0.0,0.0,1.4190891986845628,1.3416579686959187,0.8141323620997912,0.8998956150011288,1.0488844341942165,,,0.48319206230712763,inf,,,0.766085971798711
177,,0.0,0.0,1.6533283243854562,1.6305604828677887,0.8786228396454022,0.713869551989969,0.8313641705425224,,,0.41268473150466,inf,,,0.7157332175616825
178,,0.0,0.0,1.6320225909381443,1.6084387598291272,0.9259765337412029,0.7466960089700085,0.8909215973943648,,,0.5490601803369085,inf,,,0.7425276361637024
179,,0.0,0.0,1.5690692432467557,1.5546235108060986,0.880638632284133,0.9226638788423313,1.0952505607700713,,,0.48319206230712763,inf,,,0.8011805695401659
180,,0.0,0.0,1.23951361044447,1.225994051612087,0.7424799121632628,1.1884107883667638,1.1202209567581234,,,0.4302020962658841,inf,,,0.6541085523328245
181,,0.0,0.0,1.5644513318990136,1.5611322560978256,0.7801401650970273,0.9245985641301894,1.1770146962396915,,,0.4928685327679205,inf,,,0.7873756089809053
182,,0.0,0.0,0.6784695057351107,0.6642094348749035,0.6125992707215626,1.307565697979207,1.3437310157712212,,,0.5158180382284114,inf,,,0.7590003572910721
183,,0.0,0.0,1.360947074492338,1.2933160820794345,0.8472450583764702,1.192915176432802,1.2069724805083462,,,0.4302020962658841,inf,,,0.7110859991298212
184,,0.0,0.0,1.6431512330381781,1.6046228204854611,0.3725375751678756,1.2137384841708971,1.445960960970842,,,0.42445136339222655,inf,,,0.7220483114926775
185,,0.0,0.0,1.7785242021021266,1.776258700548939,0.899467821864538,1.0592938794122913,1.1254569562816832,,,0.43586655696697996,inf,,,0.8505068250483745
186,,0.0,0.0,1.7356977805270342,1.6906994672492364,0.9138789098678328,1.0763493587284092,1.3600133123546254,,,0.4880666971167561,inf,,,0.8145380247943206
187,,0.0,0.0,1.7199029244453978,1.7104406207977487,0.915308091769805,1.1559631191960211,1.6183795991150196,,,0.5202020156036558,inf,,,0.8508363655392994
188,,0.0,0.0,1.1539978031650824,1.1433967961622817,0.9179743519660458,1.0744154988405794,1.378850816964558,,,0.4732203808476458,inf,,,0.8487861001960492
189,,0.0,0.0,1.6094928295800706,1.6031753877898218,0.8837163480862138,1.269337079540823,1.6313652383598043,,,0.541134803179459,inf,,,0.8446422116082083
190,,0.0,0.0,1.4916403106456473,1.4844568331375319,0.9294242046868679,1.1496976097804523,1.5332091636917131,,,0.5287703885177266,inf,,,0.8456628756835762
191,,0.0,0.0,0.5796485409414773,0.5156219571255883,0.26468507622023474,1.3528062229750575,1.6255993618816285,,,0.5068466436745385,inf,,,0.7704177885437175
192,,0.0,0.0,1.6763928200921239,1.6296306142506434,0.39131200226534024,2.092641529614217,2.33992264390806,,,0.524519217297268,inf,,,0.9369768806772414
193,,0.0,0.0,1.7069208784689018,1.6955151411458877,0.48319112562907696,2.1915423511617673,2.4765334752102572,,,0.49759852643134905,inf,,,0.9230124229630737
194,,0.0,0.0,1.693042344776384,1.669344954347446,0.7615385664913512,2.1360725641037397,1.8188006589731591,,,0.5158180382284114,inf,,,0.8799206069761968
195,5.7037824746562,-5.7037824746562,0.0,0.3779713771470212,0.29959742243173926,0.41120566385956003,1.9675786366775996,1.5494054080997166,,,0.48319206230712763,5.703782474656201,inf,,0.9364996967924779
196,,0.0,0.0,1.7761121560126019,1.7560823960987242,0.28993529133612556,0.6534814554889912,0.5971521092345741,,,0.5748741956352443,inf,,,0.9074863557864172
197,,0.0,0.0,1.761468677556559,1.7373742405067516,0.4662725405538202,0.22258041211938467,0.2622854522653674,,,0.43586655696697996,inf,,,0.7666428900669661
198,5.7037824746562,-5.7037824746562,0.0,1.274793012808524,1.2364154420032747,0.2778322305759231,0.8520751517041947,0.9158768200768579,,,0.4629450596409901,5.703782474656201,inf,,0.7928084408553349
199,,0.0,0.0,1.5757148877330964,1.5379452337803976,0.954756073958028,0.6588540402299082,0.9001406417938416,,,0.4066654671944331,inf,,,0.6643648938066378
200,,0.0,0.0,1.6585230544841085,1.6125572604428258,0.9425977169160837,0.6559302667967803,0.8874957867823196,,,0.5022576003740722,inf,,,0.7018858320573924
201,,0.0,0.0,1.6453301578440809,1.6382183300035782,0.9635075989445021,0.7948722684133307,1.1968671444257386,,,0.43586655696697996,inf,,,0.7272908234204603
202,,0.0,0.0,1.4724915191654007,1.4710647714655898,0.36509421197475983,1.0614733361714077,0.9666135722753757,,,0.45235697871908603,inf,,,0.7803843481369791
203,,0.0,0.0,1.3110847117529287,1.3130812070852231,0.9458425055879659,1.5718101196799632,1.7296887366596825,,,0.4732203808476458,inf,,,0.7918300241796322
204,,0.0,0.0,1.4917241795248912,1.4835092265300511,0.4878629181778798,0.890260245007075,1.0139718372281776,,,0.49759852643134905,inf,,,0.8947991136287335
205,,0.0,0.0,1.764260649764126,1.7008358001193915,0.930340272680254,0.7457197139532459,1.09684536379268,,,0.44694259446804574,inf,,,0.7616061942849085
206,,0.0,0.0,1.7488697771119988,1.7334349751629694,0.8069123554885556,1.2393865418497851,2.092254477084612,,,0.38804190201132227,inf,,,0.8724503325539718
207,5.2948256381258325,-5.2948256381258325,0.0,1.2123365432304487,1.051488643275867,0.4203133435410331,1.2102664511636305,1.3143672692589128,,,0.4880666971167561,5.240048458424061,inf,,0.7499341504388114
208,,0.0,0.0,1.6027994579490819,1.5692181350199932,0.8857583079681781,0.4748961057696924,0.5138418898104632,,,0.4880666971167561,inf,,,0.8314213208390107
209,,0.0,0.0,1.6269507344115182,1.6153187400197684,0.5525414385830364,0.3108517243284023,0.366269609007149,,,0.48319206230712763,inf,,,0.8251580777811257
210,,0.0,0.0,1.7164318018859928,1.6780804883726481,0.6129154330849689,0.23928273073188416,0.32023879427331575,,,0.468121228110369,inf,,,0.7587872122459492
211,5.703782474656201,-5.665757258158493,0.0,1.0183954806002689,1.001040115297194,0.3595169621719622,0.5117175873428592,0.42445219772741405,,,0.5451288209179292,5.710471462806998,inf,,0.8807976889178019
212,,0.0,0.0,1.040434490814247,0.9922281737647491,0.4787920386548674,1.1748339860289099,1.2447107520838336,,,0.5068466436745385,inf,,,0.8979351254235689
213,,0.0,0.0,1.3736310648618906,1.26859044615095,0.5096386358392491,1.0521544481396932,0.8043076974980119,,,0.5113665138247345,inf,,,0.6588390566959902
214,,0.0,0.0,1.5310215060361643,1.4855366683695155,0.6663544802874526,0.9433807160140496,1.0088002677372565,,,0.541134803179459,inf,,,0.7683623824739666
215,,0.0,0.0,1.289878000634819,1.20322395659376,0.4509574912831578,1.046938104685597,1.0044694913999714,,,0.4928685327679205,inf,,,0.8127330101188234
216,,0.0,0.0,1.7259713538314783,1.7234981661624835,0.2309508081661713,0.1905970209400712,0.23020188580070755,,,0.5113665138247345,inf,,,0.955344453451712
217,,0.0,0.0,1.5562171249935743,1.3439035649143019,0.8035192836427777,1.2176828180308257,0.6610228300264138,,,0.4732203808476458,inf,,,0.8242175915186345
218,,0.0,0.0,1.6677760178698293,1.6622572204860795,0.9324193082473552,1.2466718998689776,1.5276076359236184,,,0.4302020962658841,inf,,,0.7185245518109489
219,,0.0,0.0,1.7208042292062864,1.7027473705729042,0.9120455162801416,1.3274252271440141,1.4899459450377455,,,0.4629450596409901,inf,,,0.7915686316573793
220,,0.0,0.0,1.7272276004807479,1.7178918802197,0.9666201440641549,1.7147676455019998,2.32709647359773,,,0.4629450596409901,inf,,,0.7767276426676326
221,,0.0,0.0,1.6320769976092822,1.6367943014800148,0.9346541507573207,1.6535471686397114,1.6740700764044334,,,0.44144624493110796,inf,,,0.7945767358667518
222,,0.0,0.0,1.6778507509762837,1.6582576960381896,0.8887213290371333,1.2509981932839824,1.1850110433221372,,,0.44694259446804574,inf,,,0.7808324443630447
223,,0.0,0.0,1.635264422424703,1.5878173469724945,0.9371906597445521,1.8213365420074235,1.610116565376422,,,0.4732203808476458,inf,,,0.8416016057468862
224,5.010635294096255,-5.010635294096255,0.0,1.665637049463174,1.623586974785774,0.6536781331877041,3.0898491713180647,2.442975633387948,,,0.4576907132971797,5.0106352940962555,inf,,0.8091574842455228
225,3.2908033171192588,-3.2908033171192588,0.0,1.5618362329188042,1.5042694519140516,0.836704068612121,4.340093862404628,9.117033589301416,,,0.5022576003740722,3.288464111674916,inf,,0.729209526168681
226,2.824432576493291,-2.824432576493291,0.0,1.5780156476282903,1.5197910296669297,0.7913208972704273,4.965346077954277,37.802100269199514,,,0.585052858160615,2.823087011090568,inf,,0.6999872961964108
227,3.3980203756686773,-3.3980203756686773,0.0,1.412128263571867,1.3904647255251334,0.7208006348787162,3.497020239895499,3.29305231145689,,,0.5978297680564633,3.3978695915694805,inf,,0.5881092013257545
228,3.106472636020872,2.517710822675625,-5.624183458696497,1.6828065829134027,1.6663764187816366,0.7128252579070901,3.132043522458325,2.458636887291729,3.7307437691183005,,0.5713653840954815,3.105795186195236,2.614794406777346,inf,0.6281598205214296
229,2.7183320572135523,-2.7183320572135523,0.0,1.6127007034236782,1.6178230917821765,0.8350873575438261,3.8967314461758766,2.725806218626017,,,0.581717464821069,2.7179322009566604,inf,,0.7081363580253416
230,3.7503055466854986,-3.7503055466854986,0.0,1.559068388237946,1.5458467892000285,0.7568372418419614,3.419230590722284,3.0431679937669456,,,0.6180765742263259,3.749809678177537,inf,,0.7671707460919357
231,3.5065578973199822,-3.5065578973199822,0.0,1.484985823977591,1.4532032355584676,0.6905717288588205,3.828737296823019,3.101520954608128,,,0.581717464821069,3.506557897319982,inf,,0.6444743536073173
232,3.126728815076223,2.573714758314464,-5.700443573390687,1.5278101024075914,1.5031979531416444,0.8572289603572829,3.9904960494638497,1.8540059717194106,6.66510194632152,,0.6357360191111145,3.1263472880257526,2.580774087895963,inf,0.721852753633019
233,2.4665494328193085,2.540746960011433,-5.0072963928307415,1.3607743979235885,1.3382055849935446,0.8030448765040905,4.42986549265788,19.44410381208459,2.5411460715251843,,0.5915533975974677,2.4661503213055567,2.5478238740562134,inf,0.7290029916695611
234,3.6528276300695968,-3.6528276300695968,0.0,1.5595660746138709,1.5385719692914208,0.8070227988177275,3.799104910135252,4.088092117697402,,,0.6068309995095971,3.6513696053642843,inf,,0.8121023420297344
235,3.8673193082782413,-3.8673193082782413,0.0,1.7162985449141184,1.691788528427368,0.6750160033950154,3.675501857075157,2.1668062164510733,,,0.5490601803369085,3.8648214039438518,inf,,0.64096517278166
236,2.6537745154169063,3.0466690579737805,-5.700443573390687,1.597265747192028,1.5614454527129777,0.7848984207467641,3.4744847717796485,3.0705805541934383,3.0475126715095557,,0.5370774965580548,2.6529309018811307,3.054190474040585,inf,0.7537930486516602
237,3.2516212323111264,-0.5253221319938408,-2.7262991003172856,1.5492485332911465,1.4361115844347703,0.8122642699241405,5.390965709290812,34.35578952074497,,,0.5915533975974677,3.2453338838312225,3.1993864352212724,inf,0.7004046916962006
238,2.297940239046777,-2.297940239046777,0.0,1.5761428828635082,1.5484238500416354,0.8121800262041678,4.26251765720221,57.79215677716731,,,0.5748741956352443,2.2957198240853187,inf,,0.4793053386007862
239,2.4184724804172064,-1.4652210467398339,-0.9532514336773726,1.7086370969448328,1.7001138225043042,0.810106919379629,4.411572494163228,21.699220675665906,5.319329556146353,,0.4066654671944331,2.4179959445053734,5.0775459993788825,inf,0.7883803783389706
240,3.299796405468557,-3.299796405468557,0.0,1.7086370969448328,1.7146247019102179,0.7368027999938693,3.886352230132641,7.472085907391598,,,0.34100769111774265,3.2995437279356556,inf,,0.7528625684436953
241,2.6756608684465033,-2.6756608684465033,0.0,1.7498410394462536,1.7453613192088266,0.8162464246759134,3.8510789608489495,17.127906660023655,,,0.40055318934786044,2.6739708874493475,inf,,0.8430226522444335
242,3.196189110702427,-3.196189110702427,0.0,1.7283001298739533,1.6446906178474043,0.7101788805220951,3.357557659299151,4.860862407178256,,,0.5329562494928909,3.1930997885532166,inf,,0.8756487252631772
243,3.317532313679933,2.2685210876694692,-5.586053401349402,1.367785713739027,1.3458424691425288,0.7646508098744106,4.581774676889556,43.894654781756564,2.4144563161989825,,0.585052858160615,3.3165499076018707,2.4108424326934643,inf,0.5220989010659012
244,4.120377976542092,-4.120377976542092,0.0,1.5712107524870191,1.563910794207806,0.8460907743763447,3.8220861815718266,8.058102146187776,,,0.5022576003740722,4.117954427861235,inf,,0.7016872941520973
245,2.8609704552063913,2.8394731181842956,-5.700443573390687,1.7191862159711921,1.6803427688788435,0.696602568120407,4.542143307592452,7.102923428214396,3.068773920248556,,0.5329562494928909,2.859842552861342,2.847278823060374,inf,0.6825428445939667
246,2.821793950789895,-2.821793950789895,0.0,1.5236061317440073,1.527211089865093,0.9010210232838103,4.6109496534476735,4.597803917104408,,,0.5748741956352443,2.821592242501339,inf,,0.45044146836688437
247,2.70805020110221,-2.70805020110221,0.0,1.5173280221739356,1.4871447585602873,0.7282059286537739,3.5076568228580727,4.81316044707633,,,0.552929491858785,2.70805020110221,inf,,0.6812188545281005
248,3.0341383053483937,-3.0341383053483937,0.0,1.5923679005643459,1.5732142127333344,0.7949278337904463,4.130372344430644,5.818660287947665,,,0.5677978065141052,3.0335495275724926,inf,,0.7736259974906337
249,2.983327708192387,-2.983327708192387,0.0,1.7172193836938994,1.7112640391748979,0.7738061063961744,3.7154562177697885,4.271428385414777,,,0.6207552362147116,2.9813911562833333,inf,,0.5412053358474502
250,4.47234429952858,-4.47234429952858,0.0,1.0918622369109585,1.0611020779035958,0.7009761250980008,3.715681931948613,3.9659011648459503,,,0.5567373465730988,4.45770849431163,inf,,0.5449974631845499
251,3.113142353514707,-3.113142353514707,0.0,1.612336414851164,1.580655031106441,0.7408940786902799,3.7893443202496258,1.7556695330662935,,,0.5641709578113449,3.112515808877291,inf,,0.5343182212406687
252,3.6111164141352945,-3.6111164141352945,0.0,1.2700957351614104,1.2339352373624022,0.734324260440393,3.843124673172585,4.315066693439144,,,0.5329562494928909,3.6102736757649296,inf,,0.7556367149838675
253,3.149072296862188,-3.149072296862188,0.0,1.7108675011642662,1.6964447709543269,0.8246073467053513,4.4812815597238975,1.8482953065170618,,,0.5783247308855777,3.1470720927392173,inf,,0.7926191578475502
254,2.898860620780988,2.1084357720497535,0.6897970936746631,1.6073549704665093,1.5952692925826233,0.7927553025206415,3.5708280429282073,4.611059590756357,2.108892463237312,0.6897970936746634,0.6068309995095971,2.898403929593429,2.1155702657683415,0.6964972674452273,0.6048743665406823
255,3.4626576824625537,-3.4626576824625537,0.0,1.6279450365470975,1.5919120430231015,0.7605227551117006,4.0192613152799215,13.22263974411483,,,0.6207552362147116,3.461301305731861,inf,,0.7385689547788947
256,2.895223143472002,-2.895223143472002,0.0,1.5422878099798094,1.517193542912169,0.7553879407273448,3.7445967663099293,5.999077993080057,,,0.6038851895711802,2.894781466384865,inf,,0.7127510038000487
257,4.074896929497411,-4.074896929497411,0.0,1.2983207241794164,1.265208926151833,0.7169153424309412,3.2184779960188474,2.482493143897494,,,0.524519217297268,4.073235599011865,inf,,0.6328795312413265
258,3.5065578973199822,-3.5065578973199822,0.0,1.600022764736348,1.5486680041914322,0.7330056573779921,2.9640652910728216,2.500594854862413,,,0.5329562494928909,3.506557897319982,inf,,0.6681134226834495
259,3.218342206817043,-3.218342206817043,0.0,1.3907166436398624,1.390670772068559,0.723841418846989,3.5908453761306864,5.106144301332165,,,0.585052858160615,3.218320423576501,inf,,0.7530343354518175
260,3.1860588228676763,-3.1860588228676763,0.0,1.555478141222963,1.5302787047054056,0.8159944592350813,3.278807322248922,6.52369917178032,,,0.581717464821069,3.184742818498742,inf,,0.6735971550811701
261,2.3953381586726357,2.611958234158106,-5.0072963928307415,1.525875994553266,1.5030458841136805,0.7731735492820969,4.156374877231438,14.629241311551993,2.6921512703841466,,0.6068309995095971,2.395187830120131,2.618786365241639,inf,0.438615820183098
262,2.5445417556474528,3.155901817743234,-5.700443573390687,1.606638844410583,1.5803321161097732,0.8558566239383828,4.06247461601898,4.08813617331655,3.1562114575178715,,0.6125606311107803,2.544232115872815,3.1628892600489005,inf,0.7848989064385813
263,3.152939475501947,2.5475040978887398,-5.700443573390687,1.5291985207767564,1.5153539336721382,0.7820934996241229,4.0661081364930025,1.8702618625842646,2.5481874358638814,,0.5641709578113449,3.152256137526805,2.554865238394911,inf,0.5452148016561541
264,5.7037824746562,-5.7037824746562,0.0,1.4249028915272555,1.3917810351069082,0.6517609941349003,3.1292858889123565,5.207180603955493,,,0.4880666971167561,5.703782474656201,inf,,0.6540357832849849
265,5.45424948965462,-5.45424948965462,0.0,1.7139004882140014,1.6346290899404612,0.6302738416856719,2.7957022830570284,2.604534808079945,,,0.5677978065141052,5.39629777490824,inf,,0.7781705313993377
266,3.147987651771561,-3.147987651771561,0.0,1.2650726706594493,1.2266881766947038,0.6510857535477735,3.49600076423604,12.644752819011067,,,0.5113665138247345,3.1470720927392173,inf,,0.6824808328355735
267,4.605170185988091,-4.605170185988091,0.0,0.8502531830276443,0.8319486043960718,0.6942038404822979,2.961101438584725,3.286732611380572,,,0.1995021272786615,4.605170185988091,inf,,0.4627887788547191
268,2.9530256560408876,-2.9530256560408876,0.0,1.511089514030782,1.4961683698112418,0.6671895615994138,3.2008266326086248,2.0664511958205662,,,0.34100769111774265,2.9524599502095863,inf,,0.5390199402177769
269,3.4942658371599022,-3.4942658371599022,0.0,1.5234704232033065,1.5039590234702036,0.7181703085781284,3.70043793344091,3.4223731659103733,,,0.5329562494928909,3.4936782344563206,inf,,0.9213823109897917
270,3.440180772455551,-3.440180772455551,0.0,1.766305707871139,1.763851918534098,0.7871690325873669,3.3065951498078374,5.3852473043453415,,,0.5490601803369085,3.438899248846167,inf,,0.5878986741742978
271,4.31748811353631,-4.31748811353631,0.0,1.624552013061031,1.6383548316755325,0.8384690478794457,3.261275008244077,1.6672538108257333,,,0.468121228110369,4.31748811353631,inf,,0.7935359894021595
272,4.605170185988091,-4.605170185988091,0.0,1.518903217030958,1.514303066360268,0.773211520363363,3.0820620747678893,2.3205146509696286,,,0.524519217297268,4.605170185988091,inf,,0.8815784596984639
273,,0.0,0.0,1.6576922736048583,1.6449993720323162,0.45509499666060643,1.8323891815953979,1.52565751175383,,,0.47824363442641393,inf,,,0.7263175891206036
274,5.7037824746562,-5.7037824746562,0.0,1.7023688142226456,1.692791031721176,0.5216247557346336,1.6318207247921876,1.402582998559702,,,0.1354413587855425,5.703782474656201,inf,,0.8948372288592735
275,3.5065578973199822,2.1938856760707046,-5.700443573390687,1.7023688142226456,1.653328948423013,0.5845389412337351,2.325697171585171,2.0882014796891357,2.1938856760707046,,0.1792956407887421,3.506557897319982,2.200563478601734,inf,0.6847768492679174
276,5.7037824746562,-5.7037824746562,0.0,1.6994762555906557,1.643367851399597,0.6191010249680619,1.9900362503043818,1.9624369983830983,,,0.22807408875533447,5.703782474656201,inf,,0.8747876447969261
277,4.300380441268888,-3.8618847817772965,-0.4384956594915913,1.6817814464109864,1.6050728662872094,0.4660093339275682,1.8819427919904776,1.8506002944505973,,,0.45235697871908603,4.2985028136252295,3.9735679197580227,inf,0.7942057552895754
278,5.213958467060506,-5.213958467060506,0.0,1.7162724493463446,1.7006092355340863,0.7515468374563837,2.7058580883362633,2.8604960881259656,,,0.4880666971167561,5.169240324272894,inf,,0.7158425058562816
279,4.605170185988091,-4.605170185988091,0.0,1.652888873244985,1.6151461640247868,0.6917422288898741,2.1714578022484243,2.027367518326238,,,0.5329562494928909,4.605170185988091,inf,,0.6616405857709494
280,4.624091891033139,-4.624091891033139,0.0,1.7006676779261274,1.6573938000276542,0.7581939637141315,2.4029118986612428,1.9634474119851624,,,0.4880666971167561,4.620847998707322,inf,,0.910797961723694
281,5.7037824746562,-5.7037824746562,0.0,1.4814509285913133,1.4671198543392832,0.5166310337262318,2.6242014125562245,2.416776694722004,,,0.21876365787541036,5.703782474656201,inf,,0.7746594901982585
282,5.010635294096255,-5.010635294096255,0.0,1.4814509285913133,1.4259714459443862,0.544951279675957,1.9526031501878804,1.8459378033785279,,,0.1687963801566332,5.0106352940962555,inf,,0.9375709202188701
283,4.070642759838886,-4.070642759838886,0.0,1.5310375894944488,1.5243021868065312,0.8465988737936231,2.9618663090956336,1.6971698410064042,,,0.5022576003740722,4.0686768154735224,inf,,0.9048215411813733
284,3.3685643183302623,-2.2627926552645103,-1.1057716630657521,1.6461982669924653,1.5869146920540436,0.7965042975755374,3.909629474587017,1.9771580644468538,,,0.5287703885177266,3.3594158476472007,3.9877060911187825,inf,0.8102162538195161
285,5.703782474656203,-2.319538206360189,0.0,1.6999871686453027,1.6204015183658034,0.6423387701496007,2.267204435705524,2.5615796605002052,,,0.5567373465730988,6.603543904579146,inf,,0.7432534162712917
286,4.175111918581848,-4.175111918581848,0.0,1.3030357125024736,1.2798219537262685,0.8278797445859428,3.8043713175721012,2.909337927428087,,,0.541134803179459,4.166198665990084,inf,,0.8269567886588687
287,4.462430560778738,-4.462430560778738,0.0,1.6568528537178306,1.6208670850306814,0.6387248359903923,3.1925608855637826,3.9084635096907054,,,0.5022576003740722,4.437774279410813,inf,,0.8419077118865853
288,4.297405193918031,-4.297405193918031,0.0,1.7204796923632113,1.7041194099753187,0.6535846848518373,3.62890653939782,2.307380815713399,,,0.5287703885177266,4.295237504601491,inf,,0.8516751381986414
289,4.182114359072357,-4.182114359072357,0.0,1.646141291381432,1.5690900073110834,0.7399221091491798,3.264602659892354,2.777074122800795,,,0.5567373465730988,4.176277944984787,inf,,0.6326997141799321
290,3.757872325600888,-3.757872325600888,0.0,1.745557069081291,1.7339759807738695,0.7258410832910883,4.014126373019797,17.62157021805058,,,0.5287703885177266,3.757872325600888,inf,,0.6021640779624277
291,4.90115971490705,-4.90115971490705,0.0,1.7046083896076076,1.7032327162925314,0.6303772357740951,3.2425140025839245,3.108544641367483,,,0.5329562494928909,4.88400264316289,inf,,0.8295770864808718
292,4.95116707824039,-4.95116707824039,0.0,1.7641029831885593,1.70517316710682,0.6780004751628365,3.2418501552724925,2.823424397451993,,,0.4066654671944331,4.939866223208049,inf,,0.7961461005572594
293,4.856558553015152,-4.856558553015152,0.0,1.6720632008660339,1.6296110826348602,0.7853721598722647,3.2754190141969284,8.9536764745223,,,0.47824363442641393,4.836681986972818,inf,,0.7551048354698133
294,4.605170185988091,-4.605170185988091,0.0,1.698202976123421,1.6465156178346978,0.6696643930485924,3.2804121109862434,3.365143796426276,,,0.4928685327679205,4.605170185988091,inf,,0.650899298556974
295,4.0943445622220995,-4.0943445622220995,0.0,1.582272609631536,1.5503528373852444,0.8002738547145289,2.8379425935489704,2.802965196457628,,,0.5202020156036558,4.0943445622221,inf,,0.7566874585268363
296,3.681980397951307,-3.681980397951307,0.0,1.6809988136802454,1.6824267778540065,0.8044900509943103,4.144392274304176,26.477573938905156,,,0.5490601803369085,3.6751957270280142,inf,,0.7236897681308424
297,4.482425835075331,-4.482425835075331,0.0,1.657847572220693,1.6406372897085384,0.7687343426932578,4.050136557558379,3.5054258735449926,,,0.47824363442641393,4.472194503297292,inf,,0.8884029599022263
298,3.624340932976365,-3.624340932976365,0.0,1.6533414287225894,1.6506950131073987,0.6317111875894736,3.5242531698214568,6.66383495138468,,,0.468121228110369,3.624340932976365,inf,,0.8064545967627619
299,4.0943445622220995,-4.0943445622220995,0.0,1.5080875845269117,1.4424950578077087,0.8368205569236202,4.243624637822779,9.221676021904674,,,0.4928685327679205,4.0943445622221,inf,,0.8510939594673778
300,5.7037824746562,-5.7037824746562,0.0,1.6603974068220924,1.6294835784183594,0.7746019022685452,3.0936713008543584,2.8904723902187532,,,0.5451288209179292,5.703782474656201,inf,,0.8238233729598082
301,4.605170185988091,-4.605170185988091,0.0,1.6906887646787367,1.6489373437269093,0.7185352029344189,2.8458673019435174,1.2799550840346376,,,0.4928685327679205,4.605170185988091,inf,,0.9106896391218775
302,5.703782474656201,-0.15210086599083203,0.0,1.5651146820056376,1.5403656644463506,0.7620135436976108,3.210972541519765,1.8283358053693868,,,0.5978297680564633,9.328123407632566,inf,,0.8982303060330625
303,5.703782474656203,-4.658089020969232,0.0,1.673134477663548,1.6687650847113948,0.7547282184544427,3.160266172756688,4.399990967204507,,,0.5329562494928909,5.906306738767675,inf,,0.9200497050633372
304,5.7037824746562,-5.7037824746562,0.0,1.5093068573954216,1.4482125409792588,0.5549120938779953,3.226367833043604,7.647203637306628,,,0.4629450596409901,5.703782474656201,inf,,0.6757840036451201
305,4.95116707824039,-4.95116707824039,0.0,1.6121300395721803,1.6120595820149044,0.7551779592404182,2.9324225067441922,3.109128820555455,,,0.524519217297268,4.939866223208049,inf,,0.8064675128969336
306,,0.0,0.0,1.7121572878633002,1.7186317097302086,0.7032484999938339,2.507552243082269,2.408853498662242,,,0.5329562494928909,inf,,,0.9002489240526133
307,,0.0,0.0,1.6786637689337844,1.6985693069275358,0.6340538017585524,2.721102421261562,4.0835389185872835,,,0.5748741956352443,inf,,,0.9391434982376904
308,5.7037824746562,-5.7037824746562,0.0,1.6621460677844202,1.6261473076075417,0.8105867525115025,2.7382863104572897,2.7603060928758474,,,0.5113665138247345,5.703782474656201,inf,,0.9258436402013203
309,,0.0,0.0,1.7580244904869284,1.7098310487657349,0.7354959626626226,2.056950353784884,1.2804072271988263,,,0.5022576003740722,inf,,,0.9247226481430012
310,5.470422923867685,-5.470422923867685,0.0,1.7691163375192158,1.726299981782639,0.75002410053293,2.7784895281584947,2.8377542676417558,,,0.4928685327679205,5.413603522005833,inf,,0.9452906808603955
311,,0.0,0.0,1.6968731134440662,1.6977537628023118,0.8394861726138079,3.0531316243262174,3.807431908533958,,,0.5451288209179292,inf,,,0.9395670270047465
312,,0.0,0.0,1.7351381318952752,1.7155547396277036,0.6371163747548926,2.298879477878806,2.08625401445877,,,0.5022576003740722,inf,,,0.7503576762027155
313,,0.0,0.0,1.658359162230997,1.6358205568718627,0.8126984196445691,2.9598050246396537,2.2848943961636667,,,0.5641709578113449,inf,,,0.9438738225905645
314,4.605170185988091,-4.605170185988091,0.0,1.5898553390419847,1.5512943283377412,0.7143995863457201,3.850706392475489,7.464226691168747,,,0.5451288209179292,4.605170185988091,inf,,0.5491402069825865
315,4.342143555087564,-4.342143555087564,0.0,1.7081532635939345,1.6667672260761088,0.7580221083081157,3.136852458837328,2.73730921097206,,,0.4732203808476458,4.3351430487750315,inf,,0.7214407125181288
316,5.7037824746562,-5.7037824746562,0.0,1.5776966261007754,1.5645588652808011,0.7107939374866502,3.256808639733729,3.708078692031893,,,0.4880666971167561,5.703782474656201,inf,,0.893244000918272
317,5.010635294096255,-5.010635294096255,0.0,1.6990310690300587,1.6974623638621849,0.7602438829264664,3.26937967533365,3.933011551504155,,,0.5567373465730988,5.0106352940962555,inf,,0.8936158292576937
318,5.010635294096255,-5.010635294096255,0.0,1.7352928205672409,1.739676295700839,0.601567202639613,3.71921443830751,2.39732704355957,,,0.5287703885177266,5.0106352940962555,inf,,0.6874900889683232
319,,0.0,0.0,1.694740272684661,1.6928188771113168,0.7208813277346883,2.724412046242977,4.1803340429851445,,,0.5202020156036558,inf,,,0.8096817287131828
320,,0.0,0.0,1.5275406513035394,1.5012981457511312,0.7407675300039226,3.062549576795835,4.293344679922987,,,0.468121228110369,inf,,,0.9354414873308285
321,5.7037824746562,-5.7037824746562,0.0,1.5315325524670111,1.5071166632169835,0.6960300964816712,2.541275545686532,2.471699112334398,,,0.5748741956352443,5.703782474656201,inf,,0.781191387376914
322,,0.0,0.0,1.660225739155731,1.6567898540408517,0.7921431412712185,2.6184652138808455,2.0512236451211927,,,0.47824363442641393,inf,,,0.8130866807910551
323,5.010635294096255,-5.010635294096255,0.0,1.741795421779825,1.7353133642437322,0.7427593191713887,2.942532197111261,2.483474392010859,,,0.4880666971167561,5.0106352940962555,inf,,0.8684482201891705
324,,0.0,0.0,1.7104932737751763,1.7326122218807478,0.7307643224512357,3.252378849535596,2.702349692567705,,,0.552929491858785,inf,,,0.944130055088126
325,5.7037824746562,-5.7037824746562,0.0,1.6237973821412828,1.599777790880611,0.7216221137992093,2.5474433418557454,3.2455241852533585,,,0.44144624493110796,5.703782474656201,inf,,0.9242408380767698
326,5.7037824746562,-5.7037824746562,0.0,1.5407209102484276,1.5447315344510142,0.855608289418501,3.0130353634071163,1.6727853896845133,,,0.4732203808476458,5.703782474656201,inf,,0.9305885245492869
327,,0.0,0.0,1.5599148305460788,1.553385230135094,0.7468145636222667,2.8609312065638184,2.340549730422247,,,0.4732203808476458,inf,,,0.8300489238245764
328,5.7037824746562,-5.7037824746562,0.0,1.5981121191735306,1.5988151717126466,0.5467456193557013,2.591634703995052,2.756252616935057,,,0.5370774965580548,5.703782474656201,inf,,0.6821886715284097
329,5.7037824746562,-5.7037824746562,0.0,1.4262901254783475,1.4125497611039572,0.6065311684167768,2.397736183387907,2.712011759266857,,,0.468121228110369,5.703782474656201,inf,,0.7640731399499007
330,,0.0,0.0,1.4527390473986859,1.4559528072573833,0.559513173140587,2.343032319123423,2.22145268637302,,,0.5490601803369085,inf,,,0.838705010493056
331,5.7037824746562,-5.7037824746562,0.0,1.595260757261007,1.5987546143426548,0.7369402129355797,3.4866941938280456,3.6179215027557197,,,0.4928685327679205,5.703782474656201,inf,,0.8382389129155634
332,5.7037824746562,-5.7037824746562,0.0,1.7189091821002318,1.681349879346812,0.6392924626478506,2.609291605514315,3.8040826921071247,,,0.541134803179459,5.703782474656201,inf,,0.667800727511844
333,5.7037824746562,-5.7037824746562,0.0,1.5895073819658114,1.5671936996473952,0.6753470044955678,2.623720613041199,3.9015059489268666,,,0.4928685327679205,5.703782474656201,inf,,0.814505257347922
334,5.703782474656203,-4.2398116394944445,0.0,1.6460440832898198,1.6322190079206664,0.7947573789325019,3.243931563198654,3.507959404435238,,,0.5490601803369085,6.000393177852283,inf,,0.9101893276632795
335,5.7037824746562,-5.7037824746562,0.0,1.467162607457699,1.4576729078654482,0.5477784876011709,2.8912059841443427,2.108220173577183,,,0.5158180382284114,5.703782474656201,inf,,0.8872241273917361
336,5.7037824746562,-5.7037824746562,0.0,1.1279869796339341,1.0965145014950488,0.7515012724224691,2.7575874151970132,1.9545891525306351,,,0.48319206230712763,5.703782474656201,inf,,0.8493464267989467
337,5.703782474656201,-3.4222694847937207,0.0,1.5585772317509103,1.552946491666784,0.6730901577568382,3.1082920378902954,2.631630195323426,,,0.5287703885177266,6.214608098422191,inf,,0.8567505395412907
338,,0.0,0.0,1.67164915972387,1.6473896584183345,0.6577823189584842,3.0937335187664208,2.816946685295102,,,0.541134803179459,inf,,,0.9031856927826197
339,,0.0,0.0,1.724373626285931,1.7165632686831092,0.6037288027791561,2.825908874535755,4.204864113281425,,,0.5370774965580548,inf,,,0.7118577634757006
340,5.703782474656204,-2.0913869073739413,0.0,1.540699101706951,1.5028365354428102,0.6499373411011022,2.2792067293067038,1.9367597043195839,,,0.5202020156036558,6.707084583519986,inf,,0.9137921506212409
341,4.605170185988091,-4.605170185988091,0.0,1.564302934453639,1.5494580297958764,0.7285353540566036,2.784078860752987,2.1433335428145215,,,0.552929491858785,4.605170185988091,inf,,0.7949954454265381
342,4.067604067225654,-4.067604067225654,0.0,1.5493589334271047,1.543288496643882,0.7830027288589422,3.0563867229995805,3.882841785869584,,,0.5370774965580548,4.065433218727681,inf,,0.9334744001380896
343,,0.0,0.0,1.617826055736821,1.6038465759133016,0.6788061457983089,2.971887239773858,5.394207066124968,,,0.5370774965580548,inf,,,0.7889761645402288
344,,0.0,0.0,1.6705565406290028,1.6591078910486015,0.576287097920323,2.6584805384640986,4.6712311246065665,,,0.49759852643134905,inf,,,0.7155486982125093
345,,0.0,0.0,1.7486102501580032,1.6989408229982486,0.7024098296242772,2.400081629667159,2.1932600174172223,,,0.5604843169999094,inf,,,0.9466713221115807
346,,0.0,0.0,1.6310767855880797,1.626529743040437,0.7963138330472277,2.8572899543398287,3.1589076919060592,,,0.4928685327679205,inf,,,0.9334597374096015
347,5.7037824746562,-5.7037824746562,0.0,1.527544223132796,1.5303800083302803,0.7734164538181345,2.8222466240588187,3.9046968604033863,,,0.552929491858785,5.703782474656201,inf,,0.9421479105706443
348,5.010635294096255,-5.010635294096255,0.0,1.747040638112196,1.7561543993987625,0.6022364461211158,2.6075196840095365,2.4632718570901004,,,0.48319206230712763,5.0106352940962555,inf,,0.9344919619751947
349,5.703782474656202,-5.095379010692874,0.0,1.6084666670476564,1.6063489625874536,0.7119228317786731,2.8782825262210228,4.0899706553670505,,,0.5567373465730988,5.816577968801545,inf,,0.9496939749177195
350,5.7037824746562,-5.7037824746562,0.0,1.7662499802505427,1.754836893205432,0.7682317401148794,2.8821846365232178,3.3533145233356234,,,0.541134803179459,5.703782474656201,inf,,0.9321536823508837
351,5.010635294096255,-5.010635294096255,0.0,1.7493011496135358,1.7491557548361665,0.7190862758013054,3.15899042873932,2.9504794771695964,,,0.5370774965580548,5.0106352940962555,inf,,0.9286909795478748
352,4.057835929879996,-4.057835929879996,0.0,1.455608296312879,1.4548444952837047,0.6922281784138561,3.8322288542145517,3.10408696094298,,,0.524519217297268,4.05448302879697,inf,,0.6960337637591424
353,5.7037824746562,-5.7037824746562,0.0,1.1219390101160862,1.114190430045763,0.8738952082618161,3.1122564059823605,2.581019171779102,,,0.5567373465730988,5.703782474656201,inf,,0.7302923203391706
354,,0.0,0.0,1.7640094748828576,1.7514084576495204,0.8625472542073197,2.6937299524609792,2.2337475852506183,,,0.5641709578113449,inf,,,0.8925774462183599
355,,0.0,0.0,1.517721163831132,1.497050799427584,0.7660236499343676,2.5376480213207033,2.8380375869661503,,,0.48319206230712763,inf,,,0.9426527856463973
356,,0.0,0.0,1.4103891665856558,1.3520654142985828,0.5689809150003038,2.3531953686264275,2.0510298560081366,,,0.5329562494928909,inf,,,0.8909181231250339
357,,0.0,0.0,1.6182665692149656,1.5974242316311866,0.5497025873354275,2.408506461811903,1.8335887055926876,,,0.552929491858785,inf,,,0.7216627336735452
358,,0.0,0.0,1.7235821480573534,1.6798308922527745,0.5038814461636123,2.6143383950425334,2.2141467939371693,,,0.468121228110369,inf,,,0.8744377750740899
359,,0.0,0.0,1.6401981759554598,1.5793699347579166,0.6745587264825376,2.400209160424743,3.948944362162109,,,0.5713653840954815,inf,,,0.6924428362556506
360,5.7037824746562,-5.7037824746562,0.0,1.4656779567430769,1.4485750580157217,0.736937450339143,2.9039193304480087,2.7918581637141533,,,0.552929491858785,5.703782474656201,inf,,0.9449337035879675
361,4.583114560433454,-4.583114560433454,0.0,1.5904058857790933,1.5755151220070134,0.5883275739299169,3.119237650925934,4.531793874501709,,,0.6038851895711802,4.57993571480955,inf,,0.6567394427854122
362,5.7037824746562,-5.7037824746562,0.0,1.6877185344407293,1.660795404496706,0.7688980102915848,2.6270880553249834,2.2581019736596852,,,0.5113665138247345,5.703782474656201,inf,,0.9482039655873922
363,5.010635294096255,-5.010635294096255,0.0,1.4983022681760358,1.4945986468011283,0.8299311616408489,3.119653277862783,3.0541721004306623,,,0.5329562494928909,5.0106352940962555,inf,,0.9019298007943811
364,5.7037824746562,-5.7037824746562,0.0,1.5506561012543805,1.551173294895155,0.4191028233511531,2.4609355294474455,2.3626893718460655,,,0.48319206230712763,5.703782474656201,inf,,0.8844832944790221
365,,0.0,0.0,1.7019130730778387,1.6810239513469982,0.7371640038420441,2.632263989814289,2.4681275858556915,,,0.5713653840954815,inf,,,0.698269671074964
366,3.827753967122578,1.4948200730531553,-2.2254963730150776,1.7583020816017179,1.748571972139875,0.6929848234778229,2.8046442165582723,3.7188798903970914,1.8756171129926955,,0.5113665138247345,3.824826460397991,1.4471735978326723,1.0479685558493548,0.6673929235599423
367,5.010635294096255,-5.010635294096255,0.0,1.5810855630453777,1.5799805152049322,0.6700487949851438,2.603257332257069,2.6311505027779227,,,0.4732203808476458,5.0106352940962555,inf,,0.8844384224327427
368,5.7037824746562,-5.7037824746562,0.0,1.4835646560140234,1.4652855685650448,0.7110234713434372,2.569001649661336,2.670921284145295,,,0.4880666971167561,5.703782474656201,inf,,0.8947628717326355
369,,0.0,0.0,1.6818584503145033,1.6781769337722487,0.7227215119263236,3.0311533857124178,3.2888576562550087,,,0.524519217297268,inf,,,0.6372641141678698
370,4.822582153119847,-4.822582153119847,0.0,1.5770962862352538,1.5690491243174516,0.6729820933960068,3.155889049337351,2.338933958130382,,,0.5329562494928909,4.746989799472717,inf,,0.8467155925822225
371,,0.0,0.0,1.5649450415200086,1.5406663908006661,0.537486809661814,2.5198390852230843,2.2669929893005634,,,0.5202020156036558,inf,,,0.6903939878610243
372,,0.0,0.0,1.7410852910261885,1.726263531573701,0.658679238051205,2.117422311583805,2.004891653115205,,,0.5329562494928909,inf,,,0.6668872965943693
373,,0.0,0.0,1.4678746144127246,1.4530737955919917,0.460684095072546,2.2942071263461488,2.1292032233067064,,,0.4928685327679205,inf,,,0.9408684166993547
374,5.687609040443135,-5.687609040443135,0.0,1.5963843763607513,1.57003342398247,0.6703535686420061,2.5704170538489604,1.9538608594405984,,,0.5451288209179292,5.680717201725205,inf,,0.946676180022925
375,,0.0,0.0,1.682122040404082,1.6828658962424299,0.6907317822821349,2.396629100268527,2.1677643718716113,,,0.524519217297268,inf,,,0.6186060378760267
376,5.7037824746562,-5.7037824746562,0.0,1.69620209433777,1.646362433372021,0.7243910940143411,2.519970972272093,2.236416879986666,,,0.48319206230712763,5.703782474656201,inf,,0.6922057958449319
377,4.0943445622220995,-4.0943445622220995,0.0,1.7348957716331757,1.6284509816587374,0.7287906513574147,2.529816060002719,1.61007888784633,,,0.49759852643134905,4.0943445622221,inf,,0.8650419060157014
378,4.316693649654841,-4.316693649654841,0.0,1.705629753103002,1.6752549568956578,0.7145372717504784,3.0445927731690587,2.378307690141391,,,0.468121228110369,4.301778819831131,inf,,0.8096128489367839
379,5.7037824746562,-5.7037824746562,0.0,1.744595415988171,1.644104285174181,0.6562475639018117,2.029641117168257,1.4514461673063983,,,0.5567373465730988,5.703782474656201,inf,,0.5769429606361726
380,5.010635294096255,-5.010635294096255,0.0,1.5391160368208276,1.537954913012639,0.8372196280909865,2.65776842669033,2.755547632358553,,,0.5783247308855777,5.0106352940962555,inf,,0.7942272828520472
381,4.237156435063195,-4.237156435063195,0.0,1.73529521903271,1.7138919748010115,0.6299883023809285,3.3649969910437663,6.898391461724103,,,0.48319206230712763,4.2313104172952585,inf,,0.6915471650281084
382,3.1283303268681886,-3.1283303268681886,0.0,1.6783362975903042,1.6662964871916954,0.8417835539720928,3.8105692126074637,2.177057354590528,,,0.5947193981915972,3.127867815434775,inf,,0.4869993502179457
383,3.943017670083118,-3.943017670083118,0.0,1.7065200690953104,1.6519622710856627,0.619083249985601,2.574713082555372,2.138296090090153,,,0.5158180382284114,3.9407654742938,inf,,0.7393947957008287
384,,0.0,0.0,1.7404779787742033,1.7059783493572516,0.594463377404763,2.0195961988728364,1.5268803851963333,,,0.5370774965580548,inf,,,0.6671079852093221
385,4.721403516979098,-4.721403516979098,0.0,1.6387376243526397,1.647223601706911,0.5615493213274223,2.8337404631308947,2.211929754295587,,,0.5113665138247345,4.705604583309862,inf,,0.8308273105373724
386,3.624340932976365,-3.624340932976365,0.0,1.5743070245767716,1.58522605435405,0.6397306042199188,3.0070487932175207,2.7941110727141067,,,0.1995021272786615,3.624340932976365,inf,,0.610701150374095
387,3.8590979386874538,-3.8590979386874538,0.0,1.5743070245767716,1.5364042680004049,0.7103390195059858,3.473809140291128,6.667739816639332,,,0.12360019792221849,3.8563780820162528,inf,,0.650734024804618
388,4.109964610814095,-4.109964610814095,0.0,1.6893374005025041,1.6886549831523139,0.7529981778799063,3.117768684471988,2.639104551408902,,,0.5202020156036558,4.108443486601602,inf,,0.6745327694141859
389,4.495850998456414,-4.495850998456414,0.0,1.7039961582025647,1.6899338156873436,0.8078348394017159,2.743089552615236,1.9625586094306096,,,0.4928685327679205,4.485906765161274,inf,,0.8418683153293162
390,3.569375516336719,-3.569375516336719,0.0,1.6068554152421513,1.537264439860596,0.8295598996173665,2.8804839878263357,2.218591531575321,,,0.5202020156036558,3.56764558929982,inf,,0.6593328269628651
391,4.556264233671288,-4.556264233671288,0.0,1.5512700543592246,1.5527949140000488,0.7180326444712829,2.0568871191281746,1.3413096923109777,,,0.27183033608702345,4.5500508867670115,inf,,0.6296870634936115
392,5.7037824746562,-5.7037824746562,0.0,1.592551203730637,1.603358460649141,0.558563830278338,1.8723602334979168,1.5011981402776304,,,0.5329562494928909,5.703782474656201,inf,,0.826284060044746
393,5.703782474656203,-4.639076412720378,0.0,1.6970771489171121,1.6937371128551186,0.4658758121310647,1.6701884644938787,1.2674161061287679,,,0.541134803179459,5.910396724019201,inf,,0.7743725130597015
394,,0.0,0.0,1.750181276009048,1.7177309624019734,0.6377254373191441,1.54376605914365,1.2045796706111522,,,0.5022576003740722,inf,,,0.8577896250268047
395,5.7037824746562,-5.7037824746562,0.0,1.6948587854778523,1.6587548218224886,0.6645268126524825,1.8844317643191315,1.301800454522376,,,0.5202020156036558,5.703782474656201,inf,,0.7712884066578906
396,4.8673709558980365,-4.8673709558980365,0.0,1.6364507831057509,1.6157275795125325,0.8059246920149585,2.879212576644504,2.3024507628757793,,,0.5068466436745385,4.84794971181916,inf,,0.7647469936432348
397,3.5065578973199822,-3.5065578973199822,0.0,1.7076381895501767,1.6765517112958355,0.7131330742160816,3.57185092121364,2.7301227618032553,,,0.5677978065141052,3.506557897319982,inf,,0.6518761436215292
398,4.690574958475877,-4.690574958475877,0.0,1.488225934415202,1.4824988001064894,0.7596316493910714,2.1225684479882796,1.2965138939145069,,,0.5748741956352443,4.661152820739028,inf,,0.8726123809497849
399,4.605170185988091,-4.605170185988091,0.0,1.65804766596088,1.6781848916623618,0.5622165046896666,2.6065860044282005,2.071968363868143,,,0.6008849035917525,4.605170185988091,inf,,0.6909726824332598
400,5.010635294096255,-5.010635294096255,0.0,1.3269495276443695,1.2911400068083754,0.5926042163064389,1.6819486144774165,1.032473465093319,,,0.5641709578113449,5.0106352940962555,inf,,0.776887634194421
401,4.970088783285439,-4.970088783285439,0.0,1.75438814781155,1.7191640427030128,0.7391094934389745,2.1385034745878966,1.8820842879140298,,,0.5113665138247345,4.961845129926823,inf,,0.9213070922088361
402,4.31748811353631,-4.31748811353631,0.0,1.6225464403965046,1.6098016891548261,0.6985363786017326,2.5875459899819035,2.5192586980198173,,,0.468121228110369,4.31748811353631,inf,,0.854918365408492
403,3.9120230054281455,-3.9120230054281455,0.0,1.5246809325831,1.4797141596289276,0.7965150329435353,3.81991945859614,13.796546872437387,,,0.5202020156036558,3.912023005428146,inf,,0.8944549220152311
404,4.605170185988091,-4.605170185988091,0.0,1.7380417080753896,1.694948775910548,0.722542861785959,2.653353263547918,1.2170728439160299,,,0.552929491858785,4.605170185988091,inf,,0.6208760651773393
405,3.5383041314771093,-1.9368417228991235,-1.6014624085779858,1.6390686183540844,1.5787834399954053,0.7606947653818247,3.2907563274458544,4.698685083314498,3.955277571645326,,0.5713653840954815,3.533586569707901,3.4431615807611875,inf,0.7692598416202705
406,5.7037824746562,-5.7037824746562,0.0,1.5011284766646715,1.447408603881758,0.4612147616672826,1.0400298300025559,0.8709984387494882,,,0.4732203808476458,5.703782474656201,inf,,0.9247208203164532
407,,0.0,0.0,1.60351074317141,1.5763820065804326,0.3544087865288696,0.43420171895363907,0.5454418119901547,,,0.49759852643134905,inf,,,0.9272059015745348
408,,0.0,0.0,1.7852770624474048,1.7642325504507015,0.9275441741124367,0.4504373150043998,0.6515250046733179,,,0.5370774965580548,inf,,,0.798106588942061
409,4.320364934260828,-4.320364934260828,0.0,1.6063146392861092,1.560694033759691,0.42563398819236753,1.0519086675680298,0.6948271493362039,,,0.4928685327679205,4.319991243754429,inf,,0.8014916839970079
410,5.703782474656202,-3.8215342580196547,0.0,1.6689477201835299,1.6498154108894931,0.3614913854964306,0.4212500306222998,0.5812185057165606,,,0.4928685327679205,6.104260041253326,inf,,0.8775115584383193
411,,0.0,0.0,1.552775994140833,1.469079412626083,0.7589641345005615,0.3548921360922008,0.528088131466296,,,0.45235697871908603,inf,,,0.6767531508300266
412,,0.0,0.0,1.5996396679391507,1.5568816117614364,0.7887070424331949,0.5324710487550248,0.7126572200378873,,,0.4732203808476458,inf,,,0.6848187569309805
413,,0.0,0.0,1.4884481005762993,1.453973179430317,0.8458870625049705,0.5713363231359759,0.80634190308758,,,0.4629450596409901,inf,,,0.6713965242415812
414,,0.0,0.0,1.7390874131682752,1.6823556718387438,0.851950274421444,0.5209881249825722,0.8369800616307886,,,0.4880666971167561,inf,,,0.6823841108702062
415,5.7037824746562,-5.7037824746562,0.0,1.606957195937238,1.6221284977231132,0.17357156426541995,0.6577137785161788,0.8128556096060569,,,0.5022576003740722,5.703782474656201,inf,,0.7560571160781283
416,,0.0,0.0,1.642020936731013,1.5830592803702934,0.3381375215852673,1.0741167714559121,0.9858317940330321,,,0.5329562494928909,inf,,,0.6825314329112235
417,,0.0,0.0,1.631374709354942,1.617018576698851,0.5629394850086163,1.3311386914277619,1.3229131956359304,,,0.5748741956352443,inf,,,0.8408886348486556
418,,0.0,0.0,1.6958131294800252,1.6934857885591008,0.3582982033477104,1.4711928691540475,1.3820894368993095,,,0.45235697871908603,inf,,,0.7669541044222268
419,3.6368038629546544,-3.6368038629546544,0.0,1.5113150081919462,1.4722965321840085,0.7591014353563902,2.9360488824118423,2.5748947961155446,,,0.5748741956352443,3.636076189194786,inf,,0.5652504750100085
420,,0.0,0.0,1.42187877673465,1.3522743621393982,0.43042675235511735,0.9949230923562771,0.6377437870312699,,,0.49759852643134905,inf,,,0.9251658902325525
421,,0.0,0.0,1.674216649349876,1.6629730515013013,0.3797553497674205,0.4475728286503535,0.5117541577234028,,,0.4576907132971797,inf,,,0.8914588204267343
422,,0.0,0.0,1.5106981640371029,1.396244960011037,0.5808180266695724,0.30215824247490464,0.3825770397794349,,,0.468121228110369,inf,,,0.7586305424442451
423,,0.0,0.0,1.4394624576757218,1.3781139571940715,0.8578668208417494,0.2598852332739813,0.43845684918374356,,,0.5068466436745385,inf,,,0.7050373374043422
424,,0.0,0.0,1.6934989303201804,1.680122300961786,0.5358068195367577,0.28816324317652975,0.34954387101363793,,,0.541134803179459,inf,,,0.8392825552598975
425,,0.0,0.0,1.678444731356558,1.6617917558769482,0.6999443745257129,0.2197600875898949,0.3281702310392803,,,0.44144624493110796,inf,,,0.7134599865035169
426,,0.0,0.0,1.506353869502165,1.5098802590894558,0.30907309668666466,0.3651702181873956,0.45578595548755224,,,0.5022576003740722,inf,,,0.8807851926230492
427,,0.0,0.0,1.55717039074692,1.5227300488942002,0.8254437510683418,0.36671798266327277,0.5476749190466359,,,0.5068466436745385,inf,,,0.6579052130903061
428,,0.0,0.0,1.6361920368918714,1.5819755604367205,0.15079530639593627,0.45087302230798915,0.519880162205798,,,0.5748741956352443,inf,,,0.9009600948813904
429,,0.0,0.0,1.6229742572095127,1.5913651510931937,0.8436855689599807,0.3522625438764181,0.5433533130766772,,,0.5158180382284114,inf,,,0.7036912488332888
430,,0.0,0.0,1.432017349307888,1.426259343133346,0.7205192184740873,0.24804321818059438,0.3895824478710036,,,0.5567373465730988,inf,,,0.7283772921815254
431,,0.0,0.0,1.0733919663391094,1.0559152688579891,0.8505935408962342,0.1923515906637955,0.32681898259981906,,,0.45235697871908603,inf,,,0.7035822540957796
432,,0.0,0.0,1.5771877178257498,1.5706566470721341,0.5653607177567683,0.25695540773876496,0.390018895206075,,,0.541134803179459,inf,,,0.8268587345656605
433,,0.0,0.0,1.2613384145348439,1.2442657521355494,0.32950465065187695,0.5490084339858905,0.488323702737427,,,0.49759852643134905,inf,,,0.735686718417874
434,,0.0,0.0,1.6753749429516702,1.5999621994555635,0.7443850207611831,0.5675270289129019,0.615099185527271,,,0.5490601803369085,inf,,,0.8409025493924038
435,5.7037824746562,-2.718802979586122,0.0,1.6880794188575394,1.7078945606263702,0.4102481422337653,0.922778874278771,0.8544083975031388,,,0.49759852643134905,6.444720319052495,inf,,0.8891452819693412
436,,0.0,0.0,1.6218710897659407,1.601625208521817,0.20790099699240452,0.9204870063434477,0.8662273809878315,,,0.4629450596409901,inf,,,0.6527829349924551
437,,0.0,0.0,1.737545372953001,1.7280820597487978,0.8572482982675775,1.4370283692780033,1.5564507593733372,,,0.5113665138247345,inf,,,0.7914307081172572
438,,0.0,0.0,1.506420803124353,1.526358901681405,0.20810444773684555,1.008513761884338,1.025503930520631,,,0.4576907132971797,inf,,,0.7780617507497692
439,,0.0,0.0,1.6051614407125854,1.570342422152832,0.3306411296732032,0.8712869497909899,0.8660357524489734,,,0.4732203808476458,inf,,,0.6814896184106026
440,,0.0,0.0,1.3345902818190742,1.3369397976767239,0.7692877845335688,0.8390071026401266,1.019093780840839,,,0.5329562494928909,inf,,,0.7695830652833888
441,,0.0,0.0,1.4779147690757501,1.46846969673504,0.7294624658709138,1.144107683765218,1.19523798016473,,,0.41268473150466,inf,,,0.7519959640400828
442,,0.0,0.0,1.6446791681242516,1.6334280536628554,0.8859730469949112,1.2787861194438759,1.2876946881438733,,,0.5490601803369085,inf,,,0.7798387665002706
443,,0.0,0.0,1.4236187308511208,1.4101571403701008,0.8472564444668611,1.1744740072538298,1.5418720052070496,,,0.4732203808476458,inf,,,0.7403217296431416
444,,0.0,0.0,1.5666107220979948,1.5642222991020167,0.9249215905953921,1.1935726131227336,1.3805400166432813,,,0.5022576003740722,inf,,,0.7722770750961117
445,,0.0,0.0,1.3697631636313035,1.371761889836649,0.8616924520468253,1.1964623837261719,1.468356503300195,,,0.5604843169999094,inf,,,0.7931024149686211
446,,0.0,0.0,1.0601457943563826,1.0427655190038865,0.9404654361033793,1.4128818720509226,1.454181767467273,,,0.468121228110369,inf,,,0.8150425243904602
447,,0.0,0.0,1.4182833786837235,1.3969013913201016,0.8679929128811246,1.2467036924302246,1.210558668195548,,,0.5567373465730988,inf,,,0.8196142307243134
448,,0.0,0.0,1.4609583960119266,1.4516303199143465,0.8519648265215116,1.235661670492166,1.4458567725989775,,,0.3943459996787778,inf,,,0.7804634996921952
449,,0.0,0.0,1.5238369502508093,1.4900680597707345,0.8394368964581835,1.2333062805040802,1.2516452258175892,,,0.44694259446804574,inf,,,0.7548921295241102
450,,0.0,0.0,1.555827057046614,1.4872408261752845,0.3418417919083716,1.1791748263343018,1.4199714253741251,,,0.5370774965580548,inf,,,0.8980245473286295
451,,0.0,0.0,1.6009535004166215,1.6046629806856396,0.25263922785843185,0.986460449940694,1.1213369266220223,,,0.5113665138247345,inf,,,0.9251443517272973
452,,0.0,0.0,1.2361105543476276,1.2342711032696119,0.19346766180105526,0.9556878629478089,1.1519523271023284,,,0.49759852643134905,inf,,,0.868517320707194
453,,0.0,0.0,1.5759145003688722,1.521672038205144,0.40213745727041306,0.6402017376361677,0.6854518364551296,,,0.40055318934786044,inf,,,0.8940380014605572
454,,0.0,0.0,1.7836482667045588,1.7413298268251012,0.8056578673131505,0.19963174455496005,0.30489348785612924,,,0.44144624493110796,inf,,,0.6077950962611064
455,,0.0,0.0,1.5824327154197948,1.5346366776765596,0.34364353556730964,0.5074982728784783,0.4970983801717078,,,0.5748741956352443,inf,,,0.9159125976476863
456,,0.0,0.0,1.3941849998052827,1.3644218060307645,0.8478913729618583,0.35310860068891853,0.5424432002477871,,,0.5287703885177266,inf,,,0.6821472511670823
457,5.7037824746562,-5.7037824746562,0.0,1.7470571856622714,1.746469073851565,0.5793336345479416,1.508355786241297,0.9218985686759347,,,0.4880666971167561,5.703782474656201,inf,,0.5739292528618917
458,,0.0,0.0,1.5872279660389008,1.5692357153909557,0.5343738725299303,1.0873499644942553,0.9437314766935163,,,0.5022576003740722,inf,,,0.902107708563521
459,,0.0,0.0,1.5613224552748535,1.5508831865526154,0.3547226160064958,0.6955328490256032,0.6498330456791324,,,0.468121228110369,inf,,,0.8914402676215756
460,,0.0,0.0,1.6576616177259718,1.6101085304359897,0.5876314399842579,0.6118668648106941,0.6761074281367491,,,0.468121228110369,inf,,,0.8004888683459734
461,,0.0,0.0,1.5380789394565377,1.5261220162579434,0.6714782399163343,0.49803359706441896,0.6036607333021293,,,0.47824363442641393,inf,,,0.7081292141204466
462,,0.0,0.0,1.3265315876900923,1.2505170418849627,0.7247147956060755,0.5295589323165468,0.6565491889043368,,,0.5451288209179292,inf,,,0.789235907342532
463,,0.0,0.0,1.5591257748962224,1.5576091999668935,0.7469785409117696,0.3751377988630827,0.5864157141045462,,,0.468121228110369,inf,,,0.6663884103418782
464,,0.0,0.0,1.224233898265638,1.210204371030569,0.8427609493199955,0.4027588563271184,0.6153122611541315,,,0.4880666971167561,inf,,,0.6778280151360748
465,,0.0,0.0,1.4475704738860695,1.4391684517080732,0.7352938631564196,0.38452398096678114,0.5749940864133559,,,0.48319206230712763,inf,,,0.6581157874141322
466,,0.0,0.0,1.6047657179115131,1.5681101769637014,0.71485621275575,0.5242941289499213,0.7518372083176385,,,0.541134803179459,inf,,,0.7030372604854339
467,5.7037824746562,-5.7037824746562,0.0,1.4286624108911627,1.4391905853819162,0.26716630316549556,0.5591221745856869,0.5780819286375387,,,0.4629450596409901,5.703782474656201,inf,,0.9085908132631876
468,,0.0,0.0,1.4032310336994493,1.3648502050768918,0.8619933085056307,0.32044440776251243,0.48053777959016186,,,0.552929491858785,inf,,,0.6534785264865735
469,,0.0,0.0,1.5653906826490853,1.5538273490136847,0.7056071571001907,0.44929442728297003,0.5487563258647252,,,0.47824363442641393,inf,,,0.7480883237056634
470,,0.0,0.0,1.6248900059108058,1.5931928448885635,0.6678058734340135,1.0199289432727732,0.7408054591904998,,,0.35499006010413947,inf,,,0.6920697979848125
471,,0.0,0.0,1.581829385148854,1.5669937577357675,0.4213290340259079,0.9578209827315488,1.1061292530647888,,,0.5451288209179292,inf,,,0.9290220523954871
472,,0.0,0.0,1.6052471500665892,1.5413486692939895,0.9494723882337914,0.9937987819861734,1.2299463929673218,,,0.4732203808476458,inf,,,0.803639038137397
473,,0.0,0.0,1.6216487968709115,1.6029885394481278,0.5667084130103767,0.904716870878099,0.9916820873958934,,,0.48319206230712763,inf,,,0.9126259879437871
474,,0.0,0.0,1.4837664335496081,1.456673156772748,0.900537545422223,0.8142323708436031,0.9910304205203504,,,0.5022576003740722,inf,,,0.8204344818458406
475,,0.0,0.0,1.6445259989651284,1.6287755230167966,0.9457163484304304,0.9091764111904403,1.0222280689576517,,,0.5202020156036558,inf,,,0.7757645804898097
476,,0.0,0.0,1.712601797476772,1.692087474989392,0.7253521848221557,1.01014241451039,1.1350531074261196,,,0.541134803179459,inf,,,0.8184477241456505
477,,0.0,0.0,1.4911035460096742,1.4756334477045319,0.3288234969010394,0.9403038335251659,0.9712271898631001,,,0.4576907132971797,inf,,,0.9348387408866612
478,,0.0,0.0,1.6626998972487932,1.6410414526816093,0.895088461841542,0.466838689305403,0.5974074728315949,,,0.5370774965580548,inf,,,0.7975887111721556
479,,0.0,0.0,1.5368483825148793,1.512884789076019,0.8914733044407361,0.49446607828339584,0.6102498272201102,,,0.47824363442641393,inf,,,0.7599467275789364
480,,0.0,0.0,1.0941383381376506,1.0750834288481863,0.19561229136751512,0.6814144321172806,0.6503380494314066,,,0.4880666971167561,inf,,,0.7186623019483848
481,,0.0,0.0,1.6743216085925496,1.6125396735184023,0.39486087341447007,1.4121309378848292,1.4186944767071836,,,0.4880666971167561,inf,,,0.9046870912935931
482,,0.0,0.0,1.7490039142902232,1.7102046518822862,0.6348498438987302,1.336978419231228,1.512171319736168,,,0.48319206230712763,inf,,,0.8674269558098869
483,,0.0,0.0,1.725255996613344,1.7103779417773943,0.3837900927376505,1.0217146860302198,1.01260543987056,,,0.42445136339222655,inf,,,0.8813894434981214
484,5.703782474656203,-1.806197783641131,0.0,1.539223316506896,1.4694380500464534,0.3854530121064679,1.7721256279514876,1.1454374389837614,,,0.5490601803369085,6.853688057711861,inf,,0.6576433810180189
485,3.9120230054281455,-3.9120230054281455,0.0,1.2890728280489263,1.2682701552139126,0.6602866366399185,2.5183954970446725,2.675306383130111,,,0.43586655696697996,3.912023005428146,inf,,0.7672411070244893
486,5.010635294096255,-5.010635294096255,0.0,1.599819649790512,1.5930265417644502,0.4682856167659203,0.9757332329674638,0.6859191467305202,,,0.35499006010413947,5.0106352940962555,inf,,0.7666727131394823
487,,0.0,0.0,1.4397524637978887,1.4426568055893647,0.2618002386182193,0.2914722607179609,0.2846880948237735,,,0.49759852643134905,inf,,,0.882051165752375
488,,0.0,0.0,1.717735090333695,1.724994038008075,0.09688912322481537,0.11050862956741837,0.11213801293769966,,,0.4629450596409901,inf,,,0.9643145236886688
489,,0.0,0.0,1.682731030006107,1.6473539646721902,0.6610783758834045,0.07288155923379717,0.0933177249517559,,,0.541134803179459,inf,,,0.8349908154204629
490,,0.0,0.0,1.697498413000167,1.6551248868351967,0.8800336645070036,0.08340840097821009,0.09677068956808349,,,0.45235697871908603,inf,,,0.8219244063883696
491,,0.0,0.0,1.7301586676735299,1.7157256965696053,0.6320725674664955,0.07763271163343162,0.09294984406800656,,,0.41268473150466,inf,,,0.8270182839450773
492,,0.0,0.0,1.6240680652713237,1.6073909482504622,0.8708161192105391,0.07793605860705863,0.09362395170579628,,,0.5202020156036558,inf,,,0.818990590193981
493,,0.0,0.0,1.7398206341744011,1.7284427973809908,0.8895645503816964,0.07083627766262074,0.0976564081835792,,,0.541134803179459,inf,,,0.8121560595415415
494,,0.0,0.0,1.6536693837213612,1.6428442799596752,0.6413822014963213,0.08944240240987499,0.10977424765868449,,,0.49759852643134905,inf,,,0.878527637465528
495,,0.0,0.0,1.629154520200189,1.6144108851822765,0.8131375672772597,0.09401000233146112,0.12374119310243067,,,0.4928685327679205,inf,,,0.8745470242338987
496,,0.0,0.0,1.6369351750070928,1.562361837144703,0.5067225907862826,0.45254660574599076,0.3489142438246495,,,0.5202020156036558,inf,,,0.8776095764362682
497,,0.0,0.0,1.6160014078799505,1.5292335015895682,0.7843897375126812,1.2236257246548452,1.0177427449327987,,,0.4066654671944331,inf,,,0.8859881139741762
498,,0.0,0.0,1.6812458502827448,1.6389321803955936,0.7789318142259111,0.6161695166442464,0.8341470224891873,,,0.4576907132971797,inf,,,0.7144841757114205
499,,0.0,0.0,1.6692273994623243,1.6397717305226298,0.8844901783394449,0.6500117757503285,0.8899278666794984,,,0.524519217297268,inf,,,0.6936565665791099
500,,0.0,0.0,1.395573590474904,1.337577398878031,0.4952562199356962,0.8477502136894445,0.8888290552700027,,,0.4880666971167561,inf,,,0.886807241157887
501,,0.0,0.0,1.3773880939043726,1.3413267436740195,0.5381007665164791,0.624211908379581,0.7755595892309505,,,0.5158180382284114,inf,,,0.8831466203100121
502,,0.0,0.0,1.35268412163362,1.3365658628208466,0.7947348917240215,0.7541668159094601,0.7425127284632075,,,0.5329562494928909,inf,,,0.8728170243163852
503,,0.0,0.0,1.610162614900514,1.5897543912576604,0.8151496273045954,2.7661629528129734,1.5839374516869822,,,0.5677978065141052,inf,,,0.8064761208510941
504,5.7037824746562,-5.7037824746562,0.0,1.7462690754725485,1.7327110899971718,0.7352663970425131,2.6812559348751104,2.324139753282759,,,0.5158180382284114,5.703782474656201,inf,,0.9350974881472396
505,,0.0,0.0,1.5343254789677752,1.4776767389632854,0.7740046617432276,1.9409018491651107,1.885401227825068,,,0.47824363442641393,inf,,,0.8823144751663636
506,,0.0,0.0,1.2976078044999562,1.26848972375392,0.6555500516968968,1.9132621115174238,1.97591892924513,,,0.5022576003740722,inf,,,0.8722582681369391
507,5.525874698312482,-5.525874698312482,0.0,0.9549932157065151,0.9310867245087592,0.5162551875084028,1.8948862270448794,1.3744733801015525,,,0.5022576003740722,5.475319761864392,inf,,0.7100033464341113
508,,0.0,0.0,1.565208699926031,1.515835823313304,0.6485153537412959,1.5813755226508857,0.8997183267536708,,,0.5202020156036558,inf,,,0.895094394186082
509,5.7037824746562,-5.7037824746562,0.0,1.7652642333097885,1.7491910383394786,0.5920312983099854,1.2668368328317912,0.6938472309432127,,,0.5202020156036558,5.703782474656201,inf,,0.6658491683981741
510,,0.0,0.0,1.647327456721831,1.6186831422211474,0.6237687075025925,1.7619855299725413,1.7152955985462766,,,0.4066654671944331,inf,,,0.8543816566403639
511,4.31748811353631,-4.31748811353631,0.0,1.5788688708167486,1.5233057562772585,0.728448439732759,2.3449513961733373,1.7865140885367805,,,0.5490601803369085,4.31748811353631,inf,,0.5688271953835523
512,3.624340932976365,-3.624340932976365,0.0,1.456358233664927,1.4255683256723888,0.8318950245087748,3.4140949003878442,8.083230590250222,,,0.5113665138247345,3.624340932976365,inf,,0.8853836751298314
513,5.703782474656201,-3.669433392028823,0.0,1.6770008578136184,1.654490934095607,0.7494703739532044,3.3018002487950655,3.0906808978083253,,,0.6068309995095971,6.144874760407516,inf,,0.9456041123379965
514,5.703782474656203,-4.068698165254758,0.0,1.3589580890936195,1.3241947411374042,0.751184343897627,2.6765887386239715,2.9764803198398515,,,0.5287703885177266,6.041588934290551,inf,,0.9459893300880853
515,,0.0,0.0,1.7025728044568729,1.6644903090884637,0.7470347090393411,1.7322300616538768,1.4846922836683047,,,0.5451288209179292,inf,,,0.9447451781047562
516,,0.0,0.0,1.70197289625803,1.5660364140287588,0.6699123989590549,1.7641963882569998,1.147442028249482,,,0.5022576003740722,inf,,,0.9481149049779349
517,3.418757467605126,-3.418757467605126,0.0,1.7411854583158564,1.7221445970929323,0.6881632729088022,3.5700841176368874,2.7490055334689085,,,0.5490601803369085,3.4180044999785366,inf,,0.6550857776842915
518,4.0943445622220995,-4.0943445622220995,0.0,1.6343760165603596,1.5693421999140627,0.5346509370476809,3.024002011068542,4.116830837357119,,,0.5022576003740722,4.0943445622221,inf,,0.6547933417261618
519,4.883589560222363,-4.883589560222363,0.0,1.5757165176640706,1.553629012156718,0.4858340405443252,2.645746579906905,3.072874000313104,,,0.5158180382284114,4.865092988805597,inf,,0.8183903376271163
520,4.605170185988091,-4.605170185988091,0.0,1.6207803672562109,1.5660091615059315,0.4911520679819373,2.170899592549197,1.3859648826328872,,,0.5329562494928909,4.605170185988091,inf,,0.606908751058667
521,3.6497118975750253,-3.6497118975750253,0.0,1.723887398989242,1.669672054424549,0.664978437283529,3.209155697145166,4.475927258515911,,,0.5604843169999094,3.6483775108046066,inf,,0.8424216902691214
522,4.0943445622220995,-4.0943445622220995,0.0,1.7423343310013506,1.672692952289146,0.6498891879052695,3.0461248452161924,3.6436196413240522,,,0.4928685327679205,4.0943445622221,inf,,0.7141494949260055
523,4.54379801053171,-4.54379801053171,0.0,1.7388137843921792,1.7145164170589935,0.5510333500346497,2.621978106004959,3.299632290409975,,,0.5068466436745385,4.536473654701856,inf,,0.7907016232612923
524,3.4756521460603533,-3.4756521460603533,0.0,1.6986278619715913,1.685275689321118,0.6404454302876235,3.129746715440178,2.1160755022874125,,,0.5202020156036558,3.474485177431988,inf,,0.7367829759774328
525,5.7037824746562,-5.7037824746562,0.0,1.6840779167840962,1.644352065032987,0.606477516016445,2.0884213743663813,1.825583163100799,,,0.4880666971167561,5.703782474656201,inf,,0.8349106909035533
526,4.605170185988091,-4.605170185988091,0.0,1.6478136739834137,1.6328376030648912,0.6821796988664415,2.280421681963555,1.8125602841967536,,,0.4880666971167561,4.605170185988091,inf,,0.856369411308243
527,5.010635294096255,-5.010635294096255,0.0,1.0878129743681033,1.0235121719957412,0.692744853143622,2.9704986912519344,1.8727984389913548,,,0.5287703885177266,5.0106352940962555,inf,,0.8174211449439363
528,,0.0,0.0,1.4877205892603953,1.4748203567099447,0.7710361517473578,2.8866198926383357,2.544898266266057,,,0.5915533975974677,inf,,,0.7758579362209329
529,5.010635294096255,-5.010635294096255,0.0,1.0372042060236426,1.0259173546745182,0.7058527952214936,3.0723927069664425,2.692383962761689,,,0.20924377657122822,5.0106352940962555,inf,,0.7040833037244699
530,2.8960102426255543,-2.8960102426255543,0.0,1.4729245521205956,1.4577165648204027,0.7232839772536909,3.6567176844865577,3.357416550007673,,,0.5068466436745385,2.8943797792937036,inf,,0.5874464454036453
531,3.334162555199781,-3.334162555199781,0.0,1.7224705392558728,1.6883614115091556,0.7715200170029795,3.935273643195011,5.70887918616877,,,0.5641709578113449,3.333227255222888,inf,,0.7577956698185155
532,3.1265411358575754,-3.1265411358575754,0.0,1.400524556773563,1.3957233703847844,0.7451083692934031,3.292152247442254,3.550713579470601,,,0.5783247308855777,3.126094091417235,inf,,0.836026095843221
533,3.3397160302821773,1.6675803625485641,-5.0072963928307415,1.7357161417109406,1.7466220167545035,0.7985417022819246,3.735983181496356,10.374117239907873,1.669073810329974,,0.6008849035917525,3.338222582500767,1.6757516128610035,inf,0.8149380706337163
534,2.7277126306174377,2.972730942773249,-5.700443573390687,1.750130178054714,1.758098941570179,0.7876790752651124,3.9522863176500507,2.051713650093472,2.9730406437726615,,0.541134803179459,2.727402929618025,2.9797184463036905,inf,0.7017659253266532
535,3.0086109428982213,-3.0086109428982213,0.0,1.6324046821892764,1.6193854265594652,0.7753947469426847,3.3702176301619904,4.840209247615762,,,0.5567373465730988,3.0082547985528816,inf,,0.6139373903259355
536,2.599404492526635,3.101039080864052,-5.700443573390687,1.4978958360027628,1.4804491061139355,0.7886435126738292,4.315670860522917,9.796739518966369,,,0.5022576003740722,2.599195796190128,3.107925579731588,inf,0.5966276699476301
537,2.7616864084114723,-1.484329487283793,-1.2773569211276792,1.5893160850674206,1.5758610210520148,0.8581409714255663,4.801798004386515,31.313437094091793,4.480377261416098,,0.6038851895711802,2.7616268020056025,4.441245527915834,inf,0.5937992540331057
538,3.155770168041774,2.544673405348913,-5.700443573390687,1.7150784766604987,1.7009326021848201,0.7418452297987002,3.7375868464390885,10.862408953597072,2.5455853006459295,,0.5783247308855777,3.154858272744757,2.552263103176959,inf,0.6501514431219433
539,3.2188758248681997,-3.2188758248681997,0.0,1.5103512732821913,1.4562110923345781,0.7738880695453423,3.561189212138209,2.04730572654755,,,0.5748741956352443,3.2188758248682006,inf,,0.5644793257326185
540,3.239758555345711,2.460685018044976,-5.700443573390687,1.5989481248040607,1.5853320850934272,0.6911456991399897,3.86610368432406,6.505271920216007,2.4613650412049664,,0.5713653840954815,3.23907853218572,2.4680428437359954,inf,0.6707937330991004
541,2.7791451084079815,-2.7791451084079815,0.0,1.2255955492048434,1.2121465673788248,0.7907394832526168,4.431816262168496,5.126465662787218,,,0.552929491858785,2.7786515082857566,inf,,0.41156329982977863
542,3.7560919070325616,-3.7560919070325616,0.0,1.4551290686035763,1.3754450651856587,0.7582164632840971,2.2397043945443986,1.0006600535648156,,,0.5158180382284114,3.755969375454802,inf,,0.6384430358210671
543,2.969900230914902,-2.969900230914902,0.0,1.51786662048497,1.4486920545077209,0.7617328734607073,3.397410329727844,1.8024789430668546,,,0.6125606311107803,2.9679009604054025,inf,,0.7661969785685986
544,3.9997852623887926,-3.9997852623887926,0.0,1.644527447451528,1.5975909552366279,0.6423190447751094,2.6944176371174278,1.7359204786121833,,,0.5329562494928909,3.9923898396991073,inf,,0.7664026488197885
545,3.0847689063391854,2.6156746670515014,-5.700443573390687,1.3147461113768422,1.2818630046537982,0.8159816791717841,3.7037149033715893,4.278651241075985,2.6167297554171016,,0.5713653840954815,3.083713817973585,2.6234075579481306,inf,0.6275969666330816
546,3.2188758248681997,2.481567748522487,-5.700443573390687,1.6069524463543172,1.6035959359699303,0.6798566655464227,3.1304591014668457,2.191482844175263,2.481567748522486,,0.5567373465730988,3.2188758248682006,2.488245551053515,inf,0.6043290061647344
547,3.2461393896582846,-3.2461393896582846,0.0,1.6542740199601575,1.6396824875285267,0.7672953280250031,3.067526225723686,2.1158995730413284,,,0.5604843169999094,3.2453338838312225,inf,,0.5160877240365989
548,5.010635294096255,-5.010635294096255,0.0,1.6157485262807112,1.5244625545189259,0.7314038985423489,2.434783343106601,1.9505302318328486,,,0.6207552362147116,5.0106352940962555,inf,,0.6906983028074141
549,2.77502298965814,-2.6415677889433082,-0.13345520071483213,1.4481777481458091,1.4264108315844277,0.7129351409747613,3.546177094349248,2.9269474120439454,,,0.5783247308855777,2.7747243343702026,6.686930465886886,inf,0.8238430782457895
550,3.7254615903314168,-3.7254615903314168,0.0,1.6299654804588595,1.5488692955405847,0.7087437356917855,3.2759603970284905,2.921081412447562,,,0.524519217297268,3.720026183110773,inf,,0.7872671188514455
551,3.2263358330301517,2.474107740360535,-5.700443573390687,1.2517700845324244,1.196082244513922,0.7706151918036896,3.447063985618465,2.797313963242435,,,0.48319206230712763,3.2258444941842943,2.4812768817374216,inf,0.4819952196805138
552,3.172984672468706,-3.172984672468706,0.0,1.3213215529540645,1.3109150942460879,0.7080232181174765,3.693273475562214,3.799996061857827,,,0.5370774965580548,3.172204305559054,inf,,0.748859953710172
553,3.023346472484327,1.9839499203464146,-5.0072963928307415,1.6320198980096214,1.5980581356248782,0.7413496363996956,3.319195785566514,5.270761998881898,2.677682627448776,,0.5947193981915972,3.0227609459419105,1.99121324941986,inf,0.7619049958145863
554,3.176986807852383,-3.176986807852383,0.0,1.4570037537289657,1.4505241988035458,0.692206607811985,3.476405105687802,3.6257173824987676,,,0.552929491858785,3.176188903738433,inf,,0.8314528032540512
555,3.8394339620027993,1.8610096113878876,-5.700443573390687,1.611870148419683,1.576018177281896,0.6281874040204926,2.645389743489448,2.3213932070237084,1.8643522729295545,,0.5713653840954815,3.8360913004611317,1.8710300754605838,inf,0.5862681271157099
556,5.7037824746562,-5.7037824746562,0.0,1.6615193138135071,1.622806933690903,0.7285235273570099,2.668174077860704,3.3546985858161995,,,0.5370774965580548,5.703782474656201,inf,,0.698687108494158
557,2.9335601648581306,-2.9335601648581306,0.0,1.6033213175855994,1.5732287314304612,0.7742504181677852,3.4614173609251004,2.1807561076190156,,,0.5451288209179292,2.9334880489697928,inf,,0.687599365153527
558,2.813410716760036,2.887032856630651,-5.700443573390687,1.5780830147698461,1.5466995835685666,0.5919470018900828,2.67981066956103,2.0588997721750992,2.88703285663065,,0.5883313578629602,2.8134107167600364,2.8937106591616795,inf,0.761744158225579
559,2.8364544973582433,2.7295324323117853,-5.565986929670029,1.7401445595412486,1.7193123836910222,0.7994588348216074,3.4732369131974083,1.2348437841985267,2.8647493767852175,,0.6068309995095971,2.835694196605469,2.694134970927294,inf,0.637480785106719
560,2.6321233611457573,3.0683202122449296,-5.700443573390687,1.5986595373396117,1.5642194418622737,0.8058619526882175,2.991502622330363,2.3270375431582697,3.068582510646023,,0.5022576003740722,2.6318610627446635,3.075260313177052,inf,0.4894198123563331
561,3.072629995404006,2.627813577986681,-5.700443573390687,1.5198299970253573,1.506616747977395,0.7832214996960477,3.6367105788500864,3.183915438293915,2.6280702075114872,,0.5915533975974677,3.072373365879199,2.6347480100425162,inf,0.7667800650218559
562,2.6500242584573237,-2.6500242584573237,0.0,1.5897009945822504,1.5579375011061334,0.8537514564895667,4.184129832227225,3.971313336260801,,,0.5567373465730988,2.649466877003313,inf,,0.6681713611455455
563,3.749415337401335,-3.749415337401335,0.0,1.717921375968152,1.6135087041001779,0.6484783067117849,2.94608019759194,1.9719532304591287,,,0.5370774965580548,3.748865391044103,inf,,0.5922534100524228
564,2.9615268573510782,-2.9615268573510782,0.0,1.5250815045596169,1.4969867446783696,0.7513444445886517,3.9291903315249606,2.8766537744617384,,,0.552929491858785,2.9610088374956054,inf,,0.46401773445015304
565,2.6087016014767332,3.0917419719139536,-5.700443573390687,0.863937456447284,0.8330965842647031,0.7383626869343222,3.601442599218877,4.072713331469263,3.0922387072581925,,0.5978297680564633,2.608204866132494,3.098916509789222,inf,0.6119186755074727
566,3.305887201857831,2.3945563715328557,-5.700443573390687,1.5149863501190592,1.4854747416019822,0.741201082677178,3.663399196141246,2.0687155627259233,2.3945563715328557,,0.4576907132971797,3.3058872018578307,2.401234174063885,inf,0.5898488667877875
567,3.343058171981517,1.6642382208492243,-5.0072963928307415,1.1212955772429543,1.0640089882317028,0.6354230533641037,3.444503227389713,2.9754094848688277,2.293710521966219,,0.5451288209179292,3.3419855220303094,1.671988673331461,inf,0.6099741620684298
568,3.3599298048664594,-3.3599298048664594,0.0,1.055468111332692,0.9901183382435924,0.767152832739516,3.679104773870095,2.491762077900162,,,0.49759852643134905,3.3587766657782034,inf,,0.5149420547153437
569,3.5038487869276413,-3.5038487869276413,0.0,0.78729174159149,0.7585963068948126,0.7097676938874077,3.683496109706577,3.197617928459745,,,0.5978297680564633,3.5035993152802365,inf,,0.4672180253816573
570,4.153105697401509,-4.153105697401509,0.0,1.7484757118218106,1.734027788319659,0.7834032658979356,3.6208669115867034,7.681867228686179,,,0.5748741956352443,4.148448821215301,inf,,0.82939180600339
571,5.689919531045002,-5.689919531045002,0.0,1.3206233612389675,1.3100451923112466,0.7188809724503028,3.526419722967879,2.533997757513962,,,0.468121228110369,5.683979847360021,inf,,0.7574677467270767
572,2.9311937524164198,-2.9311937524164198,0.0,1.5450886508491037,1.4921285041618486,0.7597684272577031,3.9631085448906345,3.3241417864679295,,,0.541134803179459,2.9311937524164198,inf,,0.73152835006116
573,3.4377893626625577,-3.399659305315463,-0.038130057347094896,1.4566301673725994,1.407583098907898,0.8159402811585615,3.30963348024796,2.1713952227332953,,,0.541134803179459,3.436479195806795,7.277938572945661,inf,0.7027084574151856
574,2.995732273553991,2.704711299836696,-5.700443573390687,1.3230449728299023,1.2972442640872848,0.8192229770987788,4.1010955602302905,7.7486518428355025,2.7047112998366956,,0.581717464821069,2.995732273553991,2.7113891023677246,inf,0.5784884133584561
575,2.902902262235417,-2.902902262235417,0.0,1.202708601009762,1.176661295252463,0.8138933700924431,4.0219262880419135,8.142569795992713,,,0.6125606311107803,2.902444339130434,inf,,0.6782086425098544
576,3.190041369838904,2.510402203551783,-5.700443573390687,1.3421497355827194,1.353686076905357,0.6702435247209688,3.73633012224968,9.248775589342726,2.5113962015678752,,0.6097226960127671,3.189047371822811,2.5180740040989043,inf,0.8056296170994952
577,3.7953823243588536,-3.7953823243588536,0.0,1.6674717857151582,1.6368912800624424,0.7940226370157243,3.2427476464063556,3.4193562516848526,,,0.5677978065141052,3.793252802860402,inf,,0.6060244291625966
578,3.1388331171946646,-3.1388331171946646,0.0,1.440724354917065,1.371157752412205,0.8329570115123496,2.960363412735264,1.8342017185577295,,,0.5567373465730988,3.138833117194664,inf,,0.5822549305906974
579,3.2980561779287645,2.4023873954619224,-5.700443573390687,1.2861715738774637,1.210460204584387,0.6682088667501717,3.0660349925934387,1.5946901978136445,2.402704900096761,,0.541134803179459,3.2977386732939253,2.4093827026277905,inf,0.633282002601983
580,3.2560126167975083,2.4444309565931785,-5.700443573390687,1.304471176710873,1.2666451178096663,0.6742772078244035,2.4838149234049327,3.1423309276825915,2.445652676822358,,0.5068466436745385,3.2547908965683283,2.4523304793533875,inf,0.5901102759659534
581,5.703782474656203,-2.0723742991250873,0.0,1.5537220659196311,1.5164334148434868,0.58330714173357,2.0056406063128813,2.2388446483435436,,,0.5748741956352443,6.716217067083258,inf,,0.42107060117083833
582,3.624340932976365,-3.624340932976365,0.0,1.5242241927285758,1.5106775707882618,0.729494286602041,2.3686228904871034,1.690323258462278,,,0.5158180382284114,3.624340932976365,inf,,0.509544464866258
583,4.103270304274668,-4.103270304274668,0.0,1.2516589690514677,1.2446842282381998,0.6465971531858838,2.9373533990226885,4.583776316742181,,,0.5068466436745385,4.102376733919365,inf,,0.4471866393156285
584,3.305887201857831,-3.305887201857831,0.0,1.5693691872923123,1.5239885527132797,0.8423625258319453,3.0777611956510844,2.263720086840141,,,0.6153451465759925,3.3058872018578307,inf,,0.653207622683876
585,3.1238238435452725,-3.1238238435452725,0.0,1.6758717456769312,1.6595807505850093,0.9015578391624245,4.665855582676485,21.585288641714598,,,0.5947193981915972,3.1233131516904855,inf,,0.7468805244347111
586,3.458961969152659,-1.28554870036825,-2.173413268784409,1.6585608257999684,1.644900503186368,0.767817994250704,3.966820929798293,5.9396261580900935,,,0.5748741956352443,3.457415061660384,3.2139514392575226,inf,0.48166975718643773
587,3.401197381662155,-3.401197381662155,0.0,1.5282485915400017,1.5188894512758524,0.7989635275835978,3.8637772581758685,8.938905687835067,,,0.541134803179459,3.4011973816621555,inf,,0.5719048879957246
588,3.0647251450409425,2.6357184283497443,-5.700443573390687,1.4721238941498165,1.44099962739481,0.7429948365683638,3.656608101334342,12.410259206633617,2.771641594417737,,0.5677978065141052,3.0647251450409425,2.6423962308807734,inf,0.6214710585853136
589,5.7037824746562,-5.7037824746562,0.0,1.1093522218068543,1.0429097894359618,0.6644842259841038,3.18525366794418,4.038330664437675,,,0.5113665138247345,5.703782474656201,inf,,0.7308072318995114
590,3.905856978235055,-3.905856978235055,0.0,1.4377981097106662,1.438217701997803,0.6586061461404067,3.3717117272496884,1.7316099244592165,,,0.5451288209179292,3.9053784627094776,inf,,0.8101384950467634
591,3.663955246121641,-3.663955246121641,0.0,1.4573240338864544,1.434395996236057,0.7326671461223803,3.051464374859379,3.076583424234827,,,0.5490601803369085,3.6621293390380214,inf,,0.6525827415315117
592,5.7037824746562,-5.7037824746562,0.0,1.5120583295026728,1.5093865637446187,0.7053184000892824,2.6938485950574496,2.299527333992793,,,0.541134803179459,5.703782474656201,inf,,0.7328998418638621
593,4.605170185988091,-4.605170185988091,0.0,1.582984394034287,1.5671846743524374,0.6243851587026149,2.666762595558145,2.500167364561677,,,0.541134803179459,4.605170185988091,inf,,0.5739978295668603
594,4.605170185988091,-4.605170185988091,0.0,1.5621812995952045,1.514880465677044,0.5118870090087585,2.882832919176836,3.294303191840958,,,0.48319206230712763,4.605170185988091,inf,,0.727073484126901
595,4.312281430672312,-4.312281430672312,0.0,1.4901556409350856,1.4763202791761323,0.6979457592735575,3.2436909294459104,3.1159708220954463,,,0.5022576003740722,4.31167172821487,inf,,0.7588033008178661
596,3.757872325600888,-3.757872325600888,0.0,1.6407733789389765,1.6234606701082472,0.6309287332388739,3.4975582573089787,5.418758213902262,,,0.5287703885177266,3.757872325600888,inf,,0.7639150368749716
597,3.305887201857831,-3.305887201857831,0.0,1.539054849602791,1.5229603589433351,0.7168398438314516,3.5137777608037983,1.8095375502091189,,,0.5713653840954815,3.3058872018578307,inf,,0.7438984584337356
598,2.59273672814101,-2.59273672814101,0.0,1.5277534775448305,1.4918326951403447,0.7995944430044891,4.140081929673407,6.739309564477167,,,0.552929491858785,2.5924918604679377,inf,,0.4998556149567964
599,2.7586595848979263,2.9417839884927606,-5.700443573390687,1.4088188105768846,1.3954938241320163,0.6770641038469689,3.7093193113166127,14.702613508145218,2.9418015861724163,,0.5783247308855777,2.75864198721827,2.9484793887034453,inf,0.7047209536420885
600,2.6973239321467166,-2.6973239321467166,0.0,1.7216950374662119,1.6800560209992017,0.7249281626281033,3.6100112422868853,2.751501424818685,,,0.585052858160615,2.6971102610638757,inf,,0.830343854387842
601,2.659260036932778,1.9425712477897998,-4.601831284722578,1.3417574424572576,1.3450388223599108,0.7921709923463842,4.2267004301029205,8.025837934053563,2.348036355897963,,0.6284777104787076,2.659260036932778,1.949249050320828,inf,0.48881312027148116
602,3.134139612291595,2.566303961099092,-5.700443573390687,1.3230826982259727,1.28046333910296,0.7238106372298861,3.81512429611321,13.54157882428206,2.5664704222779156,,0.5490601803369085,3.133973151112771,2.573148224808945,inf,0.6587676287518807
603,2.476016621473257,3.0134691143557073,-5.489485735828964,1.7100287733764823,1.7130278019372716,0.83547389665834,4.741594270623919,12.765436681765793,3.2245627348099988,,0.5915533975974677,2.4758808385806876,2.965537371608022,inf,0.6755354106225158
604,3.2173513684054833,-3.160156282384841,-0.05719508602064235,1.101929290795699,1.085909622918788,0.7478635533793526,3.5032243947864337,5.074999367085708,,,0.468121228110369,3.2172105455491393,7.091742115095153,inf,0.6609964768429294
605,3.5065578973199822,2.1938856760707046,-5.700443573390687,1.4805768088386668,1.4621850640214533,0.6009409448940457,3.455935215341626,6.492573144191088,2.1938856760707046,,0.524519217297268,3.506557897319982,2.200563478601734,inf,0.6013844223282181
606,2.502993005791817,2.5043033870389246,-5.0072963928307415,1.4312616821323418,1.403294028296888,0.8397838671856617,3.542925156908172,1.8042304605043809,2.504904428701721,,0.524519217297268,2.50239196412902,2.5115822312327505,inf,0.5556205783396332
607,2.3349164699395506,3.3655271034511363,-5.700443573390687,1.6141860529182368,1.6175961473419755,0.7871142646093439,5.173863684235242,20.701434870776755,3.365564830755672,,0.6068309995095971,2.3348787426350146,3.372242633286701,inf,0.5436109718005867
608,2.995517145150199,-2.995517145150199,0.0,1.4581562394104495,1.4200779516553115,0.7792273635181725,4.281930181698769,4.544944720590443,,,0.5329562494928909,2.9955100760194693,inf,,0.516586472333253
609,2.7580681385355166,2.9423754348551703,-5.700443573390687,1.3635641085337573,1.3481615542908643,0.8146425513567744,4.475408329754509,28.135271786301917,2.9425026026750114,,0.5604843169999094,2.757940970715675,2.9491804052060404,inf,0.5456565812352561
610,2.9535671064107776,2.7468764669799093,-5.700443573390687,1.523502482610377,1.50880643772165,0.8696128795022317,3.3920998174717014,2.361586348523004,2.7473449855862166,,0.5783247308855777,2.9530985878044698,2.754022788117246,inf,0.4960005288655128
611,3.169072828481892,-3.169072828481892,0.0,1.4818789161792925,1.45261453610065,0.7980791649770567,3.429681579036452,3.925500073975289,,,0.5451288209179292,3.1669160859374896,inf,,0.4639060395839896
612,3.3389280641899974,-3.3389280641899974,0.0,1.690259071073671,1.6688691264827844,0.7331122291597555,3.3465009626232325,5.471644600669277,,,0.47824363442641393,3.337909642426237,inf,,0.5088398289135185
613,3.6047104270336345,2.0957331463570523,-5.700443573390687,1.6831977466530865,1.6632885533773378,0.7810247643432816,3.754793634825877,4.654185315406571,2.096721927617057,,0.5113665138247345,3.6037216457736294,2.103399730148086,inf,0.7833906963113835
614,4.31748811353631,-4.31748811353631,0.0,1.5985657732735041,1.6002016057421231,0.6051482846735573,3.265523634413315,5.43565365827625,,,0.5022576003740722,4.31748811353631,inf,,0.665500461044905
