,bvp+acc_XAp0,bvp+acc_XAp1,bvp+acc_XAp2,bvp+acc_XCond1,bvp+acc_XCond2,bvp+acc_XDist,bvp+acc_XFuzz1,bvp+acc_XFuzz2,bvp+acc_XK2_1,bvp+acc_XK2_2,bvp+acc_XPermEn,bvp+acc_XSamp0,bvp+acc_XSamp1,bvp+acc_XSamp2,bvp+acc_XSpec
0,1.3184632255897661,0.8897113850666931,0.7665393128350368,1.1000693955883751,1.0900026115135129,0.8176150111831773,3.632926638541107,3.4955994073866865,1.0322027377262426,0.8480231265077448,0.6380535849069913,1.3084694956565852,0.8624053063568521,0.677971209054229,0.9027734481066189
1,1.2868584238475065,0.6880004808506448,0.4725863680605933,0.8466744011749237,0.8429808373318363,0.8129391992930519,3.13360039620162,2.6370021528562226,0.766154978268839,0.6144902207683306,0.6566669596287297,1.273045044041827,0.6186821009726098,0.4475219323512002,0.8445098484526268
2,1.3515745563194228,1.0900573068538586,0.39830107027427397,0.8797965924205359,0.8667345158002131,0.8163395137622277,3.324694526401547,2.528832605613685,1.0153826507566925,0.8843877256871199,0.6602640781246099,1.3146561028670964,0.9215172246076977,0.6178665011739802,0.9294169943397999
3,1.7539716511699066,1.2814855543645864,0.4099686332148864,1.1129894380284875,1.0782135841811433,0.8200183777213031,3.9692854046928647,3.8097089548675767,1.2511018457981653,0.8486514214237364,0.6233814453054027,1.7406228537806754,1.1495489241128232,0.6806283881548368,0.9302915928111127
4,1.7971619960541245,1.7515594161995973,-0.8848224080674583,1.4283987631050334,1.4119662806076798,0.8070732929984346,4.605209573349521,4.209882290771699,1.9891064148250601,2.486940155986191,0.6125606311107803,1.776476845696898,1.6851785050023713,1.3139078212175028,0.9087713768994355
5,1.7720543773103137,1.3267010804445685,0.448066824489719,1.3292567429732711,1.3075857787939629,0.7573858321321622,3.8656995162093652,3.9160831347230816,1.4830923086410506,1.5234221948691662,0.6068309995095971,1.7296614236298438,1.2565606599231551,1.191504087608153,0.8826692995559339
6,1.7790344373300662,1.302118969945027,0.863647732821303,1.1403767924856965,1.1331245413695858,0.7825986276165535,4.013904171093859,3.7909765117069787,1.4070728525064424,1.5680853201430982,0.663668482632973,1.7584536505215824,1.1737823114732813,1.1190491107667901,0.9095972530323484
7,1.686029255486053,1.843874975419211,1.1584935494900837,1.15674320684084,1.1563049796127027,0.74461537694429,4.490309920265058,4.412323877736913,1.9927440667399579,2.006435281132536,0.6153451465759925,1.684580607763445,1.7415927599688874,1.493707563095459,0.9555368324424618
8,1.6237626566545902,1.086498658414908,0.638107328581667,1.1625537823084393,1.1213210279982861,0.8229725006336448,3.8689623014654844,3.7706143182681897,1.2712072600816764,0.8291140512722589,0.6684167106117298,1.6197127403751985,1.0432047706196719,0.6524080315933211,0.9451069393424918
9,1.5026707030800004,1.1100841311476446,0.6164224650479682,0.9471333822794297,0.9323772095084311,0.769170679901371,3.467949657211225,2.436153411902858,1.1869614199403613,1.1127529864291328,0.6097226960127671,1.480653881832686,1.0360874914753329,0.7669693128984696,0.9299120086508934
10,1.9335919281970815,1.4782935717571706,1.447579717377553,0.8194407044291959,0.7853898534641109,0.8589906462621821,3.8671477859049985,5.133855383393208,1.652375253734622,2.215005430319398,0.6038851895711802,1.93209490935495,1.468436027764045,1.5854117443868894,0.9370156142761166
11,1.5715692829671535,1.2004813730348505,0.7160307599514066,0.8308659921884254,0.8012948553857255,0.8145208578760694,3.21653125160101,4.262006415747921,1.3146553385123112,1.2068268433601839,0.6357360191111145,1.5594844040480125,1.1449058362227102,0.9708054867572911,0.9445783760139195
12,1.4883910215169802,1.1633669155654407,0.8090627328025812,0.850222864961924,0.8442393328467538,0.6422619932918063,3.756292561533023,3.828249853064822,1.271886695723296,1.1620528915837869,0.6528756675646988,1.4758787424175954,1.120928279868633,0.948260729795629,0.951658430899527
13,2.117383923069988,1.4830101329247638,0.7332221982083169,0.7673602339231035,0.7415528881878001,0.7550242967866906,4.381970726993794,4.146239581869588,1.7071109416897234,2.0535585484924983,0.6602640781246099,2.112056564966341,1.4690652488900473,1.1455884566657986,0.9373783085008166
14,1.6101635096600064,1.1601220350529966,-0.12013824591753064,0.9405018587662151,0.9248317026069239,0.7523477704803909,3.644034538797375,3.2878147587619333,1.0190562806364287,0.720617506363201,0.6652988471865258,1.5767556222742596,0.9206285490248534,0.5580981066606521,0.9025555259829017
15,1.5679502624059989,1.1462093026419584,0.4207154794878183,1.1989538302495886,1.164617515456853,0.744947297719107,3.731795132541958,3.674453070353425,1.1243027783915942,0.7858265286550321,0.6713451011121618,1.5199019471232456,0.9858879135811789,0.6258894191336212,0.878413062288207
16,1.8529805064652127,1.4934335830545067,0.40055759337072416,1.2966737773671027,1.284103861078655,0.7577109736338207,4.019562987717291,4.336233565918104,1.6173342405031457,1.3852841031270051,0.6447042257417027,1.839060742346068,1.4209264707645637,0.98906373887245,0.8569219364317182
17,1.5592057658232887,1.3718306624280525,-0.5260036733384421,1.1398344101542777,1.1154133384550793,0.8228118951397653,3.4106283301710403,2.824933860286757,1.0726239263359498,0.8716761461094087,0.6602640781246099,1.4418540535961422,0.9513854076660344,0.7071128614219171,0.9486697849956656
18,1.6215680196380378,1.425733676049218,1.1219969193173571,0.9307824463207411,0.9089896869665884,0.795809417129308,3.7683398857572508,2.8394831432452246,1.6543638423329037,1.58502788401903,0.6547956803312163,1.6108834010940833,1.410052726823198,1.1409737538005853,0.9352647976691036
19,1.7475120560378006,1.3278984095112185,0.8724871495413522,1.1852002951522982,1.1750851834107807,0.7283608486378064,3.639767006837882,3.9420773546048093,1.4499234014028068,1.2218745689832842,0.676637947632344,1.741383261902988,1.2884804748117755,1.0169613095393606,0.9234948301556744
20,1.6234439357733403,1.2556048887725686,0.5615242051654183,1.231920745336048,1.2338905738121362,0.8127677305280825,4.091688006510301,3.4462306922399133,1.3136291567570473,1.1093982402682445,0.5915533975974677,1.566272000369392,1.1871243024996951,0.9009743765589742,0.9270044757019272
21,1.7533933703282674,1.5356441647716508,0.6315621821039401,1.0506177454766827,1.045900594673889,0.704895874526961,3.9857324316451384,3.620045619191169,1.6042769854309324,1.3011583750620932,0.6180765742263259,1.737650143581023,1.3960678729468707,0.9733741185167094,0.9463712273481867
22,1.970350261623132,1.8549525708086898,-0.27502665103239643,1.2978961380355114,1.3020453254110813,0.8270640015429339,4.629489483169265,4.671871292888131,1.8897631006561249,2.099734274278482,0.6509067234006624,1.9536511445105016,1.6790580381363802,1.5927708599488888,0.8978572511107676
23,1.9076458669446734,1.7222537684198738,0.033341765759022035,1.3957100030686331,1.3833931674527014,0.7704136473903422,4.1882792898877765,3.8442858717537893,1.8432340993680714,1.8966117813632384,0.6097226960127671,1.8797895467350907,1.5664052008578004,1.4555861415912825,0.8992263575891898
24,1.9088124052189346,1.8435055019977096,-0.6280345345050242,0.9758188164351357,0.9765651279802994,0.8104134590476914,4.275293916649519,3.2710302394587663,1.9984669036371625,1.8510172632492885,0.6547956803312163,1.8887109953045054,1.7579607581568732,1.2656276399140154,0.9404127189934305
25,1.806135419836437,1.6159613481004422,0.8307441519226701,1.3608648182011933,1.3658665664705194,0.8282459368855389,4.691141059901973,4.7690312742610566,1.8542960615917206,2.394668832438379,0.6566669596287297,1.8028878270158988,1.589019507739164,1.8481411236689982,0.9266313360492769
26,1.7837265485891403,1.606221688228236,0.5260009464901492,1.2574770495878742,1.2230216377703516,0.8348885267999997,4.341519797640536,3.6351389931884937,1.839974311043469,1.8534035628944627,0.6097226960127671,1.7685639116248664,1.532788135067573,1.3492805133724093,0.9099560951879457
27,1.7177641449438348,1.5097016328320325,1.1013264107012581,0.8432658004167483,0.8286946122421581,0.7540880141831737,4.17641064595795,3.9262967471608547,1.6478710544109443,1.5505574547407532,0.6699045166045591,1.7141813345826804,1.447999146608975,1.2597426504815383,0.945162925809436
28,1.520243072361757,0.9564762755087866,1.1362420943343396,1.1853642958673545,1.145332334207695,0.7116833047364054,3.8688857152472185,3.518644704112482,1.0519619327903802,1.363946229696731,0.6309483474627791,1.5172132961694147,0.9186492534396632,1.0721779276711265,0.8951680202336686
29,1.864087859051302,1.7210968922259358,0.8898547518834938,1.2270779031915728,1.2119048525733287,0.7894185191616786,4.587943410048067,5.194289500040309,1.8865428003632196,2.2481575385158723,0.6284777104787076,1.8613239326139641,1.7039622375810861,1.865927869819418,0.8693300178683374
30,1.9288415334299247,1.713097094978312,-0.03530459063709257,1.151673985631546,1.1183685293505667,0.7660340953879488,4.062899802024009,4.110808389685248,1.8518383896664412,1.9088208964862086,0.6125606311107803,1.880955048032526,1.6134547153518082,1.5279607869303424,0.9421748155611499
31,1.9352034462753955,1.7997835214096154,-1.2450067304915136,1.040997719456175,1.0369730686222847,0.7726955286915119,3.6850515079803796,3.083954495012826,1.9289546117787066,2.1180361034143966,0.6284777104787076,1.900458886151396,1.6806629277049927,1.4616923786041023,0.904253907506179
32,1.7503506333220094,1.5736232609825154,0.5561913716483047,1.1647573253967574,1.1459922042393387,0.8164949037811989,4.139973348608006,3.413084238318344,1.7150923834708798,1.545461670843806,0.6097226960127671,1.7367032634799766,1.4312682315264567,1.1264513455988812,0.8446374765286955
33,1.999081134156877,1.749752779831725,0.5119013199401938,1.0724324791622704,1.0748814312320583,0.8472749868164985,4.655766413809564,3.967993470308466,1.9520246488902697,1.61494364434304,0.6468212168108125,1.992407942714894,1.7400751488811743,1.3276926480603235,0.8740760242931457
34,1.7759278907496514,1.5811764971783362,1.2156248276520816,0.892298682259846,0.8683908333810829,0.889193843676386,5.095772491625726,4.638056100205494,1.671440687495627,1.4970277559394243,0.6284777104787076,1.770519966235636,1.5589771012613283,1.4098396333980345,0.8542241792496628
35,2.0029074937963505,1.7174857362302545,1.1391848133472213,0.7683182326133489,0.7417713585457996,0.8593420522478533,4.573641444291721,1.813838666229568,1.7562799354504552,1.3272457875931631,0.6068309995095971,2.00256280845766,1.7202181973319577,1.325210074850407,0.9376749669123455
36,1.9610484122361307,1.5884385965566403,0.9035821933672299,0.6912897077071575,0.6657612209797145,0.859903229648386,4.179323727466474,6.797016894248423,1.8523455217205422,1.880874398271786,0.6284777104787076,1.9571845783622797,1.5612959639146082,1.035785313849436,0.9272034793916683
37,1.4815157021727017,1.0775879419867427,-0.07423345397737613,1.007864080286009,0.979549039233655,0.6824303258249543,3.638233367248053,2.7642357224163585,1.0276883984356868,0.8177170389515669,0.6097226960127671,1.457766493913024,0.833109639504651,0.5549047411506148,0.9336795631583407
38,1.8960321479144038,1.7194802523386157,-0.038516856232425845,1.2684294833413725,1.254963908635929,0.7766553139141907,4.1391218268262,4.762902654324424,1.9923328621948384,2.352535267512047,0.5915533975974677,1.8845328693804098,1.6882439725437979,2.1649071844076744,0.9338185137981494
39,1.8445274896884747,1.8887780754164483,-0.4617876981821709,1.5191710929546678,1.5238325226776466,0.8148890194617303,4.326929938646452,4.152242393637508,2.0398783052095055,2.5251839830823446,0.6509067234006624,1.8251783787735,1.7855062277553795,1.9052361309577515,0.9046467826348041
40,1.7089347808063788,1.612522590460176,0.3813165180487399,1.5561872566204014,1.538926147266908,0.8748911344829496,4.113904982836831,3.004071707860321,1.7690585359248772,1.7411759372986457,0.6284777104787076,1.6834433257445962,1.4890261263094489,1.2900444335325232,0.8911430010370789
41,1.6862635535724897,1.141928712801102,0.3815623121538563,1.1847874999720116,1.1359984363540663,0.8151728712745082,3.709558997073543,3.445093595435474,1.0514318613965132,0.9224497151518812,0.5947193981915972,1.6718453725627174,0.9600156901819461,0.6512570308518907,0.9495880957900472
42,1.3970889127569937,0.843178626746679,0.6317915731016126,0.8235043077736449,0.8020498936105479,0.7331037363067893,3.5879893968595584,3.418466421699255,0.9581136417988753,0.8117971705032367,0.6180765742263259,1.3883854347802014,0.7826841850791668,0.5524326858017635,0.908331712041453
43,1.3940707749138908,0.8604246568162857,0.690180504898807,0.8717197432281066,0.8622828607457994,0.7672255794251492,3.2132267103362566,3.4886083679622555,0.8777969749312285,0.825756277075624,0.6284777104787076,1.364358933607192,0.7322061606298502,0.6310077733540319,0.9411708346539486
44,1.5270862154970777,1.2238406940878503,0.6837587314202667,0.9546286908819274,0.9523748836434582,0.763660346191622,3.8083465838377846,3.3873410869716283,1.3239674287890557,1.027444138008884,0.648888643467878,1.498443298159181,1.0882746177755038,0.8178183669929849,0.9419496093345565
45,1.2778551827086133,0.9258393495351975,0.6204654307573971,1.0817559507289722,1.0553988441237716,0.7506517516216905,3.2864749572398226,3.3591902791319015,0.9565393777565706,0.8235580503854067,0.6566669596287297,1.254720438646161,0.8031770734689592,0.6106115143665573,0.9334719667884185
46,1.365372403066186,0.8760830968508104,0.6942957571040367,0.8262749209150385,0.8106156892515282,0.7571004844545739,3.8252275639327493,3.424274755036135,1.1105178621844192,1.0286151609250254,0.6602640781246099,1.353676596108749,0.8177827733414441,0.6720288025471213,0.9467596849516255
47,1.2923407059951566,0.756811863311796,0.253014466911722,0.9473296575021496,0.9351590224032695,0.6762706266260815,3.219254945520815,2.6858732029393417,0.6685809239946392,0.4611674413244734,0.6602640781246099,1.2595246662245652,0.5643448569217236,0.35846644169618014,0.9424343636405942
48,1.3930846886037502,1.0484867018226758,0.21530905565815228,0.6339235379974116,0.6108716410061495,0.7227350950266687,3.2770326472407962,3.562337867202673,1.0735350966860604,0.8532698561927649,0.6528756675646988,1.3575557441135069,0.8773707004067239,0.604562103061364,0.942051453762619
49,1.616086417934115,1.151202308640776,0.7271362031268227,0.7560347320887995,0.7332984456281999,0.779976627425088,3.694919634227921,4.174477067469958,1.252385404674845,1.3255372236991805,0.676637947632344,1.6054458911645628,1.064826945603617,0.8856309346549566,0.9456833327021988
50,1.5851959741467276,1.3220766360905276,-0.11218258002957127,0.9828147916208823,0.9678015138371903,0.7071915289063763,3.596760143343485,3.10794685354573,1.2016973205568828,1.204741715768084,0.6333676938231112,1.5529000614738424,1.0724954615061792,0.8752539376537936,0.9152906783028836
51,1.6351453418817077,1.4856621026282262,-0.2580913099178721,1.270526017475082,1.2640343176496922,0.8329944281970334,3.7780805295503175,2.965369707692406,1.4255215034128297,1.101547426881218,0.6284777104787076,1.5905616399980513,1.279615410612594,0.9566881464771938,0.9276834310706017
52,1.7097308711697539,1.5162446683270232,0.4299466851830416,1.1933548536239529,1.1816144141457539,0.752315971852882,3.9792300192303656,3.454884143045872,1.528177798023478,1.2896250487062224,0.6403206450210053,1.6837424851090195,1.354897289456248,1.0759074949743526,0.9355867681308221
53,1.9756256261574345,2.004861055959334,-1.4622173118149795,1.5360109250682918,1.5061339579344037,0.8237252135639269,4.198393989982077,4.469267767646482,1.9915366182135115,2.4922912158991752,0.6125606311107803,1.9615992485199538,1.7948455250897486,1.6037479966564219,0.8603860235249956
54,1.6745769009371652,1.3096748322613554,-0.9078256487619942,1.4612413077187199,1.4288626792993164,0.770188095407042,3.7897383262465714,3.364570270594924,1.1507596360626686,1.0175611309309749,0.5883313578629602,1.622466866276496,0.9244570412620304,0.5947337076181283,0.8574071578027173
55,1.710326760771535,1.3118427178553116,0.4493234314284176,0.9396945999918421,0.9282904247108287,0.8362663781444215,3.7319778808364714,3.136936961118141,1.482637514468726,1.592848576152313,0.6727386042041725,1.6959645584399297,1.2125711700839061,1.0736713337614148,0.9376203602837352
56,1.4252142110362227,1.2745659383036592,0.4218938762833657,0.690221418954964,0.6713316736923315,0.5069339710088226,3.1134770098556026,3.451015836876794,1.4383785774654967,1.5635461689835766,0.6447042257417027,1.3910166044922598,1.1797384624217782,1.088349858498667,0.950036959297584
57,1.0693329740164608,0.7598096356870818,0.7147520672691228,0.7284308637908568,0.7234847593248286,0.6294559346562877,3.091373156374401,3.1356103142943406,0.8510052613195248,1.025108722952635,0.6153451465759925,1.0369215686696773,0.6662167089048495,0.628303641881501,0.914844690976274
58,1.480188311097913,1.0448692266828659,0.5621447307628529,0.767493989280826,0.7609503729991779,0.6907476751399243,4.021028254100243,3.85768035102579,1.0586287789444015,0.9760824773786989,0.6207552362147116,1.4640397097447435,0.9044477970286967,0.7220439660465588,0.933302402448026
59,1.7858345993127083,1.5675815811282199,-0.10601434883396621,1.1966147133504779,1.2015394959438224,0.6569849127385242,3.9563239151818945,4.353031759007891,1.5876318151748352,1.6611991580981462,0.6403206450210053,1.7686290518392005,1.3584782108906408,1.0912899481622382,0.93178778396884
60,1.6801913734722136,1.3284075592146165,-0.0032359604793477104,1.3678395215473762,1.3613818135197242,0.6827713254781369,3.482175363717339,3.2517615039278605,1.6128617544839254,1.8093698849581072,0.6333676938231112,1.5817146665034265,1.371596891166612,1.421629130614357,0.9244607887727407
61,1.721056802926514,1.5310884121205763,0.08318899211741915,1.403365946969442,1.379316509026049,0.7915010165442772,3.968446147149814,4.093469971717484,1.6207786154057493,1.8072472104328532,0.6097226960127671,1.7123323355967333,1.4036861038317598,1.2431601011620266,0.8961638661165497
62,1.4357731285307358,1.1034287342383176,0.03566404007941504,1.0261578599243595,1.0081057362098704,0.6673290738171391,3.348839316380478,3.6631368451767625,1.1603247664638876,1.3356663964960085,0.6528756675646988,1.344384958042681,0.8769274148226283,0.8892074273652667,0.8900082797188357
63,1.0715217198599731,0.893605644014152,0.24702160681417484,0.7588844609275238,0.7450770082467703,0.6237098785228795,3.1002716391077114,3.072727007389113,1.0498720730875444,1.240058327344474,0.6528756675646988,0.997440533631738,0.7758243529601526,0.6313529319673067,0.9357993825668053
64,1.477252131072024,1.0447679937194052,0.2178522502202176,0.8966649759005499,0.8714639321490925,0.7619095659947343,3.9079549071563355,4.084403216003009,1.0610212011275901,1.0018841443684905,0.6380535849069913,1.4467051169184038,0.9123327565804195,0.6791380791657358,0.9439248108207197
65,1.8472107781051572,1.6923918208833801,0.9649312599269173,1.2587193682942475,1.2652655127866916,0.7533183116814881,4.013668755183009,3.965502090823766,1.8176198785093094,1.4477208829484292,0.6528756675646988,1.839130640644073,1.6782260955583683,1.2862643885094882,0.9372707055705906
66,1.5930620454659543,1.2945013015364633,-0.12714200007519194,1.2497477343343388,1.2331462531330952,0.7520707534202243,3.5583231158759983,3.119730825274702,1.2230542811530807,0.8503689750380519,0.5978297680564633,1.543390114161815,1.066173140225741,0.6357706294436662,0.8979437239050695
67,1.5295755672680276,1.182848264470021,0.557332631983622,0.9997168335498515,0.9859086752147127,0.6611152202940114,3.661026099041448,3.375870078191183,1.176434714348479,1.3846500572073832,0.6668815377411301,1.5007329955258844,0.9973264408404164,0.9821811526363073,0.9236945529700247
68,1.5339864853129026,1.1366943980636715,0.352230251699984,1.182771007067592,1.1792857674197064,0.790834457344993,3.7066254202394506,3.581513418892937,1.0767717587139336,1.1387282075146161,0.6619902821573977,1.5059291101397485,0.8755789473039661,0.7565561246880725,0.909362662366095
69,1.4187019225978925,1.1375444840960174,0.8575412847681729,1.056981369950935,1.050496456298165,0.5753896536480672,3.8641538902131978,3.8221130233165117,1.2505614796908513,1.3391357213557142,0.6153451465759925,1.4063156789937783,1.0939076749061152,1.0483146156609708,0.9489801135058042
70,1.449058352325251,1.2442655441446402,0.3421784899639304,0.9982325625420191,0.9935045415945685,0.7000884790974026,3.543184424175496,2.9726378198794947,1.3711317133300103,1.2947195633094322,0.6509067234006624,1.3953126819848853,1.1245995770019304,0.982579840826921,0.9126515672248805
71,1.3119544277916584,0.8331462141420645,-0.006540111052347086,0.9652611677467818,0.93783598198786,0.6772123315872485,2.832199121275339,2.2805051683223088,0.8094127642446092,0.657231900462475,0.648888643467878,1.1841701770297564,0.6775826640188337,0.3778574527840673,0.9443622042132108
72,1.2751719037923583,0.8647786872336216,0.5675806688979992,0.8390480574557063,0.8326436661670874,0.7325024406941149,3.1937085686151563,2.719431752984669,0.9443873864522268,0.9805017320334605,0.6668815377411301,1.249163897373262,0.7628267017219676,0.5651775491190764,0.951259038756427
73,1.3060109361257564,0.828296797133597,0.5123935348593145,0.6598699070015085,0.6429842242511772,0.722924958866662,2.9974190648878474,3.5381338461809357,0.8545887053485435,1.0709799489629221,0.6097226960127671,1.2565925140759062,0.6628488229877798,0.5937276224422858,0.946516145316173
74,1.3190013152679643,1.100151439460351,0.6911118480914498,0.7413975709229235,0.7143445030797171,0.6267064387105917,3.2925762834023105,3.652880335136857,1.1709068945111687,1.445701574417638,0.6547956803312163,1.2540971915085046,1.009374031646641,1.1307505447705846,0.9485319601665247
75,1.807023240841109,1.2135447369771535,0.5500169707763671,0.6124980774563807,0.5901962474303182,0.7378470084239356,2.8205630448471486,2.6162663851372963,1.7348787824492886,2.6069500023164545,0.62595550513784,1.7293482091066579,1.4200533786681255,1.3140761533080916,0.9471367411267039
76,1.5104475874480763,1.1978660329047488,0.7253871495099635,0.4982834161557835,0.49748695012528077,0.7003164415426408,3.527982336303944,2.6805440224599772,1.2620087924097472,1.5131005395962391,0.6425374456860184,1.4897800920754496,1.0953152849679828,1.16141318990714,0.9497825188310721
77,1.884561167617944,1.4685048858549303,-0.18754397393814903,1.3543921180181735,1.3385046444009718,0.8702535409968235,4.266724741944062,4.288131088930301,1.5545537421192828,1.1769777828157841,0.6652988471865258,1.875938497470661,1.2177741844435337,0.710951805193452,0.9237379642383597
78,1.7767360916441823,1.594322926344461,-0.3456860886891677,0.9425626874496207,0.9269022329068027,0.6680988812372175,3.6695112931211002,3.370782589896032,1.4163624605090737,0.9661147128727595,0.6125606311107803,1.7173325003401543,1.2453949197481509,0.8076031404346244,0.9099177580981501
79,1.7739101562509556,1.0111252195388984,-1.1163764206794264,0.8512800650254442,0.8326864496613138,0.7381201916018482,3.3067476222063017,2.8758405496596615,1.0284304753830658,0.7753072600470136,0.6207552362147116,1.6087159508888436,0.8719331086465154,0.5859826637761649,0.9222604354293196
80,1.7195764595840968,1.3677404317358322,0.5198204719463195,0.8392269927232218,0.8135082597730069,0.7787470738127996,4.265977049243159,3.174151590987246,1.4901149144258354,1.2985888344199088,0.6153451465759925,1.7017359665804666,1.2746295044826743,0.9922278858533996,0.9264724086673949
81,1.2216918464992985,0.8831990882332654,0.7962132014448118,0.47184308788899443,0.4451975321927095,0.7469803474011054,2.5547309474767856,2.56111867046757,1.0152151447659594,1.181319439502125,0.6038851895711802,1.199316992789742,0.8445000379171651,0.8370005143844459,0.9468699470731049
82,1.0185726763362417,0.8973236419652189,0.9627106012612849,0.31339642699615367,0.31158850073744926,0.39665742075496535,2.175892460937755,2.2704632419613535,1.1258096953341965,1.7402736162266785,0.648888643467878,1.0116703585343014,0.8917658279183761,0.9394796302871917,0.9489672334959854
83,1.4442554543679889,1.1736123098084794,1.574458100969161,0.35114064724648436,0.34360994478910545,0.5498509105951739,2.0297398373330457,2.4017827454355256,1.3915021658228426,2.1485084151455696,0.6602640781246099,1.4358114561061854,1.1707356596655032,1.6028342564387705,0.9523038512674098
84,1.2683052269087032,1.0551218053480387,1.6204309086873718,0.4351328217452165,0.42626822805640163,0.465671838777983,2.2745538638190315,2.5777398275228673,1.3391751155622036,2.4322967747133584,0.6038851895711802,1.2511032355033904,1.0878001201647671,1.5430216186027093,0.949444161128809
85,0.7941170750156324,0.4582959232994147,0.24294715104318199,0.3558067266275612,0.34944560104210093,0.38232054096161483,1.3955319233969516,1.2191264355865963,0.6000477751348596,0.4804732527795587,0.6357360191111145,0.7198334458224511,0.43952013813484514,0.33541725349867824,0.9483667183409372
86,2.1263987448554444,1.5673188179238977,0.11305797425931008,0.18880655353635273,0.15529280520025388,0.6272889680951338,1.106776173425678,1.1334655990980584,1.9490584047377413,1.7212477827125372,0.6333676938231112,2.107109687893959,1.6753481131795434,1.2034848804323819,0.9095339082229941
87,1.1996876737111875,0.6161052455214746,0.34961971897840294,0.08467349851939517,0.07901863704937974,0.4005566422884937,1.1473846942909594,1.0028097249548886,0.8332284142850873,0.5885511114231006,0.6097226960127671,1.1890112151117267,0.6383754317594793,0.3973119074657684,0.9440771116852066
88,2.3159592152434905,2.3081961469716226,-4.624155362215113,1.5020387797991872,1.452686228813103,0.8971242505073304,1.1754891221282164,1.5135326030798808,3.334331370009325,,0.6284777104787076,2.313983137946415,2.267036587809393,inf,0.8977448622098579
89,2.1040932878848664,1.835705668983712,-0.643832949176617,1.4674855971265939,1.437049680457873,0.8734463622413882,1.3592678192558862,1.3489002651553612,1.9432178590462454,3.4426522497786385,0.6357360191111145,2.096293858757779,1.839908002367526,2.0597170363320574,0.9016747560232589
90,1.7179857470601925,1.1977100400319214,1.018806094051342,0.06698765724152846,0.0652551436204591,0.39161333895357003,1.7356888926181187,2.053041043557333,1.519662229154319,2.4535415485366303,0.648888643467878,1.7138729305709837,1.243066071597294,1.017550598245544,0.9634565519461482
91,1.171180263911285,0.7189303624935053,0.6684759127144608,0.47439931935795043,0.4453740264239415,0.5873285107143623,2.9153127469039433,4.309858251749194,0.9934443518897316,1.1264929744891192,0.6180765742263259,1.1424248616247628,0.6923812971456584,0.701955346559856,0.9414723175819227
92,1.1226298971055229,0.7370145678121873,0.49091454912911625,0.7131375945088818,0.7129755220555627,0.674071519181484,3.1727919164388014,2.546832837710817,0.8649300392874403,0.9751693373189506,0.6699045166045591,1.0768834132045437,0.6171445675301761,0.5066023897363324,0.9543914434960212
93,1.4074307525494971,0.8205972677977567,0.3968925582537244,0.9037380643849126,0.8934029054940773,0.7619586289379182,3.231573527161226,2.607187594173312,0.7356259096690152,0.5869482695682596,0.6207552362147116,1.3672763552841287,0.6751691682645369,0.4652522145401498,0.8913210983771528
94,1.934024094008552,1.6240969139046575,0.06790264631565313,1.312009400324427,1.28860686353963,0.798767833284574,4.745868535273318,4.269002754633897,1.777762329354756,1.490337339270091,0.6468212168108125,1.9296431765914415,1.5925925334477702,1.3870470897967568,0.8643434666125343
95,1.8484461378216288,1.8738958080732275,-0.2471700382598372,1.184531690910383,1.1550877664174428,0.853671130407,4.376027901680163,4.183693331523031,1.9461683045504634,1.9029653701789329,0.6509067234006624,1.837943033532537,1.7344381605131172,1.489547394438152,0.9372426812877851
96,1.7324807140232261,1.3770765516131789,-0.41523140731535113,0.9702542587394399,0.9635445634631564,0.7076828412432542,3.219133518599362,2.4404144187732832,1.0247376615573236,0.7277469747115509,0.6547956803312163,1.6313427478221503,0.8954976253387956,0.5987475172836978,0.8959783427411331
97,1.8152087500021108,1.6248833400639255,0.9031105867390492,0.9104708254711208,0.9191469930437527,0.7224013783196158,4.418741984571028,5.748616772909903,1.8384294958226122,2.8542205704361874,0.6097226960127671,1.803697106801098,1.5663246573926077,1.9194459870773484,0.8797440223962237
98,1.7246388511817468,1.2894550655635773,0.5826362735163251,0.8026418098029934,0.7793411515477179,0.6310532624145188,3.393816126428175,3.3539948661552224,1.344656471416795,1.331759971809322,0.62595550513784,1.6931214993310555,1.1367197588250768,1.0483172333192574,0.9246217636895074
99,1.4213703190128277,1.2817475939220726,0.9110434873227744,0.8900928165722743,0.8975452040576305,0.6430101030084118,2.9919424757099424,2.867362777811364,1.5239241496673543,1.37247969824873,0.6008849035917525,1.4085399700672103,1.2638213886264926,0.9867435667190021,0.8657075567482408
100,1.4568050879111902,1.0326206286157922,0.8303932913831322,0.7988156683680293,0.7627244236255682,0.8218807642328675,3.584047690295562,3.455248846894366,1.1950527421745942,1.131650312080323,0.6425374456860184,1.4512003571755072,1.00959921726926,0.8187703190956899,0.9107845413016358
101,1.384102796468182,0.8298870074458442,0.5876716662826365,0.6404167599105087,0.6203373848769197,0.7068206802571197,3.819028779707398,3.0349168969934874,0.9334831848130881,0.8481280421452881,0.5883313578629602,1.3801355875820962,0.8100140760821611,0.5792441676790044,0.8918334337798643
102,1.337009935732618,0.9754664762831322,0.9542066678284518,0.5902325096270578,0.5676424162668137,0.7593042194074129,3.7855211237481257,2.9344623569199384,1.1049595783016406,1.3296554045863789,0.6602640781246099,1.3300820737287946,0.9470518868357266,0.9822745488262563,0.8378219569266083
103,1.6066651570961448,1.1585402554207798,0.8921527741106083,0.7763017852425697,0.7632480698373438,0.8058690774415169,3.989914014346284,4.527441859804098,1.304523523843418,1.1065591018646366,0.6380535849069913,1.6028485588762946,1.1389307949700431,0.9329780650440433,0.9274882965963631
104,1.910469281429439,1.5802920074385975,-0.12163812917884709,1.1879204109031276,1.1656093459716717,0.8641921649118699,4.247852565362317,4.87799639601963,1.6621199555621906,1.5200647632725048,0.6357360191111145,1.898454207899018,1.4329062141743578,1.218690464693636,0.8459953732800978
105,1.9207222898064151,2.105946417675675,-0.06866479221341137,1.3077663954146153,1.2645042483096318,0.8123154076249027,4.907069572055809,4.89586364185597,2.281507761624601,2.375679457147637,0.6380535849069913,1.916718188633534,2.070866837017033,1.8032088259952639,0.9202615552876586
106,1.896193808856285,1.7809875280680283,-0.09495390861093478,1.6028322069181762,1.5529971881636768,0.9060270210700401,4.265589357967544,4.646375070408457,1.8780287334327141,1.9233709112550035,0.62595550513784,1.8890048536668904,1.6332308563723212,1.5361902478933929,0.8688718753404411
107,1.9654851436446932,1.9497639383537364,-0.6194287700398822,1.7506958223800733,1.7470028288755848,0.8446697178194355,3.960859605181742,3.677976520298434,1.999986834410505,2.03400511888209,0.6333676938231112,1.9352450022368115,1.7347036642176863,1.6997453629357666,0.8737591648034649
108,1.9363829755280264,1.953414630488342,-0.9977917191192156,1.6610177510808297,1.6432147338010266,0.7722573747257505,4.325846261043797,4.253564208493261,2.0631372609591923,1.7887156066606016,0.6125606311107803,1.9328623102060554,1.865336101152135,1.522591811041905,0.9166975511878592
109,2.0449311023949233,1.6639206359119454,0.16402147337667072,1.383962597081299,1.3505632892260386,0.8225979816679907,4.166932786662842,4.534521966841258,1.8405780721465412,2.217515852107975,0.6153451465759925,2.0427882240318005,1.646091230082136,1.7525387560747736,0.934167186637003
110,1.9495276452505481,1.925985518240873,-0.5336980197714078,1.4244647136504298,1.4192347727699115,0.7101114859678094,4.464165515285426,3.9317251451863386,2.2310278297902038,2.378853744566407,0.6233814453054027,1.9480234917027202,1.8916788521458001,1.8184696195556287,0.9041468674445934
111,1.8273131300212064,1.726692916968501,1.04671408606493,1.4106566560850824,1.371035843867789,0.7334283678686399,4.356442707097256,3.6403444632783106,1.8499635354774548,2.2055822611497793,0.6668815377411301,1.8211882799188672,1.6572501820867354,1.7006154837156164,0.9128470356229027
112,1.512899977333791,1.3096656927140706,0.20048808354541725,1.3921637819267432,1.3729426209039177,0.7931135085872598,4.352523535634916,4.579082449024543,1.358563149391029,1.4201241684348889,0.6309483474627791,1.4982941520205468,1.2089230627777714,1.158134271320681,0.9140015310235294
113,1.6048023114045975,1.3813821865178268,-0.09825188410835795,1.2059005049501124,1.2046730191049737,0.8098344135132252,4.036193292717347,3.698603533187341,1.3376138625693965,0.9762328430383442,0.6180765742263259,1.5628194168000369,1.1342908442638386,0.7571363416880952,0.9390609662720294
114,1.8545128219828457,1.7716669166451806,-0.05788648277415165,1.4132552361118587,1.3815344712111413,0.8324630173570957,4.246892219738816,3.097943549414178,1.8438900778980976,1.135996388029565,0.62595550513784,1.8490355370477851,1.6215119227491634,0.8748258572288976,0.9174810935499417
115,1.674288081585965,1.1978775014462817,0.7546677597040885,1.4027185549878773,1.3947112085625104,0.840163243761551,3.836991837366577,2.452820021834094,1.2198260801150322,0.8774604567483572,0.6547956803312163,1.656296609753785,1.0246249239601721,0.6679997033828269,0.9042379081109084
116,1.7390679966191502,1.1767244523309053,0.6947625064260214,0.879534969560117,0.87007115759541,0.820197968894436,4.303324690159073,4.103127642119404,1.2936726521096886,1.1868077296437671,0.6380535849069913,1.7313544793720907,1.1182592860519063,0.8676651632116373,0.9310833266952114
117,1.8900232111614574,1.5273555740304832,0.362639813288967,1.267834705305817,1.2563812200748519,0.7968084648568441,4.107152642251768,3.1562149161743163,1.632657151159164,1.3146810642219844,0.6068309995095971,1.8787708462176846,1.4090978501374674,1.1882244473577968,0.9302332503802433
118,1.7507860825520287,1.7935045781904424,-1.149184929424444,1.4121201134947796,1.3872399551373016,0.7635011436557645,4.323901146931456,3.7903073974516674,1.7722899196640511,1.3396548252251232,0.6547956803312163,1.736892567787215,1.6072945591581609,1.1687077829335448,0.9371199036307113
119,1.8659535179834597,1.5578147050011582,1.05967352711381,1.4017187930279746,1.3972288400585788,0.7928122899185687,4.388043211857256,4.225673992988571,1.7695226540967357,1.6976269544540674,0.62595550513784,1.8586117762158956,1.529011485419142,1.2595269965939366,0.920244961615077
120,1.8773197414356784,1.90025197561214,-0.4785837489632452,1.4486530240292619,1.467711181423758,0.7810556784200248,4.39671362585369,5.98318693149219,2.0458733790177197,3.0916109724793768,0.62595550513784,1.8622534668412736,1.7895443123681307,2.025667387129423,0.8466097355845672
121,1.897653766497815,1.8762128401574327,-0.5455726946658097,1.502199739005662,1.5137010258506933,0.8787168416227514,4.654257144808007,3.5526792387778707,2.0183270642961704,2.7019100945543513,0.6566669596287297,1.894826321048758,1.776431531715359,1.8093810705778746,0.8586120438771443
122,1.8035615139009906,1.615732330918904,0.7628076925385354,1.684495084860396,1.6680456543448308,0.818301923842974,4.288339645947388,3.7177930237567063,1.6527840196332946,1.4560714188205595,0.6008849035917525,1.778053822171943,1.4177567297652616,1.0354998653580534,0.804105249089423
123,1.5920416951362115,1.3127197684962744,0.925720202069328,0.6098210619899895,0.5862909718394245,0.7034828763083504,3.752949297604361,3.0365420958423828,1.4902254768180845,1.2433958032058063,0.6447042257417027,1.5872959755272076,1.2885813362185046,1.0328179035897591,0.93785287805148
124,1.8272411459333342,1.2250788364693364,0.6308456446922,1.1839946420846967,1.1869519866606204,0.747006184041514,4.0213354889956285,4.3022245745554155,1.6094114171714407,1.887133875350358,0.6038851895711802,1.8063317984113123,1.40176895328893,1.355714248605935,0.9351626417611951
125,1.8794469829005895,1.766585671416034,-1.3038649947497016,1.499032096044377,1.4843292058084674,0.7978275666787221,3.681692678221295,3.23135870441291,1.8203956226697806,1.696542379953567,0.6357360191111145,1.829876791341183,1.5669966188409177,1.4203904909336151,0.9058100515565907
126,1.4158245698376344,1.16756741387312,-0.10323409128834626,1.2107442979934442,1.2035397156882846,0.7420019349009188,3.279627478028363,2.8807322884052704,0.9132481306092017,0.618740309113174,0.6284777104787076,1.3460058422057792,0.7935160250021509,0.45683789454158397,0.895112480548606
127,1.5391923160859267,1.1839714333437321,0.955347959484675,0.772449644490897,0.7601209022302416,0.7582745351587626,3.4729737324862096,3.3068396411915524,1.2725279611795184,1.548478098689569,0.6380535849069913,1.5213252901858274,1.1207811276223478,1.0815945512477971,0.9423091531447276
128,1.3722022987244709,1.0442474389658492,0.9747338564188879,0.5934228920916189,0.5747016553605808,0.6662208746306433,3.2763489991501276,3.864098162430268,1.2713232365504177,2.1437295842551194,0.62595550513784,1.357728500441137,0.9717711162049013,1.2147986086567903,0.9526118845462599
129,1.5308634743208793,1.2839039092464282,1.1543337425256879,0.5332195584618552,0.5130416472232693,0.5979725709868203,2.7186685928012198,2.878543399052457,1.4874863164335097,1.302015774694461,0.6652988471865258,1.515441726855324,1.3177938396700317,1.1984472345720343,0.9485810421226794
130,1.3356428013517037,0.9710744439424466,0.7577984530394168,0.3426359977067818,0.33481487732954296,0.686139521146716,3.5302727800297355,5.007520132619726,1.1453304819762733,1.1177408307762575,0.6284777104787076,1.3289063440111604,0.9552932473394661,0.7646990747737756,0.9487200317221243
131,1.82116228378832,1.3777048888853944,1.5298936370165235,0.34628421674818055,0.3336412916067281,0.7712115446269722,3.628380659657512,5.465616469825828,1.6949896779950477,2.2198990122455595,0.648888643467878,1.8198160670105803,1.3773526271970475,1.5072081418639116,0.953955790531921
132,1.6100473060792984,1.162125548153975,0.2554235993915004,0.9434901358026155,0.9297108790368935,0.6486522745290837,3.7180198497079475,2.7553464048224807,1.2468747220842573,0.7263161665543647,0.6207552362147116,1.5889819038667181,1.0260334312683026,0.5120919275948207,0.9505753698675915
133,1.451894501116196,0.5989945974630606,-0.21454676047506505,1.032089173184453,1.0191102554872207,0.6479497381286504,2.122892723043622,1.8573245345874527,0.6128909955901938,0.527148899075831,0.6652988471865258,1.03911771688247,0.48281819819511723,0.352770474971394,0.9506979272799183
134,1.769105289029659,0.8048493361569291,0.29273119659703406,0.3145290872414563,0.2731214987426462,0.5762630543563592,1.4471715925323152,1.5220704015698858,1.153561236618767,0.9765670094920825,0.6008849035917525,1.690527464154009,0.9253994480723954,0.6926912881426579,0.9324187518769937
135,1.356179792287316,0.7298040046409775,0.740837022128038,0.06236667603779547,0.06194425947798364,0.10015054200863496,1.4594101530030448,1.5267897045603922,1.038497540935168,0.9677508158462783,0.5978297680564633,1.340429105247941,0.7841957796739351,0.7565889351895232,0.9551983076873114
136,1.3994271858554241,0.6874362659536857,0.39616397382936475,0.25611030616939917,0.25834621698450966,0.24858952953202196,0.8516473094651088,0.8747492585611061,0.8303946383029907,0.5298191873094308,0.6309483474627791,1.3989969203257666,0.6882975976382565,0.3872658397698327,0.9627222586117172
137,1.5796462527389898,0.7511750228609382,0.49147475911380534,0.4443659380072165,0.4273259697035874,0.8031192888820688,3.5936835291352636,1.6199112184485265,0.9310135480762617,0.7228806547123395,0.62595550513784,1.5749291377482253,0.7238852953496274,0.5274563993917885,0.9365988010272902
138,1.5085200670328842,0.9697993241078182,1.0900683264440967,0.46756867979521194,0.43129977875970077,0.7433461132846905,2.965706358316356,3.780922508556699,1.1362503699115913,1.503882712892672,0.6699045166045591,1.5005835075220182,0.9292038430449024,1.2004039960876198,0.9521189414457688
139,1.5815931204565514,1.0779246552581905,0.6568113754569649,0.27630718159897383,0.25466690494638083,0.8118317607238685,4.511832889300033,5.166375506202301,1.2037990897640831,1.0200594611940537,0.6180765742263259,1.581498543744859,1.084450481338716,0.6610689584043291,0.9484103832350388
140,0.9703775519446435,0.4183010646973656,0.11136254333442763,0.26479989870090265,0.24826047773569776,0.6732176903986123,1.9754547150840007,1.025966096755323,0.381929429305059,0.1309066838897131,0.648888643467878,0.9453477156032288,0.3592232996249898,0.13498348553255587,0.9475468938107866
141,1.004028630835049,0.3665846778136672,0.3399017905295332,0.5070280937387792,0.48019815374384084,0.5798263517138712,1.9176122927803838,1.7657364124554726,0.6388995695411815,0.5081677637847223,0.6309483474627791,0.9404695875713139,0.44515832900541624,0.3567066693238019,0.9452738808468698
142,1.691336976103511,1.345004126933357,0.9852839949772498,0.7161626778305911,0.6724140004797857,0.7664302520234851,3.714285620053275,4.2961727033929344,1.5691666587898743,1.5102881153374998,0.6699045166045591,1.6800988410217488,1.3070041058341877,1.2381098905712031,0.9320656863330424
143,1.4200492864583172,1.0742332919632887,0.6486750960312686,0.5484167917351745,0.5281823856374589,0.7643264983973357,3.1744313762173464,4.041734668899364,1.204714062133546,1.246883904762354,0.648888643467878,1.3861610366746562,1.014159396671995,0.8561995702807275,0.924249644121205
144,1.5177326344290991,1.0498597520330004,1.0116277943288838,0.37637937235216695,0.35389834489100674,0.7105563566455325,3.0117364966004425,4.414060311193341,1.1628684776123765,1.3959184153382753,0.6068309995095971,1.5095925774643841,1.0366222610520206,1.0607774561253474,0.9099576905717802
145,1.3760509742197276,0.8845741813107428,0.5847549370832783,0.3779396654819245,0.3506603991319018,0.6696035861232975,2.915979457212382,2.1752336780984876,1.0000650112016374,0.764166833046778,0.6333676938231112,1.3666224613224263,0.8598249746906962,0.6376719507389762,0.9347727524233871
146,1.5481634274983163,0.835999457076616,0.4915204436606917,0.17293301827745555,0.15462923728720554,0.6525173484451263,1.9387852099402865,1.2751598462883045,1.0674343742691812,0.6522354721602801,0.6509067234006624,1.5286775136445068,0.8768020025121718,0.5225941089234978,0.9574999280755774
147,1.6154523851905727,1.546118710802257,1.8633091852044408,0.5612943837103312,0.5490445360802926,0.4984420983799149,2.651745316191025,3.3222145670400836,1.706656441953782,1.742577179391894,0.62595550513784,1.6152324461424366,1.54983934998234,1.8674683333595292,0.9538675164335914
148,2.137803044705776,1.8665514635971157,0.5941266895344031,0.5665776972646135,0.5274638998299924,0.6520414289589453,2.2219153729140317,2.832447974260598,2.2227149706408555,0.658811396617295,0.6468212168108125,2.137635785924562,1.8686978989748255,0.6055254892395007,0.9138139102827534
149,2.209194212921928,1.790282126637313,-3.999476339559241,1.3733295673089772,1.3643381976408533,0.7670081075426437,2.82124707593892,6.686161539208815,1.8808775486540596,,0.6153451465759925,2.2087912137076846,1.7926703543677023,inf,0.9417413515984474
150,2.1105315059381176,2.3500799589541104,1.2364820216131767,1.1047475128302275,1.0869083287683328,0.7689572511663127,2.5508889716288063,3.2024681856447486,2.4926335284595194,1.094146752698962,0.6357360191111145,2.110313205346923,2.346436975522895,1.2537212819371795,0.9293302235129434
151,2.2487826478654553,2.354056105438494,1.0560192064463845,1.125919427699164,1.1140746918654254,0.8948630430677607,2.9697941561969277,2.9374615311145655,2.8332958926127185,1.942820087508849,0.648888643467878,2.24862314042222,2.356547045565872,1.1120353090002504,0.9443303715782224
152,1.707186124920577,1.7905837371024935,1.3061651322046037,0.3685773936172741,0.3647831705254081,0.6027089550630813,3.3303187480907988,2.1994088513876027,1.913360497315563,1.3837800452820048,0.6684167106117298,1.7068057633478915,1.7920044471812646,1.2980586940654872,0.962298095538565
153,1.3793643282593377,1.0511951002154345,0.7015037775712867,0.1405401224257846,0.13292244267776498,0.6392740307334279,2.715753017832531,2.79776850169345,1.3219034127754312,1.1412225704418781,0.6180765742263259,1.3544512228204617,1.0867575717018192,0.7908085587690942,0.9104864651626511
154,1.1504771773389142,0.6951912262858793,0.9268645128223372,0.21103373620254545,0.2032954633638325,0.4649347100945352,1.706997441734364,1.4655802800895028,1.095722988006612,1.4126261781660918,0.6008849035917525,1.0762964821846945,0.8596413340592753,1.0004778801536014,0.9519450923979322
155,2.285695666048338,2.5293229220254605,-4.788281839142769,0.022340379843483554,0.01823617018656108,0.6397920356591971,1.598883440452075,1.7436540604712178,2.7303889415502205,,0.6333676938231112,2.2886821878250543,2.504157161283587,6.61472560020376,0.9494059493809655
156,1.9189998180353571,2.632390017007544,-4.302858911134947,0.29134751369031653,0.28935250510502,0.46052830332275585,1.7640853694155392,2.105730985508126,2.854615637319836,5.011903289974868,0.6509067234006624,1.918230133282004,2.6244870380595375,4.299898420509324,0.9351215160452934
157,1.5488463423260115,1.4307157156555592,1.6672858976467322,0.519753668373444,0.5072017893167544,0.5111959967684194,1.7465573183484495,1.840828486659917,1.5931508942933092,1.6406669625503894,0.6602640781246099,1.5469848977875507,1.4337493001890054,1.667575480672153,0.9466210650810618
158,1.3927528613684959,1.3532562300959192,1.6138062189221505,0.04466961139416602,0.03755076761458402,0.5953661284511128,2.434632710724114,2.685922262027776,1.5546417573295361,1.525651076290973,0.6380535849069913,1.3873171061675749,1.3515360040896804,1.6756967161221865,0.9706537331007377
159,1.9621318562714423,2.347024769410198,-4.2900388623041055,0.04466961139416602,0.03696305803220409,0.8216427084990814,3.3708604295752944,7.369824348400126,2.431098696906944,,0.6357360191111145,1.9612832677921488,2.350388460422722,7.095893221097532,0.9526906130813122
160,2.3449414426577007,2.602687843963144,-4.9476292866208444,1.4536852206462723,1.4229391879675992,0.9497606715232927,3.4527579548318528,2.5806606863525867,2.6008916416378955,,0.6584896970785714,2.344796941803355,2.5981797038190857,inf,0.9073105339770482
161,2.3435469559524296,3.2520575229429105,-5.59560447889534,0.7159146134039072,0.7108496352571706,0.8562316388768707,2.9442823929186503,2.559211811648989,3.7544066059017736,,0.6153451465759925,2.3431756328205235,3.247278156528674,inf,0.9494376740913686
162,2.197203481218246,3.2852140521821878,-5.463299770022899,0.7059772458364072,0.6991659102172438,0.7171374347470543,2.794987488835611,2.15879451773272,5.677801919870643,,0.6008849035917525,2.1967247022945684,3.527260479679152,5.683579767338681,0.945359306227423
163,2.389975031264133,2.8445067250946168,-5.23448175635875,1.5388979076057676,1.500514908761838,0.8936862459852379,2.8859402142267054,7.0322197040923555,2.8911144626223635,,0.6125606311107803,2.389475265208059,2.8034815856821513,inf,0.9146290340773392
164,1.7838637567109346,1.8814199711772752,2.031809758617195,1.3061318335158132,1.2858142562857993,0.8353248580069549,3.2066188478798043,3.1702305779992512,2.153732801682474,1.7595693852440526,0.6602640781246099,1.783791299578878,1.8861573668756195,2.0405227963525,0.9229977023003094
165,2.0320347560192746,1.539252189367649,1.1618642891419104,1.1135902838740732,1.0980483191900074,0.7309583253929219,3.6047983973393287,3.4417664909940595,1.6742441861842798,1.2995864930684164,0.5978297680564633,2.0317948882124828,1.5390052778358523,1.1384967291486539,0.9015489496036352
166,2.194890239285825,1.7916217707237507,1.0027455974293247,0.106969059718312,0.09068418769380152,0.7972953269230812,3.454411842948627,4.499379005238998,2.1794827480822736,0.8095492039233647,0.6380535849069913,2.190546922582979,1.8411358785144107,1.0714333457930312,0.9664426278644209
167,1.725878603443689,1.067336517432047,0.78991898460461,0.1405401224257846,0.13551537546111844,0.4354646553688244,1.8805660338304078,1.7317285657900137,1.470169181386586,1.3080521358344184,0.6153451465759925,1.7052148678278691,1.1392279581798956,0.8997144584111578,0.9394943426478399
168,2.4220059941723413,1.5943165368868226,1.1537914599602521,0.08467349851939515,0.08240026003550872,0.5589196902181255,0.8911736084609226,0.9570612235405187,1.7537404216484922,1.7450539608437918,0.6333676938231112,2.4231219168470504,1.6423113018806306,1.6966848329414839,0.8977134652789074
169,1.41033679984765,0.5755530301328158,0.48745125469598727,0.6057977438108493,0.6025822564481336,0.19523874005755962,0.8652376249049375,0.9458204992766526,0.8307958622201261,0.73678361995805,0.6284777104787076,1.4096767213547898,0.5793961224864569,0.4873366756928073,0.9463394968966369
170,2.677940001862436,1.4274889183685948,-0.09903722386745084,0.122888179777612,0.10035491824808301,0.7937993586930537,0.7388131082493323,0.9826309053182877,2.4885916342925176,1.5311440854765275,0.6528756675646988,2.6739708874493475,2.4020922119693635,0.9655258348718396,0.8676019119909759
171,1.3384536199542334,0.7693552042880076,0.759609025185596,0.10696905971831198,0.10812393388060683,0.19294506575399667,1.2415486641565296,1.3802986991057458,1.2001527298062784,1.6258984099850977,0.6333676938231112,1.299912812059867,0.8427288875060606,0.8289401137557803,0.9156452057753228
172,0.911450551301052,0.37999329596423803,0.3242505825567312,0.21565471740627842,0.19750441102468963,0.2282216621191676,1.4209419942626855,1.6916452113091331,0.6189394405150171,0.6950486757350239,0.6097226960127671,0.8685593290529651,0.45879548932983594,0.34952954281884213,0.9167535271862045
173,2.4006091087191432,1.8575165231569417,-1.285405145969106,0.11826719857387902,0.09502673506069409,0.6610411626124578,1.150469349636689,1.3649126066596915,2.218559811032864,1.1897254249199893,0.6403206450210053,2.4024054282762566,1.886333271974068,0.985428206065429,0.8502343168182912
174,2.308244730054296,1.48746125879574,0.2584793479203884,1.032139355552303,1.0130126021008339,0.8868521034163624,0.8192384384134338,1.1007378075024348,1.7991355266553444,1.7823455895858948,0.6357360191111145,2.307374320837207,1.4586261872142232,1.0990924807541673,0.8293227634559353
175,2.118648315106917,1.1122027178126288,1.2669109020435254,0.11826719857387902,0.09414212640665089,0.46285921518365813,0.9002244725601954,1.0820974165338342,1.3383335433606114,1.1884620008732172,0.6602640781246099,2.1162899598402203,1.109274853178777,1.1546856222536286,0.9108645689216437
176,2.1618560550443107,1.7327323246408537,-1.3666851217140858,0.10060391803536387,0.09278073663506452,0.7242808411747031,0.9032788960614205,1.0513821280777558,1.7974541450537778,1.1212914312210154,0.6528756675646988,2.1492919235809165,1.5897119177155883,1.0851518858571325,0.8481530761313135
177,2.262341505064353,1.2135630118793443,0.8309528904322763,1.347060078831924,1.3228533532074587,0.8506405071514312,0.7148340640265136,0.8332182277794083,1.4885861578488682,1.199813120965892,0.6284777104787076,2.2616564374956085,1.215342657582829,0.8305386876047051,0.7944998962957538
178,2.1132084517157557,1.2957879134427959,1.1482156383278044,1.523526222763498,1.48189175228491,0.8875599892373326,0.7478789713664569,0.8922320861690438,1.4216935080495352,1.1803166378355427,0.6309483474627791,2.111322148335516,1.298243482997156,1.1436448157247083,0.8216462665983052
179,2.378266757362185,1.6082734070455436,1.0657930664272484,1.274279160399891,1.279549091851226,0.831567613815252,0.9239031031916864,1.0987265455196389,1.9418699214858155,2.3043237878693463,0.6180765742263259,2.377308639189982,1.5865926270068291,1.168901661873652,0.8742501365173696
180,1.3381786934386612,0.6255431150518986,0.42317148608585775,0.469189966728709,0.46639897245899015,0.3373837068494044,1.1923457132606212,1.1317116926299784,0.7696136301284457,0.43649287941628473,0.6468212168108125,1.3374195444489267,0.6294872778250826,0.42584613934344645,0.8834319638569117
181,1.8975854767151816,1.1977654616731772,1.5762940027701253,0.1850520094593628,0.17080748570300153,0.7278444975868726,0.9275300673959902,1.1769247595915062,1.3943632323171227,1.8604609288524334,0.6284777104787076,1.895195911177517,1.196313317770243,1.5790887623627867,0.8966940419241147
182,1.891923960337704,0.9282867457583455,0.8824651337977385,0.16482371611529226,0.15809336301592103,0.5752909136873782,1.3121424719873322,1.3484460537929157,1.3291315231820848,1.2656671176622467,0.6425374456860184,1.888637544204542,0.9133571030742097,0.8140474828829182,0.9192230978346275
183,1.6854163083776506,0.9341678563053586,0.7416239206498454,0.26247544785234733,0.21501076058366847,0.8281109328673547,1.196817028669759,1.213426714296353,1.176332021299704,1.2552686182339632,0.6468212168108125,1.6818891380924004,0.9308508832054848,0.7719280584130597,0.8308897478289042
184,0.954483003741695,0.5588376896069045,0.5080898682617787,0.12463234025682715,0.12567865003042153,0.23634681698888457,1.2383326357796274,1.4551081935804302,0.7082634720832328,0.7515808416502101,0.6403206450210053,0.9177084029617759,0.6093306054518451,0.5845584829551612,0.9617026834718772
185,2.2288201890016612,1.8707020837514854,0.056105449317818135,0.42369847503998564,0.40237020402844215,0.8740080269072114,1.061670002761657,1.1323690385415888,2.1281012814317553,2.3394667382857754,0.6509067234006624,2.226138587500862,1.8360615213946718,1.2909254941474984,0.8852246190152412
186,2.5698960117524243,0.20756107509195898,-1.9362754982328472,0.35831358752623343,0.3113349185165811,0.8462520278922678,1.078348949117198,1.3611274440268517,3.509443970876671,3.9300154442479536,0.5883313578629602,2.5684331967662932,3.096128564736626,1.9588135538912212,0.8497066366740094
187,2.2005898145897933,2.088923200966343,-4.1006613790309885,0.16280166969132606,0.13285554287427748,0.9110082694353678,1.1561892686467836,1.6161797915616956,2.1574981444365147,5.244700272989721,0.6447042257417027,2.200229086356518,2.0901303597915395,4.7193102303659735,0.8880717636080884
188,2.3439231165097327,2.404354148661298,-4.748277265171031,0.4580469031123437,0.43204782221072857,0.93690119056709,1.074478869302846,1.3790389668220195,3.3668890966655565,,0.6357360191111145,2.343638595791756,2.4681458395593348,inf,0.912224279564164
189,2.0064092625997167,1.6242973368854319,1.3238297841603632,0.11539037784936122,0.09468932546922565,0.8581707456783891,1.2693369003963086,1.6313355331320205,1.7503379123640375,1.9372970143953154,0.6153451465759925,2.0061084728607694,1.6266007097861122,1.3947332297657553,0.8948829818751431
190,2.3657699175629947,1.9632054288965417,-4.290739819704466,0.1506333541514964,0.13858912861674338,0.9100603232779466,1.1497646725332828,1.5330091336894187,2.0726454729314137,6.956489812099674,0.6207552362147116,2.3650516879797214,1.9683964451353184,6.380969635637417,0.888560023592494
191,0.8141239124097601,0.8474366883804155,0.8564073676848085,0.04466961139416602,0.04525617250689081,0.12184536353323183,1.360053279928266,1.631736975682307,1.1231348730243356,0.8457216115703237,0.6309483474627791,0.8066643280692782,0.8856722181677038,0.8838085839852894,0.9830502000465127
192,0.7685254222410416,0.7568454562253384,0.8768399435211045,0.04466961139416602,0.04460076285340938,0.23362739634515423,2.0986609210206013,2.339943264250361,0.8784096230722273,1.243194669085178,0.6619902821573977,0.7577923740534765,0.7708851395910301,0.9003530255845758,0.964097573297304
193,1.5195288053803522,1.1889687420488657,2.2964141345982947,0.2921531319750467,0.27812939984139984,0.5214386006144182,2.191868021291533,2.47472978281653,1.3278258502360556,2.168591608676459,0.6125606311107803,1.5193433304467074,1.1953958588062992,2.300908646666793,0.9490366782136601
194,1.9852011206500386,2.0469839820678972,1.0461931152339616,1.3220827096147323,1.3069479760506046,0.797513496845328,2.1360339887260262,1.818207766430782,2.1844986131482824,1.003996660457312,0.6357360191111145,1.985101529305475,2.040339054269414,1.0470701142394536,0.928487107768865
195,1.1240644789286998,0.9652906395216798,1.1564510434090534,0.1359191412220516,0.11504450290773821,0.3537441081965079,1.9776711711713728,1.5628790914144384,1.346548381963496,1.8966718526077526,0.6380535849069913,1.0982456892072376,1.060239059813051,1.1980579921014352,0.9594469948508542
196,0.9537168294687005,0.36551263571071146,0.3432411022310937,0.1359191412220516,0.13511856681023449,0.21692239606484265,0.6757763981164978,0.6118698545603463,0.5743158882929615,0.7224432093026656,0.6207552362147116,0.916207402012851,0.4289023636677775,0.3549216896208966,0.9574669321488853
197,1.457387306380624,1.008447876852297,0.7355788473923419,0.06698765724152846,0.06110536830033827,0.32588708507507513,0.22866336927074812,0.2691517687599643,1.1716941749408032,0.9800735468842829,0.6284777104787076,1.4459500080996652,1.0321796574093114,0.7970226093025199,0.9546718972566995
198,1.0177554038512635,0.5184253328478203,0.48514764918746955,0.13591914122205162,0.12425676447611311,0.1673070952411779,0.8572708932262163,0.9234324289687885,0.6485254268029668,0.668451737916928,0.6403206450210053,1.0168787036414397,0.5232404644820999,0.48905182421643006,0.9616469167611169
199,2.4810944226177236,1.6422137184998533,1.5025906120438464,0.122888179777612,0.09666172930978932,0.8234229812716836,0.6650517359213974,0.9071701756993761,1.7243946676856732,1.5105625713089597,0.6447042257417027,2.4790571249991085,1.6293863616024935,1.5593285505315657,0.8179056186345092
200,2.337085643295135,1.2858799031578068,1.0410912998980701,0.544504670759462,0.5019725790032893,0.9129555587656832,0.6559960714649636,0.8874574682199187,1.4754556746686982,1.173600913477751,0.5978297680564633,2.336601593804861,1.2898248456625252,1.0370793235336684,0.7755387370174485
201,2.482349037278617,1.121972407914078,0.7192479284357396,1.4182206607646468,1.4012722895629028,0.9317520050955663,0.7950222013456058,1.1970275977273825,1.3518151352045251,0.8411151510525073,0.5883313578629602,2.482243532368517,1.1263881069026687,0.7256635925815064,0.8387828027531915
202,1.3742025561336038,0.9863948291182434,1.0736711224561364,0.08467349851939517,0.08159460517482577,0.21361771415659325,1.0775933153761754,0.9756323977554917,1.2782836416742882,1.557412760252162,0.585052858160615,1.3476721176121385,1.0455673436500381,1.114801016018028,0.960305375599004
203,2.516243177989973,-2.4081626830521747,-0.0996930176778317,0.06698765724152846,0.05718025797416099,0.5473334583797804,1.582802970032718,1.7351421986120417,6.251263420597536,,0.6233814453054027,2.510566396568578,6.0066267948476595,inf,0.8859221810398815
204,1.7986293667672453,0.8780688878954741,0.6319402233342442,0.040048630190433046,0.040134818324161825,0.3270491773569076,0.8971296209935206,1.0215666143485904,0.9836240963222808,0.7489903726406356,0.6333676938231112,1.7853136217446661,0.9334605427205197,0.6593579442659735,0.9498302480894599
205,2.4515370232485956,1.8652793444172318,0.853151534346094,0.04466961139416602,0.03667008751521957,0.6650403673655622,0.7552313201695716,1.1013310814713404,2.1219647707679092,2.27137650019475,0.6125606311107803,2.446968810447608,1.9165632415901093,1.44561093827631,0.8819424524203303
206,2.186534608243093,1.9482897522261489,-4.120247463080955,0.04466961139416602,0.04097052177636533,0.5218135081460472,1.2488985696235018,2.096734115851276,2.1709257361760335,,0.6425374456860184,2.192933795919063,1.9804539736434903,inf,0.917851717262703
207,0.668894549583898,0.2793345518500764,0.30231826511190707,0.22688424313739894,0.22392744910224266,0.3209148247466,1.249556162515991,1.3297379045478643,0.5742543854962526,0.5572924178892918,0.5713653840954815,0.5828588266658222,0.3931524219620589,0.32182463490953944,0.9624647430175562
208,1.7503735541821632,0.6833080760571186,0.44694150368760477,0.1740656785227582,0.1672420393512431,0.4680412273997353,0.5192049016751578,0.5319966685657713,0.9243571178076764,0.9511593025991469,0.6284777104787076,1.7539500078325083,0.7571637341246661,0.5408362115950454,0.893907854508167
209,1.0415168710789808,0.5770459693622216,0.6040522924107483,0.16280166969132606,0.1358782143000633,0.30317545314994937,0.3546237574508843,0.3779096967000795,0.7824927576908025,0.8242557429480596,0.62595550513784,1.034698962924457,0.6554670772150157,0.6452866564801899,0.9191288997748095
210,1.7056901314558972,1.1533039123289688,1.4341914196880663,0.4891203152794276,0.47027566899539136,0.5464445915844315,0.24029866738545144,0.3219827210958064,1.3991016984292344,2.399448240784527,0.62595550513784,1.7039928219712766,1.1521707645951509,1.4317657247283384,0.87574362992585
211,0.3304007756270495,0.04434513911965687,0.03830824916752995,0.10696905971831198,0.10765061265405522,0.18788879437788075,0.5384443323482742,0.43444483970770054,0.18873200088041414,0.17066438832440575,0.6284777104787076,0.28438381398748236,0.09915673670489028,0.08321502585889916,0.976598973440813
212,1.2999173197503557,1.33708884983445,1.137422297531438,0.14893872608012715,0.13921894050520714,0.32406296253038447,1.202160229189659,1.2577002260907137,1.643281155591603,1.9583026214349228,0.6207552362147116,1.2898131500686594,1.4207401812516691,1.2710579609145327,0.9581705304188491
213,1.0888308210046278,0.529079257348281,0.35589441777589315,0.12463234025682715,0.12204271878639929,0.4692800677934535,1.0831383273130553,0.8203077489858477,0.8437315957246947,0.7504975896045032,0.6380535849069913,1.0450083325833182,0.6276060660162939,0.3872859878733885,0.9327417840211157
214,1.5392174832602414,1.139730722992102,1.4252754837182842,0.10234807851457901,0.056863771548054096,0.40589930817087516,0.9630113297461903,1.014721952637362,1.3868687441607404,1.8052915008650112,0.6425374456860184,1.5287287602174033,1.2128782244136493,1.458098093248874,0.8674666155445132
215,0.7713211031937984,0.4827819875216075,0.4485326674456933,0.04466961139416602,0.04241556265490791,0.22933988509606634,1.0637340806112117,1.0108505826644838,0.663138870813775,0.8218483860171146,0.6684167106117298,0.7625448958898695,0.5080030700197773,0.46571372683298606,0.980167920677087
216,1.071543771080419,0.9672061611041813,0.9740341060873088,0.04466961139416602,0.04534687720375261,0.06852942933918064,0.2163797757725158,0.24358481579847663,1.2365384803435462,1.2299428833520347,0.6403206450210053,1.027439572547527,0.982807636458544,0.9174111336761106,0.9812728984930504
217,1.2100964532492093,0.24680264524562645,0.08976562762630769,0.04466961139416602,0.03346895661158652,0.6036696192890563,1.2386157049798856,0.6775338387748668,0.31437471389326715,0.24382148395406653,0.6068309995095971,1.2014943966356388,0.2669745726732675,0.14793761244128734,0.9375460689911463
218,2.481105273816218,1.1398405806621281,0.7003392082086077,0.1405401224257846,0.10965208383719241,0.8939880395521974,1.2472253301437042,1.5283828704827604,1.5587584624654363,1.3789594681912356,0.6380535849069913,2.480118133056203,1.145890857020859,0.7040579056661084,0.8047038852884326
219,2.2476136086614087,0.9406440127645155,1.109685094881188,0.8033902944136394,0.7857820365432133,0.9029714656500787,1.3279907523775432,1.490018201833529,1.0110915747326332,1.2433033710001415,0.6309483474627791,2.247150386105945,0.9429760254762697,1.147564409271615,0.8309885374402932
220,2.193702367448703,2.617765968029507,-4.6430950834987454,0.7479811292650687,0.733312218964918,0.8979260335948029,1.7151428407243294,2.3246965010919185,2.7260401482185244,4.68464770845858,0.6566669596287297,2.1917396471056496,2.585141916564381,4.232788112844001,0.8388314419906236
221,2.321673772858269,1.268673722739217,1.0209948970154707,1.2214602233946286,1.2019213670625581,0.9434570191270686,1.6533021650820898,1.6753879702678496,1.3679099863567012,1.4004000034366009,0.648888643467878,2.3214281807955257,1.2729495009954603,1.0264703169163354,0.8638530247097055
222,2.5544664675303337,2.0806486975426295,0.4073535233740646,1.1352107520967056,1.1239820739946216,0.84579145980311,1.2514889901487216,1.188072240703703,2.3655533431697373,1.9862405857737273,0.6357360191111145,2.5537566743352045,2.0750233772920206,0.4490639921624808,0.8599322186406617
223,2.35087209195986,1.8502730017130125,0.9415332548840194,1.0756085197872214,1.0503717413678482,0.9195767725088607,1.8210072723527124,1.60976304362423,2.181730012354734,,0.6097226960127671,2.3501426837609323,1.845127797051129,1.6175830888985019,0.8861895555941669
224,1.8694304209075305,1.92076130922637,-3.735164437251497,0.04466961139416602,0.040947811478880713,0.590760821937574,3.0835799234092063,2.461837243137458,2.2300255857789777,6.2012189365008314,0.648888643467878,1.8643301620628905,1.939336818727631,6.2176036074019905,0.9582275638524501
225,1.5738045819305195,1.202303032919876,0.5937461684366019,0.4625511037923151,0.4462266543344084,0.7925404027854966,4.2547524020762335,4.828965230476623,1.3770183970488254,1.0059073871756825,0.6713451011121618,1.5640928291862606,1.1315348519173922,0.8337819317054252,0.9383829425131341
226,1.871776023688191,1.6674217378355043,-0.7543466826318226,0.7258929903146194,0.7078109613724441,0.7757756242345488,4.6406077234674346,5.492487236011118,1.8105371910684063,2.8841124040578,0.6699045166045591,1.8632554709331248,1.6555999541972628,2.408070600840023,0.9360606822365813
227,1.6891978371626708,1.3195842299945988,0.014968460079792134,1.0128635038134288,0.9965078388676375,0.7517440306526773,3.672920248611902,2.910391224869641,1.3143458121860931,0.7203939913266594,0.6403206450210053,1.6627800879715946,1.1205325976311622,0.47320731802462185,0.9142536566464443
228,1.527269033947805,1.1687359368879298,0.5261250014055099,0.7677513068347375,0.7486944608764413,0.7348770049177047,3.430696038247577,2.819274392548374,1.248422769901404,0.985167656131791,0.6528756675646988,1.4662037443481926,1.0888392876288382,0.8034141960089657,0.9275399153540365
229,1.838706973236921,1.5281178594296172,0.5124786508492019,0.7297580546254077,0.7143093215216118,0.8082832738903434,4.094579361293972,3.496037767053429,1.6473184465257318,1.6598537427831708,0.6447042257417027,1.8255230993808642,1.4593738265851306,1.365735634098854,0.9403578311399559
230,1.701850260686331,1.4987623213647394,0.268620567244811,0.903820354110323,0.8919098669884505,0.733736512528102,3.681329048018465,3.43285685805591,1.7082643591052873,1.9083294256721701,0.6284777104787076,1.666125848730673,1.4625030982897498,1.5162064953601002,0.9367048582287157
231,1.8535648283663022,1.2018029551583944,-0.39750397745302823,1.1848299852598587,1.1621456929435394,0.7075151453612191,3.6980113760081386,3.3055975391116315,1.6607087539296097,1.5655777937497959,0.6333676938231112,1.712701861991281,1.4539505456322221,1.1986263697491557,0.925478469159884
232,1.9057633958122733,1.6964008653095506,0.2752906615342017,1.3567937864565758,1.3463495147469249,0.8483184596129685,4.0946221025362375,3.4541759722013916,1.885407696510504,2.26295424141047,0.6125606311107803,1.8845328693804098,1.6760510977932044,1.7377333993744226,0.9378245215485449
233,2.0128825101839283,1.7742994332550346,0.09175328158143037,1.1511104987306469,1.1393028082715215,0.7902883600115814,4.544927746948494,4.486399246589045,1.938570368841856,1.4994059151954684,0.6233814453054027,2.0081756997928384,1.729427254045987,1.2830826761109322,0.9408193002185615
234,1.7610188795159252,1.6623543747739162,-0.43193207214367524,0.759527072486828,0.7388261473920041,0.7743201579849535,3.7609356632982314,3.096823084790796,1.7201642859224169,1.061140456230792,0.6425374456860184,1.737650143581023,1.4581604083561817,0.7501140051666227,0.9441492109315551
235,1.5648713867415638,1.320124256381359,1.3741354524150227,1.1294023645281481,1.10936662162985,0.7257125553473525,3.6180505231973252,3.0848169766511835,1.5860323136475185,1.678607331963865,0.6566669596287297,1.5600659069851293,1.3017183940591228,1.377971463951706,0.9041074253328261
236,1.5651134224041792,1.0875643296454347,0.4606351593034934,1.1292033437618056,1.1166324907597047,0.7790960900020805,3.580554383404421,2.6692647676021664,1.2239954447186938,0.8326528403106317,0.6566669596287297,1.5538980917602299,1.0112068333568827,0.6323356190310232,0.9353522006326321
237,2.243019661467967,0.22463313227553128,0.7184560978067633,1.1658015197227787,1.0646296462815943,0.8170038436484075,4.357276891684937,4.904839416715683,1.79798833706831,2.366042867664476,0.6403206450210053,2.020669615436602,1.573708066354384,1.9215430556956452,0.8143860146680035
238,2.427036502131014,0.8483771583421715,-2.2335213685058344,1.3700155895536388,1.3381711914829157,0.8127113231051594,4.490961582768726,4.894351270017997,2.399320804544227,3.633275473353203,0.6509067234006624,2.270548241755063,2.087761866301503,2.8007595992064775,0.7456262908276675
239,2.1294422655877643,1.68552151927324,-1.5529100184571232,1.1308981711507737,1.1250452053874431,0.7400850901326408,4.441887825655982,3.955954850368663,2.2865158862736514,2.6323571558446948,0.6333676938231112,2.0808647762200243,2.007497714324529,1.894252441286446,0.9288875496518783
240,2.222907650673539,1.9170083315379212,-3.3732716689797932,1.6759400111371852,1.6752681930536102,0.7472324395114345,4.132689221251458,4.239609066415213,2.6565366694579047,2.5772973786616675,0.6309483474627791,2.1350012341560873,2.3758693835336024,1.8662564102302766,0.9001956489942096
241,2.1772092905935416,1.368122459853895,-2.4200507588393743,1.6705645430151184,1.6796304639580177,0.7996474119737511,4.007367828611408,4.297991216007549,2.1713591797645697,3.57443497333027,0.6602640781246099,2.0930447584265557,1.9646464861475095,2.9678470700644555,0.9082610911274571
242,2.0296699286804216,-0.19497649616783508,-0.3693067550320772,1.0565597045154607,1.0299562581548778,0.7650633439405201,3.3881803479048833,3.162290508598814,0.8422186967753962,0.6624125363814722,0.6380535849069913,1.5341758446003069,0.6947458194791669,0.3949405865977107,0.9079721869039505
243,1.8425080113379193,1.6525576944985192,0.4639872190515324,0.9979715812347744,0.9834940034978379,0.7797962195868079,4.529114715390377,5.036320002464682,1.7217230048072663,1.842125801756361,0.6619902821573977,1.8314016045004984,1.5845710627438114,1.5996751686754904,0.8857568145220175
244,1.7333696207972191,1.3776225372000637,0.7962678734658777,1.009568817296781,0.9851697630650275,0.8372786369888289,3.6502236506543873,3.72296200163791,1.5459546428329118,1.873067864646688,0.585052858160615,1.7041760336729097,1.358170988963065,1.596458379184748,0.9256225874504636
245,1.6147277661190587,1.2348845829320911,0.5900855083708016,1.2475330245331555,1.2166673817494902,0.7211142217692055,4.217595770580146,3.6581358476435613,1.3141909719166014,1.1757546345500853,0.62595550513784,1.6078280977702017,1.1422601146789069,0.8342310461777706,0.9185687597376865
246,1.8014456810521422,1.6760808296918308,-0.019483004546274607,1.1663389371006123,1.1564813024609197,0.8385053058239249,4.485103283630487,3.9024840912380334,1.8482954982404054,2.996332969661929,0.6468212168108125,1.7959683140021097,1.6470932717587445,2.042924943907732,0.8361177101437512
247,1.4827441613834458,1.1553747193111168,0.5309936104014552,0.9608172498198756,0.9589428391939346,0.7626777829726319,3.7215536580206887,3.4096059291211476,1.200575196883806,1.2905605649789291,0.6528756675646988,1.4328270752481074,0.9992341519933676,0.8989883945185985,0.9321671878230086
248,1.8633015079612976,1.7235464633203017,-1.3454853746843338,1.2035591600413913,1.168742177479857,0.8220551807341907,4.119187563957586,3.880131171905619,2.0148983673036964,3.1735158195818767,0.6380535849069913,1.8619673642715515,1.6923811968847786,2.530206409017664,0.9433970766156484
249,1.8241595075367703,1.2335037374551794,1.0500765965961585,1.10814069523406,1.1040819647036326,0.7605319507765874,3.787162441553283,3.61454933322569,1.3995950255197476,1.394275422244159,0.6309483474627791,1.8215316275617253,1.1987210511889597,1.1079934351470972,0.8748299648986763
250,1.4426228651064978,1.3672990344682139,-0.43485993836377634,1.0081393515220356,0.9869487230220904,0.7168573371137585,3.488982445793966,3.3261137172128175,1.2394891619452995,1.0040017267595627,0.648888643467878,1.355872932126558,0.9970702202090819,0.6236403023795901,0.8823844438775522
251,1.5959237714374228,0.9917876985928471,-0.35342242898778053,1.1376828157162902,1.1175154608152733,0.7837796069642825,3.838139999573633,2.339243085504769,0.8812765031665488,0.7370154990263407,0.6727386042041725,1.5619713751951767,0.6650940441520641,0.4773248209234823,0.8866254893238417
252,1.3128741483315738,0.8057980968488592,0.11416200250416075,0.748365078321826,0.7335646702336471,0.7463392945759767,3.6034203017012842,3.4263832665124108,0.7837168399468668,0.7765914788321239,0.62595550513784,1.276503673182749,0.6414238882361296,0.47094190017217946,0.9330849804411282
253,1.5006616797876682,1.0456332983925003,0.17754166661424708,0.9850484692431143,0.954719916339185,0.8062477054344479,4.161947675158584,2.6761772425214545,1.0495207612801452,0.7529262615360167,0.6284777104787076,1.4762190686478776,0.9200663894865944,0.5498104485340544,0.9431951699525942
254,1.8617825598431281,1.3521978246115238,-0.5439782171545042,0.8837392200054732,0.8704523115889633,0.7687544506453442,3.7343173268243626,3.5318726362365545,1.3458236937051247,0.7468089890770576,0.6333676938231112,1.810466696693751,1.2134364538269364,0.6654208468323991,0.9252971360441234
255,1.8298308492388904,1.6683812169897976,0.6085114014360986,1.1237370968166347,1.114440762704425,0.7399682255248478,4.069021742508988,4.158365669603628,1.9716154723986745,2.061045328146081,0.6309483474627791,1.8085665875444363,1.6814620078243347,1.5272956868782812,0.9389115330476587
256,1.9067383058979044,1.7740661057041784,-0.9393061702316898,1.1042700867494575,1.1032400476606747,0.745497100384735,4.056280234557298,3.782440763748003,1.9117135910448821,1.6007604765265178,0.6584896970785714,1.8778258383328696,1.6184150920161797,1.0945881383683842,0.9248409166861921
257,1.5406624565141658,0.8600598142660916,0.28665173505312014,0.9644874793178582,0.9667392005454634,0.6843767264563706,3.2739725860765976,2.866968867484131,1.1676049831870108,1.1154006334231126,0.6447042257417027,1.407722308533511,1.0022005622553796,0.7394787169858928,0.9277159083239795
258,1.0450111283638817,0.6495165503546814,0.05060878951609338,0.7581136972944535,0.7220554301821388,0.747728506626289,2.993655476528243,2.6125477294256867,0.5023679801640922,0.4286312948002274,0.6380535849069913,0.9773390545502343,0.42838733587908717,0.31619611920995383,0.9457813751053764
259,1.3195798031564108,0.8990685874557842,0.2377526073191425,0.7809196879186051,0.7739688875781857,0.7262401582874702,3.594371286944857,3.441977098830803,0.9614190209875803,0.6454012905948395,0.6584896970785714,1.2830560958431656,0.7467913720849219,0.41238290757947677,0.9503368882133708
260,1.3036500307478875,0.8944345585199791,-0.06450560829217666,1.1205487888093955,1.0963922843136829,0.82789226710219,3.3675680144429996,3.6184620373523253,0.6871464515924911,0.6660366148387248,0.6207552362147116,1.219124043895751,0.5343767132152137,0.39103649794624834,0.9419517512731865
261,1.8305398543082492,1.905946583038937,-0.8904922014711518,1.2236122530096238,1.1763618734862604,0.7937307186852687,4.274821974170528,5.117453626054199,2.175704201767261,3.345970166996931,0.6357360191111145,1.8294613364120664,1.88919027603554,2.49041630559897,0.8535985787513317
262,1.8110477153308728,1.446318830247548,0.2616587628708684,0.8283423257547957,0.7892288153854172,0.8338767043118004,4.254683307711027,3.9128274847915927,1.5799217010734667,1.2444231813061657,0.6602640781246099,1.799052666722197,1.440309352354153,1.0856543608807518,0.9484956043372714
263,1.7038692519676284,1.353671505538127,0.10585813138779177,0.966491458548574,0.9393269597538897,0.7858802769111061,4.181387919884617,2.9691709830972624,1.488270117662678,1.251171019302144,0.6778444222523095,1.688721648939874,1.3347244631816326,1.008236688975883,0.8969122376754478
264,1.3928164585736063,0.9090435167099284,0.42873282041806116,0.6134649771872374,0.6016739393818498,0.6557462283364144,3.169288076512337,3.6902040839257237,1.050612427204171,1.1644085281949912,0.6097226960127671,1.3321850354728586,0.8848341691915402,0.7586926003987812,0.9311511881665958
265,1.2071027280256348,1.1539957538548182,0.7980322024833337,0.4579925665336996,0.44142872348043394,0.5828427801499096,2.802088753419845,2.798563990173232,1.3825844090772708,1.1740118318182906,0.6309483474627791,1.1917149069304338,1.1240680065299207,0.9529252851557218,0.9475902747682172
266,1.3792488077512959,0.9005868430633106,0.7662410956711185,0.8084182605580681,0.8025721166569969,0.6670191084528622,3.487870161596661,4.194092546983127,1.0339558200054295,1.1293630862225776,0.6284777104787076,1.3664481617882362,0.8490422243548756,0.8665262560078916,0.9333790588219458
267,1.3588227387164007,1.0568954830512418,0.11383361454378349,1.0234210976870937,1.0099127035080218,0.7045716723820779,3.0352127459966427,2.8438681247561233,1.0447379386345899,0.9413541151487902,0.6447042257417027,1.2869116771486007,0.8794927578477326,0.6673979714119372,0.8754699220715049
268,1.551892404143825,1.097523602195645,0.3602441526000728,0.6205733315609955,0.5989657728554136,0.6945419849197181,3.393572485416511,2.372016611917297,1.0102475090719727,0.6346913105664039,0.6180765742263259,1.5178721077984634,0.912925216342505,0.5295678055757314,0.9171938219368672
269,1.6529284789240646,1.4135339086030463,0.9121242500533135,0.7121377844500593,0.6992143777140242,0.7009976383411037,3.602370053528057,3.0389298253639714,1.4163031043980687,0.9896822289812893,0.6447042257417027,1.6287340013758298,1.2461581856719486,0.8024979670184023,0.9559429666682578
270,1.5599906619457276,1.3545162271430446,0.3813858978631708,0.7339228423952056,0.735147785279676,0.7799678853989533,3.4052322251509595,3.0103232090456036,1.285733002042528,0.8323849756620123,0.648888643467878,1.5254542625358594,1.1154046890260274,0.5841467336818509,0.9162218036192449
271,1.8267242119610456,1.657073040657076,-0.5691292162278265,1.171733451071388,1.1440089958725908,0.804572575864567,3.4555307041063643,2.6767137666865968,1.5927064719813193,1.3458452026126855,0.6727386042041725,1.7823373306491501,1.4107624579040667,1.1791965614780886,0.9477900503892354
272,1.7793029662136284,1.2613618065298755,-0.5380536598270331,1.1964681303889197,1.1939412253127548,0.7974659526010681,3.174180864614294,2.6898357172875187,1.3674496624026014,1.0566517008927212,0.6566669596287297,1.6247207692986179,1.179106387197361,0.8784077548992888,0.9492102897953115
273,1.3055436817772617,0.25157927160723514,-0.017510748146988053,0.735846806601229,0.7308690541974592,0.4448021306560806,2.021428048546044,1.657339275346358,0.6072407491744319,0.4776513691024814,0.6333676938231112,1.0297083100208986,0.4533417195633,0.331841603700903,0.942999740872209
274,0.9078097140169396,0.5214672122344656,0.34812242855042186,0.31432581820282296,0.29888696115162217,0.5409046477695421,1.6774190516914822,1.4486041291064695,0.5996434585236895,0.6737042916489386,0.6547956803312163,0.8688771761711785,0.4651621309779913,0.40880302184427086,0.9523921770991212
275,0.7609553927103686,0.3381943538191666,0.2911751421369264,0.3681411204396995,0.3476298937558372,0.5785391962162421,2.3834330878607894,2.0486609136483955,0.44385621823716737,0.34164044530486204,0.648888643467878,0.752661308092353,0.32122584818895633,0.2613761670595114,0.9525279544734441
276,1.5059834702225272,0.6948475546759711,0.3287380866715601,0.5791259053481499,0.5408342155883499,0.5914650973686933,2.1537588272139376,2.093443822189034,1.123834911785631,1.1816473126522913,0.5915533975974677,1.33852058631505,0.9237759877648843,0.9125623653714922,0.9446849065181053
277,1.1816099505554798,0.3281140980565107,0.08934810173533614,0.445253767341251,0.43404149864130714,0.48026146910118833,2.0351511074742987,1.9064306041804526,0.6213995773572111,0.6972154847171248,0.6097226960127671,0.9297700600978616,0.48615910615171964,0.3874981078461557,0.9527099325306219
278,1.7072606974709694,1.2611252535794717,-0.7586699775716301,0.8562629061203288,0.8451589224663725,0.7318160322352548,2.838093336070583,2.6187961321843316,0.8875721269993992,0.45572644894600145,0.6097226960127671,1.5949325151203604,0.8006210571556306,0.3611618008075002,0.939132731506548
279,1.5029516403221381,1.0192787455278365,-0.8338729657710944,1.1196946988383827,1.121706073172718,0.7090954577765071,2.41890081960451,2.12518740587659,0.7403208728395051,0.49170855190657603,0.6284777104787076,1.292197037740775,0.6098238257448173,0.39391968678978484,0.9331756447381543
280,1.677856751585178,0.8093318068817397,0.11239075418150346,0.8870694654918367,0.8500082422079145,0.7789454727386956,2.588959342490846,2.2031261130521376,1.134013070743812,1.0776533181858123,0.6333676938231112,1.5238210258128853,0.9707320010269204,0.8368073952335701,0.9436983470131213
281,1.562466901083075,0.9066492785975293,0.06626335430918662,0.8292883835841289,0.8169699496608847,0.5410981151562265,2.6996179800308897,2.5039158032872586,1.3629668503522971,1.3534511265845512,0.6207552362147116,1.3698962153102545,1.080802263148009,0.8769387000958636,0.9506828277039484
282,1.5011354580643066,0.5641115951737703,0.07850117609348883,0.7235530813170116,0.7200511848152449,0.5960096529887299,2.1030897922948193,2.0072599779854823,1.2946451998603619,1.508936526809666,0.6447042257417027,1.1628664058078877,1.0584459670574216,1.1564940560062704,0.9526286335378629
283,2.170003742207209,1.601779764072294,-2.207803865952067,1.0727682875685454,1.0519276771210224,0.7878434259700837,3.267978753037884,2.694314378748895,1.9780075540561302,1.4913787835517816,0.6602640781246099,2.0583325784696007,1.740857896462018,1.2384734915525564,0.946119885472266
284,2.0689929486172263,1.499985863539652,-2.0242885267703117,1.2466712927677228,1.2393694462707767,0.78269340424381,3.683139834457621,3.079608844456547,2.0329737583023575,1.512500384579931,0.6180765742263259,1.990779675645061,1.830488966514621,1.3172000234464587,0.944656920700821
285,2.1418552560613953,0.2761828968533875,-1.1167350221260453,1.098181472638267,1.087431862036498,0.6457915968284756,2.5624715558012046,2.525514191984597,0.9371880269187085,0.7192838519244679,0.6357360191111145,1.5973995540076469,0.8193501291200712,0.5468381370997056,0.9365361527126235
286,2.0014290099383296,1.9017805365005525,-1.8083250823273977,0.9889792128339738,0.9771390530286446,0.7946307246345777,3.669846623096721,3.0936609355104574,1.8817290079858358,1.1557236276424996,0.6357360191111145,1.9564768920736524,1.6758122107518867,1.0160205758231697,0.9423606645296744
287,1.7883374693783833,1.8321062724893704,-0.7543060007664697,0.750579175344492,0.7374445499136287,0.623324891888828,3.4747147894349824,3.1232199051307825,2.1698016745353432,2.5542526040064875,0.6153451465759925,1.7648579160305486,1.8299242147042718,1.6902900090631954,0.94626446556629
288,1.5217392648976045,1.7045493745502047,0.29373463874264427,1.1513347433135874,1.134981676295727,0.5812728449787563,3.539069497593886,2.7905513109255797,1.8767074178113383,2.0727413679092717,0.6468212168108125,1.5098439916706112,1.5858313994114324,1.32995488107397,0.953403321322736
289,1.7545217007695972,1.7645314668793957,0.5150105356135652,0.9260143387352149,0.8835082296713918,0.7405940474822665,3.3495963981701835,3.1436663922110095,1.9219943506224713,1.9484550334288007,0.6425374456860184,1.7460852657368804,1.717696991116896,1.536902706389311,0.9091374167731627
290,1.578714727257921,1.6308460573967662,0.9089077638620355,1.3657583200171055,1.3392416591070413,0.7284691752069227,3.9103792189942714,3.7770036861598792,1.8147696541802436,2.3195882489631785,0.6584896970785714,1.569469615543326,1.5523299132547457,1.706514208504229,0.9097819953314695
291,1.9320959344535724,2.054637943246518,-3.3431981292385813,0.9859525904572108,0.956717191447358,0.6771306774520711,3.255557305036668,3.1119887669818866,2.58022256322907,5.128117390224106,0.6357360191111145,1.894087550329578,2.334931915219124,3.349904087274605,0.9415222832126992
292,1.674286473000798,1.625254175126173,-0.09639792729109065,1.126633295507526,1.1147783941271225,0.649577884347477,3.14401188468031,2.651316491305341,1.7794855520553454,2.224937911819552,0.6097226960127671,1.6499705969566771,1.549919928000443,1.7942154671879251,0.9347718498178264
293,1.5940293691169476,1.540567461833271,-0.13488532165317446,0.8421592547302877,0.8281484657495362,0.6538324837497508,3.2847121006726563,3.298633019049365,1.5706248951125088,1.2719013682461853,0.6284777104787076,1.5513262493768847,1.3488938445740943,1.0683732629655613,0.9435129081880559
294,1.8049415098580024,1.7250763436630123,-0.9337106374559787,1.0829469946653862,1.0694046693985784,0.6792938139834797,3.334740555355901,2.8794561440178232,2.072317666176618,1.841678189456999,0.6668815377411301,1.7468498404794466,1.7604490720652544,1.4202214748410482,0.9376188252165688
295,1.846767377639839,1.4020541451265263,-1.0920669715665912,1.0269995104500098,1.0130632804650703,0.8012821538200822,3.1353321984005227,2.9476331316868927,1.2841813709713854,1.2087013263789947,0.6509067234006624,1.7273459559036348,1.1155698608362343,0.8513112437006622,0.9393599589841589
296,2.077756927425782,1.8430275090887096,-1.399342738300657,1.1843071947561812,1.174645387128699,0.786825795217314,4.1570133136787835,4.232970936281909,2.103689431857388,2.9305028838097,0.6447042257417027,2.0695352161953298,1.864392624620866,2.2862513026554514,0.935101470557017
297,1.9773005349134196,2.1882796850632804,-2.042022031755724,1.1048983855264116,1.0729122563607707,0.7310788203747196,3.8665724225740363,3.3524133063609676,2.4894082624415734,2.249793812023215,0.6357360191111145,1.9454546972336866,2.2446668203821827,1.9547532427916472,0.944101359859894
298,1.818769640370316,1.2737236120841904,-0.512262179944881,0.8932652043082715,0.8785417833101952,0.6080982915182801,3.4896392594242047,3.51892048119489,1.7812485862697454,1.9183262707241178,0.6447042257417027,1.718261206719012,1.5388358309693866,1.4158762516510555,0.9472803028817168
299,1.8376692661383351,1.6881425150429015,1.034160650101645,0.7043201465414517,0.6744290982162156,0.7936240253016469,4.046254032916344,4.507763724338478,1.9516726983508714,2.1513407267635567,0.6547956803312163,1.810534624554389,1.742649114105648,1.7813366765519603,0.948751397392829
300,1.9806044890270489,1.455872970252358,-0.5241384502789326,0.9283617960868267,0.9235814288453712,0.753949629074565,3.2049261044050072,2.816439592384307,1.8772007274034703,2.168145847303464,0.6584896970785714,1.8640434648132203,1.6499494109942794,1.6809659777533836,0.9388583165517667
301,2.251889471765873,0.8743505854248208,-1.5714486468945845,1.4789657468959216,1.4996763578862893,0.7038488287430239,3.222818847003558,2.512455613761291,1.9364414376679235,1.4005806491477055,0.6357360191111145,2.0935855425767333,1.6898488210743792,1.0673522295032472,0.9295599829397895
302,2.379804159956174,1.09925488588128,-2.4734878788273607,1.3040398433730027,1.2923484823356752,0.7262826386357162,3.3020444862270852,3.1326505320343623,2.367790039077285,2.062823931251926,0.6425374456860184,2.2273745542871026,2.1798559347500692,1.8645360232249684,0.9464765498555714
303,2.204578320470442,1.5554644486569393,-2.1649224712372996,0.9033190629643439,0.9038962691796799,0.7422761496804923,3.221602649306477,3.017327731099033,2.4012779172931826,2.641498915802789,0.6380535849069913,2.102914897865478,1.9644632161268083,1.6397432619294292,0.9431922142190005
304,2.0746638921220852,1.2511270935626753,-0.9089807840469586,1.2550170784458206,1.2523014355492084,0.5695333782587297,3.3082996782176846,3.66078654953024,1.7895783018030913,2.047523715165689,0.6447042257417027,2.011907511562466,1.6245903516845304,1.4850689915565407,0.9418584716652076
305,2.0015730432101417,1.494457351108987,-1.0011036206011217,1.1612692027133897,1.128135347129294,0.7394848718339548,3.202289153354823,3.2497254087269853,2.0744629749017665,2.3127234835863115,0.6684167106117298,1.9380963123024995,1.8710693076859388,1.8650580524262184,0.9432707602312826
306,2.250088921550958,1.6090938078104178,-2.8080217554559708,0.922168735200076,0.918256897801795,0.6533877961298499,2.676827726959961,2.604421105217553,2.6767802375563856,3.0599838357557116,0.6425374456860184,2.131062375082551,2.421093775619924,2.7282744135648365,0.9343974262018445
307,2.060055558856318,1.8139381016745664,-3.4916383929801857,1.1365360442785077,1.1135993524525938,0.6242912806843813,2.856783233871438,3.1692099261397226,2.367873316218622,4.70732441712961,0.5978297680564633,2.016404146668532,2.136982956187352,4.258445572902527,0.9301443002609621
308,2.186769371942191,1.376947399825018,-1.4025605265940073,1.0889630625364266,1.0787625359621125,0.7743266839575393,2.7351464721246876,2.4665594905894404,2.3298772921768927,2.1240346622968227,0.6284777104787076,2.0499258903153397,2.076941863612321,1.6822752363863667,0.95478066665999
309,2.2195302049735246,0.1454148105065971,-1.1711088558022693,1.0854988866500872,1.0562416297368278,0.7476363603800755,2.2766489971142922,1.8567796565290302,1.5898229719969446,1.2287313383731642,0.6547956803312163,1.803697106801098,1.3799724623324834,0.981813020921859,0.9484117871032893
310,2.0397805044799857,1.4645006194774481,-1.4747615136097583,0.7777158462757289,0.7575848487438189,0.6810255929604212,2.9429319357658157,2.9322844156505288,1.9008671786178246,1.6817482924096419,0.6180765742263259,1.9738410548174024,1.677956724392002,1.4013971293056473,0.9377964151083291
311,2.3293933403442932,1.178199802959233,-3.1006814651576797,1.034579585302937,1.004565051591817,0.7626789373742028,3.071936536516456,3.1366008838385726,2.95469817513306,4.402049531044072,0.6357360191111145,2.245679797605623,2.6803080224303484,3.390534675918115,0.9332256933991484
312,2.183766837175759,1.2722219721460193,-1.5349575363308918,0.8953861534052042,0.8867889444057646,0.6909871240043636,2.5173036258434527,2.28843001548384,2.0831495891809295,2.740123413257607,0.6468212168108125,2.116566674318765,1.8897670105806224,2.2194477141209297,0.9382392537234153
313,2.106953193386086,1.659639557720391,-2.189122379771884,0.8985249805011838,0.8796838521614296,0.7348859334594782,3.001335261527229,2.6813065923371706,2.3995044412828928,3.3334095159117534,0.6652988471865258,2.0777540773600527,2.1957171507594833,2.668185602538282,0.9354024912024633
314,1.8204611603887906,1.643750306797997,-0.7325716869981918,0.6505117705918955,0.630131451948147,0.7006618752196172,3.530118255791793,3.126994977043993,1.898138564581932,2.1560084664754666,0.6309483474627791,1.7716954381923133,1.6375341151671063,1.6114560765903376,0.8875388616092789
315,2.0457840785305685,1.5244393690831748,-1.5842800655714462,1.205546161469059,1.1923510241309765,0.7612131348654264,3.2143231337621345,2.8892013986095444,2.118940143959221,2.285967482566136,0.6699045166045591,1.9653988256391757,1.8492958358284082,1.715134506065179,0.9251061564450344
316,2.1826034270610855,1.8392349267357009,-2.8661419415730522,1.5063061241495048,1.4623831967296006,0.7161932141941544,3.276840313538368,3.1864398738911146,2.3585622520435443,2.651291453436804,0.6333676938231112,2.1216533904891453,2.1242895558840695,2.399448068141431,0.9436637955968455
317,1.968352299886056,2.0272310604607453,-1.5052543864593986,1.1851695210245106,1.1517938514631514,0.7386313093517871,3.2408926283771238,3.0478402193700447,2.1625838746970913,2.088080114788974,0.6038851895711802,1.9177763098115421,1.957165020712072,1.7832306328805345,0.94930289750261
318,1.964661019554938,1.8927518561727878,-2.0239355247576816,0.9382449706242864,0.9438695814494235,0.5661470763147508,3.394230468657367,3.0400690085306152,1.994741014082398,2.0236009268828226,0.6309483474627791,1.9291076603792785,1.7836092165485133,1.6380640591559856,0.937601508467537
319,1.9021248884777977,1.5673090404364438,-0.8956886131632116,1.023821845642525,1.0132726078173508,0.7319667435272684,2.785252826729871,3.0490959731740714,1.9721887731725334,2.8236628120612957,0.6284777104787076,1.778053822171943,1.725914837526158,2.160593101804819,0.9447628426720174
320,1.9668649941472593,1.2101417557053904,-0.2754387146222643,1.207151299894185,1.181754189780359,0.7705746501305969,3.0544902647998167,2.969378469542071,1.6513284216034845,1.648814196961372,0.6357360191111145,1.895565637953644,1.4274368961234545,1.2218045021839024,0.9406355918499584
321,1.9442994055522953,1.0688331886461593,-1.309527278022052,0.9509799629652866,0.9496361679211306,0.5384421106227515,2.7462762263364078,2.6611136677465588,1.4245118784967525,1.3062816547178588,0.6233814453054027,1.74074954832031,1.2412989981477587,0.9912590207111981,0.9457897455494481
322,1.7934372901866837,1.2254154674754323,-0.8293094529434635,0.7288066771960644,0.713274157174407,0.7573200896268821,2.783705627577167,2.458695841110553,1.4017312621912434,1.2822055779193537,0.6468212168108125,1.6369804154405014,1.215325141649207,0.976602541627931,0.9433758458856674
323,1.9392693873509323,1.244274989196238,-0.533141513410559,1.0306627834061963,1.0149092698436408,0.7510487718556149,3.111107127232235,2.9526811261291996,1.6159632529485972,1.5091736064460797,0.648888643467878,1.8425616561584413,1.405342556090585,1.2459233864036914,0.9443420972321239
324,1.9034063556425174,1.8596345238507526,-0.5950501938287429,1.1315906436704197,1.1382466805196805,0.6934417189436258,3.194297546300804,3.2836397813551486,2.2222003074211303,2.2412549517368916,0.5978297680564633,1.8681366808258202,1.946054075365291,1.9443999549600848,0.9444138103656617
325,2.0896874765994427,1.686289370530448,-1.2756920537972936,0.6493630129611053,0.6323805434955293,0.6394657200980636,2.626984474943616,3.071930905460371,2.2047018820927757,3.8151717346632847,0.6528756675646988,2.0070175262682746,1.9354646866445802,2.509255678798287,0.9413719460671984
326,1.9231223968389335,1.4748135883865685,-0.2543422075665558,1.0336420371000072,1.0195261872264012,0.8011715870933067,3.0832932772140955,2.0663848021006075,1.8335602626250587,0.8941917030987171,0.6333676938231112,1.8752135445608478,1.7115105248442106,0.7341029453967668,0.9389000235250001
327,1.9034833914877962,1.1062240448646714,0.21605609646057822,1.0439178213739164,1.0306757485527696,0.48346684422440006,2.8217513730779733,2.711239108658085,1.8371184304169195,2.365167603783031,0.6468212168108125,1.753821629887663,1.633472846605501,1.7976942047478695,0.9509548738003915
328,1.38630517879516,0.9935040335116303,0.3002392585349307,0.7735617952609201,0.7626918332478361,0.5347441353384318,2.6687086264415956,2.6903417697489,1.0244598833291516,1.1066794958996147,0.62595550513784,1.2633690142825924,0.865636324076483,0.8443133403580154,0.9417107834802121
329,1.5218435838916138,0.775297884018217,0.02741152272132963,0.9798684039274542,0.9610668206997495,0.6557825625833024,2.572487267305681,2.670842810650986,1.0420880258339515,1.271354406068375,0.6425374456860184,1.2752699158376257,0.8710714511840238,0.9079620825568788,0.9480447079118447
330,1.9457473739862394,0.7273157104479593,-0.3458258542487904,0.8534491791141124,0.8192976264116102,0.5620002358890226,2.5213341041890325,2.4739592704504685,1.5498103632566953,1.9013425986420947,0.6403206450210053,1.6911301279461302,1.3357488746046975,1.3904294462676936,0.9440298524507413
331,1.925701370320569,1.3105971375823207,-0.857644474116686,1.036550061386917,1.0400423287100888,0.7270683333411412,3.2883023387642183,3.080137565979698,1.7584243572430398,1.725744837122456,0.6602640781246099,1.830084583549723,1.5093907394844357,1.4126492759105962,0.9500544529195416
332,1.841823514648664,0.9977695063068288,-0.3568821378292055,1.0488925345096425,1.0351767138719328,0.6473723067714193,2.675521923909207,2.906245703321853,1.5724720803989094,1.8197084308706653,0.676637947632344,1.6528674703614363,1.3639749515886772,1.497066172759653,0.9352054250126046
333,1.7000422964564472,1.2150533020229695,0.20370885388825988,0.9007372429086464,0.8925696941541261,0.6363652245781355,2.758037684717094,3.1352704345666447,1.3414493030373598,1.2335673857725358,0.6778444222523095,1.631513120085958,1.1512606272121886,0.9904539663859359,0.9415139335753471
334,2.0782599915254596,1.5995576812004901,-1.077859628548039,0.9824443430136318,0.9606081307628885,0.7124858686715078,3.371262486959021,3.3852901012363343,2.387909221447418,2.9719222722169665,0.6528756675646988,2.009003788611275,2.094045214240972,2.0418257575552694,0.9464500226560695
335,2.087083266057284,1.2404965586908978,-1.877197105139166,1.2760434491962462,1.2616231306699563,0.564216481353092,3.152294286289363,2.8844670894641804,1.8191562578108624,1.8124582696456055,0.6602640781246099,1.8932755324205666,1.5776292616664092,1.4249148255806987,0.9371012302476446
336,2.49542866295659,0.684160746887033,-2.2462447998342063,1.477659896272347,1.4789309868052891,0.7636164993415289,2.838767916252759,2.6849124260028847,2.4131828406987137,2.193954938662445,0.6468212168108125,2.2123382151462674,2.1795143136789052,1.8740488639845694,0.9483546262468198
337,2.205337971735658,1.1630243541776606,-2.2498073436942665,1.1664146850273909,1.1202328286970322,0.6640682955841479,2.9979564994557135,2.8925009595020255,2.435238662325603,2.6069403428605713,0.6357360191111145,2.047942874620465,2.196449683845295,2.2505175051105906,0.9413523736391133
338,2.0675679378233616,1.395588159430638,-0.9847506419952152,1.2510814434776294,1.2560073103296454,0.6385870781081944,3.125671492214499,3.1084833507302876,2.13812097746534,2.281208204807549,0.648888643467878,1.9575779539229954,1.9243470203478714,2.0203084391091726,0.9456555877911933
339,2.191824188762074,1.5454107407045545,-2.332671874505012,1.212932965070066,1.2183296286912724,0.6003137289636724,3.00854813016677,2.9971805594365977,2.3011224261421246,2.7087301346292687,0.6180765742263259,1.9898852575669768,2.0652385915018425,2.2344472878268276,0.931436874391477
340,2.421707948741402,0.3681774157296296,-1.918305212530973,1.0711132679211368,1.0536643443185616,0.6610746122908374,2.536283497351962,2.3105111537237244,2.216984221732629,1.9745181442782636,0.6233814453054027,2.1337804047796847,1.9875928298303354,1.61976502658995,0.9428512628196521
341,1.9395816049492351,1.6203205866326487,-1.8103400256003819,1.2379532174396728,1.2273666995359764,0.5863597575326628,2.9568333642311515,2.705837360675623,1.8520126000253052,2.0122216063666185,0.6528756675646988,1.8328592801134809,1.6344779040532196,1.5300528831795348,0.9466274002849117
342,2.1133146957122064,1.4633008575754305,-1.6381170450657911,1.2977277225275377,1.2801366325926202,0.7615972488037684,3.176522397411487,3.0979659093482894,1.9825208363614992,2.0517833649033737,0.6740851607140061,1.952711000285817,1.7673151828249558,1.6425334521656172,0.9473221226173035
343,2.197662177273407,0.8665007888694265,-0.5263067111236515,1.2671345326516221,1.2601663733026838,0.68809953307161,3.000617017969175,3.356590371845081,2.050970495526311,2.02064625602587,0.6447042257417027,2.039366492720639,1.7738172140399462,1.4331739208567404,0.9446088977921513
344,1.7357823384983755,1.7829041547624536,-2.4895461910385683,0.7194326485996179,0.7205750399584705,0.36970581326648266,2.625807342002409,3.59745902262431,2.1727752992264113,2.6824062903428234,0.6447042257417027,1.6337306050031448,1.9509890540294839,2.2660172285802354,0.9561541513567244
345,1.7580499067933564,1.247811110941201,0.6816783648895783,0.7523540375190655,0.7502203957727981,0.6189888719470193,2.522346356744458,2.4008964178041206,1.6058194086509825,2.005652781638221,0.6233814453054027,1.6846405005553655,1.4529113864832504,1.6236225474260568,0.9447385370767164
346,2.2004308919380917,2.3054123541734994,-3.2943316212864575,1.018771309145631,0.9931861055701285,0.7325752475025623,2.8668596869635894,2.970032659345513,2.582741545992458,2.9222145608923844,0.6528756675646988,2.175658799421659,2.438440017310734,2.5449708905306503,0.9412150847832964
347,2.0714370464267566,1.8902300816080166,-0.671426880264864,1.1669053122078328,1.1476126792997863,0.7849281177678062,3.003285565248087,3.5034979660781493,2.228503670195489,2.192145149463389,0.6357360191111145,2.0535572275238065,1.963826293562166,2.1379080001798,0.9414961379588915
348,1.8968206907709328,1.6109117973270055,-0.47258862850051786,1.1046090269021607,1.107084578631219,0.5967459510838977,2.8487710881588852,2.763213014163462,1.7446171050247141,1.6815651332444066,0.648888643467878,1.845511925227302,1.5245098389664038,1.454133962959932,0.9422218896696865
349,2.0761793399510293,1.6443563529693228,-1.6565535436489736,1.3788283383735354,1.3529260735145647,0.7033322901793458,3.079536905805959,3.303023652706609,2.3770561929396195,3.246015185346401,0.62595550513784,2.0099154790312257,2.15056888569542,2.3950503206661393,0.9468183058235033
350,1.9683030589382944,1.6841849158619215,-1.0252896148324844,1.282507677107471,1.281721588483202,0.7476882355534902,2.899407591115832,3.158911846749197,2.127107665616617,2.1867076050389547,0.6097226960127671,1.9155857284317235,1.9282595524663122,1.8207164806048841,0.9430994072652955
351,1.9357974992349378,1.5597044773832627,0.017366489485499237,1.0328474692146574,1.0014694622379186,0.6837965870661962,3.0580449390905144,2.9102970162570823,1.8047900352351716,1.622765718073346,0.6547956803312163,1.8912851886136075,1.6381244241954707,1.37836829584747,0.9346877108174142
352,1.7865849202762831,1.5053842084665896,-1.1466147201896568,0.9788725560643007,0.9573734766022045,0.6860169629660607,3.440219802271788,3.3263772106686202,1.6738918116823382,2.0562882162352305,0.6309483474627791,1.715971955912594,1.4902070381611998,1.5720227018011597,0.9325810230429464
353,2.243712560442058,1.7469995402813123,-2.5963238254424503,1.3252951525359988,1.310372186715818,0.7640378060276327,3.186519931266124,2.8247609597318,2.3192147620490817,2.169226405886721,0.648888643467878,2.1521556139686413,2.0534930178121336,1.8312782894039643,0.9365458851072626
354,2.3276201210357725,0.8376999465935819,-1.9057745810127742,1.294386404585301,1.3109769908799342,0.8230549230624952,2.9168158646729525,2.7767317364588244,2.1722731259208916,1.984592981132567,0.6333676938231112,2.162147050723523,1.945620531830718,1.6685855849367952,0.9326959600384774
355,2.0872886704306146,1.758402330284011,-0.9209404397765866,0.9810135453841433,0.9723327160943323,0.702908391171079,2.5785059745195857,2.8197340720562107,2.320043081459071,2.2733181446110815,0.6509067234006624,2.0050352013439148,2.0449735470581345,2.121114238080404,0.9359708987107486
356,1.64750381106875,0.8116278109192405,0.12338056755148052,0.8577685876027431,0.85533360802372,0.5333158126761798,2.4636496535968915,2.2854753127920975,1.2484176085392271,1.171954822571082,0.6566669596287297,1.4137340768786724,1.0721063420694192,0.8640303355487233,0.9529385043059033
357,1.9612706768274226,0.7948906123983803,-0.9097273243080994,1.0481410339557318,1.051022016702278,0.5833663107537498,2.657850626056426,2.2534494624914396,1.4047174660803312,1.1462624790557483,0.6425374456860184,1.6723185493622243,1.20217985937765,0.9128517699980725,0.9388090595782798
358,1.8167699957275432,0.540329224371318,-0.07799743033881867,0.9860681360574316,0.9760361365046457,0.5319185066486855,2.6964497360571937,2.493651231453483,1.4238170523695124,1.5193125196854473,0.6619902821573977,1.5463066309940108,1.218843162148772,1.1682103496734944,0.9445097759577631
359,1.922884973493451,0.8447500908837702,0.0010414155350897403,0.9129719743212943,0.8993345154098027,0.7411639451791385,2.560966018404993,3.063642381735296,1.4105072790488262,1.5482569952122414,0.6447042257417027,1.678490309502188,1.2596021846053884,1.3353787340119596,0.9361853803472777
360,1.805165761430068,1.5143635410609995,-0.324930973467239,1.1088374811923036,1.085926238386475,0.769500046659768,3.1276012808430944,2.9590944735014766,1.6826096866010176,1.8126326223615907,0.6584896970785714,1.7569072584608443,1.4243517028360497,1.3552146934049625,0.9302420731396986
361,1.5774426308232854,1.6566667019425891,-0.19910665677431005,1.2827155405136044,1.2572782614607239,0.48382443716046114,3.173316420299948,3.0752987418077438,1.5463254160151019,1.4987768033601334,0.6668815377411301,1.4905197188442083,1.3499196703037473,1.2082946618220927,0.9337510066866777
362,1.8403392103034633,1.3316168088067726,-0.6900110423719812,1.0916167102917735,1.0795185276074903,0.7341798505738301,2.7882020691353855,2.55200912277131,1.6017020075418804,1.1641316929393175,0.6727386042041725,1.7236025025677728,1.439365690362132,1.0300923422313537,0.9232038486842643
363,2.145976200099072,1.5698820125383435,-0.055288388332250804,0.7903737823009905,0.7794792446975797,0.7698849024231479,3.2482806431707765,3.1856387983735295,1.7183598029991498,1.1084944686538565,0.6180765742263259,2.1408442439001116,1.5916388476959564,1.0055837678584547,0.9555261829993623
364,1.212437408191953,0.7615513127562663,0.09589132262763966,0.8570027740357963,0.8409142356728698,0.3637307901707932,2.530959316962579,2.3961255208984054,0.9846753070180817,1.080004130541933,0.6380535849069913,1.0643719055134089,0.7578467711993546,0.7507180505822725,0.9576802256764484
365,1.6517340887794119,1.336853745143607,0.3636387868068951,0.8524280818264438,0.8281301189032158,0.6794443600147366,2.78956384154319,2.5825045398005213,1.6482148100894731,1.6574446529030114,0.648888643467878,1.5993225786930074,1.3512239022392274,1.3071016322480586,0.9493678883522226
366,1.5313485381370868,1.2493928050490641,-0.503687940355483,1.0416583503498853,1.0376207076300743,0.7259815291229691,2.941930783952301,3.0608196932487024,1.0963385143179571,0.9046373876452548,0.648888643467878,1.4583395051024204,0.8923859632195602,0.621724400609791,0.9313202997083856
367,2.156880931403853,0.3219126542730235,-1.2420589204594896,1.3566500845920617,1.3595762156254483,0.7599211351117178,2.8585994334327265,2.62447442047961,1.4082259358914593,1.0593648633310504,0.6528756675646988,1.8834362577999593,1.2124847430094643,0.8540346587873728,0.9470077741692848
368,1.972710911135078,1.1423481710072572,-0.1373689387136352,0.9463814178852386,0.9315235193303192,0.6903780808584001,2.7485119143628705,2.7989909319420363,1.8381252367762992,1.3319240853311964,0.6403206450210053,1.8611095473628483,1.6094379124341003,1.2599340282683178,0.946790692405914
369,1.7817889396795947,1.4555586326156131,0.8844655186907766,0.666003471049652,0.6219558585084568,0.5333087444289855,3.0727779493439704,3.170123693522807,1.6126162648843527,1.6089887871483763,0.6357360191111145,1.7657019349087653,1.4292946161694922,1.6686565526693524,0.9433627445462271
370,1.7589573977271706,1.478550225051529,-0.045683440098672534,0.8365967896960443,0.7995706537856625,0.6767703884744806,3.0624987067218976,2.4293568330783493,1.486307755703079,1.2584086305471034,0.6233814453054027,1.7297867369132158,1.3349384081277267,0.8456325810681424,0.9435673521202826
371,1.4332641055575948,0.9394627440195114,0.360225164429528,0.7245784814306808,0.7052818262981081,0.5279916448844878,2.639224837981631,2.373582781647338,1.0497784832607633,1.1535848560391495,0.6357360191111145,1.3279415990694057,0.9007736453581846,0.8981386292219647,0.9376525773427391
372,1.7199915153232312,0.8947068540433987,0.5598894335234363,0.6047200159031875,0.583295532182501,0.6226506449702066,2.2487111762178316,2.128299958278695,1.327022614742226,1.32778320185251,0.6602640781246099,1.5524801360044416,1.1587417562634035,0.9892804016740839,0.9315972373969618
373,1.5366507543319265,1.512473467722959,0.7742498277044763,0.4832032875615162,0.4797028340711639,0.4090310951105823,2.318355144879449,2.1681586698310022,1.7036429979294696,1.4430356156725248,0.6309483474627791,1.4964068904720542,1.4590368641678253,1.280464371904008,0.9292703767067148
374,1.7667937547241415,1.4609287151369934,0.879132800637298,0.5037985341096136,0.47427680396136096,0.6454957927350152,2.636781628174672,2.088390498691177,1.7026086336533817,2.7966602071359707,0.6207552362147116,1.7474236554080034,1.4300969837782835,1.545432582458188,0.9430698927331026
375,1.5678873143293284,0.6676989619580163,-0.03344566758036294,0.8022175358468865,0.7666457151528201,0.660806904473077,2.5235570278804103,2.2698283388457834,1.0050555565549864,0.8742229454704089,0.6333676938231112,1.3795615220787065,0.8660133161985596,0.6396103929315986,0.9299897313429673
376,1.8568637363877212,0.9394736240209398,-0.9322446077785218,0.9863040339483502,0.9670665886046582,0.6964038944220335,2.7191075961910807,2.4439336099800117,1.2075943273529912,0.9718311556761904,0.6425374456860184,1.606387015600844,1.0352514199821146,0.7539082745703825,0.9385005621832796
377,2.020703452023462,0.6651152109412624,-1.4431729206019157,1.0937897616318184,1.079428149622967,0.73050650173703,2.8668620312342,2.311716889771099,1.2426208054041945,0.7704157850829144,0.6468212168108125,1.7928267051884776,1.0937522544689908,0.6736141534951449,0.9479523388331081
378,1.7041152552102932,1.3368752806086022,-0.4915601113884658,0.9892604520345643,0.9781208381490739,0.7156270202030813,3.1707616923716335,2.7559059444605256,1.3926147021617201,1.2986591861698935,0.6284777104787076,1.5816606314346537,1.1708640597693858,0.9739412565720036,0.9446612095664099
379,1.8065354650788246,0.9347682831412221,-0.5851015031497506,1.1407069925328177,1.1197593760395148,0.7195829480165646,2.3660992341944067,1.8876681797266488,1.2237411603409267,1.1220348743526543,0.6403206450210053,1.5844743338483032,1.0529620879259154,0.8995806830304716,0.9054879538135034
380,1.8594987286232818,1.397528063235318,-0.27542800308078563,0.7792651956690055,0.7558081803537032,0.7237922610823336,2.856393266764358,2.8931970169113916,1.570388475045578,1.6481552183543293,0.6284777104787076,1.7887639602482566,1.3658337940633478,1.4285935249577117,0.9440193240264619
381,1.7082445508246173,1.5047030205814165,0.12000196238575578,1.1621700169911562,1.1503539096827071,0.618431707933997,3.460063615146278,3.4619609096575417,1.5959030752919754,1.499293638422339,0.5567373465730988,1.6749250314966009,1.3590861766011746,1.1502580616523124,0.9174072008598084
382,1.898949867850585,1.6720821094215699,-0.30070602446717,1.191624998076311,1.178951533361143,0.7559460655894784,3.786560106212846,3.024969559784147,1.7254960671994661,1.4070380559234057,0.6425374456860184,1.8613954045791161,1.4999404436579085,0.977205674497118,0.8543041715446748
383,1.6943434217089435,1.511635959588231,-1.0660180671714499,0.8640893539891441,0.8575952691737372,0.6656551264768485,2.758092694616672,2.192736856450082,1.3063290313926041,0.9852981732007914,0.6727386042041725,1.5112027217188626,1.1341857182586363,0.7598169630821952,0.9444502909117
384,1.4409307138412921,1.1252790375058739,-0.37865964478828484,1.097494295047151,1.074119055906292,0.516419353029831,2.342287557084478,1.9562229655743315,0.9116182709727481,0.657167069347981,0.6447042257417027,1.2726482658752916,0.7556777749991138,0.4929680063659843,0.9392963232541918
385,1.9067523873700873,0.7336426593149203,-0.6976805442853744,0.907562316840705,0.9047032546263808,0.5585577417212363,2.9180945170571837,2.464084719072718,1.349774139235474,1.0856685982578607,0.6380535849069913,1.682187832798764,1.1470888257375897,0.8021728136773062,0.9507914239783921
386,1.7013904497912196,0.5357074608669181,-0.19253335367766278,0.9479618718578311,0.9457225754366141,0.6442879460945857,3.0685631620421545,2.6582093336974517,1.2116605139500116,1.093050789278406,0.6125606311107803,1.4648566836229928,1.011817281238531,0.8469452821552567,0.9039461091281724
387,1.635814083477839,1.4068506655169675,0.8458894298972299,0.7546549143964498,0.7502875354044634,0.6403702928683342,3.553680247439271,3.940513189257242,1.5737253746471414,2.153765211102802,0.6619902821573977,1.600588297157118,1.3696928439673488,1.5914039329238858,0.9199748931536679
388,1.7962242041542886,1.6398608908944161,-1.2176219409007292,1.1628374535339268,1.1410589430168492,0.7672954606709275,3.1625023064740057,2.6483704588115486,1.7754269314711948,1.5421565941628188,0.6619902821573977,1.7222334065794447,1.5256708056695816,1.263978039315508,0.9176392142699686
389,1.8672274183161843,1.389221251999927,-0.913238863689533,1.2692982480494006,1.245225398254456,0.792236143380975,3.081615016265667,2.5559080355784403,1.3274231741315416,1.2897378582274657,0.6333676938231112,1.7559419763626614,1.1681934116863124,0.9017099211381199,0.9533660755153082
390,1.8023320119002175,1.567953753808907,-0.5742952693042929,1.1922598628149537,1.1778951637626887,0.8056956848396959,3.2170524381354064,2.6443554834310006,1.3348821979266163,1.08769862551781,0.6180765742263259,1.708276532089546,1.1525364235650744,0.9358992032625314,0.9273968414637295
391,1.7104330366965728,0.6466405978789569,-1.2566848667670196,1.1324003133509453,1.115521349649523,0.7307198815528043,2.486153574454256,1.87497407908275,0.8019749661204364,0.6010762093926301,0.5883313578629602,1.3921783042788654,0.6863747433398555,0.4948205834916099,0.92342233467926
392,1.0952043629347763,0.6285872758317645,-0.31826146635861674,0.6614106894208251,0.6100122776014434,0.5233141466819728,2.075474069141982,1.6532577292320507,0.559737861383995,0.46778615222085146,0.6357360191111145,0.8691156278262355,0.4725453447057476,0.3151015119099393,0.9450598941798277
393,1.0539017489803455,0.6947383250914796,0.26310570195216254,0.34001676426906924,0.3322417180212957,0.4346347695769149,1.7243471793005993,1.3383184330258353,0.8176373759860183,0.6640641354408718,0.6602640781246099,0.9631203192309531,0.7326019618001599,0.534955672564326,0.9599705942343743
394,1.3666101289641837,0.939698162631508,0.2884579539576224,0.4448556314403843,0.41728870227104453,0.6170484024178069,1.6394239164098277,1.292770889306833,1.1165069231133036,0.8778721485927568,0.6425374456860184,1.2659270133555423,0.9956227745372346,0.7319627289229012,0.949894937331406
395,1.04753295871688,0.6357779304399647,0.10025010156282232,0.7142259798058813,0.6966201235614119,0.5583397161261273,2.0353880899451835,1.4596561097088694,0.5866906469174576,0.4703393151187886,0.6380535849069913,0.948670453614906,0.46355728953148895,0.2878037121551301,0.9550119981982728
396,1.5456500269467508,1.1171314309993665,0.6925609841594942,0.9454069400537116,0.9135986887653483,0.7669708784689977,3.0122775168905944,2.486005799928004,1.2054574742810051,1.0689811738336286,0.6403206450210053,1.5263741317748845,1.0246723205176609,0.7890558300097992,0.9475650437321185
397,1.645185624198632,1.385302477518894,0.5566910038037771,0.9548545658502828,0.9326236488366587,0.7531190426148227,3.4967724135703704,2.9492979322703823,1.3627943103632971,1.2636229037551931,0.6097226960127671,1.6304913216319328,1.2247063612565778,1.0181389401498018,0.9303465832506739
398,1.5273456989847431,1.0766433619248008,0.20953074976689257,0.9201797449350283,0.9139359892391162,0.7174795557176269,2.4322266111190882,1.6892340733881408,1.0652637735321728,0.9732172527897301,0.6528756675646988,1.4388984557513027,0.8578150200856591,0.6455833549241223,0.9298495041390221
399,1.3489440905312509,0.957742268672221,0.4859115728413004,0.6338125065340035,0.6113134878256767,0.5782305327263765,2.7033614581827443,2.253607498587319,0.9217230731182204,0.8633189588157714,0.663668482632973,1.2806938742574572,0.8088428976618448,0.69647497065262,0.949493380617611
400,1.2305923252442443,0.7112474243270355,0.39297735335859385,0.6045199910953857,0.5918657485253366,0.6132924657980904,1.9197750608630073,1.30737057227754,0.7245666319842277,0.6904074080054782,0.6357360191111145,1.099879758235075,0.6416936960798094,0.48487398169823825,0.9589983220250909
401,1.4699600219817064,0.8482360775002851,0.5881001572996563,0.4437872887912053,0.4297006407805405,0.7355682613687868,2.2513035739307834,2.0124760854547286,1.0161042017003825,1.05915547140052,0.663668482632973,1.4257284303652977,0.8247914440291454,0.7501132777592591,0.935981564601833
402,1.5574483436217963,0.8947786115771232,0.3633003250944693,0.7227928385821454,0.7246238079003398,0.6370306241781499,2.667357378429077,2.5020826842641632,1.2768717213003464,1.2062599015556086,0.6233814453054027,1.4563354007908529,1.0798645433846978,0.8425838426497044,0.95548676968708
403,1.8790783542946234,1.524625935622417,0.17338634745346537,0.9545217674362195,0.9396808993790402,0.784458276850389,3.633274532665345,3.520973372148374,1.6881021736218533,1.6305861909941977,0.6668815377411301,1.827455733886329,1.4848154385814247,1.3945626672968376,0.9505447482835064
404,1.9342899174334975,1.5445091888696492,-1.6441924837372122,0.8992870558096877,0.9042621586556194,0.6996169252188422,3.0794738668988297,2.2491445309234934,1.5939321957795056,1.0821938654286243,0.6468212168108125,1.7768708567343043,1.4011829736136412,0.8815672958157694,0.9173067691855388
405,1.8236652439701266,1.484894542884301,-0.8479515724401887,0.8871598519374152,0.8826997174459158,0.7434707508196073,3.4503238387539636,3.422705555086329,1.3869017575769564,1.3193885390539093,0.6380535849069913,1.7370819079373592,1.237323845568815,1.0820009693755344,0.9512415011885599
406,2.0130987353109826,-0.40951415886984566,-0.43275053283813025,0.980156315029932,0.9594484834009901,0.5604166558447059,1.535005846825705,1.156676541578427,0.7422659137981693,0.5994495408110128,0.5978297680564633,1.2675438923433044,0.56935242255628,0.3867749124516183,0.9493441652247802
407,0.9952417344056046,0.03875329978195907,0.15419877558648254,0.36179966646443174,0.3614110805418554,0.30150069459017426,0.6215623522358362,0.6152377124934388,0.5849262641255742,0.7081229069697631,0.6619902821573977,0.7812257935099978,0.40950178406591764,0.4008158449816345,0.9634712477010766
408,2.0289395634449487,1.3485493583846746,2.0018694712673657,0.106969059718312,0.08780427312601181,0.4326469654418505,0.4751312223513208,0.6623952246507989,1.6534618072096758,2.325669480581009,0.6125606311107803,2.044417657092461,1.402474683831824,2.1142338333303927,0.8776569157191794
409,0.6627694115277513,0.24649044296357048,0.008543248168813466,0.19517169521930086,0.17241564434684625,0.4218764015883391,1.136054764083464,0.7399268354005251,0.3232944818567743,0.23732898541785102,0.6566669596287297,0.6003046894610914,0.2300632206477123,0.13724535634647395,0.9613988656197412
410,1.0057114951780703,0.42328198820823537,0.33329007867930893,0.1824414118534046,0.17594764746484262,0.17926469053551936,0.519222468393548,0.6237768263074839,0.6278486823809747,0.6209334720136406,0.6309483474627791,0.9640813957105034,0.524319521680763,0.4762843869903808,0.9538231055144104
411,1.3764419479239358,0.7172586768007867,0.42113398571846794,0.23489795569407362,0.21466725348789914,0.3704410537315622,0.45652395970034154,0.5712170665067182,1.0410791268002761,1.1985628776407053,0.6207552362147116,1.3083461530724019,0.8345796508564388,0.8362771676739398,0.8725561156885655
412,2.427948442425869,1.6028997633168784,0.9549390734901655,0.04466961139416602,0.038712209137994856,0.585652116572332,0.541494555448471,0.7173320623244676,1.7514547408453875,1.1393635665635569,0.6619902821573977,2.4188692525266933,1.6305019440526762,1.106289869567144,0.9182154847015963
413,1.984061796806008,1.361485327058074,1.309834248314894,1.550498007289356,1.5315987806854026,0.8206427920938467,0.5725351409525449,0.8071013152078031,1.5322067979477443,1.65369434271389,0.6309483474627791,1.9837274030738152,1.3639292116603106,1.2709365915861064,0.7981782616075269
414,2.069430515355495,2.3107827598618407,-3.796866599514558,1.588041174145473,1.5243648429572545,0.8525823828724398,0.5223123951638297,0.8384683879809468,2.559856341316079,5.155797469634938,0.6380535849069913,2.0690952496256916,2.2745657382146423,3.508555899982655,0.7882632297086055
415,0.1841931070283953,0.050043462922138876,0.04063545510461253,0.04466961139416602,0.022799669339059424,0.10209505364923788,0.6677950074822846,0.8188843605957646,0.12941115582873,0.10915450905280238,0.6602640781246099,0.18606187640967792,0.06089065023954335,0.05194779123091341,0.9830810994331224
416,0.5571609740518221,0.2921336917579206,0.22070023106505432,0.106969059718312,0.10771165242708965,0.189497558481173,1.094092907318364,0.9996245985221368,0.447994785401328,0.5531591287455752,0.6333676938231112,0.5222236687183601,0.31410128151791333,0.28024766380882915,0.9694908012623923
417,1.530741444866034,1.0195232112094577,1.0248184558343438,0.106969059718312,0.09055152302002473,0.47164533599856884,1.3458687918991645,1.342934953917501,1.3214130688858017,1.4416684575292409,0.6547956803312163,1.494622238005519,1.111623763641642,1.0888751133902514,0.9560971634165201
