,bvp+acc_XAp0,bvp+acc_XAp1,bvp+acc_XAp2,bvp+acc_XCond1,bvp+acc_XCond2,bvp+acc_XDist,bvp+acc_XFuzz1,bvp+acc_XFuzz2,bvp+acc_XK2_1,bvp+acc_XK2_2,bvp+acc_XPermEn,bvp+acc_XSamp0,bvp+acc_XSamp1,bvp+acc_XSamp2,bvp+acc_XSpec
0,1.1199949098559974,0.6871846884209494,0.45098428992202866,0.08929447972312814,0.08600762600963326,0.4707452559425701,1.3124568685534548,1.3822118013026703,0.9673401985583491,0.9311303868789785,0.6468212168108125,1.0715160630064087,0.7225794660191942,0.5056048398998529,0.9546947396543134
1,2.03533972889004,2.220186973694123,-0.4100240615705584,0.7279654312193561,0.7030393075156539,0.7188220198055797,2.2516667011502034,3.0276646081623757,2.627555346089317,3.6427767324773437,0.5713653840954815,2.0328124410858326,2.1639340547543493,1.5618442153110144,0.9419016776048835
2,1.849586736160167,1.490499279870105,0.9182234777206477,0.6418472979433097,0.6319353887575665,0.5139965327602727,2.34040236464709,2.5501706591884834,1.642009072042922,1.3880766280306658,0.6528756675646988,1.8493885820646914,1.4913410528303743,0.9192760432278823,0.939098071763945
3,0.8394295830110127,0.5575312824559487,0.32902126508917506,0.21741154249979316,0.2157493772909826,0.39857066976162603,1.85058357663395,2.2209841622843496,0.8240794423439637,0.9406424418539144,0.6447042257417027,0.7967314968165159,0.5682363442555579,0.46172819803687765,0.9412618735745795
4,1.8846691470618577,1.344026954828702,-1.1893573775132853,0.8736739815413411,0.8502996264146079,0.7402451396571444,2.9588458519967102,2.7056466104380905,1.4459122888283051,0.9625715157773144,0.6447042257417027,1.7867719277170158,1.2102945688501117,0.7106560453482885,0.951863762947213
5,1.7251412263160746,1.172680427748705,-1.5820122804430774,0.912001331009691,0.8936610558567034,0.6095330067694722,2.7516647603574413,2.5129027781229194,0.8184798182702286,0.709893383887687,0.6468212168108125,1.4104959831547434,0.6881510308204819,0.4086415867059053,0.9503587167346434
6,1.7930354044189367,0.8048676749379327,0.12474679076567918,0.7914567738013142,0.7617360094231153,0.45395761000771845,2.5586572620862684,3.5510788461594567,1.7456298662390692,2.939160269743254,0.6097226960127671,1.4890410119501607,1.430553604622907,1.8325299823716867,0.9490055856740433
7,1.4064454209746604,1.4540097869564257,1.422904031414737,0.35933566786493115,0.3550178825762781,0.39680345701349956,2.0067106010506555,3.26474120538588,2.1818360614974575,2.258308243969909,0.6713451011121618,1.3121355966053287,1.7585597154221173,1.905538555351477,0.9273573510989328
8,1.5225578595627083,1.9860498477369546,1.4859007906620159,0.29876558499309114,0.300629142579748,0.3146026340983679,2.2178486873866743,3.35373521992191,2.2457676393840327,2.826979914751535,0.6180765742263259,1.4851575119237632,2.1047819943352697,1.774992609370988,0.9648696389729811
9,1.1746161457256896,0.8163167307456516,1.0021261990478951,0.3005320855225746,0.25584662870037866,0.49438534105297,1.7565139446470768,1.7604924546946947,1.1650956940872734,1.300666928759656,0.6153451465759925,1.1188830255104691,0.8996934003981044,1.1115765244548241,0.9531879911394402
10,1.2808360240013907,1.1276360685941604,0.8244150045906613,0.35912832231439573,0.352198677477163,0.5320519811094562,1.840675757943308,2.2301077749413327,1.4816869963382768,2.309768359861714,0.62595550513784,1.1925567348446513,1.2204634561432395,1.1409399452266746,0.9396436192684919
11,2.0994787162313004,1.7995438682849776,0.879833674345206,0.3511125435024489,0.3388200550406924,0.4480984450830533,1.8864956064401204,2.0611115890507508,2.0571947222098426,1.5517976139776968,0.6403206450210053,2.0881011503178653,1.9486036324578209,1.2181274718326118,0.934913209761338
12,0.8612628542104453,0.6055664761410489,0.621265560448274,0.21103373620254545,0.21206144103125707,0.1887600863902135,1.3151255739631507,1.6143333713121728,0.979594117401982,1.1773669744356678,0.6207552362147116,0.8332013878625596,0.7151936895648398,0.7319937411695889,0.9693667356888308
13,1.6381414036036646,1.8240290894027409,1.2799428440051788,0.14516110362951756,0.11780022429920883,0.2633808447198943,0.5344583425126797,0.9883503346589902,2.1160971971857916,2.8662798414137316,0.6602640781246099,1.658219743304921,1.8602607989719668,1.711140292984914,0.9193862382900487
14,2.1674248343172637,1.9744441996445223,1.1751276756290103,1.3244648856795087,1.312882593467726,0.9368980361880058,0.2638871020103857,0.49673418163112665,2.104478144177853,1.3645443983453276,0.62595550513784,2.1631130477074514,1.969279582152179,1.1998262883640873,0.9136849844122183
15,2.315030975436856,2.5395976642854343,-4.85462863972229,1.4715658699909875,1.457792212404943,0.8689963446301208,0.30057603953556244,0.6106134755799455,2.768385333298336,,0.6284777104787076,2.3135336997366025,2.518955408976179,inf,0.9046826808794869
16,2.326918159483471,3.0604895625327577,-5.387407722016229,0.022340379843483554,7.446793281161185e-05,0.6504293595172015,0.4863038889996908,0.9047069050784244,3.2549504964956113,,0.6547956803312163,2.3258537199334,3.051025969117739,inf,0.9303320295920099
17,2.2996427117658,2.2025281911442227,-3.096250616597318,0.2127916518130287,0.19391232521147253,0.5611184601061311,0.40278420209570176,0.7024156364044316,2.3467993415725505,2.7248805247418404,0.6097226960127671,2.2971554159612686,2.1538640901995643,2.4906373244969853,0.9571813168802015
18,2.6657567855658173,-2.6657567855658173,0.0,1.1389197855136866,1.0964706756086364,0.8525161099834412,0.9506925917593478,1.9165093033252902,,,0.6038851895711802,2.662758211910503,inf,,0.8767911923769778
19,2.529358982121241,-2.529358982121241,0.0,1.5681644465596791,1.527357085732796,0.9022587531878417,0.963696990665487,1.7786328316385465,,,0.6584896970785714,2.5246181500242284,inf,,0.8844154538921898
20,2.397581052756058,-2.397581052756058,0.0,1.543787052076671,1.5307885141373534,0.9320053927104487,1.0524909701423748,1.7420473277987945,,,0.6380535849069913,2.397262139935954,inf,,0.8993133250026966
21,2.831022811876077,-2.831022811876077,0.0,1.4362761078739321,1.3965759157184932,0.927564750792422,1.1669264286466945,2.612085006475545,,,0.6425374456860184,2.8262708324896413,inf,,0.8894155743615834
22,2.6829577159393936,-2.6829577159393936,0.0,1.4807607828868568,1.4449572718340493,0.8824358394048707,1.2898687221778338,3.0119104107137487,,,0.6233814453054027,2.6796247269185063,inf,,0.8791367433422219
23,2.713427287285215,2.4482415460842515,-4.836666855951373,1.4264256340147567,1.3930052302876257,0.9036448039343609,1.5301310191928683,2.253781596036883,3.116172758023512,,0.6403206450210053,2.712560356580096,3.018250790464024,2.8435404582120656,0.8609678247952683
24,1.2982580406061222,1.0025486178798824,1.0983268272641649,0.16280166969132606,0.16478434581962723,0.1532610553288147,1.3413329292801626,1.328631287453566,1.3102590821106517,1.5262826919396206,0.6468212168108125,1.2646275191877545,1.1142388460376622,1.1962876568990655,0.9439720716230119
25,2.129552095545968,1.6202963082147126,-3.1632116089313036,0.18043082020570633,0.15206845158787155,0.4350890545799184,1.230102085265511,1.1007498838817202,1.9234102685782175,3.9303405946328698,0.6153451465759925,2.139238728137566,1.7066844755860562,3.5011987350423603,0.9194452907918423
26,0.8999718055220338,0.6419582663657794,0.3520310420354149,0.08467349851939517,0.07697565220576658,0.15628565413260978,1.6388284006679408,1.2076711376537919,0.8984655467131518,0.7392920426842534,0.6509067234006624,0.8751487885429798,0.7036521544292307,0.39392100701216803,0.9844560981417224
27,2.4158673012669127,1.742525595486943,-1.5403429899016245,0.08467349851939517,0.07185523436058036,0.39274455607408704,2.1194892491809494,2.113522193622902,1.9445969654657338,2.6149956086487935,0.648888643467878,2.4157537910996836,1.8537381241683712,1.956289483752262,0.9323940631092666
28,2.6950149719906857,2.8541308863278596,-5.549145858318545,1.511112304848021,1.4922892977076376,0.9152784080127376,2.132237451538171,2.361362337065129,2.982376377957937,,0.5915533975974677,2.6884109858498615,2.8110710252936095,inf,0.871432437386206
29,2.5794816501380633,2.164517424941837,-4.7439990750799,1.507050689505324,1.4866823807588456,0.9217949119958925,2.1024166623988103,2.9758640255510977,2.184851250098845,,0.581717464821069,2.578777865398071,2.150444969259999,inf,0.8751979725234842
30,2.5298143376231375,2.7811686125766775,-5.310982950199815,1.3990408493673803,1.3842308388971256,0.9162956757245204,2.154629779077821,2.57489472433116,3.091494058253124,,0.6403206450210053,2.5286495727359193,2.732586118907586,inf,0.8924580185291914
31,1.5949870075870205,1.1712495311737134,0.5440167197451546,0.6294558385841365,0.6306816312522011,0.42299403019255716,1.3861857602634955,1.1993273449857886,1.309108358685128,0.6301722554478816,0.62595550513784,1.5935645632778104,1.1731746341730795,0.5488922958816189,0.9420671201337547
32,2.061158352487645,2.1036605204719905,-0.46923894902689245,0.8105290561463728,0.7941338306591934,0.7137805054853844,0.9124877836623354,1.0620773992870733,2.56446568596703,2.6289499975230806,0.6333676938231112,2.057636563129166,2.0474319624559105,1.5499237849016927,0.9410297018012986
33,0.8242504001998514,0.3029947644425921,0.2871656773512157,0.24794513350417616,0.22507595365878438,0.3332579519831323,1.0671268449335858,1.0012163861457148,0.6543907196141436,0.6250171868150333,0.552929491858785,0.6999480317904492,0.5100055849545679,0.3686318322063187,0.9495244237355943
34,1.66520574185784,0.16590099876321163,0.14260150163347052,0.6420782978357662,0.6283505997227478,0.494439563928634,2.4721141524100645,1.946176603635195,0.9096361174800761,0.6895823516327149,0.6357360191111145,1.4288307874017363,0.7610210356050698,0.4807420410514503,0.9415796460839064
35,1.5667235535873592,1.3547075316923478,1.446797404943518,0.4467760645540904,0.45363810943897265,0.31246658552272033,1.5649590917553915,2.1521477875709767,1.908990235518888,2.3192462691366558,0.6333676938231112,1.5491793706886943,1.7369052038729567,1.937331483813268,0.9474490638564765
36,2.853368530260449,-2.791411646733537,-0.02604735402204334,0.06698765724152846,0.049965898538006856,0.7552211643035258,1.646463201505597,2.330562283225546,6.253668187565016,2.295884919223482,0.6333676938231112,2.8446338662223107,5.997981725628555,1.466337068793427,0.8886969637007281
37,2.473764673637955,-2.473764673637955,0.0,1.6084360056261118,1.560885860303987,0.9436349106906733,1.9229843477091677,2.6492355774177083,,,0.6403206450210053,2.470609345087176,inf,,0.9067769638860749
38,2.8437511580042187,-2.8437511580042187,0.0,1.502316857941111,1.468977947555698,0.935610919874748,2.0947076805360383,2.4597121488626916,,,0.6713451011121618,2.841581593726733,inf,,0.9019541797375061
39,0.7112556466716339,0.04076487552584507,0.015300639126656246,0.2778206038480492,0.27554674413118213,0.27813421630470153,0.8608239118062427,0.3890991410603215,0.2499883845126785,0.09797451276842052,0.6284777104787076,0.5787872811053184,0.21688493272202955,0.06726207563577652,0.9583469339930635
40,1.0957256971821359,0.7740391047541726,0.8035325960238353,0.21589812025071783,0.19426871144245475,0.2379072668738331,0.27466328353837727,0.42632875444206086,1.092952476571636,1.2589470428395757,0.6602640781246099,1.1498354100792445,0.8485383085118096,0.8950025483254092,0.9335867403509613
41,1.6679180693427749,1.456768975078087,1.4970894885829935,0.09310611610711308,0.08090084141035293,0.20430111065598805,0.6984819974437277,0.6724970229800693,1.7389533662901744,1.990196584842677,0.6652988471865258,1.683622810623477,1.490970348095488,1.7227134500702876,0.9371454765583324
42,2.5843548485860124,2.1583191738996774,-4.74267402248569,1.2784859855144903,1.2644180628112995,0.9196672457195769,0.8186078715166422,1.3089811514092136,2.289042442062045,,0.6668815377411301,2.5795104124969788,2.092274522573097,inf,0.8710675359002225
43,2.5104469324720973,1.9895129947974604,-4.499959927269558,1.387030812860821,1.3482952136002173,0.9258912651449545,0.7445647727242212,1.2011434131106036,2.354285255787602,,0.5883313578629602,2.5070159353761015,2.130907037083798,inf,0.881268293886797
44,2.4180375058377717,2.8209625616142118,-5.239000067451983,1.5197965522905252,1.5185387082893766,0.8267515203017874,0.4092097283444381,0.5529557642311573,3.058029611856272,,0.6619902821573977,2.413268391535206,2.801934068302324,inf,0.9255637118501242
45,2.826779424377474,-0.355597851973382,-2.471181572404092,1.4795080713005313,1.4228322647662335,0.9343635190855005,0.48732540197721363,0.7942305712399929,3.9656468198425987,,0.6233814453054027,2.8102675136545034,3.5668595142654635,inf,0.8981887773823921
46,0.6184044529602533,0.4283909200712146,0.6510854929733823,0.1740656785227582,0.17445651753151284,0.16743945636534235,0.4202555473239386,0.48172200237209667,0.6412113772765775,1.1157062612376156,0.6380535849069913,0.5829981481703219,0.501974254793753,0.6763225254601605,0.9703670357727363
47,2.048842656739294,1.7883802997896692,-0.04995108049804875,0.18043082020570633,0.1546544644926279,0.4672444051257441,0.3839648861592514,0.43348350549552195,2.041986729440339,2.5003680478202885,0.6333676938231112,2.0727087026386517,1.8222387019992397,2.100971492819471,0.9556693055117804
48,1.0245343333041084,0.9306060177405615,0.7438684228156991,0.11826719857387902,0.11876484798388534,0.14705702237368667,0.8269389778975019,0.8216210571788113,1.2060676971253912,0.940884190859599,0.6547956803312163,0.9994911978003026,0.9791602567364684,0.6413878692427258,0.9700755749499499
49,1.9486761100398047,1.7311686143932101,-3.6408712022322187,0.12463234025682715,0.10161776330602006,0.3922991329692058,1.0272093450355129,0.9112961325070257,2.0468738487690517,,0.6602640781246099,1.9675424491824272,1.7397272967098578,inf,0.9109559242808191
50,2.3589728920695903,2.2570589436337194,-3.9277923541120527,1.4917974832822383,1.4667660290240758,0.9408293948137373,0.6264572100273487,0.9124394635133017,2.4584676555664133,3.8700410175129423,0.6180765742263259,2.357628098829243,2.2083213740055667,3.258096538021482,0.9197813385120075
51,1.5897752267528276,1.2981432161940154,1.5449832150556073,0.1405401224257846,0.14177574382783933,0.2206633318243176,0.8650828051877498,1.047475843398788,1.671549340747172,4.212807531405542,0.6403206450210053,1.5585863822766668,1.41974265437864,2.526602579255729,0.958998528207383
52,2.8263175123329773,-1.2629851611020866,-1.5633323512308908,1.34530446841339,1.3367729789076908,0.9163074636641315,1.4470103189681875,1.6467670318350218,4.450665750645713,,0.6509067234006624,2.823087011090568,4.177758690957581,inf,0.8738790731509831
53,2.6522195471231114,1.0409324375560534,-3.6931519846791647,1.4322656895138164,1.3848319818728003,0.9233218210016914,1.2715047118551237,1.9660613211369944,3.837349732999452,,0.6447042257417027,2.650882528045869,3.1769525952803113,inf,0.8850407934011155
54,2.095010792874961,1.641012959056495,0.5063088835659992,0.12925332146056012,0.11945051808507168,0.3899790053763082,1.317338935371711,1.1191511788297648,1.9094107146400754,2.3190708266922924,0.6008849035917525,2.0781090964460573,1.7190982345535073,2.1507721041686785,0.9556465619382843
55,2.1160285887326493,2.934699231216997,-5.02956753406232,0.106969059718312,0.0821352130178137,0.6915687829743549,1.802841781897803,2.661585774754742,3.717067481782324,,0.6038851895711802,2.1231380339835213,3.2160013270847707,inf,0.9140215073713264
56,1.4059021292265979,0.30194243845032376,0.4384043519765848,0.3371399435445514,0.330955638556185,0.3618336089132329,1.41928627608586,1.0617975731332243,0.8851509406106082,1.0402859286171804,0.6468212168108125,1.2698356587960309,0.651425239042606,0.5472476061397272,0.9440236187683165
57,0.5264862930499615,0.40259257182867264,0.42991325366298283,0.3359143051598429,0.30046421373346494,0.18674243054463696,0.23631061640902506,0.31351073058046974,0.6594649650223029,0.8655153015613014,0.663668482632973,0.5985241054448602,0.48224826509491847,0.5141601445805817,0.91628903507126
58,0.9420614642213283,0.661783384411626,0.7012868575981119,0.1469052641087327,0.1252087014158462,0.10289927924857148,0.14481789740311565,0.22622706554600025,0.9129803391289499,1.100985686754236,0.6357360191111145,0.9289539058275524,0.7187629411503325,0.729472067578611,0.9634731241116521
59,0.7585540026596024,0.37478396039551387,0.38604150725331876,0.12288817977761199,0.12384166626558102,0.13535258420709712,0.17477699304736619,0.2257791404090742,0.6265876654199688,0.658633924380869,0.6403206450210053,0.7183054571105069,0.47286081316821066,0.4154423151452232,0.9703423454989436
60,2.328631448680313,-1.289068912524851,-0.9666850363649885,0.16482371611529226,0.1308567804782158,0.642464470054811,0.22442907874885623,0.482623505475976,5.261981867996745,,0.6602640781246099,2.3322427890143076,4.826826918248735,3.1498829533812494,0.947539175167065
61,2.516505868641451,-1.8706131117360218,-0.6458927569054295,1.2872635665240288,1.2688088199849463,0.8565729617865855,0.28492841734495383,0.6356274253623078,5.425131893378571,,0.6284777104787076,2.5100193506030757,5.342197537219913,inf,0.8911503665954097
62,2.674313035396539,-2.674313035396539,0.0,1.6185764838989967,1.6006520894985212,0.9201023287282835,0.3795964021909867,0.8503394702405311,,,0.6309483474627791,2.6538777222138172,inf,,0.862922024183761
63,1.3251810875115502,1.9692455499520265,0.671644449457685,0.11539037784936122,0.11578709042205737,0.14368488178480346,0.40678952156561704,0.6627783281142192,2.493730483712545,0.913826268933729,0.6180765742263259,1.3007692732961758,2.04688734143795,0.7387197778387983,0.9553418168673793
64,1.676131275933931,1.3828943297079102,1.097929180929897,0.06236667603779547,0.061356265431711694,0.3025529700553503,0.48183247430163184,0.6331087775724202,1.6249590372011293,1.507400494893527,0.6125606311107803,1.6565295199679508,1.4020242311684492,1.266462628820702,0.9679853970090158
65,2.194184902223909,0.4838841267668741,-1.2251190122981295,1.535582005156618,1.5104797666243368,0.9369254029429767,0.4972367352789285,0.8196073031367017,4.214716040098071,1.46415157537739,0.6180765742263259,2.188958832919187,3.8433277087090505,1.0445450673978338,0.9169890503420048
66,0.780297373184309,0.4355755797521411,0.3348657391058163,0.08467349851939517,0.0856222928351376,0.09773429989567517,0.27475877981436453,0.3391987962255213,0.6667663918849871,0.5976600294867722,0.6468212168108125,0.7594294433539257,0.49346131108349595,0.3538840405771952,0.9709937267803825
67,2.0154340032992852,1.5682929785318944,-0.9783397882391287,0.08467349851939517,0.06602341855555631,0.3834349538056322,0.1019501064252525,0.1917334031442035,1.9933544480184848,1.93012726071043,0.5677978065141052,2.002645123146763,1.771066266483871,1.5677454695780204,0.8824146629195267
68,2.4438594829597906,2.2159280395592416,-3.4562192655265553,1.4935378337735825,1.45709545767089,0.887182030398686,0.14674507230665754,0.29651802637718844,2.5701222518439093,3.5212930042694826,0.6468212168108125,2.4123999590012524,2.316822875656818,2.3878826735059406,0.9197306367763465
69,2.4002458621979503,2.1293288659652907,-4.510456964785706,0.8508931188950433,0.8341175792420912,0.869621122539075,0.2518628180331317,0.5110130114869467,3.2841678789683755,5.713611602836847,0.6684167106117298,2.396407491205586,2.9661521440708047,6.045005314036012,0.9126206105171887
70,2.3076887834396773,2.6195596576630322,-4.8890129143476395,1.5020624812504675,1.460520775353571,0.8809322778438277,0.27435948735050747,0.5806505370336106,2.977363591205178,5.4226454551838765,0.6619902821573977,2.3010307460618087,2.9019764406819033,5.511410582008745,0.8754882023259266
71,2.437554688890945,-1.2931336837660206,-1.1444210051249246,1.3977342697376451,1.3810947029752831,0.5940578547239238,0.3182829659589284,0.6459053827725576,4.924255856324163,,0.6509067234006624,2.43358002262266,4.739878422092483,inf,0.9135854308603504
72,0.8282803613702342,0.4425788107233115,0.4351382716058303,0.22688424313739894,0.22529925109065013,0.29140254481677075,0.4641278380955059,0.510471798393862,0.7573007621892086,0.7026402074773949,0.6333676938231112,0.7789955976859829,0.5659009347379791,0.4836652433281977,0.9336231642271343
73,1.2141806129440385,0.6313591811738393,0.5458361805594989,0.28753177437928934,0.28842841617319104,0.2629153154290473,0.4277343156510822,0.5114984582290019,1.0297838942600768,0.9558376386612208,0.6284777104787076,1.1841338668683536,0.8256157884331164,0.6520532946354203,0.9559270914782477
74,1.878044373880185,2.1406498053431378,-1.2990892436478831,0.17293301827745555,0.1532686233685315,0.40704789942193703,0.6958910834354356,1.2104537901392973,3.6303184736802425,1.760161743835764,0.6403206450210053,1.8928328913214911,3.3061420318942822,0.905285118037553,0.9264954377436397
75,1.1094932867026968,1.0754406498447113,0.6500843261454605,0.6457009790420806,0.6419382057445906,0.1342639474056016,0.4640464690117741,0.6245362950848012,1.2976146611936874,0.858144164216377,0.5947193981915972,1.09578296165795,1.0911942992267198,0.6808505325766003,0.9549797927967659
76,0.5123695502728232,0.2891713955542592,0.30114670407372846,0.12463234025682715,0.12519364108366296,0.12244428453911808,0.31351077076114936,0.3571226457929772,0.5025173484879978,0.5464590014436157,0.6180765742263259,0.4859884868410828,0.3359015696115879,0.3078001877863004,0.9680403130856603
77,1.9896183021528417,1.7576505383581775,0.4242376483526167,0.106969059718312,0.08196992294940288,0.43487616060188833,0.3692334651692746,0.6086971160599022,1.9568700749673276,1.448922854675565,0.6468212168108125,2.004457762680726,1.7707060600302227,1.264213940250961,0.9380396878809371
78,2.2769608670479395,-0.44180347283181454,-1.835157394216125,1.3831570943601021,1.3459828164357936,0.8997488435864455,0.4699356909142837,0.9282824533692912,4.660009102165716,,0.6357360191111145,2.2749699259610723,4.190952600742025,inf,0.8784343962056124
79,0.43028163601655933,0.3219529664070472,0.19906555872120446,0.7661719717750565,0.7745359663212088,0.05907927372369252,0.25566240101202725,0.3046997237253069,0.47468669498694555,0.4735825716137719,0.6153451465759925,0.41703174447962976,0.3071246229546605,0.23096182159508988,0.9762989952176804
80,0.947541310750005,0.45003649139422763,0.47988382968895205,0.2185442027450958,0.22063323703275192,0.1170939530891348,0.12722376432474763,0.1333201542452443,0.6797821509391235,0.7396341233228473,0.6180765742263259,0.8660201825342888,0.5121296576441947,0.4918595003706285,0.9658659947087486
81,2.0884021059649758,2.103321808833572,-2.8132140718813683,0.08467349851939515,0.06995734271478535,0.549976283727826,0.15732420682279966,0.3047570389348738,2.258727633575011,2.2611209267871417,0.62595550513784,2.08684666986661,2.0637155723537193,1.8145849965702794,0.9108472818853179
82,2.7537222442138853,-1.6501434376274149,-1.0867870404591367,1.1367005917780957,1.1044816195191751,0.8466308885742846,0.18745307043831638,0.4167677087863557,5.168807036401284,2.826513170285652,0.6380535849069913,2.705719585763928,4.439165486507159,3.56953269648137,0.9034960042815211
83,1.846581304717569,0.36405313796207706,-0.7574659663528147,0.5904768245726537,0.5687317320448405,0.5837491558955333,1.9305998489168856,1.3208861160452934,0.9500205862559358,0.6819440959933198,0.6357360191111145,1.4125014532890647,0.7848231290474882,0.49190386452506957,0.9455823809087825
84,1.8917898064339393,0.3600752838695156,-0.774930437992686,0.6327417565932317,0.5979752404420695,0.6341083614479401,1.8783715957603364,1.5383717616058015,1.0335745642601832,0.9093354235187143,0.6380535849069913,1.4005736037616128,0.8885469882791436,0.6410320358672529,0.9434422069512655
85,1.569670228198947,0.20792655484322786,-0.4874308346134397,0.5382838449939583,0.5426118247921835,0.45589005640856534,1.2885233804255551,0.822432592349976,0.8332855653779022,0.6674964173082211,0.6547956803312163,1.1601331453163601,0.629029698064429,0.4005897191167294,0.9525694578736726
86,1.6385097656531125,0.5940086955640995,-0.21816802481595476,0.42118307594352616,0.4053886072026532,0.5049881090061011,1.316348509657802,1.0870297503927118,1.3764675331098994,1.2675609588719625,0.6333676938231112,1.4289699242894687,1.1104633115199003,0.8991199323965553,0.9387122392038941
87,1.540497027705072,1.0693446464734677,0.5872509865863238,0.24930853197961864,0.2190891381956438,0.5565539965978881,1.4320843404078647,1.1560709118335268,1.4453406426977438,1.927674888362723,0.6380535849069913,1.4559064719149808,1.1855760182485584,1.2924453506526568,0.9494459722448985
88,1.424508284429035,0.8622084370774601,0.5740059681528327,0.360435953305126,0.3485266136281672,0.5374116777625961,1.262913124038984,1.053278159831128,1.3509925626078645,1.7262277660960095,0.6699045166045591,1.2905398356072995,1.0815144327645791,0.9740238140691974,0.954302164284759
89,1.4891612753085812,0.6766701162226556,0.43053707871466385,0.5211775971821249,0.5005933646313648,0.48078629631816266,1.2708133954016465,1.0312981959660583,1.2033933900439957,1.441016999975733,0.6333676938231112,1.2721723397934916,1.0105011993752107,0.9612352339752678,0.945788055266753
90,1.6766534532782364,0.12551631554325127,-0.21666570608309277,0.782632895431676,0.771335540916176,0.682607566938882,1.8091042959118593,1.3395316677146898,0.7921435699753873,0.792727819913532,0.6425374456860184,1.2608175418772398,0.6402360956112922,0.46139941921546435,0.9474583544371318
91,1.8236762803158182,0.24542900907681853,-0.013543596149668602,0.750412825386791,0.7458141865130188,0.5602219787145284,2.0848354491532257,1.602575423734124,1.0949753018977582,0.8992939998886437,0.6468212168108125,1.4515323861125073,0.939641084258646,0.7037654532662856,0.9479443064602454
92,1.671339475429225,1.1712931874890464,-0.3047275918747383,0.3279924047565381,0.32360820614875363,0.5049175221203431,2.1618225547549033,1.974265284430761,1.4654153149199511,1.6906376097142815,0.6509067234006624,1.5227506620418954,1.2411646719017102,1.204090306235477,0.9523054292140206
93,1.1867483541549488,0.5451588460064669,0.2629244226588332,0.4069803298022334,0.39955644999681184,0.5511752286917847,1.8329595136716161,1.769331765708342,0.7269179242346846,0.8557849657620333,0.6619902821573977,0.9629747821260113,0.6115787284545874,0.6221711917139696,0.9366300597073304
94,0.7669158858012812,0.44546296731907864,0.2551387924788975,0.3887968386183014,0.38692333914346777,0.2591972939532033,1.592113974148107,2.0433574168757644,0.6788481243733583,1.014766859024687,0.6447042257417027,0.6823611154216211,0.41525167291340503,0.3980501098402296,0.9592239440469575
95,1.6204832855054558,0.9207098814607066,-0.2379537400738556,0.6218588141177531,0.6017037850031273,0.6031814565792569,2.6031633115896393,2.0732087941585373,0.9799793898839051,0.8452571441352348,0.6284777104787076,1.5233621581881411,0.8657495808117338,0.6238797324442004,0.9441123036145487
96,1.949047141340783,0.34112551934710456,-0.29068019592429883,0.5254222169725672,0.5212726438616127,0.5675373404913389,2.1364451737800225,2.2820718588602804,1.299964748588877,1.4193512373349875,0.6547956803312163,1.6143946210871436,1.1135182091113183,1.0294834182689399,0.9487217877716926
97,1.6780114373816974,0.0812926955221529,-0.0801769817854292,0.42467963498238104,0.40806396265425865,0.5761472245453414,1.575701925185175,1.247826705500774,0.8679946856553226,0.8661754893390862,0.5677978065141052,1.247073627973962,0.7036815727445509,0.6353723964268925,0.9372503069391623
98,1.4147423943760005,0.09321858949360062,-0.356478239007874,0.3283991885489009,0.3301165648389416,0.37765316079217287,1.236553691431776,0.7825596049152825,0.5424545739249663,0.4325196713170437,0.6357360191111145,0.9806218671102616,0.46358413262862214,0.32331624512512575,0.9343755183313547
99,1.5954352872997508,0.38721745876913727,-0.255001069175002,0.5347863577683096,0.5179557868338852,0.5519539710708977,1.3911329020057934,1.0035040018401757,0.9938855512608123,0.920488460937981,0.6284777104787076,1.2095438493753914,0.7919494842569558,0.6311402281851087,0.945679584295391
100,1.7824355272899246,0.7202604859497952,0.008377135808466551,0.43943819198612044,0.43271697487481264,0.5537805025778648,1.6694673023729285,1.5060136852419377,1.3593542346064793,1.2536867198354633,0.6528756675646988,1.497697789812235,1.16697368798803,1.101809222337223,0.9476903742216601
101,1.9060771782456793,-0.04542024950389534,-0.1565924732283912,0.907499268326712,0.8749106604843393,0.5369893975429034,1.6788470955529635,1.3451784956862143,1.0637098008892767,0.9791216427359353,0.6207552362147116,1.3543651235479472,0.8836814483085272,0.6803132225798589,0.9477205634220133
102,1.5136113346578273,0.25580634975654815,-0.30582259533512124,0.7541758423741577,0.7429993041042036,0.47470798511672446,1.2311686650091698,0.9073624120323618,0.7376371677830893,0.6816478322156106,0.6309483474627791,1.0922326817040706,0.5768372897443831,0.4599353669106218,0.9348574870717133
103,1.1355080269626703,0.5424485424074816,-0.4766731403488913,0.7785924323277352,0.7588984450685127,0.6407895928055098,1.1072484746531026,0.6315811858580409,0.4571549378911524,0.295770388906928,0.6357360191111145,0.8760022129600437,0.3654032743686172,0.23277335910175004,0.9442147311254371
104,1.6688020522260407,0.04936655702079085,-0.27325251813417517,0.7593607460821326,0.736595267558212,0.6524332180212891,1.8978673261697,1.2330872318218895,0.7440090871245849,0.6030206989770538,0.6097226960127671,1.2211566414262036,0.587748986636822,0.3930300290033131,0.9485510639143426
105,2.5285280021879126,-0.38933653978982763,-0.8129848472999821,1.126561102241349,1.1176858515527812,0.781378145954188,2.4067647450928193,1.93626035509646,1.304376724401456,0.828763228969637,0.6309483474627791,1.9851824190931835,1.176473265445126,0.6915744410483452,0.9470954360263162
106,3.0466644693076455,-1.0735878045458411,-1.4115171671366442,1.1988544808912696,1.1879350617091593,0.7362562061685533,2.468901353348532,2.2507738888893947,1.9280365568965876,1.4391248368435525,0.6403206450210053,2.43231419966883,1.71472815155372,1.2060832518204818,0.9457856695106489
107,2.498898045333217,-1.4835318022736992,-0.3036696073384152,1.0164053885133444,1.01296840224343,0.5546776012782075,1.2916685354987962,0.8663183671080039,0.46401507647338813,0.3644481541505163,0.6668815377411301,1.2941001419938232,0.39263886938951004,0.2647980502037817,0.944269799673622
108,1.2394810180908347,0.22499673823357802,-0.043055865530183146,0.4557626409986828,0.44148587806200396,0.4496967854902279,0.5783050833683394,0.4048083817130954,0.7446519628743455,0.80836470766192,0.6447042257417027,0.8996248272316592,0.5669159660158891,0.519774770442804,0.9497411089985197
109,1.2375057138401342,-0.040571793400631107,-0.09071767522928664,0.508249488070438,0.4829072626121525,0.5399016964012944,1.0599394731407024,0.546226689007852,0.45029135633543277,0.3571342236490797,0.6284777104787076,0.9034841978269367,0.3518208880013134,0.23289896179173386,0.9447601081204502
110,1.7129637396982094,0.28883841951795297,-0.666072457957799,0.7921816530795452,0.7864181249619426,0.5871366685677828,1.8557021001815228,1.3860749472736693,0.8170788886930914,0.7167552816769688,0.6602640781246099,1.322964903938992,0.6905224524621104,0.4676929116460841,0.9510408188760213
111,2.3044366675428996,-0.1802720541532894,-0.9434572797589889,1.0312679331904535,1.0174223355981478,0.6473858754369793,2.065723708619214,1.2736295179118833,0.9034750572161985,0.5186087330328838,0.6180765742263259,1.6078280977702017,0.8027134700624917,0.45806869828195856,0.9401608212318859
112,2.103621417817037,0.3138271063585534,-0.8686530523416722,1.1779839585565521,1.1572507744433806,0.7493870804133621,2.1245104269761215,1.8426766493091584,1.1427322449231059,0.9868085129731715,0.6068309995095971,1.6547840142009773,0.9863866580616881,0.805372811166367,0.9455159841522693
113,1.2189142221729787,0.22693874224121502,-0.5938138675183124,0.878918690943334,0.871460211746002,0.31016353029509225,1.1604026678583075,0.7277262367701862,0.28084389785722125,0.22330888402159324,0.585052858160615,0.723720942142952,0.2382065976253053,0.16700650878624135,0.9127949823835793
114,1.737553337960943,0.7076467520178877,0.6721730054732546,0.41383175975687725,0.4024637481548574,0.5418529925103645,1.0886327680165855,1.1086435415955853,1.358025394913113,1.5126974061287293,0.6207552362147116,1.593947401205317,1.126344086319247,1.1287567187421936,0.9469970080868078
115,1.3889469881504024,0.44164101203387895,0.21812242365891876,0.4219250962530905,0.39471039259539487,0.5271689684357895,1.4223674435946563,0.997320574724597,0.827780968414302,0.7686779448911223,0.6547956803312163,1.1828638411157009,0.7254294443683057,0.5964079916321734,0.9440470531830981
116,1.274039977195094,-0.026240489712832105,-0.13371321371746614,0.7211339163238777,0.724053558191321,0.4710475719147445,1.085413676168262,0.5003153339028532,0.40264382681311744,0.21119713932934964,0.6425374456860184,0.8640409506215995,0.36089070472518003,0.185564327807964,0.9467444354710994
117,1.8027696897408185,0.5890783413145668,-0.7586383006134476,0.9655443568164326,0.9663408806302328,0.6538825054307783,2.2665801815596622,1.2031697699624653,0.8972620716058745,0.6000074785205062,0.6425374456860184,1.4962580477241425,0.7810925740913618,0.5470461471571274,0.9316102457163924
118,1.7702394289902454,0.3915327086106013,-0.9744308163384925,0.899676523590046,0.8959831334414742,0.6064658681103688,1.910027118061377,0.9477800857106087,0.6109551089499833,0.37596227572996793,0.6547956803312163,1.3067440823618817,0.5444115968228298,0.30339262387107174,0.9435771038848486
119,1.549215104463615,0.5484048949050961,-0.05377344870097467,0.6569713747670903,0.6369485769474857,0.7259493684150534,2.629945290552424,1.8708777144572926,0.7881736937309529,0.5110332385365881,0.663668482632973,1.4146481119498497,0.6228414072652108,0.35234940440054585,0.9375758580083056
120,0.9857632484549125,0.4574270555339227,-0.011479512015509785,0.4470196154546585,0.4399031635241879,0.45476737268223333,1.360839687485949,0.8439030306947359,0.37037319992215334,0.31693057325813795,0.6309483474627791,0.7629737327954742,0.29513661256330564,0.20915730933946983,0.932739025855029
121,1.359180436845238,0.2812922593906777,-0.06593154325286887,0.5264672563250092,0.5256403999813312,0.44651580979453614,1.5293248369458816,0.8298199629768115,0.5591562168280012,0.43217631168281223,0.6097226960127671,1.0511881364333777,0.4733981369744368,0.302938552266983,0.9405247752101937
122,1.0184913981903623,0.3179437679074918,0.23733937553554085,0.40458673637561515,0.40280512353692616,0.4059445598533027,0.8812477358436545,0.7362818749161463,0.7783991653641132,0.8029205468765372,0.6180765742263259,0.9286726276978852,0.6259089012521569,0.5718118676255859,0.9476412567243024
123,1.0572100211264106,0.13081386884951374,0.2655622714720447,0.35410943702902825,0.3417731958353511,0.34976600689656184,0.5465441478953271,0.5111405215349816,0.5785459481913918,0.6963065780495223,0.6468212168108125,0.7731528518822989,0.4348651603127419,0.48879497972406066,0.9432924409849502
124,1.3781426673067572,0.47104835352011554,0.3992922104514234,0.3263038444315032,0.30612008631918514,0.37147034527547884,0.8863805440111933,0.9591991897871925,0.9666531910817989,0.8747131445784164,0.6068309995095971,1.208315553760073,0.8189974868588733,0.639435281126158,0.9558773244603945
125,0.800248656509799,0.2625342226787568,0.16224400677208028,0.3558067266275612,0.3417168267758701,0.45388862015156295,1.0563632748531218,0.9477448217036886,0.4384116321425164,0.4794569224148575,0.6528756675646988,0.652090546902939,0.33730865679185446,0.32790821188163005,0.9550268700099183
126,1.2586648161821665,0.7453937937859623,0.6388501613613544,0.2396156170202637,0.23747426196060148,0.45482046722492614,1.1779208547346143,1.0451081940147025,1.0108404497926153,1.045128669544871,0.6357360191111145,1.1964456490168727,0.8623221851723307,0.8159274443219536,0.9563927080638072
127,1.1373225289767293,0.8901836618116135,0.9940276993575061,0.13591914122205162,0.13680129169994387,0.21833088028872114,1.1329463540297602,1.2554222704019395,1.1295709325863348,1.3351607161787915,0.6403206450210053,1.1114273857149535,0.9518783740554787,1.0597549622834737,0.9541563403737116
128,0.7492017637627113,0.29322562755469006,0.04519372868587146,0.2856430360978657,0.28261246984654803,0.434038298442648,1.2622975768546514,0.7045968643103482,0.3710632047808439,0.3199681812719392,0.6547956803312163,0.6277756731184823,0.3075846214760236,0.23117401055906242,0.9587559274968307
129,0.8533862656161685,0.09058226154349724,0.3120520027204675,0.3058823988924419,0.2815544038107134,0.27681756533986507,0.4220321197079838,0.336469178831716,0.5368061064912315,0.6145867745898342,0.6790044388599258,0.6613040422605164,0.3977670717870608,0.3752470383138442,0.9504470042077889
130,0.7526285861557727,0.6003052429430772,0.5781899239975119,0.18043082020570633,0.17258603108967782,0.16283090670381303,0.15506608693323878,0.17427774640042046,0.789661571153719,0.8188051578740414,0.6038851895711802,0.7221412534022694,0.6363650200547859,0.6091951456009153,0.9360971239347855
131,1.863076324358614,1.7672060980123605,0.31053711694919084,0.08467349851939515,0.07051148134458582,0.4343997617414473,0.07113286671606096,0.10973997995187516,2.030436229456705,2.5657518984136174,0.648888643467878,1.8351542148805793,1.7792363872426178,1.955443900023265,0.902735449164792
132,2.5107851611119676,2.171411860924011,-3.003746973357722,1.2484893339434437,1.257953703108124,0.882798806445374,0.058826864023314614,0.10838928812464982,2.3970436502868435,2.421546442451945,0.6284777104787076,2.498059436366301,2.1410123012974718,1.9727026660518885,0.9352788284108386
133,2.408217282020988,2.141485325649947,-1.5667046246565377,1.3212570857117758,1.3038694720919748,0.761775595398601,0.06837918043620221,0.12178663579742997,2.3719125545900184,2.4782064760174363,0.6566669596287297,2.400933216011822,2.0062972730253503,1.5886884084201904,0.9113748576922356
134,1.3071098512423442,0.6413557022073064,0.2701611027278923,0.2602946548662997,0.25786708938108055,0.4667661021415376,1.033159886388927,1.0403150601002396,0.7712985526673378,0.7203135867047556,0.6180765742263259,1.2510255897233993,0.6656925989101345,0.4874075644710306,0.9479667620177742
135,1.2759502337432134,0.7224763034666053,0.42523499014645516,0.3659958530953685,0.3543765312526674,0.3577497378492972,0.8791782255404089,1.0094774279250813,0.9777075885600264,1.1395940123376915,0.6309483474627791,1.2163453255744514,0.744622061302175,0.6498048747611131,0.9601497970701335
136,1.0407285121401928,0.4186648146227703,0.22370636349631656,0.2617858981715812,0.25724651414504524,0.3744402452563832,0.6302555024884896,0.5577658134142354,0.6748853512566658,0.5261655977748741,0.6068309995095971,0.9538195437665692,0.4962432647034667,0.31837083545452255,0.9488683025651417
137,1.2246650947962248,1.1364527930389674,1.0769208282317826,0.08467349851939517,0.0808597026618118,0.14948217732908034,0.08523505819637206,0.10862241417962537,1.3154661645535872,1.368998623082734,0.6207552362147116,1.2259154977086524,1.1552319177884953,1.077679079001644,0.9510882696938066
138,2.504572600666257,1.1066988761066212,-1.5195409545523253,1.6580558036999198,1.621642886561525,0.8376079041989529,0.09713903424773987,0.14591473228956775,2.354813271712678,2.202660474847881,0.6125606311107803,2.3258537199334,2.080465607309526,1.7701370052148893,0.9463258491053156
139,3.0845890320602725,0.2168328014829366,-2.5902634298662375,1.4617333560600494,1.452789874735173,0.8601686371144938,0.1196367238262508,0.16337777959824035,2.657659683757308,2.8539958159794843,0.6038851895711802,2.9380924941075763,2.3895392601092356,2.2732707053252703,0.9306764629456373
140,0.9990966411967965,0.7670503862444931,0.5267032382103889,0.10060391803536387,0.10194107152417328,0.09706878499210789,0.5824781848338291,0.6331651026204799,0.9712059402509402,0.740882765496702,0.6619902821573977,0.9830836440946571,0.8122823207275096,0.5431917886306965,0.9767152156740285
141,0.9676324945118264,0.5827303201495536,0.49557878879242123,0.301952874573225,0.23364274676615968,0.3078645497919516,1.1704908165820131,1.1686729684141273,0.980976689488386,0.6692343922147272,0.6602640781246099,0.8692481255408437,0.8590358874029049,0.5760804399503744,0.9617131558598099
142,0.8743764249624197,-0.2999059115508558,-0.1057445915256714,0.5226710611199346,0.5211271767608819,0.3985993332311833,0.7326119195356251,0.3566326590694405,0.1702648059698268,0.12234379648261574,0.6790044388599258,0.5068704926560074,0.13282017939653384,0.08912974363029806,0.9449866294005451
143,1.3477188051286282,1.0927194775560525,0.627538236143625,0.28880672673473023,0.24633684354626806,0.4137670545250102,0.7293390466753847,0.8633844479879872,1.4153321845234836,0.8967900865059939,0.5783247308855777,1.399582255446826,1.1755409022797525,0.6782290966715954,0.9334965705826597
144,2.2899893479657027,2.317107405221602,-3.2799735176349403,1.216804934953996,1.2245611447718603,0.5585707622633589,0.18533031336764835,0.2055101227687899,2.4973016736795675,2.8058405994809323,0.6547956803312163,2.262403303361214,2.2699295586746113,2.4325808307862604,0.9507188139275617
145,2.6867760194433665,-0.9574031582098126,-1.7204169411687427,1.0357534992446056,1.0190042003920923,0.78467399496863,0.15669493051180702,0.17634439904218815,3.53202454811552,,0.648888643467878,2.675905747775643,3.34716413874767,inf,0.9296282233101397
146,2.63841751050461,1.5098122872222857,-4.148229797726896,1.4051709521314024,1.3847379152279569,0.8756207828952441,0.12653123934710075,0.17107745757405407,3.1285069116933903,,0.6333676938231112,2.6340255657542366,2.9358089363922257,inf,0.9154901589880168
147,2.3503890122047886,2.1190097544441,-3.5326283611496776,1.3952098889053197,1.3938030271097575,0.8809761960915308,0.11147771506012384,0.16512324368424336,2.5152614360829184,3.1742230990053346,0.6447042257417027,2.337406607936082,2.307428834444441,2.870909208821253,0.9351263959522049
148,2.405221352028554,2.1795790527586973,-3.48896073630938,1.6311046656222954,1.6209276188046924,0.9099203685069489,0.10787234623028562,0.19571469488425672,2.5281173091754656,3.004536286319392,0.6547956803312163,2.3957974747162245,2.2700667799441234,2.5828176112923824,0.9150778540714294
149,2.428203420977677,2.383717390098226,-3.325387262128582,1.5769642858784216,1.5525382322362282,0.8651014669007755,0.1190877009440251,0.20921884157449322,2.647918971857404,2.56182061605857,0.6284777104787076,2.4232472694012728,2.427539323753087,2.174751721484161,0.911792363957298
150,2.269338943346463,2.336909384301858,-4.324133871485699,1.5044383376686563,1.3981075910858038,0.8675033082986324,0.31463142127692156,0.3411263021072736,2.540056500858232,4.5110039864362514,0.6528756675646988,2.263684944036489,2.303333475987226,4.007333185232471,0.9304031539687985
151,2.5443111859180796,2.1403526960213055,-4.684663881939385,1.6980121083627318,1.6647668267274716,0.9029851812572706,0.43142236523528643,0.5771045604728781,2.338295068812999,,0.648888643467878,2.541970950409678,2.086809101217547,inf,0.9030840297349924
152,1.2552322184183078,0.7518805794486785,0.590169249756086,0.21103373620254545,0.2085583365678211,0.3007823998643381,0.20656423160013496,0.21103141413127371,1.0412305567765987,0.8287297683413299,0.6509067234006624,1.2013466261229757,0.877206421495745,0.6385378981356384,0.9386864533639379
153,1.973992817999699,1.5542855331409888,-2.1600406909773913,0.19517169521930086,0.1767493628925342,0.607278821536323,0.13252637295778288,0.23340426134134315,1.995470717747365,3.1865561384798924,0.6509067234006624,1.9926524116074449,1.6341916515870387,2.890371757896165,0.9171309543357015
154,1.2921356295914848,1.2419400292969511,1.0498876851046197,0.106969059718312,0.051203193682093584,0.1885518043373985,0.1829791651758105,0.27371604611551376,1.456364501159736,2.2139813039196987,0.6125606311107803,1.2749517737845169,1.2950771294203185,1.101665726155,0.960216250582405
155,2.176126783596027,2.5509358519358347,-4.109814920366192,0.08467349851939517,0.06681107584113496,0.5927520614583107,0.25343462104310494,0.4121669247511323,2.6787357881540976,3.5400395131822497,0.676637947632344,2.1796793981204705,2.5495434365375997,3.0147804685246853,0.960625402347734
156,2.449003024828844,1.8010940784773286,-4.168253782925279,0.08929447972312814,0.06501185729070931,0.5147222223694546,0.38382093754254387,0.6994880131670087,3.6586952039075653,,0.6153451465759925,2.453924912179272,3.4940545229889715,4.360973225476049,0.9583949359465983
157,2.465410538601461,-1.284429842176673,-1.1289907925325666,0.07830835683644703,0.06540512470589116,0.5736635399400257,0.36712947837324,0.6973267006500395,4.351747762777617,4.568010804732819,0.6207552362147116,2.474428405500373,4.096854636860551,4.836281906951478,0.9358042040856585
158,2.311481758323429,2.1145310825754255,-3.613253004665658,1.3834558023502375,1.3741246722532092,0.8028296980144637,0.2951790270382583,0.4162059430005409,2.477561958269267,3.7230012748636274,0.5947193981915972,2.3032519819817496,2.2373796828687706,3.016785682751823,0.9426338651853716
159,1.8234708207584873,1.5040726563829316,0.9277190472587002,0.06236667603779548,0.059798946096808844,0.3203727512560233,0.1759005027336016,0.2389526301518683,1.7539143601517182,1.8048158938935672,0.6528756675646988,1.781017372696153,1.5074467389787631,1.419600497475808,0.9247552579721284
160,2.1166039848008498,1.974959757981091,-2.210303090060792,0.06698765724152846,0.049477221444205785,0.37079903309472356,0.3858022254955474,0.706535476408444,2.617678079815092,2.38613179707126,0.6068309995095971,2.113710977108402,2.387099193555447,2.179366959936213,0.9199095364202925
161,1.5171579941444013,1.7481429675022708,1.1961382675167553,0.06698765724152846,0.060783893913677174,0.26723527431980465,0.3634051685955969,0.5388296128388514,2.104739690312587,1.5297067081000804,0.6008849035917525,1.5175173091429763,1.7847401246642756,1.2146983953579837,0.9689034614084091
162,0.31591172772877185,0.19696675140992387,0.2315132628669737,0.11159004092204497,0.11439685096479955,0.09873087450185179,0.16807940285532616,0.19917726958526785,0.32601109113813825,0.43316033459816405,0.6180765742263259,0.2934021043906657,0.2206323659247794,0.2303124417577309,0.9708695805970863
163,1.4575571513643153,1.4004043447900647,0.9323893709576074,0.106969059718312,0.08855363906412818,0.33187828228678334,0.11261401326210556,0.20130579618271316,1.6600172968401306,1.5633900333201043,0.6566669596287297,1.4626955589975048,1.427876218901327,1.1305223225836762,0.9048203154792289
164,0.6598271978914386,0.4246211158624015,0.4487523852666042,0.15818068848759306,0.15717558821722316,0.22417027460193262,0.2857697111977338,0.2675026611070575,0.7092978661376531,1.0221148788152217,0.6380535849069913,0.6541829105418044,0.5038255880829615,0.4816022934467037,0.9382758185410166
165,1.0128461595325198,0.9007448654584058,1.1084611780680287,0.18043082020570633,0.1626681746765535,0.25948765677969854,0.2925231440882735,0.42269769550637815,1.2356638818974999,1.6005802405235154,0.6008849035917525,1.031763937243648,0.945602479769891,1.0964475253452834,0.9445733845881364
166,1.5390146979952775,1.8886728235870283,0.21528847195676848,0.18043082020570633,0.163261143005802,0.3514557368803463,0.5888105620756517,1.0059477503601948,2.298389664252078,3.98281283339848,0.6380535849069913,1.5576364138708372,1.9751894102697547,2.18437967084775,0.9338227930499979
167,1.0644754391340354,0.05721661407068712,-0.009562283047750197,0.429900340307571,0.4059020956368651,0.5119609346212382,0.8196769736403132,0.40276840050164686,0.3878002948199275,0.2991018285009484,0.6233814453054027,0.8405650213460195,0.30695743869209824,0.1850836989986164,0.9244787057034066
168,0.6435628848037078,-0.01641240538311539,0.10592567066519099,0.4410897013711319,0.4326994930918287,0.29725272329635855,0.2219821262719061,0.15579314150084894,0.40862271609874484,0.38999602511446946,0.6207552362147116,0.5563267582838467,0.23328237622879824,0.2216335080185577,0.9679381981924892
169,2.124325009574029,1.406918649903087,0.41915102523251235,0.04466961139416602,0.03731019386457265,0.31868227658059095,0.05851402677965328,0.08017654817349554,1.6384088163127193,1.4890638957572861,0.585052858160615,2.032303535222432,1.4152868860094339,1.1291002934343568,0.9192742142705578
170,2.4549225358792546,1.8931579432057086,-2.456613790917526,1.4626730269611323,1.4437956654799589,0.8295312271326978,0.045577874954194415,0.06618563828013196,2.3656756843392106,2.471463362132546,0.6528756675646988,2.4299135414939608,2.1117603329350034,2.013860810963821,0.8922096060282118
171,2.354030588540461,1.9474619641692406,-0.9931315286008644,1.5024237565879528,1.4886840644446422,0.7478755535746197,0.05955522987392509,0.09172129725599812,2.109728448269304,1.7135671436154623,0.6380535849069913,2.3451447074128415,1.887695932063184,1.4126729270561995,0.9187927399834297
172,2.204152372698715,1.9544751346121432,-1.2209601535451595,1.530613142354082,1.520822319885566,0.5996197712560941,0.06521121010286694,0.096408600509365,2.106024323387339,2.4522309896141756,0.6357360191111145,2.191540760867922,1.9048058040248521,2.199230596063085,0.9281984112257179
173,1.9825721498955038,1.4436332934054206,1.0880908439161248,1.4833178628690236,1.4741526028148195,0.9418825794143576,0.33603440621557984,0.4498101098175267,1.654553491180544,1.4421282188898272,0.6447042257417027,1.9803405761931538,1.4369861873988852,1.0509842396788551,0.9199630789036023
174,2.135432093099987,1.9941863115004654,-0.5186871234965555,1.6712779850134656,1.6662494286750973,0.7777736883345268,0.18001340695129753,0.32202742668933904,2.0784718910816333,2.408613184218241,0.6619902821573977,2.1279784045994052,1.899954392103444,2.132608080449067,0.9313637746571868
175,1.9575005413734494,2.1955948513100596,-3.983361519535896,1.3298453591351385,1.2958513114877082,0.9157989149177799,0.16012050426692087,0.3003686960543318,2.37056640505308,5.978075385186622,0.676637947632344,1.9469328941029975,2.1615105924986047,4.996536369716754,0.9244774156558427
176,2.281692592232927,2.5357101405313873,-4.231730059811336,1.5272976010440087,1.4918211818070604,0.9114900877239251,0.11614521621554141,0.21883514131249676,2.7006120661606854,3.7742374247613197,0.6468212168108125,2.280280152473545,2.421645701978854,3.1792785702438415,0.9141736022055003
177,1.0526166937055061,0.7240470700939512,0.8127631739425685,0.14054012242578456,0.126821013359946,0.3069404769494957,0.2787961742114912,0.28339806864860406,0.9587173612712724,1.1568467540834735,0.6097226960127671,1.0395575258867948,0.7829361027111212,0.8613518838074766,0.9715024124402539
178,1.449350724406588,0.8796302978667518,0.9574747710107405,0.18043082020570633,0.1819085814497833,0.22952126795545605,0.15661795813254775,0.17537949269571335,1.2471747450276935,1.4335056817641916,0.6380535849069913,1.386383253959631,1.0235396168292596,1.0341820118845413,0.9398962510433416
179,1.4729196638928128,0.9673992844249766,1.0913798830662285,0.16280166969132606,0.10152078415031468,0.36946173127804727,0.27226766258948226,0.3612495272342579,1.2372474793652724,1.568373406759367,0.6357360191111145,1.4441589065650304,1.0466316863819445,1.0569751758033172,0.9556811056688906
180,1.2798513093622377,0.6285776116074167,0.7165900271233199,0.23325047533731558,0.22913390862189986,0.34119635670114795,0.22926146609334758,0.25622214714362146,0.9203935674099282,1.0260485318302663,0.62595550513784,1.2338212781478717,0.7571211049495499,0.763326291806403,0.9498657542855472
181,2.29415267127785,2.2126206746086754,-2.8933934450470638,1.5979844339163571,1.590220880482682,0.8714391023120902,0.3450045889767658,0.6599511629070158,2.833025856371503,2.3800009522846537,0.6357360191111145,2.289339866244025,2.587347455342492,2.0310679573956203,0.9173278692905015
182,2.183622769768692,2.107333526949061,-1.494595922814939,1.526314025774857,1.5031505392591034,0.9317465451674385,0.18536413876470398,0.3856756553899727,2.2979720864377393,2.0571160500061914,0.6357360191111145,2.1792864322052066,2.0697645197778756,1.6290849098178968,0.8880847502074957
183,1.9388642869796138,2.3886353924202677,-3.6056766655539576,0.8976579776586512,0.8772344625377253,0.2691904187721207,0.22954931805909407,0.4314182249097588,2.5561986971002773,4.506155341393002,0.6547956803312163,1.9339376617191602,2.306589410681022,3.4781584227982836,0.8921921726353871
184,0.8090663442006013,0.33567244968128285,0.36773428689465804,0.18043082020570633,0.17898156591514147,0.2654413493426302,0.362331736767317,0.3695618128570169,0.6521571421460564,0.649042824562498,0.5883313578629602,0.7234231287780943,0.4819580742832984,0.4210333335798245,0.9650603089518334
185,1.9942894877280852,1.9773759438921996,0.4017855137953523,0.20269369581024232,0.18663529778172502,0.506326008111728,0.36231800782497375,0.543215200894465,2.2767310902970097,1.8679469552632586,0.6333676938231112,2.0077619123908983,2.041609284188471,1.5898727569392603,0.9203807454232006
186,2.39334144549436,2.2738391389226402,-4.640085016221151,0.10696905971831198,0.08674535162453002,0.599512508346574,0.45811544976061125,0.6719462506582903,2.5379645011066043,,0.62595550513784,2.3676570897377607,2.3640846379397935,6.675823221634848,0.9401507517869578
187,0.8417296305255233,-0.10678109213130416,0.05227926307748054,0.27009206368965855,0.24674541137764128,0.4043193107706416,0.6874658892956866,0.301273990120265,0.2364989814349146,0.18498540577401473,0.663668482632973,0.6189677823856938,0.1806269241668894,0.11217846709330853,0.9549201928114102
188,0.7078479217781465,0.36455056353280657,0.32610543364745914,0.29685989721468664,0.28813477007869814,0.2279559109111592,0.4427898630493876,0.5299570925816037,0.6397143426422431,0.7810909949504328,0.6468212168108125,0.6875628022660446,0.4918619346943586,0.5241407215317355,0.9506267009818659
189,0.7530499681509741,0.5277215941182346,0.562514176731681,0.1405401224257846,0.14067648216347264,0.1441257626024301,0.24078738874927003,0.2637644215394075,0.7134463390487341,0.8065892296207897,0.6207552362147116,0.7656222985117872,0.5346166980082826,0.5520492657828072,0.9691280157234788
190,1.0875060865710116,0.9712474117583276,0.7993952867430387,0.10060391803536387,0.08531086293335792,0.14640862642701227,0.13980265579278142,0.151020555174507,1.0943303855054285,1.0739398724931155,0.6380535849069913,1.0548825258067844,0.8664542589603654,0.7014535723842368,0.9696763722962688
191,2.6110417350667956,1.9827613126102341,-3.02387207768557,1.6514489681711915,1.6590782539444422,0.7648866004437878,0.08828990643590742,0.13008672585021014,2.3430203053923604,2.606306478644752,0.6233814453054027,2.5328371835455505,2.0936701398306723,2.062558754641085,0.9359219284316111
192,2.8940695488361126,-0.3376329262134954,-1.9348544201647697,1.443528649168651,1.4337340054580763,0.8115643031786063,0.11057441060490585,0.1466836423318011,2.637154559113981,2.9097827281292865,0.6233814453054027,2.8027272480441185,2.406358984775976,2.5875608038480835,0.9217622783434318
193,0.26647968958377855,0.05638337811864491,0.11462113672732016,0.14228428290499973,0.14187640019830064,0.16701473088559046,0.18201860235564435,0.13897709063729877,0.24604017056834435,0.2886784081875801,0.6068309995095971,0.21173663603081155,0.12591407249349654,0.11009579184046249,0.9731269648306926
194,0.40165045323799375,0.04026745288336453,0.11158353795862358,0.23696953452588573,0.23375194292048573,0.23662129162370657,0.23940341058030956,0.17755228709092688,0.22280810123685976,0.28911023013140164,0.6153451465759925,0.3277327595678122,0.14547600062687172,0.12628617983959592,0.9488927937590779
195,0.8143104213564142,-0.2285728515469192,0.04930629270150921,0.4675089962441016,0.4535173169729507,0.4143474266706732,0.46518210449271447,0.2833482505741289,0.22657429947584806,0.24473125599639461,0.6233814453054027,0.5114925127536943,0.18314466619161618,0.14595359468944488,0.9508652032085384
196,0.4107876482076361,0.24805881933727375,0.3320644860943822,0.3030281442433197,0.3041280664158544,0.17330860450690605,0.22356180853293578,0.23955084356275333,0.5038349612656865,0.6653710849296568,0.648888643467878,0.42924563677356775,0.3350872940659788,0.36247309219934504,0.9652582216461386
197,0.43154561107043937,0.1886660340151593,0.2556678439893917,0.12001135905309418,0.11720521924455402,0.16020279891799075,0.22851285774993418,0.19125825440736982,0.3615771243945603,0.4626887328493898,0.5978297680564633,0.4026856410745808,0.2590059396755102,0.2693744367062183,0.9467822946954433
198,0.42412735336134905,0.3274580451652753,0.3555754895501557,0.12001135905309418,0.11074398224389165,0.11561124478675758,0.1397077912708062,0.14078251887086263,0.49212195906810086,0.6203219482195504,0.6233814453054027,0.4380055175928035,0.3398526575633315,0.36488017155452995,0.9147205725618301
199,2.472687420278595,1.7804740621218822,-2.4933076809154135,1.5834883313861323,1.5313652570567364,0.889585481432399,0.05539317994835504,0.08778329901746508,2.3151133035271654,2.7520431416471642,0.6584896970785714,2.415007522408333,2.0591344011733543,2.223892824418381,0.9467185516232004
200,2.2293264107362463,2.2113084923162543,-3.2890290757366394,1.6171788878125344,1.600664188985786,0.8869589297283023,0.13129439769764337,0.1823486801469608,2.28554346071755,2.9880315994498434,0.6309483474627791,2.2085889074152694,2.057730919546642,2.5562776436799193,0.9131438653954835
201,1.6643458003743385,1.3693035088966898,0.45984527019486254,0.06236667603779547,0.06049640638847591,0.2920063844757073,0.22296420253191299,0.2269309129245078,1.4601916547717098,1.9449557416308412,0.6284777104787076,1.6004781710626284,1.2271065987347713,1.4595358071225144,0.9658797651306372
202,1.878420719874183,1.9139159387147953,-0.6124500642442401,0.06698765724152846,0.05771599113242935,0.41621336716671836,0.4694511957434022,0.5379689414109216,2.163466634730389,2.754061457603189,0.6380535849069913,1.8615383638359715,1.9317144390244305,2.239033738767835,0.9621056805028964
203,1.9607337765788362,1.9170318873198404,-0.815696076277908,1.6462233305034424,1.6334755815069486,0.6425755667399824,0.46546761878593573,0.5445081457104683,2.0901596264144215,2.5921507353666544,0.6403206450210053,1.9582864201233687,1.8726687622159957,2.0876720408163516,0.9353047982281371
204,1.991115074595654,2.049171884841938,-0.5797488584743458,1.2878537186518468,1.2631003055716445,0.7971128999206794,0.45682305864013706,0.5330730578967937,2.3308363253015187,2.7709433191308412,0.6153451465759925,1.988342235374279,2.021048620967658,1.9732240754890624,0.9394359770938133
205,2.068143169441365,2.0225995983450344,-2.3319085370531876,1.0658482833766894,1.0417544859197925,0.8773527816622559,0.45905564446960273,0.6275719760268259,2.215445802514665,4.278102686638554,0.6425374456860184,2.067425139801375,2.001251675672148,2.817099556789839,0.9440259617586766
206,1.238421869863364,0.7273088135568795,1.0605641791919924,0.22976106386191675,0.22367291142156842,0.33137690108551465,0.528407264225255,0.6219841122778152,1.133701743038011,1.8094345328475232,0.62595550513784,1.1472074718475704,0.9499907914215245,1.1659778204956857,0.9619157713407787
207,0.5966369064834645,0.22606624268231035,0.2741899608224033,0.31339642699615367,0.3126024953566651,0.14728433474890232,0.24822467567020992,0.28780215074282406,0.46267426812063717,0.5035743626237357,0.6357360191111145,0.5631916180467387,0.3592848729145024,0.3202371416811254,0.9684707387834286
208,1.17184524885814,1.104330672411498,0.8698155436409358,0.10060391803536387,0.0887333445514818,0.21421578618320086,0.04197196503139365,0.06027900840059616,1.3531360322043695,1.412222167321372,0.6547956803312163,1.136625730866326,1.1677387220277973,1.0091273483489267,0.9260597495288336
209,0.5268850227333474,0.09532686661926426,0.22323684060337867,0.16280166969132603,0.16271734537554966,0.20581402707678878,0.18072106646728214,0.11988214676717862,0.3608802283332661,0.425019896814785,0.6233814453054027,0.41721722787518223,0.2585485548539882,0.23844378294116006,0.9471763952301728
210,0.6877710745265556,0.5839545131767111,0.6101963762735816,0.14228428290499973,0.12254905064546338,0.09386944649574874,0.1097085062299113,0.13884966278825728,0.8183115996597217,1.0012114839964392,0.6403206450210053,0.6848043015816323,0.5903462991247046,0.5972406385473088,0.9460321644794466
211,2.382156823112626,2.3309599286766174,-3.4423814302874316,1.499002547764359,1.4925560602747794,0.6895336197316505,0.0968476304943553,0.11762079847205796,2.6885707607199385,2.7307384863311466,0.6403206450210053,2.3372915662333376,2.451534399561845,2.2120197362529663,0.9482708425095742
212,2.162331288714993,1.9670926922697327,-1.9815433466967098,1.5241700254362058,1.525216844409085,0.4213047088560271,0.078716925429714,0.10921372081124084,2.222280389503745,2.898551508559786,0.6333676938231112,2.1302203485557456,1.9932097945614518,2.3005281844868684,0.9455413131470871
213,1.0044143842593827,0.1197968165676796,0.04179914425687592,0.3622187391911915,0.3214102042337553,0.466757151702112,0.694879405253529,0.4647843458177724,0.4897122703473973,0.3784557606217925,0.6038851895711802,0.7814685060667098,0.37894826684851696,0.26651441468439363,0.9552483406941229
214,1.3968978156668683,0.22825132125350556,0.16461818438337095,0.4905872670108651,0.47961386994241606,0.5346228435659175,0.9658483589679614,0.808444814455505,0.8737071827698547,0.9562604668413152,0.6309483474627791,1.128453130679131,0.6837811917383096,0.629102112669185,0.9519142485108768
215,1.388519247288039,0.1582146731185008,-0.37377745529180006,0.7533194348153185,0.7395663342311544,0.6054253273169765,1.6932685224004929,0.8642454717322527,0.4962164656184574,0.2880604510230278,0.6380535849069913,0.9737138866372425,0.43083496742413147,0.22384537722228062,0.9463455759124447
216,2.1432723052073044,-0.5944684653464121,-0.5333330391303575,1.2310215758695386,1.2048043294138018,0.7453858277799904,2.050388692010613,1.1670558343540303,0.5734567685423905,0.3463540538195187,0.6403206450210053,1.4436410279724434,0.5064891238937796,0.3014450202200776,0.9536491819149738
217,2.761977324895853,-0.983177659456868,-0.7918645369895185,1.4239974562015487,1.4143990297511853,0.6396819287338686,2.4353903378506563,1.9447741242557743,1.4549721238636415,0.5924403248885007,0.6619902821573977,2.203947123097046,1.293761158945953,0.5722689237308072,0.9544067104917934
218,2.5340740800841086,-0.7213175228643143,-0.7956154521534661,1.216207738296968,1.2045463396600322,0.5960999218123909,2.1453486255907244,1.5764476633525897,1.027578233581053,0.6288536887768172,0.6528756675646988,1.7858436687987507,0.8991412593724631,0.5173615947457761,0.9475002368029357
219,2.835007285446739,-1.0102335036179577,-0.9966727502413553,1.4271100073590703,1.3943104118869614,0.651511814887331,2.205440171549563,2.0642976924610044,1.1898746380090481,1.0394567053298176,0.6097226960127671,1.8959355014782215,0.9954367567515267,0.7074633843382551,0.9478906629232933
220,2.0509676827113186,-0.011060271249146353,0.022494706418685756,1.3344924923846995,1.3071388043790637,0.7820354490154098,1.7257535439608518,1.9209789267135904,1.6516597371561876,1.6991980048510986,0.6038851895711802,3.6738813785365014,1.4093246083945898,1.2123711740247678,0.9320858799568252
221,5.703782474656199,-1.121639045832999,-0.038130057347094896,1.1218713107431286,1.096378419227736,0.6227381647008711,1.6014703128991208,1.7458362292741596,3.411048881082337,,0.6403206450210053,7.2966910851390905,3.417726683613366,inf,0.938905494481626
222,5.703782474656201,-0.019012608248854004,0.0,1.2865650394076724,1.2871616284885066,0.7633126708944152,1.5843336788332518,1.8093165392721857,,,0.6566669596287297,11.407564949312402,inf,,0.9163048341151749
223,,0.0,0.0,1.2984041813696061,1.309958717438815,0.7873533894948359,1.629810416968233,1.821448011268262,,,0.6068309995095971,inf,,,0.9265815535454697
224,,0.0,0.0,1.610273458537994,1.5966149649866528,0.8409663848053337,1.595505887703592,1.8125045282157677,,,0.6180765742263259,inf,,,0.9493015435317224
225,,0.0,0.0,1.3470191090370118,1.3379159783818084,0.775856270864664,1.8481352625072482,2.02698682908398,,,0.6038851895711802,inf,,,0.9475623308170413
226,,0.0,0.0,1.4206863780280683,1.3817345923612325,0.7933077675680702,1.9145431997776916,2.157880088567709,,,0.6284777104787076,inf,,,0.9369331313073399
227,5.703782474656201,-0.09506304124427002,0.0,1.5045356570354786,1.501410146760855,0.8188284473359817,1.5754441309634462,1.5629781718096967,,,0.6180765742263259,9.798127036878302,inf,,0.9408294511169809
228,4.426297349475919,-2.066901156098107,-0.35975025683905193,1.4802234024976044,1.488427563142772,0.6645856175801483,1.7985940011197097,1.751093740478822,1.7257887803284444,1.5487827445411257,0.6333676938231112,3.524495598006649,1.5321836345910136,1.2033912399012865,0.9519055726394318
229,2.7551434927411433,-0.7444769963592692,-1.1945771127880846,1.4342846606723505,1.4463211574320325,0.686352305066204,2.1299650381522763,1.8611965399999382,1.6461092599119411,1.1310050406888232,0.6447042257417027,2.2168152271012236,1.454006039757683,0.8072269116898457,0.9476118675808438
230,2.7066654012035367,0.44113014113223814,-2.6136887348953337,0.9371126337917881,0.9241005643784596,0.6901114635945053,1.8195280284154731,1.5888828222706797,2.13916765771503,1.7419757093211792,0.62595550513784,2.4010558176180563,1.9222827095964297,1.2320239423234418,0.9395252087016743
231,2.056991900706254,1.4656586117983017,-2.2477778442398684,0.7942361935734938,0.8015518605256979,0.3949351466148131,2.1942006461029644,2.0836183426287858,2.4365029135867524,3.298353347338689,0.6125606311107803,1.875141078167106,2.1603058428075093,2.70867893422572,0.9521460041761939
232,2.509207743872805,1.008603694544476,-2.6981119120408383,1.0361206643335787,1.0179154783195528,0.7757371028572247,2.5386923381435906,2.4227095886205756,2.6860067219458212,3.1928598617983455,0.6097226960127671,2.379826173337493,2.4319582620135978,2.7671391174722166,0.9452499402467618
233,2.4194060262296047,1.0307342893447031,-2.554717353003104,1.1112618174986322,1.069054815401254,0.7435600143997776,2.2369418297812333,1.6765773714915029,1.9794742275613215,1.059786447190633,0.6333676938231112,2.170777407321371,1.8019396667790315,0.8823399881774097,0.9253757920046193
234,2.3489651586198863,1.3604042280555815,-2.482851535011083,1.0214620621814408,1.035308839026447,0.7154446606096416,2.432837457481338,2.5357403377635594,2.431439603886282,2.413667954879865,0.6180765742263259,2.218346073958331,2.2250832629358266,2.008308554816984,0.9417862373179653
235,2.4159089419606126,-0.032849769001424,-0.8549334632823191,0.7387954145098958,0.7367697865841656,0.5769569067231101,1.9963695981804723,1.8868815006340949,2.0219336436208044,1.9735973175942252,0.6068309995095971,2.1205413525652617,1.7948205541283988,1.4145607992697071,0.9437187499117492
236,2.505139945587109,-0.07943635619992806,-1.6274462468151962,0.6008354270711157,0.5968974085063711,0.6339612872298485,1.9400933060238927,1.6943315660503895,2.0940598453283097,1.5571876029473355,0.6727386042041725,2.1632096987489415,1.8382518693264454,1.240685527005595,0.9476467341234328
237,2.213653504216738,1.3772278543877823,-2.521200442473517,0.8280226884888613,0.7991721630055214,0.6805746608618652,2.2394199617791104,2.1466912780500804,2.3715196664854057,1.8822616234138538,0.6309483474627791,2.0652318678777224,2.1307763481208783,1.7392860596423265,0.9347723252072863
238,2.0683811583174148,0.12714897441617823,-1.0957657686095565,1.0582727583406912,1.0531416996685483,0.39378937326575864,1.8221161459120583,1.693278912821159,1.1705711013648679,0.9330281465437528,0.6584896970785714,1.5271413363748259,0.9973380885329978,0.6648375977188328,0.9384525517602647
239,2.473818112293076,-0.5033876944031885,-0.8884555795392846,1.3100291009017628,1.2876554114401315,0.8031506187507914,2.243346107185357,2.0001358663981295,1.1498592674329742,1.197601253627669,0.6008849035917525,1.9425823589626385,0.9350706265257513,0.6582192995003668,0.9502876261424543
240,2.5032030581679705,-1.365456958965065,-0.43321267660326623,1.2718839699821005,1.2636014862785239,0.5745228931656245,1.656585967527161,1.5044855950725449,0.6018415981381232,0.5643107845716995,0.6233814453054027,1.2982020870285842,0.48949896207196947,0.34177142618484735,0.9468957011418734
241,0.6536069884322866,0.45938278092198603,0.396295840044544,0.5269058874239597,0.5108163354265884,0.334696794603279,0.9464371876090133,1.0332962578401026,0.7926494942781274,0.9303157033742806,0.6566669596287297,0.7773745576881188,0.5757429587372145,0.5778273947195411,0.9466876662983917
242,1.5190864714966916,-0.16295380698170736,-0.09170023940215533,0.7293295273624604,0.706325866341125,0.5281485285659412,1.4259212529624286,1.0063538964757404,0.6472713317891199,0.5100405718090579,0.6309483474627791,1.0806741435370968,0.5047760117049147,0.31962733268326865,0.9357492895108056
243,1.8924273373672316,0.018475127782846545,-1.1128249343920908,1.092175242497969,1.057522138658769,0.617780538856183,1.479695309824838,0.688964434928246,0.37594453147279094,0.18994644400852212,0.6468212168108125,1.202936304640337,0.3281012737187202,0.16644254522198898,0.9240092030584349
244,1.4861191726182112,-0.0762694230457086,0.19431505575186248,0.6066504956516738,0.5989228101705433,0.49689240929171835,1.1375723465882017,0.8728453669514824,0.7932881233476543,0.8937581992873618,0.6333676938231112,1.2387176233289845,0.6464005976449297,0.6083583794971532,0.9493070154350493
245,1.4749389214475277,1.0416689353289768,-0.9060557169524688,1.0341494888713416,1.023921829279282,0.6058382876992339,2.238144044139577,0.9001290941156799,0.7211534451161454,0.40086632728320104,0.6584896970785714,1.3354745121232574,0.6451881252643066,0.36343913580941534,0.9554822995920826
246,1.6760340688706075,1.469030201104462,-0.6345315724898168,1.2679529655509005,1.257907286653151,0.7603016134868752,2.834519902243338,2.6253788266163496,1.4033240369355926,1.1119662629024865,0.62595550513784,1.5784238589049309,1.1379945918677956,0.8864872014835734,0.9395914828718753
247,1.9486329759886067,0.5859012405478872,-1.6036920991536672,1.179127769087493,1.1317020658065913,0.7430964678844166,1.894750452888381,1.3037508589165812,0.5621261484514765,0.31413410599811753,0.6125606311107803,1.3471591217048553,0.5135932190101512,0.28103752973311236,0.9448947068219489
248,1.353552123139468,0.11254619418440659,0.39850466793061123,0.6325680907213701,0.6253251834309037,0.4697514409435249,0.9253104894120326,0.731096505611796,0.9946842267989929,1.1231734345270787,0.6180765742263259,1.1140982462035576,0.7523129327202773,0.6637718157338008,0.9437700939861081
249,1.3359616930774878,0.6154623976047142,0.2300032874130653,0.39024742432074444,0.3762899080860446,0.548351909689177,1.574580859970616,1.24992379213343,1.0533853660648522,0.808489487414191,0.6333676938231112,1.16710528511341,0.8722612076072289,0.6368620960586149,0.9416232084899938
250,1.8534033896064732,1.0014478639162936,-1.2708480448620074,0.8315913757003207,0.8211139556305301,0.6677905292446888,2.0491911553221547,1.5880292588672549,1.1994094695370274,0.9374345842747644,0.6602640781246099,1.6366378323607549,0.9652521729130645,0.5206660485887041,0.9444223000108593
251,1.4017278455784299,-0.027283605766372343,0.5825960163078427,0.8225730373112337,0.8006322696909445,0.5723528887293575,0.645914763032078,0.5852481184310758,0.972600053062833,1.1501520563006609,0.648888643467878,1.1183729168462646,0.7797846431716101,0.803082549155786,0.9366236343730855
252,1.0600462075577448,0.3049523666750038,-0.6247175024898216,0.5068352529170997,0.4882585550696163,0.5328203528142,1.4458181208258647,0.9279169505374678,0.26144180488903634,0.1999805978771568,0.62595550513784,0.8120308216603618,0.20276128758812428,0.11125989517840523,0.9461959283990596
253,2.031099035631706,1.5738382695131943,-1.9346745989459149,1.0762791693615767,1.078281382376051,0.628689699075438,2.466684703365823,2.2758398710050165,1.8329998875667923,1.7005468785355,0.6425374456860184,1.7829979635594824,1.5922068378284195,1.2069001116691935,0.9403909068364409
254,2.4719451352208788,0.26424639120323823,-1.0766238275765443,1.30099641584147,1.3085101826856416,0.7674895582018295,2.348390629473791,2.304999440295256,1.9965632782633926,2.3001013696024164,0.663668482632973,2.141695267543739,1.7742242081635302,1.602767515272252,0.953785846583181
255,2.5054812786935226,-0.30850342509643536,-0.12061252894251906,1.022819851630683,1.0203812453100798,0.6900386628488591,2.047270654328894,2.1765587597246947,1.9840356235401224,2.7625644456853786,0.6357360191111145,1.9201990850729673,1.5793464196069642,1.884571851671438,0.9350258656544088
256,1.4473395401149176,0.29555714935642197,0.07266959084059987,0.6467425344627225,0.606496086333469,0.5372082062232835,1.950883530835591,1.4147907356661413,0.8066672042693606,0.7435008376538489,0.6619902821573977,1.2174333629001652,0.680057060960132,0.4968445277433162,0.9382853343741026
257,1.8717194362271266,0.14451237982545995,-0.5433264894159231,0.9931401997074238,0.9749557290291821,0.7103929106375257,2.0595368529071805,1.917579398751367,0.9590010283554765,0.9725200684354617,0.6233814453054027,1.420287871046591,0.8010245018187184,0.6553537379747434,0.9443068928316338
258,1.669355453108481,-0.016699013019964237,0.38046389288446125,0.7091438488586155,0.7068715926026163,0.6023056360636763,1.4335920943452207,1.290187327130686,1.075421827413325,1.1306392410772526,0.5915533975974677,1.2960474832721125,0.9092092657613711,0.9256590748570582,0.9387927442633711
259,1.2417487974097854,0.5505110878143928,0.3661260078266364,0.36809656443857436,0.35644652966799695,0.426022589869238,1.066588876343601,0.8197258093358064,0.9332607778736847,0.8666545697884936,0.6403206450210053,1.0514106871838156,0.7386835027251782,0.6087570952791858,0.9461836318921635
260,1.415963477014715,0.7440925124632085,0.6139627273423738,0.5042643308716975,0.4882020571084966,0.5171515058323978,1.48231383824793,1.5590345376112424,1.2227013448039228,1.0816409461372145,0.6403206450210053,1.2354634714173067,1.0322908721094397,0.9010094399141063,0.9456141356647308
261,1.3679052706054275,0.8805178618087399,-0.13443114660157285,0.4102936331793021,0.38186917204123816,0.6779843282764283,1.6656837264781383,1.1797291124205265,0.8733767269286441,0.6253316040290886,0.6566669596287297,1.2755483731857264,0.7471348346755006,0.37140819771098277,0.9395859068508294
262,1.381442526429239,0.8775709040350137,0.03192340176810671,0.3850983141418897,0.3584061830023048,0.557689493113173,1.201531914251905,0.9306772072500038,0.9514083828688762,1.0289144537211925,0.6447042257417027,1.192922968139351,0.826992594226458,0.749478268977453,0.9480486301772083
263,1.40909958511644,0.4876965270243554,0.04284609382204829,0.39516304339696257,0.3924861103082143,0.49440629966226657,0.8910073963530991,0.6927840996689111,0.9419116322549426,0.9614341597599134,0.6207552362147116,1.1619071390404234,0.7514175091394755,0.6517802769372137,0.9375160832633728
264,0.8857151690599168,0.3664903555625081,-0.3872179278459016,0.45148381505581386,0.4425215743753153,0.4271832331018464,0.7252518377330541,0.5211035157611733,0.4314355041558862,0.415275010018034,0.6153451465759925,0.6210539350182649,0.31181795200330653,0.24046394784247496,0.9414455214775974
265,1.0208479743883332,0.3996368627448805,-0.06966155607318236,0.1804665131440496,0.13775284025375087,0.3475712208122618,0.7802731929099077,0.6424397927035543,0.5448528986910379,0.6004063379238134,0.6528756675646988,0.7330899320979924,0.4259095065852124,0.376878270642867,0.9517398024079172
266,1.7575985517581358,0.569949743110338,-0.357077286072744,0.6892889690225167,0.6583197737846959,0.5843820213982668,1.8597611803215477,1.6832434402700747,1.034249012559481,0.8642186694813586,0.6380535849069913,1.461736556286749,0.8844521741894285,0.6504328272626975,0.945852759252426
267,1.6454092993346223,-0.33335807706138687,-0.13986777057157573,0.8491072213905421,0.8514416045970761,0.6214319758007278,1.2512344526538084,0.786852622085624,0.6265187577851822,0.5619243198316038,0.6566669596287297,1.1240326660150208,0.5024948905178174,0.35639241815637557,0.9540878757371768
268,0.9846171844273817,0.44719692321787363,0.4718159098439665,0.5360267445038912,0.4762267862455929,0.47683452941652027,0.730257585226119,0.6079358286426497,0.8729179158337612,1.069792822561416,0.648888643467878,0.9316864173521285,0.678251620123654,0.6528922969584307,0.9466853955471594
269,1.2286033095151707,0.8414906166258023,0.7570311713018127,0.12463234025682715,0.12115349328056586,0.32192523037409226,0.7444749384088993,0.5619610317336385,1.1397427965058229,1.082877609629581,0.648888643467878,1.1769342554435795,0.9108083112756429,0.8024292111742761,0.9349550179069118
270,1.6544871450775613,1.2345951381798463,1.4180570294542538,0.15530386776307528,0.15228157935748843,0.5856926711541451,1.019438857860761,0.885054034090833,1.5678617700177109,2.1865195924461425,0.6333676938231112,1.6067193887481537,1.319279546791162,1.6115126019749608,0.9371827255285067
271,1.2005674464766631,0.5783645798376322,0.4202575295061963,0.20353593427429467,0.1954715406403043,0.38701514677909593,0.5896183471791581,0.406259705157175,0.8028350550210592,0.7963886144953302,0.6425374456860184,1.0152520132899507,0.6492289049793473,0.5499915524764748,0.9516896080768821
272,1.0656988971142496,0.4537823997693098,-0.1586830702872748,0.1636910558699896,0.15015667894640938,0.360894049027681,1.3594172337254895,0.6847908136570771,0.4891063107296372,0.3110322367451873,0.6403206450210053,0.8896217537981088,0.4146626052722058,0.24887824539645076,0.9517207541115137
273,1.3361839036067202,0.1284964870854115,-0.14628628406849997,0.46435040699837227,0.45706715839797735,0.457153599491061,1.359327722554155,0.8604726164279004,0.5384625724529266,0.38684881557788814,0.6380535849069913,1.0246495651576994,0.45742175135595997,0.27625337662815824,0.9566625085653021
274,1.438538882873299,-0.1513681295818854,0.02936752109441776,0.507577504069076,0.48964155622016525,0.4658710312737557,1.1606033817970913,0.8153312411152975,0.5932852588143804,0.5211754324199745,0.6380535849069913,0.941608539858445,0.49832103709407727,0.4154799193519887,0.9531219752935782
275,0.8941064922874795,0.20777750120713923,0.026229675532794428,0.35448394843105835,0.3479973878156491,0.4186852407439629,0.8406545770923148,0.5753661318750544,0.3831223079148199,0.37384986739028975,0.6333676938231112,0.6646677092380766,0.3088402617356104,0.23309792653110656,0.9469143994551241
276,1.313830891118143,0.3761519718889679,-0.2745827667802274,0.4844253670793883,0.46301661529269145,0.614768233046777,1.2478942842085232,0.7337517275363048,0.57220367736545,0.549624831053291,0.6357360191111145,1.0532565869473125,0.45502965460301625,0.3257546199343324,0.9387885722827088
277,1.4418237064824986,0.24626147079430205,-0.07818792132106078,0.6055555901813434,0.5875734634509613,0.6227526313922858,1.1818280706246183,0.8290638622048467,0.705568101783343,0.6289464506892951,0.6403206450210053,1.0837893597764714,0.5788735361171737,0.45889777752158484,0.9467619973258262
278,1.6159327225379736,-0.1435254382191573,-0.3549384322378428,0.8915940281165498,0.8842448855204748,0.639093956057713,1.358273178471915,0.7316321740070064,0.4253653831405403,0.30906848165761686,0.6403206450210053,1.022577602392112,0.37754526666431276,0.2655327233759043,0.9452094219793961
279,2.126079170041816,0.9921568694888894,-1.1656180982628384,1.2861146290545775,1.279104558969402,0.8280305084974272,3.197102650968203,2.976975781705836,1.6272301009650214,1.2512915648076033,0.6180765742263259,2.0325579557809856,1.5414067698703129,1.1194296937516321,0.947811899628937
280,2.1917727311902295,1.2446655287126958,-2.3216469670116058,1.3093422043965643,1.3077907448923844,0.701722996677729,2.3667329360387335,2.1944447999481502,2.1759995348744936,2.5141568101626417,0.6566669596287297,2.031201793511767,1.8925564681347995,1.7408034998563529,0.9326534367750493
281,1.7686449695315598,1.2383355162637033,-1.1224883540902137,1.2181769560291438,1.2115660918295683,0.5770547263442527,2.101774715381567,1.6277067045598783,1.3017718345057725,1.0173344165855323,0.6509067234006624,1.519698777679231,1.1403552251547238,0.8409637141104118,0.9400852122675531
282,2.089921081812052,-0.032641298829647614,-0.34885080057707296,1.0916720854054351,1.0826719912621368,0.7107514262949174,1.6292213374586844,1.275992334375578,1.330724738929796,1.187198377264862,0.5677978065141052,1.7318566764950118,1.0863804836419537,0.8246072444039592,0.9430728974244139
283,1.340403374851762,0.7197204131119961,-0.7501962797585355,0.8543566002619885,0.8445209638265379,0.5953505987512755,1.3531593036429002,0.7713142079712862,0.5357281441782022,0.37997090177211645,0.6425374456860184,1.008710648072829,0.4420629766811341,0.28561421116133784,0.9453138409223046
284,1.6177680013435536,0.7528309922553755,-0.8198076222663189,1.133496628711181,1.093101532403847,0.5504345556064569,1.6665558735746653,1.0834409730460304,0.5663280582504042,0.3666262913188279,0.6668815377411301,1.2720137480875053,0.4943379172060168,0.2629884030465121,0.958672584751381
285,1.9210293580206386,1.2070369743718834,-1.4365315865179928,1.0286530219029617,1.0063611651614948,0.6546390162062313,2.552197868234047,1.9012614697780066,1.3337378074802202,0.6157080877155617,0.6619902821573977,1.7435408969575807,1.1478313612721676,0.600479491700538,0.9504590215715363
286,1.5886226399591474,0.19552317653298545,-1.065635191729148,1.0621778600864582,1.0635357720300642,0.22787428929252052,1.3509591665783942,0.9905884842204151,0.4176762313865794,0.30387164510936343,0.6357360191111145,0.9068630898542238,0.35008082886774433,0.2313585589389438,0.958452565855623
287,1.4756345834124973,0.35750712808337304,-0.17146648020872313,0.6797432692742894,0.6628319635397807,0.5640803940995354,1.188114325217066,0.7537952282670233,0.7732642897660275,0.7524648870033328,0.6528756675646988,1.1627953174450227,0.591539923137033,0.4561772310810991,0.9515061883819419
288,1.7382003539356852,0.6344915481937865,-0.8512202438614282,0.5857731149702805,0.5760839386444537,0.6145110380219289,1.564779416768047,0.9114691365810013,0.9160392447208242,0.6211801913887496,0.6357360191111145,1.4480279309252517,0.785860630782559,0.39750928787331663,0.9387891738066911
289,0.960354087269592,0.47726731958272806,-0.21806424688698134,0.5284902805381195,0.5315394116461474,0.24983893586397748,1.589457950735476,1.1113680007934352,0.49694003018646604,0.41222564061828154,0.6008849035917525,0.7313106749881614,0.3991363371999667,0.2933415533593429,0.9249984590221303
290,1.5251148675665076,1.1139368855895013,0.12030274206931768,0.19680269520187346,0.1795672680042079,0.5034442536120903,1.7037358414735426,1.2761313989399026,1.3308285451397595,1.148362306245099,0.6447042257417027,1.4023785769514399,1.1101048406067948,0.7405813566022252,0.9405042369975719
291,1.383525043006462,0.20707733271185447,-0.1274518871024506,0.3672774355460558,0.3527519295881725,0.3116161181104349,1.20331754404248,0.7773574563769234,0.676225204543446,0.5615216914985331,0.6097226960127671,0.9511122468161912,0.5426683444827147,0.39537122393779855,0.9594176905810515
292,1.3641705520473482,0.2832858236958826,0.06324975008390732,0.5483713108548074,0.54569471154411,0.3692423258423156,1.290199236782238,1.0260530679903086,0.7723503409736784,0.7828026373244678,0.6468212168108125,1.0046970206950254,0.6227351551113537,0.5748049433533846,0.9506912549492305
293,1.659992175537743,0.6709300424609406,-0.5060979338964622,0.4633825397998574,0.4559694014623575,0.5538316760464225,1.4442645021121912,1.0843659279914943,1.0999929756173077,0.9501458503953017,0.6447042257417027,1.378502573868208,0.9128129268676071,0.7066414678402873,0.9441710552783177
294,1.6562617144418788,0.14981244857495435,-0.5807203972935153,0.33478378368962547,0.31874847574349724,0.5211687810421312,1.2527765032946299,0.8471884722747522,0.7491679722444801,0.6613685783668717,0.648888643467878,1.232334175626002,0.627989685470937,0.4517505579182222,0.9522466451293176
295,1.4461772200309608,0.2574369959439955,-0.18221382056533986,0.4132444470465132,0.41027703417281924,0.5421693237271239,1.5238549706101323,1.016238142074498,0.7579861890548777,0.676502330429698,0.676637947632344,1.0955170837608073,0.599962978545614,0.3902031402968907,0.9414245185217323
296,1.1602931046551228,0.8278636641057444,-0.047493192825687425,0.26498731791926383,0.2558963633125645,0.5209134199779335,1.6953079719089208,0.8471881291204382,0.7056525139213661,0.47219149867646554,0.6528756675646988,1.0275327069871576,0.6059133301303984,0.34127519379187704,0.9525383284607117
297,1.0501546775346156,0.5367429683448623,0.03752744113284434,0.377600512213639,0.3641163179081026,0.5902419150033835,1.3764534648317697,0.7503437218391986,0.4238170536429704,0.34187980609387814,0.648888643467878,0.9527818404565702,0.36714234469677925,0.26455014869495375,0.9447544699738442
298,1.051203857992004,0.6787406543027925,-0.5229981970359117,0.7206288273745081,0.7105021465642315,0.5650294882834953,1.3705618073670625,0.8873735444747604,0.4140379311845642,0.35646842882506946,0.6566669596287297,0.8529247729190054,0.33309897276007383,0.20772051941284833,0.943352043328344
299,1.5539180613241377,0.2648972053200531,-0.14298776190013207,0.7127159829683036,0.6941524787848762,0.612303142743473,1.2651421827590978,0.9346172817847405,0.8646277220029664,0.8050931100230163,0.6468212168108125,1.2295185585159085,0.7018861932256648,0.5784778841166042,0.9357041068761456
300,1.1366952933349888,0.6232600850666974,-0.3114409811726002,0.5919336949269229,0.5835649145938903,0.4012269643685047,1.6577460251209417,0.9940749540648273,0.5171518316504514,0.41151956590183997,0.6309483474627791,0.9338891236167765,0.4388091951031177,0.2817950738393503,0.9443607973279019
301,1.5481986751132248,0.5165295560092846,0.049682862159057706,0.7252100884781172,0.721969734742631,0.47968577550539854,2.1632084118068438,1.8007318999623765,1.1232842797566311,1.0200131648069293,0.6584896970785714,1.2435224604639181,0.9790199248565912,0.7352520488930896,0.9487084399851046
302,2.1356227917786357,1.120984611670969,-0.8568477620729626,1.1505078484503182,1.1317391200792382,0.7319534393204726,2.758703935898611,2.3224230231273224,1.9134874714727361,1.8537335180132033,0.6038851895711802,1.9957542017035037,1.7488728971473633,1.2643429159263275,0.9424105177500054
303,2.6510953574458584,-0.3381579421402239,-1.557130417641088,1.4359793411384736,1.4270131569116682,0.6391722236406642,2.25277549761472,1.8898960710360972,1.5815877033428734,0.8922102944052156,0.6008849035917525,2.0992815030062553,1.4195739221241326,0.8525610304314782,0.953935383150409
304,2.2974637148805006,-0.4332899325508799,-0.9954350175303941,1.328667940111356,1.3147203006427144,0.7190542169829875,1.9900365995253606,1.4841583474662923,0.8154583508763382,0.6072694045272732,0.6468212168108125,1.5864269297932991,0.648603362278819,0.4166395755939842,0.9420367131956372
305,2.348573598102556,-0.726509609623545,-0.7495174995684241,1.0136499610498382,0.9990672162543205,0.6696721828191773,1.7713126229116598,1.1746908684126183,0.7556497928858213,0.5184065495608435,0.6380535849069913,1.5530050703996976,0.6410246160400025,0.4060633731574177,0.953159711449825
306,2.1609238771050387,-0.25044470034608723,-0.642257746710823,0.8951354391545497,0.8794441148855763,0.6428356186878552,2.340171638438733,1.8864807195719817,0.9477504349562693,0.6523676931365188,0.6125606311107803,1.635838927958528,0.8855934031789222,0.5300475871534716,0.9211442298637569
307,2.5210454686689636,-0.16759829470687837,-0.5136460573135948,1.2955969231081588,1.2798519004891407,0.7444097773649616,2.780692188733818,2.840725439191415,1.8431296689899332,1.8799998578116648,0.6509067234006624,2.1657259102768482,1.658082738328442,1.3731562236824588,0.9307450701289487
308,3.2707631844498084,-1.4488062620962026,-0.8158443563815565,1.4307112806528854,1.3813450580038666,0.8154608879407154,2.6499115528058184,2.6318389633278296,1.7845486176438923,1.5643167056808194,0.6233814453054027,2.4846400186705693,1.5749811074931457,1.0826426104109772,0.9481715029841697
309,2.692259139493937,-0.3109557046439022,-1.6162618256098855,1.1764441989084875,1.1836080916099783,0.7186640128716454,2.512778123981352,1.5750757110831919,1.200547357689944,0.5908078255015824,0.6309483474627791,2.181055996174636,1.075175615237334,0.4469721699901202,0.9521210397173063
310,2.6129952293937495,-0.92350384187184,-0.8548802267721973,1.3362326024517173,1.3414288260890594,0.7037955086225208,2.4091230379306645,1.7395139739597747,1.269059805340065,0.6056743628899268,0.6357360191111145,2.1072924698356124,1.1207922941178985,0.44711096307450354,0.9439944309750716
311,2.469362108288648,-1.2995291882765483,-0.3816973517197454,1.3073292432540415,1.2833803699864814,0.7232480552249798,1.5209483511493125,1.2069087126521338,0.6004506013976666,0.49948190163516376,0.6602640781246099,1.3932965974329157,0.4509498608088611,0.31183617576326744,0.9519797329298059
312,2.102113445320525,0.4770776291596319,-1.2376997879341756,1.2731052952861053,1.2583844742517616,0.7172287456967683,2.431965575751599,2.0963924175648296,1.3223712874435667,0.9009035672901214,0.5978297680564633,1.8556937285241464,1.215480740196703,0.7778737375459082,0.9384667165744167
313,2.041534502275778,1.1029342539567644,-0.023212086353753936,0.9616401157676768,0.9569286973150994,0.7715458119010004,2.9294747114765807,2.8175433768961384,1.749112190956655,1.9922025054252597,0.6380535849069913,1.9692925092902125,1.5488132906176655,1.7156730455025877,0.9425140474713387
314,2.1042743563379145,1.0790047029000038,-0.8444989255176241,0.970089912594232,0.949615251770038,0.7010282678619926,2.4352405458577198,2.150685027792388,2.335176646874757,2.380293523557963,0.6180765742263259,1.9873689203489449,2.114335996279448,1.8897596304795887,0.9448803715631447
315,2.288872324573991,0.9183616939682278,-2.608341657590425,1.393203449808302,1.3521193556035165,0.7448269278863145,2.3402521079041883,2.4140733509242653,2.536977767995075,3.452067059713069,0.6038851895711802,2.109305279298336,2.304326694790877,3.122731964315298,0.9384997235315198
316,2.2015909401380513,0.6650391370353961,-1.3814120244263017,0.6388609315161552,0.6454473739945807,0.5902454363758162,1.6131521487441327,1.3828298983528586,1.1819660395066027,0.9867147446842447,0.6153451465759925,1.721114629658723,0.9296105048242177,0.5807294725921202,0.9462464502123105
317,1.8154046182812458,1.1551573889200641,-1.698570971165073,0.5839164333996617,0.5705401061400868,0.632231248791842,2.2161340773892935,1.7266446580956365,1.0841842017363033,0.7688575457386345,0.6180765742263259,1.5955897972823816,0.9731333385987294,0.5934573453105446,0.9447639028036947
318,1.7295340875409777,1.3176224808169852,-1.0017625590695989,0.5571420739429765,0.5494308416792486,0.5474200797831089,2.1216040433366827,2.000057913019918,1.614763254764427,1.4448205760408013,0.6727386042041725,1.4983438649285135,1.3696794893038893,1.1165703440305785,0.9382423219663637
319,1.8563491037231146,1.5326666761775256,-0.8241582678759638,1.0794241558120405,1.0648912762942333,0.43964735391989623,1.9911451292777933,1.586349544466246,1.7934280564570444,1.1701330664701417,0.6233814453054027,1.742271136136861,1.6009718522647383,1.064899493402842,0.9126217431323158
320,2.261766425804199,0.4961219757227524,-1.01077190279822,0.7833087764096424,0.7761865195254115,0.6767502414997917,1.5060389057147658,1.5247672350988675,1.5998300901516493,1.276336406019888,0.6584896970785714,1.9127225558910694,1.4327248106665942,1.1335797645900731,0.9443362715423312
321,1.8083554783839766,1.208134655481383,0.10208453504450565,0.4502871082037833,0.4288925953858858,0.6170612797309677,1.7394006057081024,1.7880421435330422,1.6880495751456812,2.7236685502873414,0.6038851895711802,1.7249734755500046,1.370456366113985,1.5680759213370654,0.951399529334607
322,1.5842829343025506,1.1632717384196327,-0.3277454291563493,0.6984150982911238,0.6769668997320245,0.6910812069355022,2.451502021829937,2.207960263938511,1.279669766007707,1.140244637322064,0.6284777104787076,1.4765108690584687,1.0668727104885074,0.8360523103336666,0.9548385072117498
323,2.288086213679196,0.5915497439254289,-1.500294900076617,0.6037174375158298,0.5951231464369335,0.6355342698172686,2.0113913162268378,1.908900717005455,1.9239235517592752,2.0123241360904696,0.552929491858785,2.0374042858887784,1.6208381987632683,1.1826500348571147,0.9456678272943935
324,2.433901720613328,0.37087811332597287,-2.0948255870653627,0.8697616986742246,0.8473730391744221,0.6840338233090916,1.4746774847900335,1.1896380222964584,1.8409715440811074,1.486175037787199,0.6333676938231112,2.1034610475240565,1.5925549221592,1.0769156217674603,0.9426970374852589
325,1.8578712275801998,1.4573230592604705,-1.9748679137234912,0.6927116234160801,0.6780433388740651,0.5908664150496731,1.9149064955493322,1.8260414580211881,1.628644043823807,1.604788420501266,0.6468212168108125,1.635724850842274,1.4105992088277775,1.2074070880635082,0.9366035318132955
326,1.2951211389000898,1.2655947996306798,-0.06395950639584358,0.8758213746524535,0.8849894275209631,0.42879341437766677,2.237337873796321,1.9594369963994653,1.105263416512816,0.8481210720117418,0.6233814453054027,1.1777276486836543,0.9159480530240063,0.6755409346320369,0.9448925697130217
327,2.0067634189978785,1.1172614809645163,-1.5248182525296388,1.1012604258279721,1.0812254249455129,0.6929425470290319,2.079799725475311,1.769199891686446,1.289631978396494,1.1701360891203711,0.6584896970785714,1.6923365462369822,1.1054560303660896,0.8582970546878739,0.9455253463296949
328,1.9593353363177926,0.07912031142305276,-0.5899745845088726,0.9497821598450517,0.9509007804643731,0.6521680240262867,1.702025832657652,1.2943894109495244,1.08446499614503,0.7686714367597399,0.6309483474627791,1.572731040093322,0.9485630071470676,0.6119138953157209,0.9423357185336868
329,2.0234422877386136,-0.05472511023167814,-0.2527320047417838,0.9587452626814693,0.9374881026426338,0.7081135352869137,1.197845889338917,1.0995043226267183,1.3655643026851585,1.425363779568245,0.6727386042041725,1.5812824676852455,1.1148391625516907,0.9067840220193639,0.9473442486902954
330,1.9926903072036632,0.065436806687998,-0.16957861864590873,0.7796849366533491,0.7642232019903537,0.6364607722446324,1.350393996814094,1.105606702922504,1.2779007541144254,1.4747341109176058,0.6584896970785714,1.444865537144428,1.0938639193410788,1.0423923573708815,0.9519119645262399
331,1.832302344224669,0.08560673615537451,0.05271234549378767,0.8591856859993013,0.8385054043560625,0.6829894792731122,1.3087282531994464,1.0192573224680146,1.1055424818449018,1.1368724733407918,0.6309483474627791,1.3479287142863428,0.8937703531517062,0.7379411582162981,0.9466551536247185
332,1.5177869812238436,0.19524284903266365,0.30356987986088524,0.6698468400165483,0.6535520049396841,0.5597727087984552,0.9192506129714672,0.9050506651940937,1.0847270479400148,1.3759548119510485,0.6207552362147116,1.2055295710141871,0.9121447275640232,1.074884217972617,0.9571818673195837
333,1.5246792310783197,-0.10297457776067187,0.3974711183632511,0.6691201345763494,0.6742355791489505,0.47523247365531784,1.122364208718181,1.0196503932362657,0.9380625908112096,1.0846611767655778,0.6619902821573977,1.073919676077738,0.7427474288565017,0.7768646427253784,0.9527165289201899
334,1.4316532710311294,0.38959412416064265,0.6671174135296025,0.5148469228412186,0.41109604353888796,0.428074627654438,1.3194979099613258,1.1515002102712484,1.0638966675166652,1.2085730258803586,0.6619902821573977,1.2300126202836783,0.8352192475940443,0.9223118017707158,0.9547621965509483
335,1.4634372414921726,0.4161307553621234,-0.3144532071882833,0.45014412372742846,0.4337122390423915,0.5622764222812742,1.6728212164185,1.4028620714049558,0.7686416480555506,0.7742889156198698,0.6547956803312163,1.191349115719976,0.6173530742383911,0.5209115754235981,0.936229898407347
336,2.1646579358590063,0.32861185127324966,-1.4685159331293338,0.9148997314452596,0.9046322097138119,0.6340679987025485,1.9359926879861826,1.3727610372221362,1.0582315702824983,0.6204692690798854,0.6284777104787076,1.752026067009455,0.9275986599090512,0.4702952641856682,0.938498978424486
337,2.143979230317824,0.1687008793692164,-1.1380671176972745,0.8906694895751718,0.8881191571593693,0.5616446187282267,1.7658150667733812,1.4398599200673075,1.2586724684416324,1.0315448060335592,0.6584896970785714,1.6190394152459557,1.0807119830415592,0.6984504743948419,0.9486016705271075
338,2.1061934626532155,0.9234437653876242,-1.506571672926706,0.6823470311960307,0.6556560584598696,0.6969384140682278,2.197994022713496,1.9074074194861357,1.8396915775975524,1.5189077997461173,0.6447042257417027,1.851438704729656,1.5699613842500189,1.071433967614165,0.9468090093500964
339,2.3281642491457544,0.9122420568401264,-1.6891543098020447,1.1677478056448032,1.1444798288026268,0.7520462433871996,2.5706196374959998,2.3504956375197508,2.243833624670902,1.9506086081264227,0.6547956803312163,2.1121484049811,1.9365856459889483,1.3574160203812036,0.9441798199437282
340,2.3067421525467107,0.07981641707043208,-0.7148389885589439,1.2208130092295446,1.1921440138030766,0.5356004319405555,1.8652974868765972,1.6164452328854622,1.3569412587485232,1.1315063621794785,0.6180765742263259,1.732547609596209,1.1421476689149483,0.8412128479906985,0.9438095758061532
341,2.042280998200959,0.6977611066434553,-0.49749676954661526,0.714784664691185,0.6881216935673994,0.6488743894443052,1.4849104003470284,1.3271067078203267,1.761511983329868,1.9107542926959635,0.6207552362147116,1.7634960039551955,1.4826939221597197,1.3769179605598434,0.9443682899495451
342,1.6602777077088358,0.27841360268360926,-0.32376919276737426,0.6842844700448742,0.6099313895121075,0.4887908667977527,1.3525012145594368,1.0763434101732468,0.845892487809417,0.8848823508497132,0.6180765742263259,1.1205511961868635,0.6797109855329405,0.5877597708914135,0.9536324069885659
343,1.9558380681915175,-0.4238404990156528,0.0427668658272351,0.7592746703966986,0.7307597415739563,0.5249524631472711,1.862897717192262,1.3737180028019358,0.7605004941084084,0.7088424302979114,0.648888643467878,1.3209228536784277,0.6211170167987868,0.5104641282032852,0.9424803338372405
344,2.397988990761924,-0.06105195440948208,-1.0198852464966865,0.8739044224966603,0.8599258896327173,0.627587046245745,2.229396382161524,1.8433976229682085,1.2946970062160081,0.8660716475360734,0.6125606311107803,1.869504817852908,1.1566866631857917,0.6998131057141658,0.9518554713696448
345,2.2911354726991333,0.9322492430293292,-2.382833074654237,0.5712664110151673,0.5604596051898837,0.5939136961721343,2.013884593560436,1.7823523338980185,2.1341779057713675,2.5119861879122785,0.6425374456860184,2.011824430932667,1.8492942446337113,1.849352787240619,0.955563496882124
346,1.9295781203542932,1.4004707118892459,-0.4967389804801434,0.6924752721750582,0.6501927796288989,0.5759624661666238,2.04461486286893,1.5458059527532542,1.8249800287573115,1.7173261344037614,0.6447042257417027,1.7997916409253192,1.569261287410269,1.2563199649700227,0.9453290259921358
347,1.7641412575179223,0.6926175211629879,0.12837149621719313,1.0515703401031584,1.050167783389884,0.28130295327690025,1.8206680675826645,1.775933221476521,1.5422804447571534,1.7309690409387202,0.6652988471865258,1.431338218135969,1.3487451858660724,1.3392371442902362,0.9222224055658972
348,2.689145242585519,-0.18086235104161474,-1.8958901377970312,1.1562919129932927,1.153803863234616,0.7169934365465083,1.996294247231669,1.9809830284734642,2.672505890442403,2.837151568490708,0.6528756675646988,2.3880219526112176,2.412892810502969,2.655406467616788,0.9403584289818141
349,1.8373954284136949,1.8503859736885235,-2.0844494317676068,1.2840475691064712,1.279434095799629,0.4736425002976706,2.4181942769902154,1.9241509213872314,1.8454801925121356,1.421185116932459,0.648888643467878,1.6913712951967865,1.6456001141660976,1.0775784170165577,0.9095123950981461
350,2.4194064686082357,-0.04732570354110921,-1.1772858640363495,1.003439993736591,0.9698319014281888,0.5767459022894248,2.2412930077762034,1.9206262195705306,2.1405212800277655,1.6594960724821453,0.6619902821573977,2.0727087026386517,1.9083071742764457,1.412833916354503,0.943058556860465
351,2.575862557504514,0.1014003511331878,-1.5233822206495424,1.1546596717008908,1.1613150312990588,0.6996820511312674,2.03547409961056,1.6143243131194676,1.6606291939443147,1.151716098953005,0.6333676938231112,1.9738410548174024,1.4526741348290428,0.8752636301846853,0.9443524553318436
352,2.3907222939300445,-0.1670560282417881,-0.9676917784057226,0.9395730841129084,0.9259942902031583,0.7205419821938001,1.5245876417405457,1.4456143687949243,1.5405326797862713,1.3523968623011604,0.6699045166045591,1.8266960391089513,1.302186747232545,1.0139519850410386,0.9448631702483926
353,1.8190002434513477,0.296202926211113,-0.460260670047407,0.7267113500533116,0.7281358284836095,0.4320483213803557,1.5258216598565115,1.2829494379564093,0.9626095624601404,0.9265558972531177,0.6333676938231112,1.2533575896919609,0.7981229735915524,0.6829136131582987,0.9593125617865749
354,1.5056208395300172,0.43778279954967414,-0.2826793421112552,0.570456467364822,0.5674496616971101,0.4945042953633716,1.166673176186728,0.8479074669927094,1.2607581854189607,1.4612412124383591,0.6380535849069913,1.3063747379440172,1.0475036494375791,0.909007378483047,0.9536199406385882
355,1.7411851628503359,-0.032228892474127635,-0.00692700704260818,0.9255688011411316,0.9115604861267785,0.6177456598820311,2.02753364533987,1.6557259482052054,0.8137342391187682,0.7831888822205502,0.6619902821573977,1.3565198324186596,0.7058242627237419,0.542999107767546,0.9399223768490527
356,2.1880045741800767,0.025717407482024335,-0.8453087565670521,0.8768702098712582,0.874381590897586,0.5938855954993904,2.231267171515931,1.9430368959794548,1.2559208973946445,1.0350165649613254,0.6333676938231112,1.6132786118200382,1.1053271032216885,0.7476636633641436,0.9440924376187249
357,1.9019446909583988,0.7445117929912464,-0.6229559335102683,0.6842518314662958,0.688665598696687,0.5548586804832715,2.2586110224854394,1.976239531929215,1.8738578167207018,1.4332273208876032,0.6333676938231112,1.5843117894868801,1.606084564059452,1.1592706583542136,0.9430579738816369
358,2.1825965764841797,1.0988772568274916,-2.686081259958321,0.7167669732109812,0.6584596540640762,0.70896102000113,1.915239281206037,1.823677520278597,2.1986979870358967,3.069570962267439,0.6699045166045591,1.9987836386623814,2.009383227318667,2.6202745902198243,0.9400963010358016
359,1.2978072973254606,1.0378226116473581,1.0150908822952585,0.428090755385594,0.41651036958773907,0.4367401576953507,1.6641835540942809,1.256751236684226,1.5480161841576399,1.9861246795436378,0.6528756675646988,1.1679623668029029,1.1947266502608482,1.2822798837085816,0.9338463032392856
360,1.4330488298944926,1.228127579260708,0.5914865706133599,0.870097428397828,0.8543332403959594,0.5871330006773219,2.8875122188337974,2.7936760905973306,1.3764712568505457,1.74386598812377,0.6357360191111145,1.4131860565882066,1.0730548162129303,1.0592118648485167,0.946811835331044
361,2.3756950941178663,1.0118823607353602,-1.2649817868688928,1.0316980210374054,1.0172652787802308,0.6659108192376701,1.9296672511401072,1.7613233172681064,2.3294987879381264,2.4088453482199337,0.6284777104787076,2.081131858349366,2.1097236042535785,2.0987156742927024,0.9371190648009549
362,2.294894004149449,1.0614354586674555,-2.2337417521019534,0.9180671113837909,0.8947044507480668,0.5594297299532276,1.6893451356635556,1.4448845862193156,2.7578901170955374,2.516525340319573,0.648888643467878,1.9608884322360265,2.4372675843677385,2.1115691327577255,0.9360166451981893
363,1.908354102489661,1.2020147756872193,-0.8277259551170486,0.6580750420569743,0.6556146971807838,0.6223276857609675,1.8729539102738932,1.700158460444604,2.057190144861336,2.883671584125601,0.6153451465759925,1.7437950427115378,1.787890747104555,2.2664073643113496,0.9381785257545975
364,1.7475313201036633,1.601490171373409,-0.022666059002057537,0.6915906242928168,0.6893115415050497,0.652671836920298,2.313400316960412,2.1162523987284914,1.7419011637964608,1.84457983630908,0.5748741956352443,1.6721410818235292,1.547568423793249,1.4461547490435696,0.9333441852015253
365,1.9151453780358703,0.7712122461237458,-0.1727146180511343,0.6530510727807673,0.6339918589329604,0.6901871761320425,2.427041765072366,1.5384124023619195,1.491538202512731,1.5581206731747297,0.6207552362147116,1.852288262302877,1.2727936832789628,1.147592152164678,0.9326017793835168
366,1.7455832834580018,0.4526746873387768,-0.38061057697403355,0.698248134909718,0.6632622051743411,0.6858794680962662,1.9900392383439316,1.5077189992949749,1.0293999476083031,0.9441037290476644,0.62595550513784,1.543286110001555,0.8125825607742625,0.549007773323229,0.9420862255365989
367,1.3666978717458644,0.8477004670685415,-0.18808591273219122,0.5939662727394679,0.5899940298896803,0.3815344275559573,2.2968930434325756,1.8139522697645698,0.8885404757708424,0.6643167699869776,0.6509067234006624,1.1141998120098233,0.7289933123330811,0.5159623201395355,0.9384132703505954
368,1.60478076495281,0.8605858434208891,0.09211119679283586,0.6207163616990166,0.6290251020254949,0.357129321702589,1.892940296488252,1.7882795006387937,1.660158719489237,1.5831343252394308,0.6333676938231112,1.487761232291338,1.4189431802257244,1.2630823448718969,0.947973684007326
369,2.385380613923107,0.9735423461060697,-2.4063899864285507,1.1136509812424862,1.1011274035677894,0.6823998150642548,2.021574798069824,1.8687287145691283,2.6357251307401515,2.8468253107396344,0.6125606311107803,2.1504364158374605,2.3850004321359557,2.372318431008721,0.9418670033475355
370,2.5477456546562096,-0.3739464690336787,-0.5255603068746459,1.1979524273464934,1.193918225447785,0.5789675183244758,2.1173583998430634,2.0710473563293204,1.9899833651202663,1.9334329517078273,0.6652988471865258,1.9573419100177334,1.76912403775831,1.5830247193701188,0.9175342117098046
371,2.7962227679265914,-0.36721124560424734,-1.3551227229765752,1.2554636640307606,1.243066728055712,0.7053055101999198,1.9211849255324007,1.7698819917885327,1.84494333362615,1.6404539379923992,0.6468212168108125,2.1819419538050626,1.5764066756867066,1.2439878617897915,0.9377347763567655
372,2.703673981230993,-0.669449344965453,-0.9750557654524254,1.0986597021788047,1.0821845364130032,0.6260352105241256,2.0661172500423084,1.897283340223503,1.815254986019794,1.8885593454623977,0.6180765742263259,2.0956612619267783,1.558709417501283,1.366314950521696,0.9426932025118342
373,2.5074384020163945,-0.03857613134129245,-1.2252468748762086,1.1218625436165186,1.1018485612480597,0.7582038499296504,2.2520068570091425,2.139122842997349,2.379922731122329,2.317087126874085,0.6668815377411301,2.2663603161710815,2.1555628155021123,2.141454731180617,0.9435336047148467
374,2.3207442376656933,1.1894364745730108,-3.2987468783990606,1.0047184056065572,0.99413809336576,0.6486200237736041,2.20000312865858,2.028736307157183,2.736598164228031,3.2877111752425443,0.6008849035917525,2.1117810955187517,2.493389090469339,3.2188758248682006,0.9473191271412499
375,2.515059408434062,-0.039797559572158026,-2.329252815149533,0.9502011762649368,0.9529922463499426,0.5024930260934022,1.6333855204673398,1.6575001275273034,3.028444977877305,4.49975403927837,0.6528756675646988,2.256550043421034,2.807134471765037,3.5106670900701147,0.9466568011175417
376,2.1515620348494964,1.9411590336162825,-3.854854754726778,0.8988844625768312,0.8897492604914218,0.5735911655096202,1.986975955700922,1.8671009936693284,2.741260060817709,4.768212786804622,0.663668482632973,2.0929546561604226,2.479425707004678,3.9448128282511368,0.9275543009341173
377,2.17411442347902,1.2670954272778796,-3.383856560624295,0.8325454986245129,0.8118458071750875,0.6728241402809785,2.2594662120474,2.038375360056758,2.746332757014427,,0.6380535849069913,2.0546838905541094,2.517696472610991,5.736572297479192,0.9451968069364696
378,2.366582124513597,1.0062503613586893,-3.22889747453043,0.9278573471844942,0.9011574126866122,0.6568973739530342,2.2271326411158303,1.9975744860793547,2.839006474779303,5.291617192777473,0.6602640781246099,2.1649510167859236,2.5962234176787486,4.700480365792417,0.9433171085435057
379,2.0897820867043175,1.3963814679367768,-1.1806483490281336,0.8565675257270058,0.8430851831710497,0.5607401896896067,2.0457670397445593,1.5323891199494666,2.6880364647595534,2.0420673607244573,0.6509067234006624,1.8765914047447525,2.337287726172538,1.8091907556060227,0.9410109806817776
380,1.7097573048051147,0.9686049931669243,0.012635735539944015,0.6294932413916129,0.6137523025385966,0.5502958260519226,1.5056440862485767,1.2075483166273344,1.7142947509542144,1.4603062950980645,0.6097226960127671,1.396299804602843,1.3288965553343377,1.0680564429232215,0.9522850793827486
381,2.0351662947741813,0.9135762661724129,-0.6494140834877005,0.8656214774607237,0.866446034145027,0.6111644886274437,2.261813648550413,2.065865999519919,1.7498211621864161,1.8916385803094469,0.6180765742263259,1.8419305864744187,1.539464167891557,1.6127112377790696,0.9449132018291025
382,1.479384131951971,1.032516462775215,-0.1630227209697166,0.7064877867510325,0.6821134961469693,0.5433536154826747,2.7519559719139233,2.523221317164641,1.2763577020051189,1.0538700822812441,0.5947193981915972,1.3254710662298004,1.0691074907343354,0.801775030555243,0.9315295560145568
383,2.099278223485395,1.238780508488572,-2.287881739206127,0.8444524106889072,0.8140809570970943,0.6588579078900887,2.552879982484923,2.2779389089656124,2.069444426208857,2.2029315106127094,0.6284777104787076,1.9400274858971578,1.7929199660508814,1.7719841639629967,0.9411776862409283
384,1.8711525602717118,1.5062193409203692,-1.6294421988624732,0.7380478353905889,0.7399132545584398,0.27792401878527917,2.1926919129289395,2.0213710952427584,1.9762011911748338,1.890560646268004,0.663668482632973,1.655307346092555,1.7069898866120439,1.5114788786744595,0.9313942829593842
385,2.937407435946517,-0.9543914304113568,-1.7059312572619236,1.3254758918002094,1.306403932783596,0.65853676082874,1.5546048875040654,1.4603305709945062,2.132473587307915,1.1750684732443615,0.6309483474627791,2.396285458134472,1.9380097737182196,0.8911848107430788,0.9376042756956339
386,2.056164949570123,1.3281545364514447,-2.0849439108608445,1.0237159237242575,1.0257761061142479,0.6185143091907683,2.2937897431775514,2.242888316249336,2.140015380079277,2.3098224270672634,0.6425374456860184,1.8026856093616084,1.9242419123898578,1.8998939117686067,0.9454900305467802
387,2.8416998034382597,-0.3719653690105269,-1.8231636053087712,1.1467516155884034,1.1049727451248945,0.7087562072218486,1.9964505248813813,1.7993015921672293,1.90529569132245,1.7318675667076475,0.6652988471865258,2.354346333108432,1.686773467876371,1.365030270366449,0.9371415653492913
388,2.7482257545672057,-0.7205828107819974,-1.1540029752985377,1.1951167187819163,1.181908561709479,0.6607372468527858,2.517520889124516,2.59817909919115,2.3946047304119067,2.8645505426788227,0.6778444222523095,2.3508420660018188,2.141991990592021,2.1962320214234676,0.9532297606069485
389,2.9797580423641103,-0.8859498837011781,-1.5668189832564,1.3122768316087745,1.2688878565580912,0.7872699046505228,2.546826386324341,2.6605362574971787,2.8008240181686324,2.860682065900902,0.6357360191111145,2.6416384355829585,2.5715211226247714,2.456735772821304,0.9435054763910119
390,2.7281917854726623,-0.33123337713005263,-1.817707167720771,0.9776775768326725,0.965977680503818,0.6378002125410904,2.403602380885339,2.1389248771238583,1.7545183196652303,1.0388022895835973,0.6233814453054027,2.2378382602215163,1.5849536114786869,0.9448972437856629,0.9389650384911492
391,2.480228761820359,-0.7990695808436934,-0.15344798247325575,0.6855359872016541,0.6725434589597559,0.5828862012341655,2.0867710089754774,1.8782206582843042,1.5810807663365436,0.9775112038715992,0.663668482632973,1.8601810753467143,1.3998061377639175,0.8912804965110899,0.9494942992285261
392,2.032729004052504,0.32898291807485536,0.3611877556717644,0.7836103291579375,0.7684560980742566,0.7024345273173557,1.77454404577937,1.8199406611567424,1.5764887912110808,1.6681687185841274,0.6619902821573977,1.7038096438300225,1.3935862835004686,1.4124640788532754,0.9470999310619012
393,1.9032446365188733,0.7737983434613267,-0.20897623237938712,1.0535687965890368,1.0333309718652288,0.7169062308718925,1.8873784005280627,2.005067328039008,1.4873745235349638,1.8923201781864851,0.6125606311107803,1.7009442250122644,1.284177869429711,1.4716280864278426,0.9468784299798677
394,1.9093718387373064,0.19669730314999545,-0.7891776770491243,1.1736100909557579,1.138349318824437,0.6241408745662708,1.455794763994233,0.8868928899811512,0.801282563536308,0.3844623456069635,0.6509067234006624,1.4996372687502528,0.7219824654206882,0.36170859779482284,0.946730204774103
395,1.1922184681497985,0.6717553481058838,-0.24021963561928583,0.7136208482812308,0.6890985200362054,0.6305733563070296,1.9846161320117863,1.4128309739841323,0.4116153517241614,0.2853743670540672,0.6713451011121618,1.1048651303338752,0.3507078573827838,0.2219653374213731,0.9459015495937587
396,1.368674791607294,0.8443979662881584,-0.6557607944369892,0.7740343286279346,0.7439937230222162,0.7267886732586935,1.9001100858597042,1.294885603857734,0.4973384043816862,0.29876607528660726,0.6566669596287297,1.1692493682675504,0.3985668694757306,0.24509877355756537,0.9476804086296867
397,1.6930659969561126,1.4676552624886807,-0.7252335056992592,1.1682247878295824,1.1559635693329544,0.7266168296725193,2.8150550358193587,2.3026987634654943,1.46803263172301,1.2033369305228834,0.62595550513784,1.6056119076005713,1.2577285112445629,0.9665906978645398,0.9520326066794307
398,1.7921465669605035,0.6408014395538368,-0.32565021480597167,0.9904278608207803,0.9858708467823264,0.5104477556985646,2.2578116651614515,1.5973150518399724,0.9741187616619046,0.6449557801879331,0.6566669596287297,1.4845689303882312,0.8568724977083971,0.5505316111665103,0.9441121323094487
399,1.8504972238399098,0.7207454626980441,-0.6510784978890989,1.036352319731853,1.0124256435411751,0.7452633102058029,2.1645650350676315,1.2070209901647364,0.763393809208481,0.4310138567562909,0.5915533975974677,1.4668297827496075,0.6855170358085264,0.40041049813804086,0.9511260209495183
400,1.5435760063032176,-0.33659130803347215,-0.6530494706389566,0.8757398713030732,0.8141571360849577,0.4833405627225117,1.0686898653642551,0.5371054856112689,0.23129139876695637,0.14557652099854593,0.6357360191111145,0.7530151442698962,0.20077555985947365,0.12609797054063726,0.9563764314434331
401,1.397264273495667,1.1076915259939148,0.8038423674111876,0.2286284036166141,0.21431766194407792,0.3153811130608323,0.2596398932076032,0.2517622635344612,1.382093314047602,1.4278128941188013,0.6584896970785714,1.327983525153725,1.1439410904111063,1.0716046746751204,0.9590336066477207
402,0.6442397226687255,-0.007648839894798476,0.012446836729634536,0.32638491778369627,0.32502721291248843,0.3141489900537986,0.921419134967511,0.7674589591046082,0.21359072345954508,0.11888950245046623,0.6309483474627791,0.44833781501355896,0.17288154597696068,0.10039588354895096,0.9717882713948339
403,0.5781753334298413,-0.22579373035583805,-0.009289336780997137,0.36988528091891465,0.351225538600682,0.3117630894061867,0.3538549142493904,0.22911667014221387,0.13327784980557794,0.14086228839945533,0.675384900321601,0.32462272026406364,0.08541951358721417,0.06854927702544503,0.9537757949102726
404,0.750900664005674,0.28553427839960954,0.292825225511228,0.3145290872414563,0.31344953512768753,0.25035597556890776,0.163887372250101,0.08119859119482795,0.45273328747393177,0.4941742530910754,0.6125606311107803,0.5053406935354211,0.27763394666757624,0.22591882879724307,0.9384686741029803
405,0.9094837645029882,0.5873126398333933,0.16277275757578047,0.12463234025682715,0.11714071818043308,0.09116483056008377,0.08154409511635886,0.06295735771702937,0.7165844956823109,0.7413705747415311,0.6125606311107803,0.6534778501017389,0.5295673245412146,0.42700403570676254,0.9451349113265938
406,2.4595565129040597,1.2803654069521455,-2.6144644752039152,1.4705563777802544,1.4423710526645996,0.7917732017958282,0.021679795431548306,0.027357273697352934,2.636143861649687,2.7174794092615295,0.6333676938231112,2.326991635395285,2.418718573371806,2.385188621529256,0.9431117150128492
407,2.286183096803095,1.942952094249621,-2.333016508384877,1.4465488590717328,1.4208555684262634,0.7908024459383228,0.01987240033487469,0.02449459814169267,2.4433656414622225,2.420660990370836,0.6403206450210053,2.1994270008914194,2.2345949289008424,2.137261112568662,0.9347877332993707
408,2.2536728061001905,2.20874978712166,-2.454888703621056,1.337245426473908,1.3134286834464823,0.7658846679807961,0.01988056308091094,0.02630482723307076,2.429542844329235,2.5220090986758295,0.6602640781246099,2.2379424106147785,2.2140299303013267,2.0652434801745434,0.9358384945633005
409,2.291269937444929,2.162808852098997,-3.0494045841095394,1.3176914696665778,1.3173554289729468,0.8270543271818186,0.023286079934816056,0.038397967115851514,2.4608783392624907,2.6272420551779243,0.6509067234006624,2.280714887835245,2.226119397431985,2.3157631853746006,0.9322033364117686
410,2.242674895072041,1.8587132719206338,-1.9516913208303834,1.2726041941286224,1.2380751023683525,0.8318698147632853,0.020627169728452167,0.035300467797559,2.3864579174053344,2.5680907065357643,0.62595550513784,2.1911431070203515,2.1499548721550927,2.1538120844009057,0.9348060598081062
411,2.339589566147296,2.2930936824055794,-3.5238529726558503,1.350022880200567,1.3214077044766501,0.8298717393891437,0.028076029859852285,0.04574224296487833,2.6453652432215256,2.962110442217163,0.6684167106117298,2.320975384772394,2.409506103292872,2.6166404507007166,0.9222992566581306
412,0.7885392876110999,-0.16600687167112582,-0.0667735145332774,0.41530078846858726,0.3788721563821452,0.4164190730532152,0.58834814996784,0.30710574622940034,0.19698608413379545,0.12456499421930527,0.6447042257417027,0.49886045570771753,0.15679828044123625,0.09495278739543038,0.9387008320907475
413,0.00891915978759535,0.0063042624374618425,0.0063593530903649515,0.403793505570516,0.391801718350309,0.25324460697251555,0.13370208380513168,0.05888286956980196,0.051361543694714074,0.06464590326322432,0.6284777104787076,0.14019481382826698,0.02946063123882773,0.025886449897714957,0.9184319578127434
414,0.4324640921651885,-0.16029961859626363,-0.0342596778075627,0.4051923413283541,0.396002264020187,0.30871654655466196,0.23589130297694577,0.11169572482309198,0.11472552935535375,0.13645287809142437,0.6180765742263259,0.2531446735870599,0.06753514453673726,0.05491909162815408,0.9588545232918753
415,1.7977980357426155,1.4191371789900051,-0.034643347986522244,0.1821749806849215,0.16868976854299228,0.4481829849971373,0.06943808689989628,0.107141345878469,1.6510038558303957,1.9715191969100938,0.5713653840954815,1.7266586062343077,1.4196381925004462,1.5704258731590848,0.9265969728270077
416,0.20654422505910394,0.09239790879805032,0.06166753637676614,0.106969059718312,0.10865411445505671,0.08823934509112137,0.16571262508039125,0.18314523185188697,0.20510459626748687,0.2487240745315132,0.6547956803312163,0.17789138451463934,0.10983513336926962,0.10798629878157719,0.9840177312694129
417,1.02211966343417,0.5444659875772959,0.6263683510248919,0.16280166969132603,0.1634553926592276,0.25948642282718337,0.22401886854588263,0.24909890255609465,0.8039202870755839,0.8822077388738376,0.6068309995095971,0.9773685813827454,0.6263634185537129,0.5869142620396386,0.9528846129916447
418,2.619131827646041,-0.38039476519723214,-1.82773096194011,1.1624379645689809,1.135874440993951,0.8143997276516173,0.3168973052756269,0.5948336200226684,3.197505780453147,2.4818231164876248,0.6180765742263259,2.5793638601408873,2.91199902656408,2.3052841499632106,0.9198788125735196
419,2.1592540346027236,2.201590581588288,-2.7719077946399397,0.13766330170126678,0.12013219857435073,0.47125861961933085,0.2349670844713087,0.4139685804347636,2.3176069005777267,1.856737870728539,0.6425374456860184,2.1635963963562355,2.089353196042504,1.7385149547092427,0.9444568126315236
