,bvp+acc_XAp0,bvp+acc_XAp1,bvp+acc_XAp2,bvp+acc_XCond1,bvp+acc_XCond2,bvp+acc_XDist,bvp+acc_XFuzz1,bvp+acc_XFuzz2,bvp+acc_XK2_1,bvp+acc_XK2_2,bvp+acc_XPermEn,bvp+acc_XSamp0,bvp+acc_XSamp1,bvp+acc_XSamp2,bvp+acc_XSpec
0,2.2321894860688487,0.43591275127237283,-0.9557396104772604,1.2341821692209718,1.1901019633683367,0.7032483796911583,2.958447256849009,3.1492357353133564,1.7416423298227846,1.5587746152424202,0.6309483474627791,1.7694110655642932,1.4623248750335123,1.1655171414073675,0.9486088696157257
1,2.0786381572472927,0.736944753731926,-0.19984986746517341,0.7514541049341923,0.7450921200601883,0.6821883371824835,2.786493561178545,2.5317240704541333,1.7757539659540214,1.424292155714275,0.6357360191111145,1.7676523938848219,1.5860254718093572,1.0756733409875248,0.9506068557338329
2,2.2688953695175056,0.4660204795855587,-0.5169762148849815,1.3522457623897677,1.3639770666626718,0.8156539922744956,3.1299356597622476,2.7011425181058466,1.7525464172576173,1.25485519685419,0.6357360191111145,2.076867080672485,1.579652750668115,1.057721449701853,0.9563658161902729
3,2.296683537592579,0.29795363238437345,-0.013745655965695658,1.1747962116805315,1.1891067590778472,0.745928729713263,2.9470664756206904,3.0982377020170864,1.934684472392869,2.2488356630364104,0.6038851895711802,1.9223998068869943,1.6269109602393785,1.4189038110859307,0.9542612968754258
4,1.8384950320158233,1.1712605423235494,-0.3054771065916255,0.5414107911908234,0.508418746289673,0.5979721362697404,2.943352157502633,2.9224267522404697,1.501028404350119,1.1141686726900362,0.6740851607140061,1.779567428462693,1.2875415079335257,0.8549644048854288,0.9432132755913755
5,2.240440709397643,1.4006681998090516,-0.28880918213397955,0.9693614478651065,0.9499811647538372,0.782008047547669,3.1951667884818,2.6731196622013815,2.104079332367632,2.2658942055397993,0.62595550513784,2.1414115125170063,1.8606577735959233,2.0631614112346615,0.9449144686994072
6,2.693673810093772,0.12004787720423726,-1.197955278117875,1.3742915940943232,1.3554243958642302,0.8205084534095691,2.9833108488514988,2.959055907686428,2.2140118835341416,2.523254821040873,0.6547956803312163,2.2142690119454778,1.9497829627014431,1.7924745210997806,0.9474176038544464
7,2.2673249842194534,1.3148864989022906,-1.4589146157372235,1.3602927262817412,1.3401337457884057,0.7586018614534271,3.3827819861250616,3.5948711831248255,2.1215907025233802,1.7788959477498223,0.5883313578629602,2.113802969197147,1.89804037151321,1.5875791186216013,0.9507286162580469
8,2.3501083278086474,1.595919284787359,-2.850187944118135,1.1759235628736888,1.1537407894352416,0.6753012126324823,3.3282652847002616,3.2791343780386093,2.6764553533342474,2.9317056045917087,0.6584896970785714,2.230677953595439,2.430474867143589,2.5875290452137025,0.9450462309000806
9,2.267427097676209,1.6857736190635464,-3.050354893911509,1.220854777744447,1.2152230675057116,0.711190779043828,3.317040980839551,3.3782787394920857,2.564854857179705,3.0963025550507237,0.6357360191111145,2.2066690361642194,2.3235998416507546,2.643189566900169,0.9463808194151238
10,2.101864040738174,1.8911552430771996,-3.149397157663806,1.340943514690921,1.3350193567891118,0.7091144067603826,3.757066969408207,3.87029820583586,2.595494953462712,4.111174885861731,0.62595550513784,2.0484598040711073,2.376242393772352,3.0125708379168206,0.9253181275122608
11,2.319802304817215,1.0846352951668483,-2.2522760398083603,1.4972580039871488,1.515772911762365,0.7069670815365527,3.2406599229830766,3.2313294582286636,2.1449206139784147,2.183506830907009,0.663668482632973,2.102914897865478,1.9522089512033414,1.7212293184222172,0.9439390863248515
12,2.306378278473518,1.2394657504642081,-2.1817954800862926,1.2426081350371463,1.2203182735765001,0.6352986080241836,3.3633010212055416,3.2258479137923466,2.4278678798861626,2.9491154923779845,0.6447042257417027,2.1885622042575665,2.1688802247857764,2.349642154476643,0.9448238586657542
13,2.0729176571499357,1.5073782248089107,-2.0862632640283736,1.12490974361802,1.1287773702170636,0.5795366489054982,3.4646953000382954,3.4458801164180257,2.4011477303013953,2.7239008528535424,0.6425374456860184,1.9384050495695397,2.132222986035245,2.224949125351074,0.9404539101385023
14,2.337369762474785,0.891538218205675,-2.020012995809676,1.4986946473901417,1.4942176361312,0.6475930188681245,3.3871557832853907,3.5058389883909014,2.456783165817176,2.734139850154637,0.6333676938231112,2.1779122663038466,2.2130429991143363,2.2892218651818785,0.9122097906547217
15,2.0765757219263206,1.6106582642035878,-1.2888465079819786,1.4152310565707367,1.412008177983621,0.7304086925259404,3.7348724696900377,3.4945694092822697,2.273478650117343,1.9314579984804314,0.6425374456860184,1.9688944993347097,2.0398841745577445,1.6273451522899323,0.8846813879659203
16,2.621568819693024,0.2715593919131898,-1.974846539091319,1.3054858015851754,1.2975127236101924,0.6488130977802473,3.2983413680426046,3.361116292397605,2.590314486105931,3.0159395527033515,0.6038851895711802,2.291425372735046,2.3709032270929935,2.4411712562801924,0.9188207830300236
17,2.3126670903379702,0.7869726237784764,-1.9955851018890878,1.0122284590498087,1.0015109874127552,0.6049954682854413,3.2376377598213284,3.1493641459091912,2.256728681686491,2.4369635174833872,0.6468212168108125,2.10537492370634,1.9970018102130247,1.9115606690406757,0.9429650794011255
18,2.1381039777785795,1.2841424693414134,-1.9816355604491696,1.287964563388157,1.2934324480039443,0.6838009805716467,3.2011522346104777,2.649270930470373,1.6055447651678385,0.8575229702201359,0.6333676938231112,1.9390228102069467,1.4695349258615011,0.7073510040694934,0.9418603652095237
19,1.904857079112702,0.09462305021611495,-0.6525596770919484,1.36047103264779,1.3351116528637623,0.6146053834789016,2.6968676431119745,2.4790441577901925,0.9730015196880352,0.8351591043191152,0.6447042257417027,1.5191910345863222,0.8813744667679272,0.6537379482242789,0.8614492488656756
20,2.533772417948125,0.03772116099967615,-1.0202076549144832,1.3401545660264058,1.3191828334320994,0.7621429533202614,3.0601901542156154,2.7561753701254417,1.9082317239183504,1.6001113418813173,0.6425374456860184,2.1655321306037294,1.6924236535541406,1.2729656758128873,0.8951091832394736
21,2.3039695052035207,0.6368338877948774,-1.3952551626819223,1.3087265171885267,1.2845224857669617,0.7521457290800194,3.4151368484821814,3.3761856836168094,2.0046627241079884,1.8215019668257602,0.62595550513784,2.0957516084055854,1.7255170337540964,1.3837607899647977,0.9224802343366117
22,2.1530323845863175,1.61067156141727,-1.8509821079838114,1.149957712016532,1.1544871234756908,0.6374255875348033,3.455501457197158,3.4165503027273982,2.3640633099858794,2.7176417149298318,0.6468212168108125,2.0783754434978383,2.0849619902112138,2.150477314796588,0.9500170796592082
23,1.975530058575796,1.3755917871650414,-1.427245744757079,1.1412160777604015,1.1372297174946882,0.6641013956364523,3.4228789807696147,3.3270518531290616,2.0441460800215943,1.7227973831575119,0.675384900321601,1.8842403220222201,1.7701303574058411,1.4727984309241462,0.93376648092766
24,2.093746668808198,1.8928136042915633,-2.578557781358498,1.2456339899217648,1.2560379338113903,0.6123542375915679,3.5838579348228397,3.1920057207480914,2.1031581105068025,2.088072678656061,0.6403206450210053,2.02117263355586,1.9173084308353074,1.7070325021410577,0.9421987738504107
25,2.2693532392562763,0.4977037768552339,-1.4150711424352769,1.3543265313112454,1.3446692405278013,0.6085215299692807,3.6234180678688923,3.4780740686241343,2.519149359091724,2.22689204773653,0.585052858160615,2.182237447527971,2.2640314558742642,1.837332066506908,0.9450771297537292
26,1.8153040425086204,1.7724645510819292,-1.0207744308538187,1.1711216428221878,1.156210370689183,0.7796833274310174,3.454831017743868,3.7170642448699356,1.6533031228999175,2.0264606153452656,0.62595550513784,1.727971229481188,1.4447634393891577,1.6780519242840142,0.9448813994297369
27,1.992221260962499,2.0702256731463726,-1.4767772024450365,1.3737983879794962,1.3705789510009112,0.740820365471096,3.826396643120141,3.603917334895145,2.297009045512688,2.1564653839737367,0.6403206450210053,1.957105921816048,2.0733253146623998,1.8923367793432992,0.911707121457883
28,2.027930777584354,1.9432204837916167,-1.738742881959784,1.3795502829317814,1.3713412091644448,0.7287008149358383,3.776548057811151,3.905824969469419,2.193684221568523,2.38613179707126,0.6447042257417027,1.9780890474195485,1.9707132095118942,2.0788653388405,0.9312773346172335
29,2.014462953635078,1.4944240174803753,-1.692111786472405,1.2190736348574827,1.2276651499077702,0.7443379410423075,3.290515725436763,3.190919838470676,1.825032138175698,1.8024510381693601,0.6447042257417027,1.8778258383328696,1.6320709602526267,1.5260563034950494,0.893471978437546
30,1.927323578667856,1.8106070989277396,-1.3706507260574199,1.3761186245552204,1.3892719536221265,0.8184186343927632,3.390041721023227,2.728156829260321,1.7878674822777603,1.2073374171715128,0.6425374456860184,1.8593961179438663,1.5364821022406892,0.9375699129304844,0.9288339848980277
31,1.996703348330766,1.372838938704476,-1.8224176824500111,1.2566598827451958,1.236392632260455,0.7547860965951383,3.5291048344468563,3.2016072684121544,2.209341083387253,2.6811473200141265,0.62595550513784,1.898528383621338,1.9893441615745249,2.272668331956053,0.9341075403855978
32,1.9808983148463233,1.9134745063534815,-2.13187579146195,1.4327976710594883,1.4203897692242011,0.76643123060037,3.50778268971499,3.4438830684024775,1.9872237842764766,2.3691353809630744,0.6380535849069913,1.873041833847744,1.754638000394136,1.9049543842184917,0.9346316424181051
33,1.9741571071222324,1.0424999464246603,-1.1869295399908677,1.1114465161803855,1.103031188702659,0.6887772831535691,3.0355350172086473,2.902204625208631,1.6487880926753822,1.630165618345142,0.68318204999448,1.7855123564675883,1.4564046675473101,1.1060302970061204,0.9458878135228761
34,1.8831717367027734,1.4725190846855587,-0.16278111920059413,0.7655127599654122,0.7619476025364333,0.762576761713172,3.5202601779804015,3.808112436888359,1.6433277368145134,2.5768458910021854,0.6333676938231112,1.8316790932292992,1.44288563749949,1.8639039348773514,0.9476591525192963
35,1.4776507458742258,1.014861474715681,0.20567657971813258,0.7658029921947421,0.7093663606510022,0.7172104294076541,3.294885225289945,2.6177503028262032,0.8955506031965247,0.8335991843146786,0.6180765742263259,1.4089490516846968,0.7661227210103893,0.6216275093384434,0.9417497346676459
36,1.3914564194411656,0.9073691935534591,0.4134902155710942,0.541606387801217,0.5302867817895804,0.5569457451771557,2.3262008214884013,2.262951702280167,1.1229312804880751,1.1774135806148334,0.6547956803312163,1.321089395439159,0.959625492396086,0.7880660900349589,0.95515902242425
37,1.277075917543219,0.9522562395835628,0.7177923445535281,0.3772420557757511,0.36501455639336494,0.5765332968847943,2.1047752529339703,1.853254321647543,1.2503561803572323,1.270612665924548,0.6811855325194978,1.2355016940642298,0.9449640994570349,0.822179206857686,0.9516920125783167
38,1.4743821457167257,1.043084319762417,0.27114362556165306,0.5943118111412681,0.586109673169064,0.8010588305093262,3.271989023409968,2.619254467049508,0.9843251919775189,0.7067831781130341,0.6309483474627791,1.454811155473356,0.8907974276291211,0.5872532264146397,0.9524112042764571
39,1.7420740660479799,1.3569401530244114,0.25617485335412304,1.1255122056962659,1.1033559477279773,0.7834809388115913,3.5593212783257173,2.471566396824948,1.3652458020590035,0.9598396022983506,0.6425374456860184,1.7341196897816404,1.2363781125938091,0.8686878791004302,0.9501901487480884
40,1.5278283395703929,0.9349562862666756,0.3623496409659235,0.8263700737524169,0.7903746604065238,0.7898762841240651,3.6882349447060134,2.544051343152918,0.9477668131641042,0.7676785396475131,0.6068309995095971,1.5205117032396989,0.813678729169678,0.43113583651256343,0.9403453962619238
41,1.7466653846891749,1.1825306175296855,0.6964807938047213,0.7207294504295606,0.7167742831765405,0.6477859687399286,2.860013599836254,2.76363014401859,1.2836292440060029,1.017609134942894,0.62595550513784,1.7290350926560927,1.1934467191583056,0.8932214226080705,0.9456118555773804
42,1.3765242207856603,0.9733059941769215,0.5018153881028171,0.2939830764901688,0.27688990282297354,0.589542800907271,3.2907353707597977,3.2770231131940766,1.1263478089324381,1.0526655716289315,0.6425374456860184,1.3592413927308251,0.9100163875052258,0.6652748734458835,0.9487832317925252
43,1.4859695102798205,1.0785788150108897,1.1159442061163443,0.44389008236733096,0.42735876651327837,0.6581981314450703,3.2680303814493064,2.5460789755074327,1.2260909959914363,1.5646207500505473,0.6309483474627791,1.4757815276214268,1.018233141197301,1.2753520362078952,0.9429722409440595
44,1.6623359169698808,1.0199046316932059,0.11108650912355467,0.6370569648944808,0.6172293642892067,0.621771393885555,2.7364308861453774,2.72846665985865,1.4245162020405018,1.5296907577651124,0.6233814453054027,1.56165354491387,1.1931389187404717,1.0777007861504997,0.9371961562742098
45,1.5304409042286868,0.6887354589229051,0.11014879305496139,0.8797932208919437,0.873091064274701,0.6279210891390387,3.0918196341361286,3.3153139919357058,1.1058095771798555,0.9809870426618721,0.6068309995095971,1.3453230444154145,0.9026686499744582,0.6212058282748856,0.9449451400829035
46,1.7692936742096455,1.6805925295535433,-0.6385343507425816,1.182751973300155,1.1896582463078744,0.7150096192173575,3.6206704652735686,3.0076482774341833,1.6604054869022356,1.5345923248544229,0.6468212168108125,1.6859590503418433,1.4104533509688688,1.145659072940844,0.9176350989844502
47,1.8871502972374514,1.5579388307832727,-1.268989139150405,1.211452256182952,1.2114714159151323,0.7298351710253381,3.5099987376097435,3.1176402475815213,1.5961748901328714,0.9974342042224652,0.6125606311107803,1.7435408969575807,1.4043070913332991,0.846349625326282,0.9363601281060179
48,2.00299625351973,-0.29492374493613016,-0.3000099753668528,1.1455794989816561,1.140153219973382,0.6345406147688819,2.8159820636082786,2.717617215192745,1.1892577978499208,0.9129837214627832,0.6547956803312163,1.5795016194231153,0.9645890237183329,0.6222981556759946,0.9390807052519436
49,1.973424751208939,0.3665510182016034,0.22056825424753956,1.2885522986966536,1.2912093377667375,0.5947283408026511,3.052647120513724,3.0779570512507735,1.7172463615861324,1.25025075628601,0.6547956803312163,1.6802777265652926,1.445816364851942,1.11675047912331,0.8817159299711673
50,2.016284629624246,1.8317265758083212,-1.6290403577857995,1.2535854214005486,1.2463750794071136,0.799455411880464,3.6975874152564656,3.605280919979607,2.1574404130838585,1.4619937191163936,0.663668482632973,1.9878554594438493,2.016648398778462,1.4216468798356103,0.9078233963768305
51,1.9918007131898328,1.2028861249724703,-1.346683753077332,1.0358797846940797,1.0302692832396183,0.6188031664299519,3.5715923131334337,3.5924260701799624,2.069921942053513,2.1789635811645796,0.6380535849069913,1.8320954707509292,1.8014544013107459,1.7457365570200287,0.9444495127055994
52,1.7063469437867635,1.3159066158604327,-0.7717742508197203,0.9059258971841809,0.8985170498083306,0.6800672387673485,3.3454414488974944,2.719018816134016,1.080919175901872,0.7038193458314617,0.6125606311107803,1.5670704461041958,0.913976993358084,0.5389775266607557,0.9332907308494537
53,1.8744316386355362,1.4066100361441778,0.24679612294595366,1.2678778345181017,1.2714513313316937,0.7747570821132913,3.7851597135566193,4.632788056425945,1.5998042347126855,1.933254448836432,0.62595550513784,1.8474131334188897,1.4280330429377055,1.7486121380718014,0.9322211998602671
54,1.9765350129852026,0.3783137379115409,-1.1043083313088322,1.155777823567844,1.1373585713047558,0.7480810316924604,2.410940920978748,1.6692138934782812,0.8082491275984144,0.6576546765833933,0.6357360191111145,1.5459937398775656,0.6958098808566212,0.463749700169436,0.9413639467591784
55,1.7589018967098302,0.8706999630645202,-0.3193395890118085,0.8108514043967445,0.8012198867281336,0.5362999387530119,2.9547838936148203,2.7920765619747,1.5722096657046458,1.6309829844251205,0.6619902821573977,1.5749291377482253,1.3039093843342664,1.2009458888082793,0.9242862859404501
56,1.3599550593187753,0.9540240931089492,-0.05387724631754853,0.7699035207970022,0.7680545690510747,0.4447590198685943,2.7572599126317914,2.550282237931508,1.1165479432037686,0.965972050557524,0.6284777104787076,1.2215711960685574,0.8970270608124725,0.7195606295682005,0.9225478043815626
57,1.89811273833134,1.6003827144759575,-0.8930609044668762,1.182742436438546,1.1636594807662404,0.6399051153217353,3.4448918082081277,3.192583676249282,1.9268506832184793,1.7313463198248424,0.6233814453054027,1.7647281301770246,1.7488916808994182,1.5070658188733144,0.914367274821317
58,2.325918568685601,0.4551417718935804,-1.576789471877218,1.4570638803468634,1.4390069198650863,0.6532601164445516,2.933347338115915,2.502674205828555,1.5487361721179882,1.1068260490987212,0.6125606311107803,2.001657793792244,1.377125993033011,0.9891208126250711,0.939750384462633
59,2.401221527994903,1.063064804698855,-1.9081551196049542,1.4440100367157076,1.4162766774680036,0.7929725077848636,3.511676378409726,3.287379862870044,2.4700171697012805,2.792321805537373,0.6509067234006624,2.2400276996615287,2.1366797735347527,2.1710450717544485,0.9531759874095248
60,2.4572390593270863,-0.09755935145224193,-1.3679819591525075,1.4166653234321576,1.4114003915347626,0.6889013621583402,3.260497888260144,3.0888189034787437,1.8041013059447943,1.2469144626258215,0.6425374456860184,2.1225810343404534,1.6020407450936567,1.0147149214608886,0.9432860067435411
61,1.9692910893591102,0.3538314872571695,-0.11081118329457773,1.1086725482761632,1.1108006659361047,0.7217112274476757,2.85768709970989,3.0433399034910797,1.3452827417231346,1.3919837263614196,0.62595550513784,1.6331615501878116,1.1406723914604016,1.0208999772568328,0.9054567217865926
62,1.6774091286579906,1.0996070148851855,0.11677181528871072,0.7314227200518112,0.7220836255463419,0.6522220774346994,3.023647640580657,2.4133907531964476,1.552152162301447,1.371610113001106,0.6097226960127671,1.5566873470485714,1.3610556076437252,1.1114382816233908,0.9570702114066887
63,1.7803913118803463,0.7512976881317934,0.20867124307324625,1.0011844542741928,0.9644233200070764,0.7713593882842051,2.7445137869263134,1.766319426379841,1.0942803604785107,0.7095684192351062,0.5915533975974677,1.6377230816461923,0.9355048936485725,0.5939518585013026,0.9503873888893353
64,2.112733314549805,0.7676100671992581,-0.44667094766279813,1.3368919368537955,1.3183840137806433,0.757849353556464,3.177896985647896,3.1057705274759866,1.9801810424357973,1.7135816822394978,0.6284777104787076,1.8983058729584508,1.7821645915741096,1.4135464385027463,0.9416004886246139
65,1.8305535083648456,1.2453420626800276,-0.9137272340247931,1.452151809025485,1.4329090633197474,0.5765659920249083,3.058159572035041,2.5843409281172214,1.355952026905765,0.9982492775426767,0.6447042257417027,1.6767060815993287,1.244331090607721,0.8866258178968535,0.9243542078635695
66,1.5364927781210433,1.0872181470813336,0.08952724364108589,1.104581995669677,1.0731872670835505,0.731452998655041,3.5552003578264264,3.828376045208997,1.1939509072214884,1.1365262283089017,0.6380535849069913,1.436652420461485,1.042404704537624,0.9036456740268823,0.9431778187559509
67,1.6086398498736632,1.240673777190466,0.04649522881863222,1.0768433672626574,1.0491908288560599,0.7056461020172057,3.5340287173539093,3.5895733556957223,1.3819363266214393,1.1010370226745463,0.6602640781246099,1.5334547154869507,1.1881874391347265,0.931012522669295,0.940982673120384
68,1.9308005312225418,1.6933515890784572,-1.2960631886685912,1.3119339088930333,1.316777399569486,0.538740070031189,3.3113083788031186,3.2118995492199347,1.9218370721965063,2.1115300466433533,0.6284777104787076,1.815642409691387,1.6751150486834119,1.6178582440816607,0.9343564030138619
69,1.9451615694432978,1.8752835714850853,-0.9551295638544062,1.4080997629710572,1.3822188036293719,0.7958383782606367,3.3890135191937074,3.2987412547435597,1.8771014400596038,1.8410385631993922,0.6566669596287297,1.8769543152912869,1.6400280993645788,1.4624772619719402,0.927768389771524
70,2.013912114634555,1.8794913865587661,-2.037015936335176,0.9877401971982539,0.9644451807253408,0.6903985236889495,3.5135571050658583,3.204060352258289,1.9759257822428924,1.8385664495050618,0.648888643467878,1.9377876703247408,1.7568863174975318,1.5144122449978215,0.9423287389489023
71,2.2382542422173177,1.2148642798246474,-1.108595507750787,1.329228412059782,1.3084972650248199,0.7162486142949226,3.4410586255876137,3.482351930497275,2.275448533982659,2.2233142263886463,0.6668815377411301,2.1079324698574577,2.0525518948691883,1.7832487795601464,0.9230453479137657
72,2.202346430291065,1.1736517857705624,-1.8620035867200253,1.3259934651517733,1.3190978329150134,0.7240381904779305,3.6530650444713593,3.648958548561682,2.1926290715152157,2.4413728486135255,0.6447042257417027,2.0967459587700006,1.9004718927213775,1.7755574946517745,0.921103422002452
73,2.155653067733907,1.2412668565821852,-1.7798167893631145,1.2148140357030763,1.2135105785694376,0.7542201665462268,3.473022162972468,3.1402023859025925,2.152985738620224,1.7066316621592528,0.6207552362147116,2.0878322005650225,1.9191121713762447,1.3795972280216084,0.9182040402395147
74,1.7660658866063432,1.582322768918552,-1.2098344837941841,1.0585806919836651,1.0463641331876454,0.6402762131487161,3.442154115956956,3.16935398198157,1.714638434429222,1.748456018966197,0.6284777104787076,1.6696008352943477,1.5015435867526632,1.3937372450269692,0.9421507223611663
75,2.015767917223932,1.3115490773932144,-1.7502443532073018,1.1671566499043864,1.1582131740539168,0.5919413429893402,3.154977848828205,2.715867191866262,1.7810412571600207,1.3620078028472509,0.6403206450210053,1.8038320504623242,1.5498458152318548,1.1253492654535575,0.9147609492923917
76,2.386682615176548,1.3721031073683845,-2.750844206629417,1.3739586075834698,1.3684686811669196,0.757254767362979,3.1937319606233587,2.9127355592339677,2.345497006925783,1.640391930292482,0.6233814453054027,2.2608035589790907,2.1123734604178086,1.307540182328306,0.946158270978151
77,2.225125224617857,1.2136463886375917,-1.6364925791059195,1.3709227326527904,1.3824516653407508,0.7096153021438415,3.1929411213540666,2.967556446904217,2.1683773528153067,2.1307729154814568,0.6403206450210053,2.0261325024938137,1.9174958423496635,1.6468254445057207,0.9080397929242039
78,1.9580130342922397,1.5486002400447016,-1.6250748548759195,1.306795705474063,1.2967387546023175,0.7597796398737251,3.2906618717114062,3.1749621838681845,1.9890195538417337,2.3838110992331667,0.648888643467878,1.8680647254381295,1.7537793273396485,1.8776379583656932,0.9457285858169281
79,1.8693814361639207,1.6915386258351952,-0.3763684241933203,1.2607177041959543,1.2464554899956393,0.7411749053961135,3.524289836576598,3.0946478756094002,1.9381875235267172,1.9815153631863505,0.6097226960127671,1.8361294169639955,1.7303357669262869,1.634523838697192,0.909609495874757
80,1.711088222270437,1.7221411269972176,-0.8193996530467476,1.472472797809219,1.463881608723816,0.6157256406888283,3.5034621372556787,3.4067331033988095,1.8263783259942006,2.0207065087862177,0.6447042257417027,1.6749843487549745,1.6315090974378832,1.6908966211533771,0.9306550160488282
81,1.8143926802972021,1.7157184371584122,-0.3681294170976299,1.4621677840971552,1.4813210460727666,0.6966226237633418,3.5977271760907366,3.1244905685126194,2.0722328126696508,1.9776242196662066,0.6713451011121618,1.7875018789754138,1.8004267679693964,1.5832667121638875,0.9246010235558144
82,1.7916889930332702,1.7155209114079526,-0.534862739080181,1.4648526366460806,1.437524149757619,0.6659440202768191,3.419427292502405,3.649281997197287,1.829801566316022,1.859409574372757,0.648888643467878,1.7311662204527685,1.5771481670626732,1.451562188233631,0.9208981175311708
83,1.8420646202204367,1.354462357654273,-0.9165147134673863,1.286036278722405,1.2659752218199136,0.5966533843130684,3.4884323524546987,3.312470943645072,1.7384920046915513,1.7271698874329449,0.6602640781246099,1.74850842723374,1.5025462959986957,1.3267164885675409,0.9418242536743244
84,1.777972652559932,1.7874786930689122,-0.8092153573271226,1.2502663419829672,1.2298053763181298,0.6428082337437588,3.7447760112050066,3.9183972387609263,1.8140992466821457,2.111331365179141,0.6333676938231112,1.7484445845421104,1.5690245815893324,1.5122344254599125,0.9310364241138858
85,1.958167824663404,1.7212616107684011,-1.4771844380705508,1.1779721615568777,1.1624620952439437,0.7873162241359469,4.052773975381025,3.3216555304300215,2.0532984043607034,2.4878917817519,0.6180765742263259,1.9330158610700805,1.8050538372346274,1.9690516776170077,0.9264628607363552
86,1.8615825969061568,1.6781570082945159,-0.7885875179090203,1.1504607738579244,1.1376598982164168,0.8007412261908816,3.6412346306319985,3.56279104033506,1.7363878370009596,1.6829410244185097,0.6233814453054027,1.8031575141804244,1.5121680284077672,1.3588375148868512,0.9443688486536902
87,1.7290238748275522,1.7861927886282432,-0.4867584808874028,1.272793564170297,1.2516131979432181,0.6970461733843952,3.945799570847398,3.286286764513441,1.9000932960226344,1.8941015497802376,0.6566669596287297,1.6973587938065706,1.6528286669478398,1.6069070664138154,0.9264980736764387
88,1.6828076613300258,1.2165174029617618,-0.2607142357778769,1.128888028734433,1.1103119318646402,0.7479616178552225,3.122401122040952,2.5691066083258702,1.2207986980126897,1.0270135223964874,0.6447042257417027,1.5271413363748259,1.0737000582119405,0.8477970616755257,0.9190230393972021
89,2.015552429182526,0.738583496921962,0.4951052266265732,0.6802754887679343,0.6735280871047513,0.6200676006749999,2.268715413933586,2.4035944623030456,1.7719636207167277,1.9575143301467626,0.6153451465759925,1.8125065423728441,1.5800615125912567,1.6834950444546102,0.9364537381616952
90,1.986663651194555,0.5126113163153725,-0.24018912838053952,0.7613566120804618,0.7483426838409611,0.7089504700974203,2.9554602359400595,2.3272619644424584,1.4662781541882914,1.1486474273984135,0.6153451465759925,1.7042981934580606,1.2042375350657755,0.8822534120901937,0.9216911461456552
91,1.8369575222326087,0.21904022919742516,-0.46498935049127965,1.2248114622464497,1.1975309450843827,0.8221997315640823,3.091122122036256,2.6688610084712012,1.0803718325678746,0.622400732769798,0.6357360191111145,1.5643052223267608,0.9176723879553597,0.49504195433971643,0.953619582601069
92,1.9604707234954042,1.6476346558401394,-0.42467925004206286,1.1680612905265637,1.1518995842363307,0.6922222362282908,3.793679815582127,3.7075607912628263,2.023447009007753,1.9302059752307954,0.663668482632973,1.8992704436138341,1.821673170753948,1.6802681753428872,0.917066209333941
93,2.0736313622766707,1.5644407095677764,-2.222262869608331,1.289423281819684,1.275178213749699,0.7228080342067493,3.3565548547583424,2.9843715803267927,1.6506542764527237,1.3111616969361601,0.5947193981915972,1.926586939493697,1.47161493318866,1.0643120129042114,0.8907696315626796
94,1.9424126977584313,1.6736320683071788,-1.3683534147075433,1.2970130731660299,1.2737555793608202,0.802137332822709,3.5976109119089945,3.0978675202065586,1.7195976467384266,1.6649837633483602,0.6233814453054027,1.8697210106977669,1.4993319176378213,1.3439499624557185,0.9413647020097472
95,1.7490949548341612,1.6110472639115743,0.7156591925107274,1.5071487876956584,1.4854567090164006,0.8694657819105309,3.9232339410108934,3.3685726318551343,1.693093607585113,1.5691775421712346,0.6509067234006624,1.7250358371851469,1.4775839471080485,1.2813165368807797,0.9331079485945455
96,1.8598550391583906,1.6450781081627872,-0.6482998477102422,1.4151631145992143,1.3828513326461749,0.6839410783171975,3.746885612819958,3.7112615449051862,1.7955063818010764,2.149718428396777,0.6333676938231112,1.7825354747005233,1.5810450433903254,1.7322496220686392,0.9481664223140858
97,1.9845338767032157,1.1655385170175538,-0.6033975440633279,1.1988649240829001,1.20241166722403,0.7137347871963201,3.444016998833808,3.185430975968608,1.987805750971019,1.9073488732157653,0.6403206450210053,1.8395501330644035,1.7703127807313086,1.4608763043702493,0.9145360901738302
98,2.259244461737528,1.4166363856168442,-2.510017407455048,1.3677782906858826,1.3503759851382355,0.7168985611672475,3.4841108068443054,3.01530570582276,2.095506288030935,1.6241077643997288,0.5978297680564633,2.1531120027178985,1.956684664063124,1.495649907154317,0.931452534715036
99,2.25162425179354,0.8897940936928097,-1.7109182908710079,1.105625519125639,1.0934375592544257,0.7211342155531357,3.4617738468502237,3.383218309541954,2.29445696388537,2.3556041539251042,0.6528756675646988,2.0997349560589624,2.0758196615886817,1.9138903378205419,0.9524948701978994
100,2.5083126995320817,-0.4513784543294004,-0.7256405784516933,1.2313460320216307,1.2281082078573935,0.7345404115030212,2.64702662845922,2.724166199885279,1.3989097615235402,1.2334575858058217,0.6309483474627791,1.8969718477105864,1.149118485184999,0.8793556928647014,0.9206115060589043
101,1.5926126043717481,0.7429405487176051,-0.6758392188243447,1.1062086334456724,1.1072253064727673,0.5725527848219659,2.9446339937830093,2.665424297790607,0.8129822904874834,0.6601783857415138,0.648888643467878,1.3127135119980906,0.7014397896536283,0.4650363878070525,0.9537949104555408
102,2.208669678913702,0.9564426503379284,-1.5588411296240494,1.205398955273081,1.202429364309706,0.7468875013708777,3.7453634988278246,3.4768238294407356,1.8753925763977621,1.3659265486206629,0.6309483474627791,2.0615579659146857,1.6868356157316582,1.180661725457489,0.942665006639234
103,1.9722642408602102,0.5705623333705951,-0.43029632281059405,0.8916271590353714,0.874139984220747,0.6433426314329861,3.3437745124505303,3.373727226462367,1.3777610924306356,1.1648210343556904,0.6403206450210053,1.7515776795952231,1.1750432109760625,0.80447041235196,0.9497961885576188
104,1.6446141510376882,1.0419022027545781,0.03366954087618845,0.5318387973385589,0.5193161256769538,0.5427551568714173,3.1087173868193405,3.550627632494468,1.377660718755958,1.6734656750625254,0.6038851895711802,1.534021273149346,1.1540629153119861,0.935007525114601,0.9512260763742256
105,1.7016321285576164,0.9046422269425716,-0.5115692892810091,0.5891450931784067,0.5743947190013289,0.5326983392868284,2.536636024579676,2.1193619120490124,1.3591163997509224,1.053372745721566,0.6153451465759925,1.4437351677701122,1.0966841919481467,0.7624421212230345,0.954217119254425
106,1.6150449096088477,1.3917652765279882,0.7298819736459188,0.4125336049662271,0.3928740929263953,0.5344443132068792,3.475833773267434,4.142209307111184,1.562877108519831,2.4021299992910423,0.6207552362147116,1.6031797578194855,1.3990178152589359,1.9010792026973349,0.9528421133641106
107,2.164062270481007,2.190886585681719,-3.121088440247836,0.6029441450175259,0.5824238356591395,0.6484173546699826,3.3222845027904366,4.006264192569134,2.4849450433393243,2.858923414436407,0.6284777104787076,2.138295509806932,2.208793073505669,2.703767539310209,0.951987050223181
108,1.0862248577231939,0.7770126351181135,1.064270819649905,1.1289347804614407,1.115983462945943,0.6866219178037454,3.4376645855923704,4.995327042361351,0.979196759184713,1.3781877173565749,0.6778444222523095,1.0831327178197234,0.7702185074149726,1.004746972111173,0.9251874001529565
109,1.4510060594592826,0.6513647334373405,0.7048930431617415,1.088461284003904,1.06751905681619,0.8307348458627347,3.6669972532692037,3.6691168475064453,0.886073630868883,1.0375105684595007,0.6528756675646988,1.4486899946967162,0.6477846795393601,0.6625180056037085,0.9208935017829841
110,1.4000442446653152,0.7602019404864617,0.587564290027228,1.025436065523438,1.0055923217361062,0.7449518470192185,3.2313609189886643,2.3224258497423516,0.913710096327196,0.7497681325514937,0.6153451465759925,1.397198035149178,0.7510459199654196,0.526049149189479,0.9495022403479039
111,1.533661467655675,0.8030768064348583,0.22841713845337175,0.7681966289191112,0.7338603845073338,0.6800273184116195,2.624783116916419,2.2168918674878073,1.06623695658532,1.0685148211692985,0.6652988471865258,1.365490057020231,0.8549007983478277,0.8256994775275264,0.8952235618960915
112,1.7105596766366413,1.2062063392275846,0.3066516860350488,1.1761604487369208,1.1274339124464154,0.7319728778011737,3.1692794624813025,3.6067476744783056,1.576193507977755,1.692669707889817,0.6180765742263259,1.6315699172915508,1.3275090386144048,1.3159884417464027,0.9215205067700438
113,1.5109761804219444,1.1484971847147216,0.0886719436681247,0.7784822533517068,0.74949336915032,0.7124368154030728,3.0235222702305102,3.083503633777725,1.121966487341352,1.1071015408584102,0.6097226960127671,1.4397889068939123,0.9238445087762127,0.8149538902839644,0.9345352163148337
114,1.5485652580667189,1.478621980563254,1.1994170311856291,0.5246519662411374,0.5170169273665406,0.6284194155735962,2.964829535835024,2.5433169785389995,1.687923655691992,2.2483941785340757,0.6008849035917525,1.5362907191409256,1.446854438907594,1.5721772222120043,0.903230853006325
115,1.4460068322250321,0.9342238860988008,0.5978961326389114,0.6414713278339463,0.6094133886344514,0.6778969935519983,2.971743484399194,3.465014253816279,1.1742367701203582,1.5962696778561587,0.6284777104787076,1.3388596124656889,0.9980869080456679,1.2287324998164224,0.9471806222668332
116,1.6037630986088673,1.2221364455770025,-0.3748689774497427,0.7145676761714209,0.691778957726982,0.7534085241271233,3.6940932087589906,3.383064041027624,1.1796659427901603,0.9388273782886166,0.648888643467878,1.5385135740974016,0.9812606110196743,0.5771298582881015,0.9382017110233463
117,1.7808066816646537,1.4948262284346296,0.5103902292802083,0.7546789985502841,0.7332227445988414,0.8553946126377756,4.05763534596128,3.9559073787303376,1.7310787437710897,1.9621314963653018,0.6619902821573977,1.7555561242678421,1.4402544276693627,1.0800558869082864,0.9259500020323279
118,2.067005429199023,1.0600682599386975,-0.3677450061194327,1.0497829462408779,1.0263410821805976,0.7423712706523388,2.741821797757499,2.571052150845315,1.8077387694404394,1.6542452958094682,0.6468212168108125,1.8919481964834872,1.5725440355509819,1.2889201970947142,0.9493723940948443
119,1.7290733336403339,0.1535616491338636,-0.6711385947317223,0.9641433640025071,0.9209941146656356,0.7445409358789727,2.004889839052967,1.0350947622801874,0.4958866116985925,0.3377200500153683,0.6068309995095971,1.2188608612642855,0.4635062311925727,0.26823180941794805,0.9487082787672046
120,1.2927129650814166,0.23497100961636486,0.049402884620474374,0.43488921189479846,0.40957702794146483,0.5965723444607208,1.8481198797851601,0.59011367229086,0.5037093364889823,0.23754720648586083,0.6652988471865258,1.1632930421424423,0.447590358951641,0.2615801055489344,0.9369412810077415
121,1.3974761700158747,0.26054647013652654,-0.12156289914576113,0.5421710171544472,0.48649144785074444,0.5314654115658285,2.095006235033597,0.5954772553532384,0.5872255456219403,0.14993394639049032,0.6180765742263259,1.207906456928587,0.5441196100808682,0.16771830035958019,0.9433154191582949
122,1.6489832853276516,0.9156078543909834,-0.3529054926178201,0.8884552967296773,0.864825704561582,0.6221707780293059,2.752177638078094,1.006340533024419,0.8508922265635016,0.3713459254895236,0.6380535849069913,1.5511165947820604,0.7167450621535996,0.38933701400911647,0.9303913653709873
123,1.9626890696407004,1.1994352954754939,-0.4109979382900333,0.8824265596671552,0.8285677747524743,0.6606624961245863,2.9580743000899345,3.7666829245700013,2.09152207759645,2.2738829840299966,0.6425374456860184,1.7660917224794772,1.7098292053786146,1.6419284505453131,0.9295072467497707
124,1.9993558317772828,1.4120218292940183,0.9341627939442545,0.2981167412583365,0.28560963857388705,0.6616764291688207,3.1247576027656714,3.658128540354104,1.4713925876548777,1.4293190318183187,0.6403206450210053,1.9982097976006044,1.4026543062714307,1.0919699527218047,0.9457573314229674
125,2.0885934582140013,1.995357275507553,0.7414324578362805,0.2444568125457458,0.23854459673983797,0.6913233057922619,2.728308674982743,3.1006434770920133,2.079420235797031,0.9023962824695639,0.6509067234006624,2.088011492362903,1.9696797522111622,0.8307264167979413,0.9319160748745696
126,1.0255630812253902,0.5066683906905005,0.3131139943085388,0.8989919254875627,0.8896943963185857,0.6289419130960315,1.8163376554890878,1.7824669075107324,0.7254521717861835,0.6477121059436461,0.6309483474627791,1.025485750344005,0.5129760732940999,0.31851195057355225,0.9386114799141925
127,1.4862218820553694,1.0150364801815501,0.7873525205900935,0.11826719857387902,0.11189394034438156,0.6234472804594573,1.9767464334803322,1.9860445919379208,1.1966105056062486,1.311883771396744,0.6584896970785714,1.4820224059954428,1.005153483236601,0.8379868061541142,0.9625453644294895
128,1.7288964341626774,1.4315680162877078,1.3094175596111755,1.3917129577844058,1.3720849391982675,0.606474036072271,1.6509341516064213,1.7834796676559028,1.5800719052372036,1.8859473499093837,0.6403206450210053,1.7276585438215315,1.436886936501622,1.2979684052634148,0.8766281656226734
129,1.6714920427794957,1.1225816613663229,1.0523591110741326,0.9967657802202675,1.0001603410572717,0.43520781748835563,1.7160066447284996,1.7030184441906786,1.3545765833924008,1.3543224952542745,0.6403206450210053,1.6713724195536057,1.12879307045641,1.0567382161970509,0.9445098438569849
130,1.8733726117185643,2.2245655926593093,1.5035664652398557,1.2006845649415976,1.1931683206575208,0.8432558857560569,1.740356965881822,1.9904874935321466,2.2799080970897427,6.547945227437337,0.6309483474627791,1.8731864679237842,2.2305352561109135,1.6236706162606371,0.8697814789032245
131,1.96817297313856,1.396623263919731,1.2364062031153007,1.0437192244825164,1.001259548021403,0.62555420669584,1.648063647036112,1.9818973907213042,1.6664508141183025,0.9866363485935564,0.6125606311107803,1.9680194346434143,1.4023254835359764,1.2437538985530021,0.8915132795397208
132,1.5459457549292714,1.1634020266757432,1.176769833114288,0.04466961139416602,0.03565802844726348,0.7531136021173902,2.303928159281905,2.41070036386959,1.3717847714556572,1.168550827329992,0.6125606311107803,1.544639008532397,1.1647454155829498,1.2015280870287721,0.9744696832291487
133,1.676393208566368,1.8754234732732888,-2.294365180914342,0.04466961139416602,0.03726085544149853,0.6270114706024944,2.1286239778110487,2.1986324608435033,2.198989155507065,4.688955738815471,0.6652988471865258,1.6730287346320571,1.8758955590595539,3.4766140209469096,0.972436592201066
134,1.7542508990468473,1.3755982977849934,1.1088500918847206,0.06698765724152846,0.05466267822113384,0.7800055957175182,2.0833848954928387,2.397802731499361,1.7443953266522325,2.152906948348215,0.6619902821573977,1.7506815074702085,1.3675951188418765,1.1425161435476803,0.9476322171331819
135,1.9997702293945994,1.7391669694989054,1.2696611015523573,0.3966343664722285,0.39093829648794237,0.6682391457835023,1.9031265400922488,2.239827388146675,1.760445088399656,1.3064472916751555,0.585052858160615,1.9993578092068025,1.7438605080069824,1.2774673127359721,0.9136356406212316
136,1.7355088922810402,1.6734258226996406,-3.2177570812053315,0.9953972948620359,0.9785155854172994,0.8163009368501438,2.167039432987035,2.9634869097251637,1.733926999522219,,0.6425374456860184,1.7353161258048435,1.6786288286798146,5.6910349018336985,0.929240803517083
137,1.8527797096168865,1.637899702576123,2.206414074312395,1.0037328132050343,0.9907525257633097,0.7042706799424353,2.0022510092434502,2.099292487113538,1.7201625253209107,2.1246426988816167,0.6333676938231112,1.852288262302877,1.6439526680461725,2.214230532457948,0.9150387050220902
138,1.7613238445953447,1.3122740746761146,1.0356164787337638,0.10696905971831198,0.08461020341234118,0.8526853456950026,2.2175265912159725,2.0303570206709876,1.449986579778882,1.5683738447539037,0.6333676938231112,1.7611009482742623,1.317288558960738,1.039564920626234,0.9259573007015904
139,1.75138675538535,1.279310451401222,1.536148445469367,0.04466961139416602,0.04124218312052571,0.7346833012627602,2.0929718743864982,2.30724875992945,1.6094259466604743,1.6238595636928188,0.6357360191111145,1.7490831949476187,1.2736777509942916,1.5658799380949704,0.9689120366890198
140,1.8699457084894573,2.1209799846715423,-1.5738670154597183,0.022340379843483554,0.02067103222088949,0.6754490469756681,2.128722876067194,1.54352324010389,2.403730743377512,5.737103975235123,0.6566669596287297,1.867057893278283,2.1044792396822705,2.2049191994972617,0.963085488331667
141,1.9336994370587999,1.666374200125137,1.8676066887910476,1.5137780701883339,1.4832150957392438,0.7676140051768684,2.4754629800028307,3.4021184892342586,2.3444670133363488,,0.6547956803312163,1.9335534748459418,1.6713934110237887,2.146626252622819,0.9188249716033661
142,1.7021178982779068,1.0170633154474993,0.6733907793633889,0.10696905971831198,0.0984534195147684,0.8190711304026902,2.248373149338444,2.411670710942324,1.3401432410361136,1.3135367081584164,0.6509067234006624,1.6999706336003233,1.0257345027406075,0.7062951544762697,0.9473429436232407
143,2.0631880855982923,1.7061302431680865,1.7272935349628709,0.10234807851457901,0.08287727437919622,0.8265291414221825,2.0842625230480385,2.7837575627199165,2.127685130373175,5.2589464104879236,0.6153451465759925,2.0616452830943963,1.739035134998376,1.9267119222025626,0.9174254955944396
144,1.7675615277418684,1.4716291014254048,1.3106020695188039,0.08467349851939517,0.06771701518650317,0.5849701352283345,2.2513219696511135,2.4480585715613272,1.876310679630859,1.397505113915857,0.6333676938231112,1.7556204226121817,1.5298701513380029,1.3501388195226152,0.9162716315770558
145,1.2441571840943266,0.7229153570251787,0.3277391633977007,0.4609036234355571,0.4310597050175234,0.6849672486647942,2.4256879706219467,1.7716696206125064,0.734050019812177,0.5219761374125155,0.6309483474627791,1.194132490525522,0.6082835588910619,0.4272284191757468,0.9478849344774478
146,2.0625471690681545,1.4202814331181854,-0.07624274108690887,0.7363311140223223,0.7040573766341046,0.6404732067146431,3.524664987772254,4.188073591824672,2.067941301424217,1.9576436769735872,0.6233814453054027,1.9979639664853417,1.7147529104424502,1.1950610317287562,0.9483845055346456
147,1.8683391153254167,1.17435460390753,0.22600478733210494,0.674283806629623,0.6614026269809467,0.7022134269256654,2.7111562359723442,2.199781963465473,1.4546269537043803,0.8955798210339927,0.6097226960127671,1.8141414201211854,1.1793710966944926,0.5776826719516001,0.9268569186364478
148,2.0349301078201476,1.3279016659323735,1.0342965452767965,0.21741154249979316,0.20187795663346308,0.6136918058697223,1.2653226296360285,1.3413021299070191,1.6972126742340892,1.7152584882023658,0.5947193981915972,1.9952638052899163,1.5235916198404715,1.2436185546763703,0.9069047317576286
149,1.7006330065366142,1.3390414235029966,0.8589760067495948,0.20905883749319043,0.20259463206927716,0.5732406660313313,1.7598770418541307,1.6818309126428657,1.4538642482340431,0.9993086822404903,0.6097226960127671,1.69535897494174,1.3221645686149086,0.9186783175686566,0.9496040423643135
150,1.5017096023553276,0.9932774139960612,0.6764110458789716,0.3524233312654198,0.34142602425780194,0.5383906110585427,2.2395798150442117,2.1587828619565004,1.0842741342756863,0.9127556741624864,0.581717464821069,1.4459500080996652,1.0396235306760389,0.8642972157211107,0.9440722004255263
151,1.8793478309902638,1.5486787611718427,0.809396532747582,0.3728313678426262,0.3642562334949393,0.5351620784176983,2.3191771278446045,2.280654586943198,1.7559514018155384,1.157502543726076,0.6403206450210053,1.8317484774444184,1.6284914448515206,1.1371825769013268,0.9336254079692675
152,1.624418263100442,0.9129575703021746,0.28270565003346704,0.4377700580941285,0.4194593756901099,0.631265127370642,1.8576167434368362,1.7269381843815583,1.2645194859617257,0.8673667030472416,0.6207552362147116,1.56563370247538,0.9980275960015255,0.6940131064330747,0.94909632134176
153,1.609063069920059,1.0373380298145713,-0.4914347960257577,0.8032958079406637,0.7840643238357131,0.6856575580146343,2.389925209749795,1.5589100953024366,0.9468763833832916,0.4990461268639458,0.6403206450210053,1.4685654757749145,0.8438455113704223,0.5104890556358151,0.9477616792657286
154,1.9254874072070378,1.001874628253994,-0.3504954167608947,0.8091493531637208,0.7809338113285573,0.6949264044980997,2.479482668113258,2.314749977273389,1.1875757532845657,0.8610329250362416,0.6403206450210053,1.8467085607130709,0.9018164729548575,0.414705867788379,0.9144033229210891
155,2.134694906322038,0.9998836160155191,0.5636433448006897,0.20353593427429467,0.16974826493799272,0.7559758194286847,2.4080603983522013,2.5154516539928014,1.21674521925335,0.854246525702496,0.6008849035917525,2.1220243447732843,1.0438374448092995,0.8349924295521782,0.874597278316527
156,1.8517738107121764,1.0881931960384954,0.712591902701222,0.2654082772376943,0.2560483519177893,0.6827997439932137,2.1241725822041455,1.8928112058239233,1.227248728226533,1.1179439536154927,0.6333676938231112,1.830084583549723,1.1147433601425005,0.8845915332007125,0.933900909012801
157,1.844433927207824,0.9143936478059371,0.5905033014275429,0.3686977030744586,0.35378641707948194,0.5163814979493235,2.0540978766487177,2.181211427993013,1.2046314973668928,1.0748252684750579,0.6333676938231112,1.7915594892253888,0.9616624305235423,0.8732045197184555,0.9433486681233426
158,2.0814125249107756,1.391834915725461,1.002413764314845,0.23027697449034065,0.21960092827678682,0.6133216929986207,2.212831742267681,2.8430191601045314,1.7530782378693364,1.3382368057932408,0.5748741956352443,2.076335260060766,1.4313343661119062,1.382224050227455,0.920618035623873
159,1.9178440401115502,1.4956683909014905,-0.1628563351057628,0.12463234025682715,0.11146125068749327,0.5330645780455378,2.294735503166127,2.7097889919746967,1.689050138348012,4.539046591746726,0.6207552362147116,1.907993704894588,1.5371555642967503,1.8939900918769537,0.9488524686570279
160,2.394120119162656,2.4363845204378163,-2.323247301263541,0.10234807851457901,0.08245963059713957,0.7001650602059846,2.431201477962524,2.3871941937937398,2.683209633780484,2.2661364438227074,0.6068309995095971,2.3843978848611984,2.384599275284683,0.8274267961898201,0.9207662507541255
161,2.34434541690859,2.236245368927258,0.9468734299038903,0.12463234025682715,0.10849338519574593,0.7156149715178731,2.218426048104013,1.9352373225766426,2.458623748134741,0.918485587672459,0.6333676938231112,2.3437543700321166,2.2189951000720227,1.0396805102917743,0.9344482759200836
162,1.9267206803678107,1.3494668543852917,0.7983010546660152,0.06698765724152846,0.05135970938049665,0.8232966767575463,2.099781476066581,2.3149332829716562,1.5669671306516457,1.5331320845114145,0.6699045166045591,1.9259005714972564,1.34280762711882,0.8203172021284243,0.8954126174823556
163,1.7785829995612188,1.2157047162659644,1.2238583847420283,0.04466961139416602,0.038289376544967335,0.7011377712615203,1.782121853691703,2.129377678293487,1.3431363905065368,1.3790879863767358,0.6509067234006624,1.7762798983796686,1.2136912247392506,1.2551963288377648,0.9355163885223321
164,1.949328282686938,1.1574780440773067,1.0560991685299435,0.106969059718312,0.09979172445755126,0.48013267115060865,2.050087120588832,2.308697280049238,1.3483556128178251,1.3191475109752888,0.6284777104787076,1.9490372555825781,1.158495981950249,1.075278306011604,0.9211472888692851
165,1.8983530621482696,1.6693669670020495,1.1223330013465187,0.0959829368316309,0.08203707569901009,0.8354324208155666,1.507382673539596,1.9233534038244047,1.9581994623168495,1.8069326668482173,0.6425374456860184,1.8957135669479968,1.6621376247595354,1.1701145717604868,0.8900891098720599
166,1.9385645569789014,1.2165531679914408,1.1260466055817036,1.1356230654293478,1.1135808366055444,0.9044380578071411,1.7383141796181103,2.452222374731306,1.4579118227381263,3.3636041826369105,0.6357360191111145,1.9379419794061366,1.2169162933386204,1.072636802264849,0.9269225011321126
167,2.0261105188130575,1.209019914234449,0.7644273667173711,0.5908911537949354,0.5731397552879848,0.933555418342772,1.4665706255174062,1.7790031437610194,1.4514333572085496,1.1445363344744288,0.6858323589451731,2.022851190391439,1.2125493068090594,0.7782861620041478,0.9042556568699047
168,1.2319677975704375,0.7242593115306759,0.667197879372871,0.21391055692706326,0.2126838932552575,0.46299563490283135,1.7332747470809846,2.054669324405801,0.7854892927339681,0.6833583946258077,0.6207552362147116,1.2259912179979402,0.7189194307242897,0.6635959220437189,0.9435342792313209
169,1.7107673919045197,1.1072629671928045,0.7951304577503984,0.21103373620254545,0.17495103582542934,0.8630170419695122,1.629485307648339,1.6116748454460053,1.386562524985294,0.9005029356950522,0.6284777104787076,1.7071119951677705,1.1027863785785177,0.8431850280957311,0.8990494044972681
170,1.955680082766393,1.427881864018849,-3.2567155948931013,0.08467349851939517,0.0762441501408257,0.5825220981324972,1.988222841526628,2.1906057337999876,1.5493796411225342,6.285239267587952,0.648888643467878,1.950130151866223,1.4464114182597383,5.708438286192395,0.9543235904327055
171,1.6597131125471245,1.3356701822181116,1.9575894243174674,0.06698765724152846,0.06040010362828325,0.6174023614563637,1.8404304087171548,2.130344691363888,1.722881112594022,3.06885809925371,0.6153451465759925,1.6466207035618163,1.4043894002971609,1.8011979536427598,0.9374150768661561
172,1.852673178053818,0.9452896239662831,0.700569032946682,1.306505407618012,1.2532052873291524,0.7586897033066868,1.6962210094951546,1.8435514111461695,1.1549163664735191,1.2286808039718597,0.5915533975974677,1.85207580523611,0.9438952772385705,0.6860748870507958,0.9124513130102596
173,2.0802755633544536,1.3067549617148444,0.9023288408612138,1.2992198932430041,1.294917187388077,0.883114571362528,2.1755575749756493,1.9141445361558649,1.4217586461522955,2.1953598230671294,0.62595550513784,2.07997501728598,1.3122626230047039,0.9021852003146309,0.903895030652822
174,1.4059820586255456,0.7561032171348141,0.40132650979448314,0.17755399948118852,0.16187300530723353,0.8489108868010727,2.0429037602017037,1.5980425723304812,0.9156525204245005,0.763236272444681,0.6233814453054027,1.3972879025947564,0.7417621106903909,0.4214426234594481,0.938890445722458
175,1.6817780312049795,1.333246435884643,1.7398223118222909,0.16656787659450742,0.1435492761799962,0.7259513409617337,1.2816876987727606,1.4433604174214372,1.4561993595708758,1.9811741743837814,0.6425374456860184,1.6652442994978316,1.3309325172953095,1.9176342926675747,0.8837556503707663
176,1.58184707958071,1.121706768899447,0.8191479335031353,0.8464137464730813,0.8246419808466268,0.7825784224718094,1.0502079798366193,1.146457419800826,1.4151707306582422,1.0770312184234092,0.5713653840954815,1.580796467189679,1.1274204144696298,0.8196781530488039,0.8703673466748054
177,1.905960257826482,1.5074272620158278,2.1785263050281163,1.417832325622476,1.39900605567844,0.6770597081844879,1.1363904595770786,1.2917476836548756,1.5692571233980703,2.4724427713006865,0.6509067234006624,1.9057497066457423,1.5108997795753347,2.1797744701146247,0.8896459666933731
178,1.2642800654988784,0.6254884847311379,0.4086975001441906,0.102348078514579,0.09904623923869814,0.421432555448788,1.0447646894161218,1.0495314993905809,0.7717116850806679,0.7147289500651929,0.6125606311107803,1.2504434384640657,0.6192055027586961,0.434604208871981,0.9195132885064247
179,1.650244842561215,1.2709166093385174,0.9675616263414848,0.08467349851939517,0.08110523987917097,0.49992205339309603,1.432072597230543,1.5968904371101615,1.4377413040971572,1.1677193228042273,0.6425374456860184,1.6388095099773157,1.2832593346621035,1.0354165348654842,0.94813090204265
180,1.0467286648010314,0.5376450699447202,0.3329707480450603,0.08467349851939517,0.08380355100342841,0.4353476170435046,1.20903972767639,1.1403476085898696,0.6845018878172441,0.4795332889806314,0.6447042257417027,1.034417576626113,0.5354257609257809,0.35613347379596955,0.9668726997040294
181,1.495056967892434,0.8811182853454063,0.6574000373570574,0.07830835683644703,0.07310851721447648,0.4926481313520845,1.3394548466559753,1.4016785405084446,1.0910923808241582,0.925989892268063,0.6008849035917525,1.495167210646518,0.8917661419176738,0.6852001188674134,0.9620867506912514
182,1.453333219520097,0.9501030211089967,0.6568600170869412,0.13766330170126678,0.13037148839541382,0.5840410251118004,1.711303900189656,1.7045444986810931,1.1544654949253033,1.140370908848103,0.6602640781246099,1.4458556595761496,0.9574095611746172,0.7322401063512228,0.94180345800195
183,2.0281297175320248,1.9946916865952211,-4.022821404127246,1.226926770796046,1.221877050091959,0.7389405348428759,2.1796867869824887,2.569590701852233,2.3159463323639655,,0.6380535849069913,2.0279038327195162,1.9931902677629916,inf,0.9164633573450855
184,2.0969404667427254,2.5062468885755322,-4.603187355318258,1.4098362544888832,1.3738758174069121,0.9532594818603514,2.182107671153798,3.29825642475143,2.506200775036442,,0.6284777104787076,2.0967459587700006,2.5128785775674713,inf,0.9196811007008856
185,1.7579325376145831,2.004054333965872,1.8707753330417405,0.12463234025682715,0.11376041173602193,0.4579196209779631,2.310163939111296,2.535146665356973,2.1488004860876266,2.1459518082151585,0.6333676938231112,1.7571004267432129,2.0098606961755547,1.9435103398882299,0.9305336604860776
186,2.0454146780497475,1.8708129294786882,1.6852770620892938,0.122888179777612,0.11219915183922385,0.7666496605336389,2.2672004963044703,3.1468065091840547,2.0314341547776813,2.0879987119706227,0.6233814453054027,2.043645489407919,1.890850371872286,1.7928964790151303,0.8815763841093663
187,1.8213381494406198,1.0381423926006343,0.6340417613093394,0.11826719857387902,0.11481191278281085,0.6666447871346673,2.161761566237313,2.183128784918252,1.3000212699728393,0.7972416298320268,0.6038851895711802,1.8176244354231093,1.040280132335554,0.679112537046027,0.9442729010771241
188,2.148354011194315,2.2351110100765963,-3.55811976061254,0.15643652800837793,0.13990166095589382,0.6380751884102777,2.74937129346242,2.4839841167645096,2.3293933158457736,3.7843826435230112,0.6509067234006624,2.1449167977128747,2.215130930242232,2.7300291078209855,0.94339929438497
189,1.9912364934326536,1.582019540787846,1.2113085222928883,0.04466961139416602,0.03600900694983119,0.8079450093034921,2.1811605193918733,2.968486531325458,1.810199953531412,1.4611342748883667,0.6619902821573977,1.9872878535092913,1.5768206914269953,1.2895230003503042,0.9220321168210053
190,2.414232829044418,2.5496693047245795,-4.925666607013928,1.4230371456280593,1.4044139738304031,0.9272161842358647,1.737970515640023,2.126477158761907,2.772389885806461,,0.6038851895711802,2.41388916255272,2.547955967374104,5.752572638825633,0.8492548311402488
191,2.1562270335924905,2.851069359238251,-5.0072963928307415,1.4483148470104394,1.426241172453762,0.888628947617889,1.8940290333391754,2.203495057845803,2.851213758825697,,0.6403206450210053,2.156082634005044,2.8578915613567264,inf,0.8967286228985617
192,2.1450412519130198,1.7636428522496113,1.7884093823427736,1.3567078988811034,1.3376199064191758,0.9415723890096201,1.622990873650791,1.8307719597854144,1.9197795882169042,1.742336827850484,0.6284777104787076,2.144821898543171,1.7705400081504896,1.795109556113337,0.8901821374706186
193,1.996985612009756,1.5777563734849853,2.1176995065102604,1.0904389071529033,1.083241652336232,0.8351057313676341,1.580901708320703,1.7100787172020715,1.7199091922258163,1.9771803205199043,0.6447042257417027,1.9966538868744017,1.5816785248944085,2.125450062887391,0.9184556659757666
194,1.5677673323408734,1.185958702133393,1.3488380316023543,1.0095653477027087,0.998259509218201,0.836428503326682,1.288078240435475,1.3816233935668403,1.536292177967699,2.329339635687989,0.6233814453054027,1.5675498197318476,1.1914428601079372,1.3427122367886084,0.8704459783822011
195,1.337964800977944,0.7034753382198042,0.5026151502611746,0.18043082020570633,0.17152710121733145,0.5445151886698797,1.7398146158318424,1.660622472675805,0.878600120965253,0.8841962068148895,0.6566669596287297,1.3323534636175998,0.6873108740263755,0.5145726221659664,0.9456235046444712
196,2.0456677360866475,2.6475784653575065,-4.659662669189487,0.10060391803536387,0.08019806024186676,0.7868962257371471,2.180683578959493,1.9636083324226319,2.815782749748925,6.53432982541934,0.648888643467878,2.0440743978425444,2.5961474262044657,5.381048764145501,0.9079167979848258
197,1.6884441575028912,1.071238744348594,1.2412316015143792,0.7213139070302005,0.7121433969365283,0.9749075602622429,2.503257142449314,4.124537400412867,1.20969497921617,2.0778262969986026,0.6447042257417027,1.688300760859825,1.0770255080621152,1.2446771448664096,0.932719686359067
198,1.7454026560857414,1.4943837494364998,1.596909315627392,0.10696905971831198,0.09119778395172223,0.7336173497024469,1.9490967847217893,1.7824463283424168,1.5744903405312307,1.9908936913326472,0.6333676938231112,1.7443035280717598,1.49789778876666,1.6057483949807403,0.9198413549153351
199,1.9603838413345323,1.5134440121263866,1.6644051349062678,0.14696382737077213,0.10376242204724195,0.7384362752576563,1.856679025002802,1.7751620056090904,1.7784778691128451,4.477713811081728,0.6425374456860184,1.9599414624682905,1.512751920898935,2.2015302890474313,0.9302083926526067
200,1.4433245357991575,0.9941284487261259,0.6610927013857464,0.19804851594381867,0.19297061731890944,0.5370857854434513,2.260200878336315,2.2256746362210444,1.241809926914581,1.2275903970893616,0.6380535849069913,1.427579425803549,0.9761774370416831,0.7769671960585922,0.9312880548585175
201,1.586088514829557,0.9147646415309669,0.59671215792036,0.21103373620254545,0.17774946976818445,0.6215797269898072,1.570848026230904,1.577401491569183,1.3155391553409534,1.1124819864404487,0.6309483474627791,1.5564238771484833,0.9619706168005066,0.7410140154417879,0.9079441395543559
202,1.8136965385480819,1.3127362938424025,0.7196899792388365,0.12932326130896363,0.12143477725152714,0.5550540162110553,2.0992562742239143,1.8398899470855858,1.3994273308988674,1.166638048437693,0.6097226960127671,1.8097197946050478,1.2958273449561497,0.7796175783640797,0.9340287036206161
203,1.9328711610645315,1.2608640069112225,0.927924294214026,0.14696382737077213,0.13613782630520777,0.63518597623079,1.9882521647520557,2.4277912045098136,1.4379283335226039,1.3255782152782936,0.6207552362147116,1.929949314662101,1.2518448353015679,0.9375263983286088,0.9154745808877078
204,1.759240427239303,1.8957870187234234,0.34913948149617147,0.1405401224257846,0.10598033694482381,0.6345626350467798,1.3426132357109353,1.5577228691818208,2.31629024469298,4.834858790281758,0.6207552362147116,1.7581312882480709,1.8521423875168588,1.8033298462409033,0.8872738085479283
205,1.3514826862612275,0.7367446342182522,0.7135108731656494,0.10060391803536387,0.09992256876948712,0.48237510863439576,1.3947166148800227,1.4940601747689108,1.0332995835037844,0.7439262110596947,0.6125606311107803,1.3492555136849043,0.7368750161457283,0.7087492466063116,0.9315931476724572
206,1.924682287591463,1.469780652328274,1.4202879566296622,0.12925332146056012,0.10056332343620657,0.8235497024813462,1.6038740767547737,1.8766956256724558,1.6165323245242982,1.47660072040183,0.6509067234006624,1.922627744433094,1.472918965720247,1.4286090170002965,0.8815802898919286
207,1.365468265508309,0.6654939573556051,0.39207281676437766,0.26399153511107604,0.2566463911497028,0.4010497879531432,2.1496630507798398,1.6737552265599271,0.9167676397718648,0.6647150867182723,0.6153451465759925,1.343022037775486,0.6896207392447886,0.4999146862437314,0.9398851177608618
208,2.0284885796535566,1.279003876576327,0.4438948835341705,0.9666570916797816,0.9657697626082825,0.793634270198797,3.1533274733630745,3.636838410654221,1.9666119184947244,1.3417918227027916,0.6153451465759925,1.9437458262259366,1.5754846223478114,1.6364306175727652,0.9527520057079699
209,1.8063195448473506,0.6814863719311957,-0.4149867331906618,0.9061139837451136,0.8778997984552138,0.7373796411570605,2.5435232875072944,1.7071120522321839,1.1396574732562534,0.8741454559560642,0.6038851895711802,1.554739311578502,0.9240527372096443,0.5797617023482537,0.9433467369135856
210,1.5289699115491813,0.8770410347454776,0.5468128379409305,0.30448188294128464,0.293927765161469,0.6338844405811666,1.9094149509464853,1.3499300088297288,1.0670690644984384,0.8069543382071934,0.6727386042041725,1.5091401911187365,0.8473146117880399,0.7006801728674904,0.9565659393221289
211,1.185915862505854,0.5417732836149451,0.2853550418059625,0.3671576458520649,0.35411497601437314,0.5494873356416773,2.065942339973888,1.657088958357206,0.8173661225795891,0.7320696329024311,0.6602640781246099,1.0950187531579794,0.6151607290776526,0.3941924780859709,0.9421207985104414
212,1.3164804644442674,0.6120887065689586,0.20369477056468055,0.3637831470939535,0.34832077707734865,0.5112412084573497,1.34167971511541,0.938001551692254,0.902682748404589,0.6635730238817664,0.6602640781246099,1.1559589555206624,0.7042221198260519,0.4099368275098298,0.9542061541492376
213,1.0393579238835775,0.6982129898978762,0.5146334724406711,0.35736076915557613,0.3429944478566817,0.505213162486092,2.0074014406622314,1.7116600469755205,0.9117985275725878,0.9058393234126108,0.6207552362147116,0.9833212443333752,0.692553285780641,0.534333974780498,0.9578993762648949
214,1.56986927260786,0.6595499800995173,-0.3985574585006373,0.6649046035147577,0.6316655032118687,0.7133275024264518,2.622899138491852,2.108242709617113,0.9116954787809098,0.8643869592819698,0.6153451465759925,1.3822138090194336,0.6831933436965993,0.4825102968813716,0.9462956884878315
215,1.4509084488309059,0.9720317039593396,0.315792356542961,0.6654172828716028,0.657552573176888,0.4423959862770745,2.79619150484801,2.6896150546616977,1.1229994921081903,1.1221895362798358,0.6528756675646988,1.327354818382801,0.9138216464826011,0.6837867378003817,0.9230177632298195
216,1.755203992884579,1.182529928024178,0.403787490866685,0.7471604240852487,0.7104698604035282,0.746540972662228,2.7431439736859047,1.902882364802084,1.2434933718569097,1.1885389505866175,0.6038851895711802,1.7157865704648207,1.106552777039517,0.745700020103386,0.9525824041614892
217,1.8742474723467895,0.8842131011398116,0.4657851376179232,0.6319895185043901,0.6159775954030086,0.6482439276238727,1.982572769128231,1.9287925514688138,1.4169749885338419,1.5709973010227793,0.62595550513784,1.7456395336145019,1.2173029171164984,1.1577460868307026,0.9433948404486205
218,1.3465513698501708,0.5579379240594737,0.240863075368146,0.41961344152228974,0.40752357945017004,0.5764655514477046,1.9026818571594881,1.610527356223807,0.972146035189128,0.8812471805174126,0.6233814453054027,1.2201021862558195,0.7356675199949371,0.423336524651032,0.9442649191850851
219,1.784580980862213,0.8939625589885427,0.9437808325926671,0.6333673955639794,0.6132224911715322,0.5966533866482812,2.145234460941597,1.758513444180906,1.535569844143173,1.6381899698749764,0.6425374456860184,1.6328771441678633,1.4186027741230585,1.4285271247431635,0.9280115809944136
220,1.5044948608770083,1.2781428071683576,1.7376856600004622,0.2286284036166141,0.20700694097227634,0.42764406154523177,1.3672858911992634,1.493808908639641,1.7541473285175904,2.292420712525813,0.6038851895711802,1.4982941520205468,1.389480980028352,1.782822859261648,0.9300811687865466
221,1.2165035600166891,0.5438522185208152,0.5368679222009769,0.2266535049072591,0.20468756913791386,0.5400035099500297,1.4499622864112092,1.2367696965390054,0.8369074862659437,0.814236843885305,0.62595550513784,1.1281784242698765,0.7167708734722977,0.6309315408385138,0.9463628703539653
222,1.3247548003972864,0.7265914893471785,0.6379047000714113,0.3660249856067622,0.3517173746285791,0.5387275233327482,2.0451624582235413,2.303915153508259,1.0959860714059366,1.2422639531848745,0.6380535849069913,1.25250189146783,0.8306799698277291,0.7489209884766297,0.9528987344880091
223,1.1730289030686154,0.6817971729915164,0.3427896422091059,0.3225158348214933,0.3176187806006303,0.5991728816955793,2.0679400795541083,1.6601955251369116,0.7812958818866895,0.6117964115825709,0.6233814453054027,1.1346540600153752,0.6229616646458425,0.3940620377190315,0.9477001066038838
224,1.2113605550852269,0.5809440864166309,0.45977367641849054,0.23950841298941594,0.23278384229541324,0.4921941203473249,1.7289789297118872,1.6653441118600676,0.8568961471707215,0.8635720595219991,0.6357360191111145,1.1279381180499384,0.6224874876851395,0.552604030498118,0.9442570401804645
225,1.8349331680293173,1.400330313665595,0.8041132412137095,0.5703439115697131,0.5646586881625966,0.5890512281823606,3.210893300768116,2.4896621428601446,1.607218672987127,2.1320128095462865,0.5915533975974677,1.8027530107029208,1.4642048957510316,1.2398763788132772,0.940720144779307
226,1.899285546637142,1.630867417123874,-0.03305856194655732,0.9141330368011873,0.8600070643435407,0.7742815219525362,3.1114248210938364,3.351177990746781,2.061987772804315,1.7318385992525815,0.6547956803312163,1.8073469925697687,1.7829951712344667,1.44219796568007,0.9395774604175501
227,1.8382880545158358,1.2721971570375268,-0.3177274701829762,0.91265360235529,0.9010248012769776,0.6965846723305636,3.647091089821619,3.4578929334409234,1.5401107123382947,1.1327341094178007,0.6380535849069913,1.7590986869885066,1.3536669033313218,1.0349797486293875,0.9377380106445146
228,1.6758891957718414,1.0703922691282222,-0.98670352140972,0.9105955860427902,0.9062926832726879,0.5892711842472159,2.4694200670374045,1.802123505633674,0.8401158773488765,0.5243888322516482,0.6668815377411301,1.3303341957571913,0.7365641199034538,0.44298432019753226,0.9508326093239147
229,1.6220086853780673,1.1590793240692645,-0.9777759293645294,1.2894553026521454,1.2739585420274688,0.6258100142005355,2.8482401780041733,2.055673727522171,1.0319440114974132,0.707773230066112,0.5783247308855777,1.4478861171265316,0.8897506139264328,0.5177540579479548,0.9376813241694822
230,1.4681222711651152,1.1803837570597917,0.4172074788043405,1.0193550413597932,1.0386297545211007,0.6022020478969594,2.998839653110019,3.124832702011,1.29226116633951,1.3886829056183196,0.6284777104787076,1.3960304926931402,1.1074475426802954,1.123366027821048,0.9219933914388151
231,1.2223150244355043,0.8913811969294811,0.1134991567820558,1.2415042434798347,1.2434331951477748,0.5186212117814005,2.199227715129903,2.0259861076589822,0.9470004614147461,0.8664432269473374,0.6468212168108125,1.1177951080848836,0.7447445432042185,0.5911267627628416,0.8884323354825252
232,1.973111630527818,1.735366835186442,0.42861750637263407,0.9253499271565246,0.9204267043243022,0.7307861717422285,2.4652436770451285,2.3794424031753723,2.062350594031317,2.529209030469809,0.6468212168108125,1.9428149441480107,1.7859610069652376,1.978345424808467,0.9457868296261014
233,1.7772329747220525,1.6605072440768835,1.1721078008421877,0.5798072051777079,0.5756193986504714,0.5833745164762129,2.602825369898712,3.128069341888691,1.8228518507735039,1.9347860790692066,0.648888643467878,1.761618312316068,1.6479473190166039,1.6736403555984192,0.940602219013266
234,1.481760964447843,1.3545920435212608,0.9640530153099522,0.9491741988901397,0.9383717021921678,0.5884687442021251,2.499259021096339,2.618475078973386,1.6501854683454376,1.6750584002431625,0.6447042257417027,1.435624671141832,1.322666746397125,1.082962517000982,0.9458238828121427
235,1.316167252182972,0.9386597467483013,0.8125689120583637,1.1141270767450078,1.052532765712807,0.6150517987608514,2.7458021710802307,2.55791509675053,1.1192094600770355,1.0703241306934714,0.6566669596287297,1.2863886961450282,0.9444960826838265,0.880882059847403,0.9137072180549421
236,1.411695901049309,1.1051732840644781,0.573688105354885,1.042885841543938,1.0379780786521173,0.5999143119837427,2.370364131021948,2.0539071115895426,1.2306637706174512,1.2834750550942533,0.648888643467878,1.354408172257569,0.9609244935589795,0.854224034277451,0.9437631474838392
237,1.163211654862212,0.7844101855553276,0.707162911139984,0.5014647685943203,0.4931803216771439,0.6670617543478476,2.7509886799174965,2.920281757652943,0.9469378023968562,1.0794097195045613,0.6380535849069913,1.1367296107812377,0.7520548410186914,0.6977858517645714,0.9561206781284126
238,1.8420686258662007,2.3460568376794146,-2.9359893986419845,0.3899834876814828,0.37947464507473083,0.7266312145252909,3.989732216076447,5.599290838250997,2.467922686519768,3.1222096562304067,0.6180765742263259,1.8337627167085129,2.2740048658457286,2.5724095480458202,0.9436405323677316
239,1.8383545774445054,0.7736278363663063,-0.7593084072585108,1.0764795589365608,1.0516987873360362,0.6827591838772632,3.3647722800560746,2.5667777103761926,1.3328027426448845,1.0811217848791956,0.6068309995095971,1.6125538731123579,1.1797841445124415,0.7678550955278141,0.9434332988014142
240,2.2962032528420075,0.1447723511000989,-1.4228478761198249,1.147728275709013,1.1601754970922349,0.6572091879627762,3.1678332262177724,2.6163372901273725,1.4898211398305148,1.080705669339937,0.6153451465759925,1.899047767791797,1.286500744318409,0.7001571850005667,0.9253611364928334
241,1.8201733719049298,1.2320215221927102,-0.36742041087315425,1.1294168315094164,1.1168389154145404,0.6446465467661163,3.5504581679302913,3.7246811092143597,1.5033794979034623,1.2849782109744776,0.6447042257417027,1.6901058155015551,1.307851153074547,1.1152306814474784,0.9317228705586162
242,1.7662218254943545,1.5964537614171745,-0.3935376394486423,0.9893747913560947,0.9546540607232364,0.647282010560318,3.707816930253206,3.1324858708230767,1.7401137182825903,1.5284568907206384,0.6233814453054027,1.6910698452201272,1.5423557606628049,1.2623920431777955,0.901512105819749
243,2.105604426097181,1.1692688912693905,-0.7268777028652771,1.4328345378975058,1.4189122130628242,0.7278282959068983,3.4071196912983095,3.3794393391888553,2.241831567923926,2.2709497399027465,0.6509067234006624,1.9835658652332246,2.0338176558527477,1.9830096567663111,0.9441761157600275
244,2.2840178204694497,1.3856654812353035,-2.5731047672712952,1.4294088621230383,1.4095133175318213,0.7667314745973604,3.468842854438222,3.6008075627609037,2.6086066930038005,2.6634617594121432,0.6357360191111145,2.1708748020134374,2.3791760847535746,2.3249145693921345,0.9353949269177048
245,2.3155433365185556,1.3204096331349349,-2.115821701958594,1.4108470057291063,1.403693180275524,0.7467660701494911,3.203738173964746,3.2237584481945873,2.264318830963961,2.2053532202391164,0.6468212168108125,2.145391428696202,2.033785069042596,1.886054199608793,0.9393000642383622
246,2.4029214806663206,0.18528576381328987,-1.4996426766092197,1.3605276617384998,1.3403497680691119,0.7782006530209992,3.0071476909583126,2.6733084474785924,1.9722986288246842,1.4011583652651673,0.6380535849069913,2.115368130866387,1.7038731411107928,1.1082791154085694,0.9134556176951509
247,2.32206444423953,0.050076314864659466,-0.700384343573639,1.1599455110794594,1.152013655332425,0.5872214165787429,2.8806043545526263,2.8366302142911257,1.922247697237159,1.6204896841219867,0.6309483474627791,2.0373190598265967,1.6873027196075132,1.3045169862267052,0.9533860974025284
248,2.084572202801897,0.9163445866896516,-0.7704866053744301,1.2657416438387141,1.254158025035696,0.6861205468552731,3.2058467710632166,3.2841001475214475,1.9227851828998461,1.9880001394541815,0.648888643467878,1.8486120474875318,1.7037958959435255,1.5917587432897211,0.9471972562046289
249,2.275941752855069,0.4507173603561503,-1.4682599688524842,1.2961284460472378,1.2833318940681584,0.49995973863802323,3.082132757457116,2.726366900844515,1.9764293903103578,1.7713133745528558,0.6547956803312163,1.9662715991305277,1.7505501866400024,1.5748510380588379,0.9252654745456724
250,2.2874279779049487,0.32129474097707833,-1.1569101936088964,1.5922758376649309,1.5862529146986006,0.6877085628821518,3.1566691526091466,3.267215489877965,2.032318592472132,2.0833234772398086,0.6153451465759925,2.042102940468919,1.7960502163927714,1.7733540416853397,0.949141758008529
251,2.4248228445304467,-0.09212630659977705,-0.8747460548735317,1.1888646372797056,1.1778851622920283,0.7544214301195755,3.0630228714748764,2.9771800963591444,1.9715225770230642,1.9371670736549491,0.6309483474627791,2.1383897916153267,1.7803222019636158,1.4181152277309697,0.9402013456127861
252,1.9573717437553022,1.395330214431443,-0.16040680819964637,0.8909789758629196,0.8918250707728381,0.6161333454095527,3.4613646809321885,2.666049404533005,1.7565271239851175,2.0241368300745624,0.663668482632973,1.8997902134417601,1.4957564967115808,1.183306167517377,0.9396322982925124
253,2.0822365992349177,0.9847094834682588,-0.9756921857968819,1.113419568540436,1.095734907079086,0.5682302601267671,3.2531668707085006,3.2525020884759437,2.001194913513761,2.1787298270728184,0.6447042257417027,1.9209574076997369,1.7804445714130899,1.6517236239302049,0.950014883644868
254,2.1933420446105156,1.28610556562789,-1.7939073114547033,1.3286271982916402,1.3098995110432994,0.6486153123407488,3.0760957519245467,2.8705767319243236,1.8210937455837364,1.5500416512129442,0.6380535849069913,1.9996039832530954,1.6607959995389723,1.3222959426149465,0.9489110723053343
255,1.9065223396223556,0.3764361267026397,-0.8964760640828315,1.2261522710506307,1.2080187493643446,0.7634666839472406,2.943836264131316,2.0964771054765268,1.0953622214772245,0.6711943989108098,0.6284777104787076,1.5868613582551954,0.9463955524738515,0.505150925994522,0.9427754457894563
256,1.747508148968944,1.575512350403706,-0.29401565306397615,1.0559082295245874,1.0354902001707298,0.6458201816500159,3.77548146065082,3.187843338200214,1.6507712575047275,1.9370524771447282,0.6684167106117298,1.666478686135098,1.505725619423956,1.598102612468891,0.9403596764126338
257,1.8448152330190741,1.0770001663968263,-0.6036252370113782,1.1245461798689027,1.1061049597689192,0.5671952679588982,3.171110211265361,2.787660377275568,1.6132996118096339,1.3206516517158766,0.6284777104787076,1.6678912820144889,1.4097743743021882,1.0616762718361592,0.9422862113900607
258,2.0680910808321453,0.9770707461915635,-1.018270580315264,1.100203278252171,1.0806185549502183,0.6149832901863937,3.219409341107218,3.2047153774062207,1.8142228016045252,1.7813794384990906,0.6684167106117298,1.9041818986423424,1.6109310071497072,1.0540468426730087,0.9491548618117964
259,1.9844384788138407,1.2159554708061082,-1.0736817682717161,0.9783942713692957,0.9819478068300347,0.7023878845057311,3.2385386903403965,2.55674915262982,1.7220742272640672,0.9602183950719573,0.6380535849069913,1.874561535989193,1.540734770052464,0.9360933591703348,0.9494226716817985
260,1.620687943046801,1.00299765869661,-0.17140744995972135,0.9819792962526179,0.9546547061635711,0.5629524493092833,3.4218372742616188,3.85578781187145,1.2994099491155504,1.5559027664176972,0.6425374456860184,1.5186835491656363,1.1374069130058628,0.9354606479818753,0.9040947530364314
261,1.9886481744831424,0.6543085192333733,-0.3423906360607041,0.8520609021031713,0.8363857007134893,0.6469705208812286,3.0696328164447193,3.3134333128147135,1.5172809647990737,1.2618816114428402,0.5978297680564633,1.8271794144593154,1.3088371600975726,1.066655864550841,0.9439422904292042
262,1.7902886768555277,1.1636396883378188,-0.49835117265209394,1.2723989024461213,1.2470154446139752,0.6917944508025677,3.048769130089909,2.543365225117576,1.3582563624242798,0.9441476325821629,0.6403206450210053,1.6136132838445811,1.1898471020622872,0.7685253167355687,0.9311644757439679
263,1.8169572298097543,1.6256905682525562,-0.37163708504038295,1.2432026379380656,1.233192715808983,0.7102234511998021,3.635277920527965,3.2791398417577944,1.5730990760327908,1.3950787754570855,0.62595550513784,1.7603254037385248,1.356946954349562,1.1698482188318275,0.9366857727176012
264,2.13628328468743,1.6593700006616707,-1.7862602627176436,1.2901242522764145,1.2800204465428944,0.7133494934669826,3.48003846677222,3.22965779874298,1.8881628791851914,1.604490587490951,0.6403206450210053,2.066722769272061,1.6588206692134664,1.5040773967762742,0.953210945630795
265,1.635779964131909,1.2713953938545892,-0.01302343807679307,1.2207661175105569,1.1954431408782147,0.7454398418699212,3.27757597302294,2.6039071972988324,1.2705111457877993,1.1877905370725257,0.6180765742263259,1.4939785620988597,1.0760503411059759,0.9015909427538659,0.9421599356867056
266,1.735163780404818,1.1612132433510085,-0.21182439524722918,1.137967177796358,1.122937211251529,0.6666371433329896,3.328614805602814,3.1586036337079704,1.4633000934934686,1.199021101089489,0.6447042257417027,1.64178894265176,1.262073405426904,0.9296575958615385,0.9301041402726947
267,1.9750064384906685,0.9556934390946641,-0.9676357868260124,1.3074612479708985,1.2746743150294895,0.6725549004892054,3.148158821114717,2.4317293421664257,1.588993914138923,1.2400587198930388,0.6447042257417027,1.7818091383748869,1.4513346582910187,0.9680438611742441,0.9526031031322358
268,1.768966731519835,0.9655582566888004,-0.49031296807085667,1.344955495439522,1.3284800600312985,0.6212776540978302,3.1249371662286567,2.437147252505043,1.2936159543944241,1.0229192434105943,0.6509067234006624,1.565580529370324,1.1114556182027167,0.8607448992092157,0.9258882583363167
269,1.5513424547593493,0.9574250186807576,0.03300678093655263,0.9236425279013589,0.8994143745563788,0.7929298274044436,3.6221466975733407,3.315977436368544,1.275971882877384,1.2417931938502282,0.62595550513784,1.4721427782459282,1.0599952512475108,0.7365701691226374,0.9348638280006488
270,1.794911443894513,0.9569924617679417,-0.3007463996721338,0.8306612631992936,0.7984853782231397,0.6051380466150432,3.1593123268436085,2.6730854530028516,1.3355256873456236,0.8526289440458933,0.6038851895711802,1.6814711153339321,1.190078888321645,0.6294677132887894,0.9229366045317
271,1.8596795640908645,-0.053054472872618996,-0.31718254692977155,1.0398983757928046,1.0198655661814013,0.675428937610987,2.4920150956386196,2.1150118308346264,0.9850632043138223,0.823195578815221,0.6468212168108125,1.389767050598863,0.8153888970636365,0.5323230641305224,0.9214373768612988
272,2.309573016049791,-0.20436876986981112,-0.9130331954918434,1.1167345850953072,1.1174083221075506,0.7372141034496986,2.9541291052415657,2.5955123224326124,1.407922389150129,1.0883847743795774,0.6284777104787076,1.862611210200006,1.2990444743383032,0.9326888776837914,0.9435414266776951
273,2.498831541981538,-0.26892588134974105,-0.8645079775289848,0.9541764807625269,0.9491539084484836,0.6481575467465035,2.844415219305541,2.7827992250437745,1.9049370006676367,1.7920059605883873,0.663668482632973,2.1250899795770204,1.6885971251302638,1.3792697461829262,0.9451388255437233
274,1.9200726120852467,0.7113413681658765,-0.4408619214756002,1.0944598236442935,1.0827016523159583,0.6894889272759834,3.135844844992703,2.81888692658502,1.4108399570167658,1.2536692600584245,0.6509067234006624,1.6735024718352085,1.1875046774310523,0.8332199111742707,0.9566573650755045
275,2.0115268382604965,0.825201541338521,0.13431778677732575,0.9264291273783932,0.9105077961483996,0.7606130219022451,2.7522803172728434,2.112187601586627,1.6203817112528907,1.511999741873252,0.62595550513784,1.8467085607130709,1.352637005102497,0.9937149693456905,0.9503835158779026
276,1.4236777640577734,0.9577617171437967,-0.35663529913783343,0.6812859147341274,0.6683464983678445,0.6632980168001666,2.573480696142872,1.9319673878263304,0.874159572475627,0.6823492548158482,0.6357360191111145,1.3178883284558303,0.6975981956248508,0.4747677320339145,0.9493588902218535
277,1.827623428155839,1.2344901362681047,-0.8921106443610727,1.3031840372193715,1.3075995906562856,0.7700158427394519,3.0007468024574573,2.999501902906341,1.3435667783748904,0.7903779296376132,0.6740851607140061,1.6105496412867908,1.2157211912028503,0.6821406334796636,0.8822760004234133
278,2.1301844492905917,1.719031116887375,-1.9085783561787302,1.409316883866958,1.382057274763827,0.767201482780815,3.5747069103321634,3.5064640627448025,2.0979348124718067,1.9785147844757554,0.6068309995095971,2.0396227168327297,1.844460919906175,1.5270292239544765,0.9183557403818781
279,2.194529026143881,1.0782121604006236,-1.7343041995918616,1.5460011463898913,1.5213305310961938,0.7461040149096392,3.4311660739140053,3.486012391817103,2.261867687791078,2.4694379861974904,0.6684167106117298,2.0089209488647173,2.0545711498746186,2.1400661634962708,0.9413955200746973
280,2.0157275167836346,1.5854938029911225,-1.4016263003413902,1.4616050440761073,1.4565774251934709,0.6212263579178327,3.4043341471532034,3.574377781869914,1.9046558272391836,1.8777981187408865,0.6309483474627791,1.9247576706909189,1.6896329314322782,1.5259737986478428,0.9246753113531866
281,2.0402275226353312,0.9585409637912381,-0.847515568284718,1.3108723785935277,1.3069045529616097,0.7496001986638278,3.238993163586811,3.0778088356311635,1.7855100239535222,1.7447515719693982,0.6153451465759925,1.8600383099813493,1.593856860681255,1.476697415760115,0.9218624833453101
282,2.3328668510463717,0.8381137513437626,-2.088038105528156,1.138197768361468,1.112441199329923,0.6770056701180122,3.222000112580347,3.2479789960790026,2.3523428543571323,2.683600845827364,0.6468212168108125,2.0815771538102577,2.1240714779705177,2.031432322493475,0.94544254614768
283,2.3115801160582494,0.9090061048319988,-1.8881021484535714,1.1034717399459106,1.0987917094207211,0.6850383840230388,3.007981087341448,2.938982932165369,2.2230268014273453,1.2906642130875963,0.6207552362147116,2.0753609895793788,1.9836164288054305,1.1044206302638566,0.9460946018786428
284,1.8337685965297479,0.7616098200697792,-0.43749771612358757,1.0488473025232299,1.0297953220932712,0.47940874588072463,2.606057417008978,2.3335600334759663,1.4747266636277383,1.4243618757434056,0.6207552362147116,1.555844487598157,1.2721160101766107,0.9732170617649823,0.9373928147042103
285,2.2141045930533703,0.7382571480519018,-1.3416387741795566,1.3793863559695678,1.3726837240337404,0.7922602471491946,2.838298104961553,2.5401510235318785,1.9152708919553822,2.050665416210072,0.6468212168108125,1.9945286612911148,1.6235817219346143,1.6073696593700415,0.9446685554323125
286,2.834810591618347,-1.0372560217267406,-0.6579401521920312,1.3763734322441228,1.3580000269524368,0.6271538589884629,2.671032785531918,2.6939556441648724,2.1347842510716983,2.250324826868443,0.6584896970785714,2.229954401959138,1.8852733711793865,1.9500029242090664,0.9472266299688582
287,2.193312521328021,1.009329116764217,-0.722192474613577,1.4628761208721548,1.469802667626987,0.6957019211653181,2.9521220214927273,2.919642394570443,1.785333270673696,2.0231606614585593,0.663668482632973,2.02117263355586,1.6044190813221577,1.639935828847028,0.9457612525498749
288,2.212690730256067,1.88973730594623,-1.7452715755132489,1.3364045775530333,1.3030993317014616,0.792051368611948,3.412500348306466,3.2272182359585835,2.420310065097663,2.307184474477415,0.6509067234006624,2.1893556189575243,2.2160533759512564,2.0676820212729297,0.9479809349308954
289,2.1010417391133016,1.8987568003268116,-1.4755018124459909,0.97446799517873,0.9562784967579567,0.5593158666544487,3.2610837774706893,3.1838356783413855,2.1664805163519714,2.0874760276662085,0.6309483474627791,2.065056613758802,1.96600020922738,1.6693978615773444,0.9437231835797065
290,2.291814709756848,0.9626637595676728,-1.1256156173913179,0.8348254717814214,0.8238044668409576,0.6193519466464503,3.2426881220199983,3.0673932194755906,2.4015507849464823,2.411312241187406,0.6008849035917525,2.138672690386604,2.116623402893259,2.0164704189822777,0.9485926163146742
291,2.20409327294638,1.1324198606215128,-1.21883655226444,0.9447938303068572,0.9475425813459791,0.5760620398735574,2.799525191237857,2.832784166925248,1.7784692836279195,1.8503318813072793,0.581717464821069,1.8173508188949643,1.561107075797702,1.4211064293236493,0.9316965265765896
292,1.6868479920616781,1.5697462028006355,-0.06272429801614843,1.3937817322786425,1.3711673239180289,0.7290466895564895,3.433681353447037,3.36781208833892,1.6790901508830485,1.9051259585050129,0.6180765742263259,1.6237622397222538,1.467991577706608,1.4731278496451181,0.9348469677560414
293,1.8236319023929628,1.6539679707062622,-0.035995871515498656,1.077538669562582,1.0585277322070934,0.691995457725302,3.3884644078272386,3.348856631022237,1.7689538518594572,1.9220110036578144,0.6403206450210053,1.7709769300455265,1.517189429654583,1.5640416978016278,0.9415465439090088
294,2.1358966784836584,1.2831387232801972,-1.7897880104830775,1.019261050174371,1.012046615479914,0.6637100499361243,2.76313462537942,2.611116498128901,1.6060928291514553,1.3885361247249879,0.6233814453054027,1.8952698455977197,1.4479731428038796,1.1338271949591763,0.9459948049038645
295,2.2239990059577504,1.6970362909560457,-2.2868020790667183,1.1254000310665149,1.1180942250848556,0.7960335991888898,3.1448715922066937,2.7646716059229632,2.2510330919361827,2.2223027785528893,0.6447042257417027,2.1586771677239804,1.9975427982162077,1.7460134474398512,0.9425363611521282
296,2.077031409333369,1.5795916201395142,-0.8193688025519288,0.6934266849380986,0.6722178036352885,0.7532441409183359,3.1031525255249814,2.844863933890119,2.0538773586369796,2.6915938523862812,0.6509067234006624,2.013986773757912,1.8350614325088457,2.2114092123281757,0.9385920161442558
297,1.942483927898135,1.732895234621989,-0.6953988328556013,0.7908422863032073,0.7668528360201795,0.7048646192017294,3.199288816516502,3.1551926797972194,1.9769897421204816,2.5587869626767756,0.6566669596287297,1.895565637953644,1.771334909441517,2.13854558103754,0.9409279153443523
298,2.2433018601717514,-1.4424437079751762,-0.5857127278482367,0.8080123848777153,0.7553157922472546,0.6087317830987911,0.8837845008085571,0.3506172698876192,0.10452515607092284,0.017171470434812295,0.6811855325194978,1.0617019346480125,0.10897938059579995,0.0253233194329466,0.9484248706604975
299,0.30407162917542485,-0.1928796787720591,0.0039245939131882235,0.19509921375953443,0.09197870882445303,0.2275517563455909,0.2548495409090872,0.1290134318822339,0.004704872822499985,0.0043584853485872654,0.6509067234006624,0.16348671791538585,0.011382675353529015,0.01105865911915132,0.9558119304696109
300,1.2844940471586925,0.777656077277185,0.2039924592518796,0.34581814027017976,0.31696238528884096,0.609907649000845,3.011357646230121,2.7681040463811257,0.8326789218940924,0.4955839201304028,0.6727386042041725,1.2145470334668755,0.6865809728165446,0.4554440642869324,0.9200292388088956
301,1.7422089559533391,1.4006181191750373,0.39102239667912597,0.5103445992997548,0.4956084148020965,0.7276142200552801,3.187741619246152,2.8429446707791675,1.5703379571363592,1.560154430088903,0.6425374456860184,1.6651855571710312,1.3697496519164862,1.2274336052277135,0.9350115541126762
302,1.9976793645536737,1.7890178590705434,-0.6479816965834457,0.6786171755152953,0.673864907777124,0.7410267825092686,4.022968628872848,3.738533816690464,1.992708533896676,2.847732517512394,0.648888643467878,1.989397730133903,1.7651468053743102,2.139591667639207,0.8967628570560471
303,2.091631873400285,1.4817973547151042,0.47419399705782395,1.2343149801158475,1.2309179089056468,0.7425751905305935,3.9176862920524282,3.7209921598370985,1.5374545038435972,1.7528969466716557,0.648888643467878,2.0731502622342926,1.3899225231459502,1.4417021180165355,0.9023497111856983
304,2.1620130063774807,2.2560931706855953,-2.0880650422540175,0.8669031440823318,0.8583695849813857,0.7262876835283026,3.8301787448703353,4.381779451173681,2.491275847372307,2.4910346402715486,0.6468212168108125,2.1491966083256377,2.215208424998424,2.2309755606159225,0.9523487916158315
305,1.894033998934499,1.722876606320725,-0.3333449477881594,0.4941107387494299,0.46184651150182476,0.7229268604698674,3.6555487896908394,4.016289649507026,2.146650819339889,3.0249188591169514,0.6425374456860184,1.8659084678643771,1.850456383925162,2.1858685615905,0.9461051233880619
306,1.89769422720966,1.1684927066816146,-0.5120311591732318,0.5614269701468507,0.5378549736749234,0.6925495050548623,3.259872346373446,2.7457402438797613,1.910218815707619,2.315069089990694,0.6333676938231112,1.7662216854402164,1.6233765603785872,1.5348593520363998,0.9487616308655182
307,1.6527914362896992,0.9744706882911567,-0.667266604051781,0.7458295405695055,0.7399701624900218,0.7004253086609723,3.161997025248423,2.294995560537588,1.1671183338554354,0.8676349908188369,0.648888643467878,1.4778737312796377,1.0317355311487344,0.7190363540356336,0.9499886351030404
308,1.954589532812569,1.4016760675933915,-0.31974845973191135,1.0273311007202626,1.0045776568238352,0.7546467479011554,3.8605486936325133,3.3410187945116308,1.5900393030878417,1.3479389863000195,0.6180765742263259,1.9195170860316426,1.451474453573447,0.9890561883500167,0.9468751901797543
309,1.8336652316541502,1.6434847759976836,-1.0154640858738948,1.3355136441889184,1.335627211659768,0.6077195473874929,3.662835522226862,3.6419636938236275,1.7251597631514353,1.8244388086601897,0.6509067234006624,1.7487638387669593,1.485507671579215,1.3609483447887492,0.9474835573343802
310,2.1602313064051706,0.7764966263022832,-2.1828948632422054,1.3821644173436103,1.3571189669159873,0.7193235547350427,2.634189938079441,0.9861008566316953,0.9887200202210513,0.38280243164713484,0.6008849035917525,1.8881969508650605,0.9204105052284646,0.3335645623666539,0.9527611932560593
311,0.13699021794506075,-0.0648649099287121,-0.008893273021958976,0.5985486881978036,0.5875340836545656,0.31267882789471585,0.31253831589853426,0.20364906680718492,0.040771239937293535,0.03496644631205841,0.6180765742263259,0.20342262670200872,0.03173727710794732,0.017240828571371714,0.9409278395699029
312,2.1335885673983603,1.6789042063192823,1.8217987870323302,1.5697249356382297,1.5593268765571777,0.8709216914684311,0.17704879423596104,0.19978151354165027,1.833599899354015,1.8328458287607323,0.6207552362147116,2.1330298652942226,1.6811608908968887,1.8095490107915533,0.9434009477786386
313,1.6413561753115125,0.15127970506719146,-0.4673891402838364,0.90792514403674,0.9028488404210415,0.5992137316399703,2.4534399120919606,1.5961947720619212,0.6695805199940454,0.4707842384364861,0.6699045166045591,1.389499492068839,0.5908410841243149,0.280676134230845,0.949276031191758
314,1.9639809126955032,0.639959843599049,-0.646878333166611,1.2073796799782217,1.1584565762445174,0.7353892693782597,2.906201343023345,2.9626473973668435,1.3144080206758058,1.037175325473698,0.6333676938231112,1.6793240398982667,1.1432021711028306,0.9071752376330939,0.9507645191981529
315,2.1081432004330054,1.3624279240333586,-1.1802381074171597,1.3479349040001047,1.3271520289677496,0.8065854681726373,3.880390556080437,3.87284373513454,2.1121114020669003,2.4609824883835474,0.6380535849069913,2.0170720378271048,1.9923188185148324,2.274210113567206,0.9259935679538885
316,2.370958207812785,1.1871589674206091,-1.491451386979139,1.356828457797951,1.339465669549872,0.7831179413934912,3.536996031714562,3.491442113705597,2.3734096622029557,2.0622700680419763,0.6153451465759925,2.276376015641657,2.1381738107377846,1.7780793653239748,0.9450928300957224
317,2.4455875344687272,-0.08086426065643915,-1.4259413294956431,1.2362883059102359,1.253265296315852,0.6076729328138537,2.410583382001559,1.9764331093955905,1.154959537817387,0.7102467571320202,0.6547956803312163,1.8515802475465943,1.024691385970789,0.6068591309074585,0.9485425427838776
318,2.15635366573387,0.40146226261069895,-0.9779352106659158,1.1281567244837885,1.116342025495431,0.7463345385650865,2.6874492868927957,1.7392268006384604,1.1770413769198453,0.7440991851937393,0.6584896970785714,1.8324425845035899,1.027788016480588,0.609245621431272,0.9238603365965782
319,2.3976610168251637,-0.6365608817529178,-1.1393696035021685,1.2192573231591362,1.1868043460931894,0.660623621386246,1.8248782671096289,0.6057860054764248,0.48735629539365205,0.14168671322086762,0.6038851895711802,1.6197688712724656,0.46047299057813945,0.16009900655924234,0.9542282419609737
320,2.044329446098613,0.6087114626853722,-0.2972386176883792,1.036635620493724,1.0326553967563585,0.7657873939997578,3.0950426636707293,3.0222254154729233,1.7683148068399586,1.7922106966151163,0.6207552362147116,1.7981800370309777,1.4980569089946911,1.3743610452848778,0.9366387686543634
321,1.9391148657719341,1.2766122754950504,-0.5021976379093909,0.629472177281403,0.6161249673382633,0.5295637805954145,3.1205884293291235,3.3854757029310902,1.8449772661001858,2.357657992124554,0.6333676938231112,1.8209136866584061,1.6315769893912997,2.2613421344599964,0.9244658067561115
322,1.3313893742000222,1.3369450939355754,0.916283576055438,0.8974551444526099,0.8900517498931454,0.5722834979149272,3.263057497243717,3.928858149927374,1.5394909833342802,2.264501784795261,0.6333676938231112,1.2857454024592865,1.3529342207182526,1.9776638634086776,0.9155119928074036
323,1.4260311485190906,1.1462781707999568,0.6601888814437449,0.6564011737166224,0.6327418719761925,0.7487557723818941,3.5954317698247933,2.7711400916972084,1.2607154139042689,1.2802644787338116,0.6425374456860184,1.388697245736201,1.0480543621647522,0.8691355939568773,0.9391494444179332
324,1.9923642866335323,0.87922927783264,0.652160044456628,1.109968955199674,1.1112012368490654,0.6570247717357951,3.3813109686487417,3.351904811813465,1.7986892883636783,1.9352824118680734,0.6207552362147116,1.8672016643949134,1.5814367918673784,1.5821995451514834,0.9163783021951395
325,1.9191392858969418,1.5612183836416216,-0.6574985638580744,1.2460861433941148,1.2392687473714286,0.73691928651028,3.031654389310499,2.825895673445688,1.750442020247109,2.173313652549546,0.6619902821573977,1.8356416970449043,1.4471802318819302,1.2209957628009693,0.927081074372277
326,1.9353783310209325,1.4705601090848215,-0.9039381128788948,0.895170209284776,0.862985093380055,0.7796065547159349,3.178118170160364,2.9186623582718623,1.8897963497465622,3.207880726814756,0.6284777104787076,1.8656930976061772,1.6902106738169593,2.358599734548717,0.9411920911228431
327,1.7695513211694491,1.5509342698009116,0.4922233063131092,0.7460716227896144,0.7387215559834751,0.6943300740518977,3.3463307769969,3.0988474612257906,1.7637814726664511,2.0761140523879114,0.6619902821573977,1.7461489579760026,1.426585710894343,1.3391475826941885,0.9443304405408607
328,1.6119579418453038,1.297274632926941,1.145195583178229,0.8122201387238509,0.8165304757602001,0.7048295173082263,3.6389492805054564,3.4096561335665334,1.4569358728523665,2.0468026347265162,0.6207552362147116,1.6044503709230613,1.2337085155261691,1.4751712169384161,0.9373560235108258
329,1.7765404729505652,0.8363019304111772,0.018103491667433858,1.133216023972325,1.10151044565538,0.6167870008013637,2.9523276431261642,2.4296875326930696,1.3672683927391494,1.3577550918855852,0.6509067234006624,1.5857756407607795,1.1735678547289812,1.0009126214664035,0.9310075309871687
330,1.943092592159482,1.072662116905592,-0.7454267761187579,1.3287763920459545,1.2735916575055737,0.7469935153692857,3.109315038010923,3.05488312196952,1.4817231554364183,1.178978824574975,0.6207552362147116,1.8217376927477413,1.2912777414209822,0.9491846747268101,0.9240550017437411
331,1.92096997102487,1.194468718867456,-0.9460084522559047,1.4322657897748385,1.4229725659254238,0.6540273389710585,3.3424126030293206,2.9306563802285237,1.4845705499090738,1.191156403537936,0.6380535849069913,1.8268341225115459,1.2849327161647117,0.8509648367439512,0.8839479839670816
332,2.0683031182722234,1.7543028568100105,-1.8053160862715463,1.3782214551184975,1.3386904839557057,0.7369287186033141,3.7026039894534004,4.087318800958855,2.1503536616829115,2.298010318535795,0.6619902821573977,1.9970631024139336,1.97035516623578,2.1468418559381957,0.8903803087033554
333,1.85607940223143,1.436642707360184,0.32375393025066934,1.3899710387962851,1.3608040208401735,0.7845198832223688,3.878860587821348,3.4307965950457495,1.6609534610519001,1.7609617438784304,0.6380535849069913,1.8216689996341988,1.478175887767669,1.3923366755758533,0.9035009368007904
334,1.9901922751289314,1.8051213314927776,-1.5030498769698082,1.3704291574340046,1.3420437154806184,0.7992290914681736,3.957626581549434,3.882354113740435,1.7280736853507792,1.80312430285513,0.6125606311107803,1.9123464322171728,1.5151949247845846,1.5327177297694317,0.926568747451482
335,2.3218017615609585,-0.2977970664163352,-0.6515953899799662,1.332278274297315,1.3163764308879844,0.6861337954112013,2.9924510303672545,2.733167493923888,1.504033342257637,1.28184200388945,0.6547956803312163,1.803697106801098,1.298878262370942,0.934758938333281,0.9326047046539412
336,2.2377935002919207,1.0095038420765787,-1.8785434763579678,1.4404283088405458,1.4389156556346574,0.7077599651277046,3.4860704570236374,3.2386568600639616,1.9846347073981188,1.264826264589605,0.6207552362147116,2.046651718856845,1.7802134782309942,1.0483654600022136,0.9400296607680614
337,1.9074074616785113,1.5034323226192121,-1.3495109701841654,1.2419491404507532,1.2168968102732896,0.7642238966446847,3.925711317012302,3.7355465992870944,1.5283577261443066,0.8317968722784193,0.6284777104787076,1.8731864679237842,1.3596755989191565,0.7039091082743996,0.885990139496305
338,1.7388817744261802,1.4528340710666292,0.5844868176984921,0.7600226922705002,0.751074560794182,0.6999507032669863,3.6846642464844708,4.041663794763139,1.5265904462549105,1.9194978672296277,0.6309483474627791,1.723540230250911,1.3490730876390375,1.371761645552216,0.9040127826633727
339,1.6850647040418538,1.5737228283720746,-0.025651480936912385,0.8764968722269003,0.8650373083046173,0.6377287956357998,4.031615994949856,5.384741906615288,1.7691605803535981,3.22952428943225,0.6380535849069913,1.6770032319298664,1.58038244770021,2.4364464641729566,0.9190176352972415
340,1.534764799707545,1.0833560004808116,1.420890993844223,1.0072803000288892,0.9919989801692508,0.7473742849670915,3.822283556894632,5.486332717254266,1.224289823116232,2.086946152207589,0.6284777104787076,1.5333002554531774,1.0687396411497094,1.618624032297884,0.9357156530799516
341,1.6214372879042727,1.4066330478539801,1.147256247120369,1.1201187243708175,1.1005927516012275,0.8148926922065629,3.854196180657267,3.25315009681249,1.6572886864437857,1.4207124342787991,0.6038851895711802,1.6191516046217396,1.4079566768478962,1.1837700970084166,0.9132663529234242
342,1.6605473678138485,1.3467289395949509,1.597972311838141,1.035387667053438,1.0320547911755789,0.8014008523020804,3.995130481806931,4.781790108152712,1.6254199571242327,1.9554558199503287,0.6528756675646988,1.6584531019198299,1.3377237148733112,1.5676381835130364,0.9420379828999538
343,1.8328615923997889,2.412113008008416,-3.9833385287912666,0.9355333538656476,0.9155248723149967,0.6390860902193006,4.309875857337425,15.495055436018978,2.8398159491930812,4.419343346320092,0.6097226960127671,1.8324425845035899,2.3927702529235497,4.3491387678290465,0.9110813128934051
344,1.6537882421782926,1.169409076137994,0.6949895034588054,1.048769164135619,1.0495465530493333,0.7875017677680564,3.959453324972894,3.2473472343305265,1.517421337877424,1.0594485311420008,0.6547956803312163,1.6518236289305381,1.1554945738303408,0.6281256176298675,0.9378720876454871
345,1.660987422643474,1.1197360061776775,0.9595167168182597,1.0675581416665172,1.0646031602166117,0.8401913164551631,4.341005893917804,3.107665472869005,1.329480746164506,1.3098458777834776,0.62595550513784,1.6597959717756947,1.120287432226347,0.9344557968924723,0.8759474813810186
346,1.7181449079129285,1.3777815320120217,0.858008696585363,0.6572485570761504,0.6482216877767082,0.691187028946419,4.301065609305642,4.913107378089128,1.5961630546413301,1.6320834738033572,0.6097226960127671,1.7076021612213317,1.3405936818684001,1.0501567405299075,0.9409431475767476
347,1.6963254051747112,1.3497969201522249,-0.12786311333794487,0.8370029293420211,0.8261909663555405,0.8079172236976786,3.6900009605982778,3.310131217166651,1.3486286503621836,1.0599861977136542,0.6125606311107803,1.6610821455864389,1.186038570315411,0.8970365685170728,0.9303486111286521
348,1.7177453516010408,1.4589280087166363,1.298322267457647,0.8066822008661529,0.8008970576032687,0.7557278262504529,3.5485507916867114,3.615901561392354,1.6139951369911392,1.4987827046144448,0.6309483474627791,1.7147367016019839,1.4508616874786158,1.3036820762148424,0.900688739991134
349,1.6147498589724918,1.2133756257276536,1.1006267395146376,0.30213383314945996,0.29209519333137424,0.8623886043781268,3.9821444149449032,3.492093232201994,1.541839936141231,1.4500516003023538,0.648888643467878,1.6144504542576446,1.2170865179176276,1.0972931515692552,0.9534918409648888
350,1.6047363308851585,1.0418641980273693,0.9296867475294062,0.44389008236733096,0.4355852096543152,0.7689460594725098,3.6655725288263548,4.249477308887208,1.3021193672032263,1.169962128454372,0.6684167106117298,1.6042292787267152,1.0453947939068826,0.9243406530177004,0.9388528854190319
351,1.6855396409788113,1.2068535553030593,0.6742812151362236,0.2646030353449886,0.23924530948906558,0.7932109249927287,3.661612519581467,5.28183987249804,1.4763648977973454,0.6880313746940844,0.6547956803312163,1.6844009509075557,1.200784280301309,0.6614233532271484,0.9492239241992344
352,1.852012396566964,1.9200646292709225,1.221035934978992,0.14257358439717902,0.13059970842440596,0.8762650706788386,4.930680419387398,5.433683114003317,2.2465981237105126,1.6054367956327014,0.6619902821573977,1.8517925993435347,1.9233712233674143,1.2815154098867139,0.9386993980942153
353,1.637360956804705,1.035864590575493,0.7356885900739818,0.3227999167028089,0.31050077179185664,0.7357729184375333,3.8072238430944663,4.71733978887384,1.243037381792102,0.8238823724566178,0.6699045166045591,1.6360671212392262,1.0321215464378533,0.7555952126578716,0.9334231216799347
354,1.5128750556169503,1.3928872707873827,0.6321828443557793,0.5644538146450014,0.5438503138146694,0.6290016005812585,4.395356749035023,3.670178461017797,1.7431141579561795,1.342750069077716,0.6284777104787076,1.4699175451295694,1.4546316645681818,1.0696484039194105,0.9110022963932688
355,1.8301917047072631,0.6828094327320418,-0.33834413372304883,0.573733715449021,0.5354295131888664,0.7234161137416523,2.2869534115468735,1.1971822108986778,0.8785016928814965,0.54472531403197,0.6180765742263259,1.7234779618116496,0.7698641667974525,0.3936353962190472,0.9399158312539233
356,2.022044526929677,1.531197364916912,0.06988850254833068,0.45442917075201217,0.4358330681831373,0.6913055280615644,2.8137280398993862,2.210550100705773,2.213842337408712,1.0029185767039248,0.6309483474627791,1.952867629622812,1.823265655112685,0.7196843643252308,0.9594575858504456
357,2.0757272568709815,1.6966980111519683,-2.9722795786495992,0.468368317341413,0.4435338639340567,0.6712906551781158,3.265804354699012,3.8575467563997043,1.905451356666821,4.1829545682558615,0.6380535849069913,2.0476845100666443,1.7510098100544986,3.1900300213946613,0.9462197136983924
358,1.8438422539278523,1.5104003269187591,1.115374276752941,0.5179721035361936,0.5118668426094023,0.7855303539187797,3.331687766678291,3.3809098874183543,1.85912725387303,1.4971589062271988,0.6547956803312163,1.8054527963600575,1.6334464524861092,1.3687952012533986,0.9508162626226003
359,1.7768014916835584,1.4305199722317414,1.0104933309833393,0.5387730364185392,0.5244079510621555,0.6968039560006086,3.398035857399851,3.202285775271306,1.6570465305216575,1.4789411828713068,0.6447042257417027,1.761424269431982,1.4118410441841664,1.250509670438119,0.9545759723020639
360,1.5728961462690776,1.1275530478627454,0.9593552428462844,0.6001154673007569,0.5823530139535357,0.5879121034958064,2.773943805807621,3.3873474755114583,1.4614417044800514,1.568760397833247,0.6619902821573977,1.550540271186615,1.1660462609378817,1.04653765563134,0.9546890131664602
361,1.2414695943575085,0.7144926798056797,0.18925768349600558,0.7210420600878287,0.7114848542510586,0.6690059064979447,2.2939317648613353,1.6539946400028844,0.6176889315590416,0.37600762392523956,0.6284777104787076,1.1367988700533505,0.5347508806666725,0.2967082619991979,0.9202144093674972
362,1.1826286014801781,0.7018435841757868,0.02731407781353279,0.7464501104642566,0.7320068298710736,0.5946573732682812,2.1034367703676504,1.7490066525222083,0.7194106731228057,0.4642925752392961,0.6125606311107803,0.9896980948109857,0.5624147510038452,0.31998937609576245,0.9453127932085851
363,1.0936670591353697,0.5787348330295061,0.3559176146591152,0.37423311764638073,0.36593149464618535,0.5760198870354839,2.5864938232173045,2.4517468467898373,0.6463508181753759,0.7005843537085193,0.6566669596287297,1.0548187136696945,0.5265177686535313,0.4722207452005808,0.9384169843905852
364,1.7487103709974114,1.2960853947763051,0.8821638448180686,1.1238550587417329,1.1126360601837975,0.8263178147257718,3.6533093805602266,4.637448087621086,1.4931230374779847,1.8499961889646706,0.62595550513784,1.742969305058623,1.2514305232615894,0.875735084405681,0.9391083047557548
365,1.707960081074074,1.2971981302199675,0.27405905460013136,1.418277191452587,1.39710128050045,0.7088586938709082,3.3869110810729612,3.0724335602430743,1.4732978540529293,1.4605818716835364,0.6602640781246099,1.6634835289994878,1.2633447659072918,0.9941233412656676,0.9382526683455932
366,1.8715401725848482,1.760206155738914,0.17898582867243373,0.9503657937562965,0.9418284569369637,0.7252934066860247,3.163740737323371,4.187361670738157,1.960081309620011,2.3009482211800285,0.6333676938231112,1.849953713472781,1.7367703559322774,1.9831104327414038,0.9423142987615793
367,1.6540909805597575,1.6180032783421376,1.4121560469124037,0.39693501670236536,0.3635416964252239,0.7494291106202189,2.858262699791708,3.4142507601936303,1.8589457499298556,1.9511996280899748,0.6566669596287297,1.646505389908552,1.6318845624920564,1.675549998019102,0.9525562433721825
368,1.2853916691783414,1.0600319692023206,1.4179620530245582,0.4304039355110332,0.427654564884703,0.5198308928909251,2.5343414462606764,2.615213462928258,1.2890187271543607,1.8779978869221117,0.6528756675646988,1.2715777505380392,1.0498504302574863,1.3958507478401088,0.943079489906185
369,1.5450735897112187,1.3946494699299887,1.0991287951733222,0.3681411204396995,0.3481555469406213,0.6675368806681258,2.4482790080804677,2.215600538452326,1.5075939383121086,1.6085618669495252,0.6403206450210053,1.525760791607433,1.3614160753922127,1.2619759317174502,0.9506525575609345
370,1.1663478655991368,0.39505376864423924,0.13047257903797838,0.41286753783556895,0.3907765831104794,0.6679663027110889,2.056434709131705,1.3802764159075824,0.5223258609787719,0.46979359557785655,0.6425374456860184,1.0981457308564673,0.40388376430250655,0.29521163763831976,0.9509581378438783
371,1.9316996198944707,1.659824823860016,1.3000459996681362,0.5435706566864328,0.503316988797775,0.6744618541828719,2.6244256891874973,2.436518028309905,1.9856533816582547,2.2569154833979317,0.6180765742263259,1.8993446799079925,1.8101910991316046,1.4403615823901665,0.9532606085001634
372,1.2063772066340634,0.734457208531698,0.3750752502211778,0.41142781290213076,0.3665302878915764,0.7058572725818798,2.29578731536136,2.038901225000654,0.9408707372672731,0.9514261232945479,0.6357360191111145,1.1448656731855718,0.7328148585501227,0.5456921059350334,0.9561199900728581
373,0.9096384949177995,0.5487801597631986,0.4204737341453264,0.24951709126596466,0.23582318526441198,0.6394614217214942,2.4980350015633577,2.33258619988143,0.72757332478833,0.6069554199228877,0.6447042257417027,0.8902440229360543,0.5276098070916022,0.38348470564739273,0.9482261354507213
374,1.415828713108164,0.8196725050558613,0.35348803411660157,0.42371295489512634,0.4058352074044508,0.7011222839972758,2.8212840869036513,2.7432670138849717,0.9371310221623512,0.8686567005036286,0.6668815377411301,1.365577119531169,0.7551494868323254,0.5457019200478963,0.9538218306590324
375,1.355683515546223,0.8007525057739064,0.5377007490453618,0.4947489849430623,0.469368108624261,0.6391090685663481,2.3888530442712455,2.0313651336972174,0.9619702644732468,0.9696510712375208,0.6153451465759925,1.2713796326572526,0.7789778688694143,0.6497245299263662,0.9245827652112223
376,0.9830658394627545,0.5822484423946392,0.5090465278913556,0.4530612607982646,0.44152165180732483,0.6598550230079957,2.0263449110327527,1.6926763617265959,0.7544041471546766,0.7561955514169981,0.6528756675646988,0.961462450520876,0.5869848939913387,0.5391159786144862,0.9498685612050769
377,1.0385230451729384,0.5186374539368881,0.5064193601873637,0.40452335596935607,0.3963531778772569,0.6892626693228957,2.263422190200458,1.883845054753519,0.6343528894769753,0.7201729540075252,0.6468212168108125,1.0322941020749523,0.5064265006448957,0.4940918383659845,0.9537744947154053
378,0.9484646309463176,0.5657241565405038,0.36726628687812957,0.26372692200671044,0.24367151341478094,0.48632756118099,1.6470864009251176,1.230917801935123,0.7071783802234948,0.5417450096721221,0.6180765742263259,0.9228958309262909,0.5523511841821062,0.39382555722232815,0.9539596648480171
379,0.5720368952003807,0.3624674508949798,0.3204897410963198,0.18043082020570633,0.18084265914283326,0.2270706641086296,1.2916957927542225,1.2818740216241409,0.4179552259826001,0.38738965185311525,0.62595550513784,0.5538877798966599,0.3427909746621471,0.29888506018575317,0.9606307896376571
380,1.9506627805732288,1.44879451356986,0.7577444555180821,0.14257358439717902,0.12671652491519583,0.6459653044992132,1.486614520751695,1.4856529285670188,1.58253409645565,1.1563745064625477,0.6207552362147116,1.944755260640183,1.4464917901688044,0.8248885684670356,0.9243506605264229
381,2.0968741134390756,1.947942325808973,1.2984580723748271,0.31983752739228427,0.2916431897761812,0.7741998281668181,1.4256973385214875,1.8218233798912644,2.0282176680948547,1.8361342253939066,0.62595550513784,2.096113075967808,1.9268414901676199,1.7321212029083237,0.9208137689418645
382,2.5600332642791854,2.7828854531411236,-5.342918717420309,1.683006814296547,1.6479977028156292,0.9227397959936746,1.7391862151711552,2.431957908450788,3.219105518502643,,0.6333676938231112,2.5577641220913914,2.7539762647887858,inf,0.9076100897892164
383,2.320120724162074,1.770275165701555,-4.071278126486094,1.4172768397165962,1.3866497039582248,0.8923014715179971,1.6988205502965488,1.5775304131699512,1.773727489298118,,0.6068309995095971,2.3199573427185163,1.7770574480594632,7.310550158534423,0.9162197913375105
384,2.383874858473278,1.5695754110020856,1.030086718947873,0.6845857775279561,0.6814701289276858,0.7815020636173288,2.076634449208151,1.5605977223287102,1.9462414386631086,0.694972207612741,0.5947193981915972,2.3830723439067323,1.5663064480651827,1.043089198168892,0.9285368389598677
385,2.36643402665666,1.9046511015627248,1.3841404077823993,1.0376959160796413,0.9992930951071368,0.8082163104935479,2.262754739804294,2.9454342458942024,2.194223903674173,2.312057778469083,0.6125606311107803,2.3661167138185135,1.904169798233503,1.3815362236734738,0.9266711309937278
386,1.5488448010451756,1.0609550379192292,0.6977357505329791,0.15530386776307528,0.14575384855775841,0.6610250904271565,2.8584411727416867,2.592395336518577,1.3859072062991897,1.186255156304681,0.6097226960127671,1.548238292562044,1.0648048049618315,0.7001434068155667,0.9581297470037701
387,2.4584812042290967,2.5283940893324184,-4.986875293561515,0.04466961139416602,0.03414772781474026,0.8276231620335702,2.7002414321420076,3.6123615825478805,2.5492263969963007,,0.663668482632973,2.4580699958344407,2.5542333553625123,inf,0.926511527189021
388,2.352403054465068,2.0210676403712577,-4.373470694836326,0.08467349851939517,0.08068652473469712,0.5402900642125597,3.082656293618691,3.9469593450606917,2.559906878271238,,0.6713451011121618,2.3517753371848173,2.000476768787833,inf,0.9391460728808669
389,1.5677319091058677,0.9055733298759323,0.832896511392486,0.27343036087445605,0.256180321891924,0.6698154932465932,1.8637530128632458,1.3938040858558995,1.0239531408097926,0.9545848039046544,0.6125606311107803,1.5663252102558012,0.9011345259284784,0.8257805039727835,0.9471883470451844
390,1.529004528127609,0.8139015814512163,0.7182472247414875,0.22688533365436742,0.21939197496432356,0.40019677674462245,1.3031405995989884,1.3349947204542427,0.9173405080345077,1.0512648081233893,0.6357360191111145,1.5234641105764641,0.8010258178056314,0.7359586598915866,0.9445101572691917
391,2.58813201106248,2.8583533889009165,-5.446485399963397,1.4605545269744409,1.434784982544217,0.9332762075270863,2.447335467901559,2.7720609394463427,5.317809281750392,,0.6207552362147116,2.5865703035645007,2.771261190515944,inf,0.908317188927697
392,2.688488126079204,-2.6122280113850143,-0.03802458793911996,1.2332536591390397,1.2006354394047998,0.9091770826255257,2.969688933636352,5.1675913499706905,8.020309052321952,,0.6284777104787076,2.6874309138994743,7.333839674293037,0.6931471805599453,0.9088980296070311
393,2.3885840863391103,2.1983600809797355,1.0122345050486823,0.15530386776307528,0.1318407962733788,0.4910406531432099,2.0000073187873313,2.336159647126189,2.2120661282500262,1.1144102516839889,0.6357360191111145,2.3875379840597266,2.2011028999771542,1.1353442979368398,0.9484096985621577
394,1.5530326986803047,0.8934550739540401,0.5196145418120426,0.3152969511489363,0.3067585215844574,0.487695877890409,2.2992385410866456,2.3420568135152426,1.1666549727206217,0.9666718419505397,0.6357360191111145,1.5180242029088986,0.9186003482610532,0.7122589018782138,0.9532803510220293
395,1.3104887916175239,0.3416674681083607,0.290434205755854,0.3698037283464429,0.3702863544942289,0.43801390909201754,1.1743878876765161,1.038760224282931,0.7648138573180158,0.7710185499339294,0.6153451465759925,1.2052328571183821,0.5040867798364148,0.41075873120476863,0.9530450182456166
396,1.9901919020713748,1.2771928409857471,0.8369907404175811,0.04466961139416602,0.034920451292070595,0.6778708247910815,0.9132838950337955,1.0858013275397855,1.4976025533902657,1.5345977456931026,0.5978297680564633,1.988666884350428,1.2583798174844691,1.161095779969544,0.9431813392762983
397,1.9956756060410816,1.6356597396782746,-0.4893739186127015,1.3706112061299234,1.350157254404061,0.7047538141697913,0.8032150033807196,1.0296797785470901,1.9955699018730197,3.6200620678948114,0.6357360191111145,1.9943653693247168,1.6370841028889433,2.234851931940316,0.8893464120362948
398,2.1580258426195558,1.8213274384373155,0.6280276929290429,1.6136326219746353,1.6015921639164175,0.8065516629388945,1.0301965995371598,1.326210583023381,2.2603089510709236,2.5218152814448707,0.6309483474627791,2.1577154442415067,1.8173656971537762,1.9476868744264642,0.9036500602835474
399,2.4660168524295054,3.0321282099949967,-5.498145062424502,1.3818621163421387,1.367783710767489,0.9073040958459397,0.7331619624935916,1.0633924194953213,2.995611871569121,,0.6380535849069913,2.4651040224918206,2.9635751619194597,inf,0.8209456494969396
400,1.8789233284383227,2.203743795169706,0.1997118729597922,1.645588375693236,1.6483089402146278,0.6049453819566576,0.8759965156864097,1.3132166174255477,2.408901461939117,6.007829646268414,0.6602640781246099,1.8788435761351685,2.2022557593369116,1.9148195619852824,0.8828820907287511
401,1.6981288164108517,1.8512187341212643,1.6263273068421338,0.5578019086569292,0.5460024241140946,0.5144978095895905,0.8556513916840917,1.1667672666981366,2.0083767905768912,1.9852753421279963,0.6333676938231112,1.6967523656497203,1.8440902985259533,1.6052306008156862,0.9019857700940755
402,1.9734991454492823,2.071347160654014,-3.624255511797528,1.1807345382229781,1.174929290420292,0.6874425768509638,0.9108761967186595,1.3355662800475578,2.202763612171323,7.218781299011731,0.6602640781246099,1.9726420618277554,2.0653221669582376,4.278558267168093,0.8807548067622853
403,2.355560973685064,2.19495246631981,-4.550513440004874,1.4630134702577073,1.4622084255173,0.7007355294775043,0.940594810465688,1.3940196226392638,2.3064893997935534,,0.6233814453054027,2.353878387381596,2.1743307574703667,inf,0.8996852599681764
404,1.968576132860964,2.741262652812213,-4.289247991367408,1.5481423628357518,1.5548739655103418,0.556947775121753,0.9311063686916622,1.3804704306403979,3.1283393900149297,,0.6584896970785714,1.9680989543444622,2.719245839832645,3.629177701776979,0.8947020624123443
405,1.6792347155722147,1.2068153633503866,1.5578171408923471,1.4633686203360723,1.462330671817545,0.48533245585900786,0.8875445451603904,1.223696616807904,1.4508065032330677,1.6951110587945515,0.6468212168108125,1.6787879905688936,1.209585764664598,1.5494005241773208,0.9090722032599712
406,1.512352116237167,1.0333501130866614,0.8352760862153308,0.06236667603779547,0.061551586376530694,0.4987153740874005,1.0032887592328381,1.1793460352192466,1.2092028117458824,0.952341725056255,0.5883313578629602,1.5086377795326056,1.0474068980887343,0.870812450821393,0.9622211446759236
407,1.9017648200915793,1.8854528980563499,0.5104627048957036,0.11539037784936122,0.1039848483590034,0.7888690306138031,0.9284594719015824,1.288004904854041,2.1990973306366977,2.1280040465843215,0.6357360191111145,1.896601600751638,1.8751764871651802,1.3800368196422172,0.9005879935531458
408,1.776850572718552,1.6240903725666034,1.2695406524248156,1.1567080174593478,1.144951546849104,0.772225897523877,1.1165481292021064,1.3505976279877965,1.868214957136357,2.4313751763333373,0.6153451465759925,1.776476845696898,1.6243872581751369,1.704081869695462,0.9278819626428176
409,2.0152634581113658,2.2690637158136155,-4.016678486639492,1.1501367896981218,1.124340758276698,0.7797865997474159,0.9321145284266048,1.1619764744184042,2.545201636065408,6.834915302707028,0.6447042257417027,2.014070034238373,2.240443280136549,4.513994305322221,0.934032527441338
410,0.9452217584925404,0.6333972645290515,0.5949161650844093,0.06698765724152846,0.06770544273278714,0.2303533560930189,1.007641700052909,1.107170503683091,0.8743248669982893,0.9466581889934418,0.6547956803312163,0.9086257386897824,0.6832997486596869,0.602702464139484,0.9810832837602592
411,1.5803135292264576,0.8563157953181677,0.72487895193114,0.2589220734535198,0.24580245163995434,0.621841294151421,1.2574302566433857,1.1472166583770462,1.0017713459112874,0.9385824272538233,0.6357360191111145,1.5760568665684385,0.8433117617489071,0.7112928397279993,0.9345914515304544
412,1.204557127957045,0.7581981062774614,0.3548531209948065,0.25831975615694475,0.245126360946337,0.5151849907818898,1.4342138996766445,1.4083034725113337,0.9579784650560712,0.9635365427081395,0.62595550513784,1.1585746298407924,0.7368431009982498,0.5017222716921796,0.9589353147821388
413,1.8145308796797166,1.3662521131617016,1.1656762945693528,0.21391055692706326,0.20565191737004132,0.5137906006053322,1.13823931194761,1.2789100585570439,1.6752162949822806,1.3965349554975373,0.62595550513784,1.7473598819313707,1.5479771090313075,1.3053985979575478,0.9273293675088473
414,1.0820946953104758,0.6095166779251,0.4334279686034632,0.12463234025682715,0.11545740340517999,0.4614284206033983,1.0926793010299058,1.2280140975606566,0.728325206103704,0.6322993176860785,0.6447042257417027,1.053893894979845,0.6372362329662852,0.4805241732785591,0.9594803927112687
415,2.0662559520018453,2.0174145987286347,-3.7755508113503176,0.15530386776307528,0.1317300687435985,0.6878151906251443,1.2650223649631822,1.471605663879511,2.180118792171663,5.368578233913601,0.6425374456860184,2.05373047769749,2.05201212947698,4.411450584241767,0.9078231747505731
416,2.136001391199045,1.5394342281258546,1.6775381263848756,1.2373585938268135,1.213324492833115,0.926627219820331,0.9655734797118729,1.24426509722974,1.750729258386115,2.446049364382905,0.6333676938231112,2.1348133172148223,1.5399441016755588,2.0980179272527715,0.8988423231945608
417,1.7957739220538274,1.4972283722416388,1.3537524337926032,0.11826719857387902,0.11518341189790948,0.6397535465241089,0.8791287926671041,1.2088184858872209,1.8650240784976533,1.8736126927989363,0.6602640781246099,1.7947639782483538,1.4942959034769516,1.3674035986503366,0.9329347250568716
