,bvp+acc_XAp0,bvp+acc_XAp1,bvp+acc_XAp2,bvp+acc_XCond1,bvp+acc_XCond2,bvp+acc_XDist,bvp+acc_XFuzz1,bvp+acc_XFuzz2,bvp+acc_XK2_1,bvp+acc_XK2_2,bvp+acc_XPermEn,bvp+acc_XSamp0,bvp+acc_XSamp1,bvp+acc_XSamp2,bvp+acc_XSpec
0,1.5279880479668597,1.2826716734503443,1.4938736319255699,0.6569370794096843,0.645392831169821,0.5041717773339423,2.8642225401747554,3.9609075461804366,1.4747327311734668,2.375815324128637,0.6333676938231112,1.5250457032124705,1.2633111292769645,1.709454835178157,0.9505864686934484
1,1.0421410603812156,0.5975455885257954,0.30914001387702816,0.2678618456678791,0.26660958305926435,0.6197506585630398,3.110608724241992,3.2170159536256744,0.7367822149121694,0.641209151963404,0.6309483474627791,0.9511122468161912,0.5638744404681189,0.4332706587282413,0.93337232065404
2,1.6851640382788766,1.2503316264231377,-0.14838788684310433,0.5008738957057348,0.47672076822396436,0.77741514626116,4.405189433788252,4.3156639155346905,1.208102101122225,1.0402244987383242,0.6403206450210053,1.6614917298641287,1.0823583753692687,0.7765062582650725,0.9523827152882289
3,1.4607023443416602,0.9844610919076946,-0.2953332439680625,0.6714368734506903,0.6464623578287749,0.6288283479458853,2.9238994112255696,2.3074344749952393,0.9232065565900056,0.8038858220353916,0.6207552362147116,1.3249693310518207,0.7423679854499763,0.5844900935041349,0.9432281008875061
4,1.199930372315537,0.8171507996783813,0.29072980947151583,0.3942958891531497,0.3626680996602167,0.7007348215220623,3.008520891968314,2.7732983862808545,0.8410095819543104,0.8092760399847274,0.6153451465759925,1.1290371324820876,0.7016710868845423,0.5009624545225125,0.9304537089835485
5,1.274054786806316,0.9659677579249146,0.39944210653098144,0.5712664110151673,0.5614998249630672,0.7095459078050457,3.2423445574548966,2.135034957066427,0.9468771455870034,0.825473420654169,0.6309483474627791,1.2245535120259567,0.7765287894989963,0.5647452191868644,0.9321296653040039
6,1.5016089300723758,1.3221240789766189,-0.14673809257361015,1.0641796819704061,1.0577301206341905,0.6880310499716812,3.199835872935754,2.185413484022992,1.137560646963856,0.8760503956118508,0.6619902821573977,1.421299970318706,0.9530198448398868,0.638897772736418,0.9408370837658333
7,1.318133434005563,0.7797720556295435,0.02570073489019542,0.9597703248741662,0.9483636456623215,0.49026060698813606,2.8023251384531798,1.9668676167965797,0.8141109411043623,0.6131565192331315,0.6447042257417027,1.2034914387194702,0.6792144122114087,0.459313311308574,0.9445900949009921
8,1.015074717468007,0.5935445397862822,0.49410215601478025,0.4498081895482792,0.4397972332980715,0.43482715036579145,2.196723763841691,1.88820459048712,0.6991628427083453,0.8110831861034811,0.6357360191111145,0.9638191923265776,0.5438647000438082,0.5080528089204565,0.951086612826157
9,1.3130776765113694,1.0851157891958958,-0.3149558202722038,1.0653176461095955,1.0304204077737569,0.710559346049199,3.5684382829747134,3.567717215766164,0.8158665105949293,0.6637498696042308,0.6207552362147116,1.2617981071535884,0.6864592388589631,0.4488826565186706,0.9299215172843138
10,2.0259751762450793,1.7085147099963454,-0.7981202375706471,1.414289071072021,1.3721832114572758,0.8238901269877422,4.37268038767135,4.651091486451323,1.7780332524260585,3.5596150963490976,0.6425374456860184,2.0134873564011024,1.5845362682578894,2.4672070726885993,0.9188207613626949
11,1.9765250941932004,1.9773903440312113,-2.8524515422074685,1.4551254711807313,1.4075998866109576,0.7987402065952269,3.8137834481206934,4.0956133483880475,2.072221124508153,2.890514534622505,0.6509067234006624,1.9428149441480107,1.8613506654237215,2.4272496071668406,0.7838147878293954
12,2.23386573978894,0.9248138749478714,-0.6372079755940439,1.3382657463746481,1.3019588793888615,0.7935815215210075,4.511985270931301,4.071974296725399,2.101240102161877,1.4301952006431162,0.6153451465759925,2.1963249820933832,1.8893902534306628,1.1798123082009997,0.8772747414802282
13,2.1649866902282007,0.48349238275152695,-0.41831190754592074,1.0762769627847266,1.0630173470402153,0.5917224681550572,2.936616482103501,3.325266030278386,2.0512283838942373,2.7458288787946814,0.6097226960127671,1.9243008758599838,1.7717150938232722,2.304377208169027,0.8930566460604984
14,1.6681432911884386,1.330112969201281,-0.07737743271400088,0.7267268381016705,0.7125053427310181,0.6792560197699097,3.3186486397698114,2.9849854436895953,1.4693495043843166,1.210877147021135,0.62595550513784,1.6322517354997823,1.2597213037633561,0.8998008380134306,0.9296319367802215
15,1.7014956151551983,1.3359146662554777,-0.2946047864672092,0.9501635785139498,0.9455203912113956,0.7356428999604849,3.731124833534126,3.104064628959041,1.3893239618159148,0.9917285278422402,0.6125606311107803,1.6498548963896154,1.215824248916178,0.7632556566807993,0.9411808258667627
16,1.8866805056848148,1.8141212119512715,-0.05614342019907248,1.2156738178555164,1.2119885493627642,0.7507868042925401,4.077214193388587,3.5410581418273335,1.9048516535750035,1.542653972836033,0.6425374456860184,1.862181933524601,1.6882891508853086,1.4306054074448016,0.9391376783568347
17,1.9532522293561327,2.0182262497779213,-0.6478244632643109,1.3441500077702238,1.3402414508735476,0.6529071935344193,4.271671879754396,3.917740071730644,2.1827416353441307,1.4616770181378074,0.6509067234006624,1.9237682121484205,1.8894154946121648,1.0068312277270208,0.9464702396277451
18,2.072959356884638,1.8058793084298577,-0.1781005420024635,1.2078231393320362,1.183097930302843,0.8204038560120138,4.5435292989933185,4.8457615230679565,1.9950987705204302,1.7038750634770552,0.6509067234006624,2.060423535844074,1.8499341902650106,1.5284996632179515,0.9290510854037708
19,2.100468704330038,2.125704044920802,-2.885434580613566,1.4618562504907346,1.452376578930326,0.7416707012457553,4.605832609452526,4.243393733215705,2.2968134980465544,3.597891463820783,0.6153451465759925,2.098284629481316,2.0529830801404056,2.6815862611872974,0.9449907528497904
20,2.158540353093256,1.982027610997346,-1.9638485218452,1.461248248258962,1.4389879571934514,0.7738564918970042,4.34914281731551,4.148113341732179,2.1891499314435507,2.0677288260857276,0.5915533975974677,2.126672921385275,1.9537687356678346,1.7324119126574538,0.9366856394509799
21,2.1708728405100124,1.603696277663631,-2.4702502644171638,1.307323275231451,1.2809556803084103,0.8110544849543954,4.620975628498133,5.2745914793659425,2.4799128218339805,3.095641834841685,0.6468212168108125,2.1297528622212067,2.25762137877927,2.577539451821609,0.9025565727783097
22,2.131011313732636,1.2132309813813786,-0.8037569040082113,1.180978650601862,1.1700923102600258,0.8099544122936287,4.358003905573366,4.631152067977614,2.090525570732107,2.45644359534607,0.6447042257417027,2.0597260641505857,1.8679747539967901,2.0160323261394164,0.8838601868477077
23,1.9501658254506917,1.6359967297125844,-0.7458023041868254,0.8185382533918449,0.8004756417237346,0.7466018944514494,4.0430686349843,3.457524241269901,1.8760213017586145,1.7280651796545503,0.6309483474627791,1.9095675051969436,1.65847186241078,1.5009315035014956,0.9138572978430788
24,1.8405746359200763,1.8743238181867152,1.0515507728139384,1.385563280539196,1.3700057599448117,0.904746621162443,4.330388595625974,4.224165193830105,2.107558431610838,2.1791217714678437,0.62595550513784,1.82939211070161,1.8581548981785478,1.7772185653055435,0.9285564544775489
25,1.794229486656643,1.525196817216198,0.08372946645444124,1.0998767970868548,1.0617934732855403,0.7300786832449427,4.408840582147228,4.005854667704442,1.708288249995102,2.3383177828974473,0.6180765742263259,1.775426907940495,1.5347117427746937,2.0837111425544115,0.9316403829327126
26,2.105072940853476,1.8004631969342988,-0.07748318924856168,0.881669634339922,0.8639418177231257,0.7461421823157021,4.385893094934921,4.986962520775831,1.8931029378048785,2.17816767087675,0.6509067234006624,2.0758922921686946,1.6881897500665068,1.7299799014389305,0.955489924709471
27,1.8460373272246542,1.8528518620341885,-1.2857401232926091,1.2775040464624776,1.2406293517340186,0.6872088793519421,3.7441684716049224,4.307527899162735,1.933838553363539,1.6940046260050325,0.6357360191111145,1.8183088044615916,1.743057329353385,1.426203887350283,0.9034388086430628
28,2.06560323132603,1.9289872531245984,-3.61223521689993,0.14257358439717902,0.1352834309285054,0.7256486992803627,3.7481092520601558,3.4056175844804204,2.3173411107331607,,0.6619902821573977,2.0651442369790116,1.9176589505101818,4.429029488269218,0.9557537204541066
29,1.9217917417343722,2.3099589504162887,-3.512253675554938,0.45548278024141226,0.440223195330713,0.6511300334856792,4.085922311552023,6.004629146492429,2.597987267235999,3.9843393719758065,0.6528756675646988,1.921488575902839,2.2908890532308543,3.4816152534744007,0.9372742145030662
30,2.094875972667566,2.1508705900548515,0.5867872418825701,0.8165829616250986,0.7930398164705087,0.7393941781469324,4.868282086295772,5.444726109897358,2.72949183388556,2.989032099783427,0.6509067234006624,2.092144100885712,2.1262531100063677,1.3931099876549506,0.9414704333269034
31,1.8219500981061458,1.4078035194929293,0.03082069990282843,1.2084712828228106,1.2029449528227627,0.7858749788657641,3.9359342029103472,3.7011836126993947,1.4388300321013723,1.2274023720074014,0.6584896970785714,1.8003966626237184,1.2442924556568034,0.9531338769509567,0.945644884560589
32,1.8058778786741883,1.246895905420772,0.6828384048170997,1.3105752066918115,1.2939357206774604,0.8020710928621658,4.018831879876702,4.198562713315282,1.5993241345390559,1.486715266842186,0.6425374456860184,1.7845852654800547,1.3611950043175953,1.2194985075750089,0.8267150400954395
33,1.8503472608213936,1.7017920533032043,0.15998411149948577,1.2256493326233924,1.2161490077199482,0.7427846139217815,4.3887308747216816,3.9790219867550363,1.813883657600732,1.7418505411262541,0.6584896970785714,1.8420006856648017,1.5709319522157745,1.1413332182457476,0.9451796053969026
34,1.5963801061305507,1.2419323703268048,0.7532045668624785,1.0867775413732097,1.0697239650306964,0.7711894959711563,3.9442182873531806,3.1693362541057684,1.4887612877383984,1.3737689281582464,0.6727386042041725,1.5914342879945256,1.1693137021081337,0.9197224744299013,0.9299846238155997
35,1.4080129342791625,1.158226974604964,0.7482727093406343,1.1451335253025736,1.1334107081173133,0.6491949902877098,3.8907546592087403,4.472679208456015,1.2472647323836588,2.049809626435225,0.6425374456860184,1.406270336773362,1.064470457541739,1.180200820458443,0.9091090487957416
36,1.8578704106613395,1.644484174753898,0.18191164688043937,0.9880930595959784,0.9674077919658844,0.7145982861634983,3.6556190397483244,4.473618741782093,1.8572920376250959,1.7610273069009095,0.6233814453054027,1.856973774211657,1.5962189025688787,1.6104918384055356,0.9435459396560019
37,1.6439389015732202,1.3476821296707897,0.41335236852024293,0.6101214697313198,0.563225690035495,0.6741703133557994,3.979153957308463,4.484026718465724,1.5054237948343598,1.4482576961500928,0.6528756675646988,1.625962584766398,1.1881891472183577,1.328683039397779,0.9214464233601859
38,2.0891214777966494,1.3310696736993957,0.2670429985238685,0.6696729850470199,0.6492563646749466,0.7637182226445726,3.5980953256985453,3.324739555801236,2.0493968202857493,1.6891472498510676,0.6547956803312163,2.0316253966866533,1.7406356663663338,1.4127276181880462,0.9424980827751892
39,1.3762908519807318,0.9184240181093375,0.7355303281631258,1.0967554158941972,1.0827425654103082,0.5484363618131827,3.811617826649627,3.564093468292754,1.030242044755651,0.9055056356689666,0.6509067234006624,1.3757281583486107,0.9212062631366205,0.7269687290354561,0.9000236659270217
40,1.2609188294774711,0.8434347499842898,0.6873345607650734,0.5340364457187066,0.5037541022805229,0.7617018420029332,4.298961464053289,4.126091752694388,0.9592364473194571,0.9147531921823981,0.62595550513784,1.2607391381765451,0.848291428423758,0.6900390328890755,0.937989659604126
41,1.264718325573787,0.6597870695636305,0.4904830851739226,0.7194199817691547,0.7141455284621644,0.7787802936711343,3.997512976123546,4.09508468597968,0.8657836262940461,0.6332268842567574,0.676637947632344,1.2637621269537451,0.6596257847527464,0.48554583931827444,0.8864689898415208
42,1.523961790088745,1.4267429341336544,1.9847424242484442,0.956717559376976,0.9404148563490397,0.7172458735580967,4.099805778579098,5.599448359173463,1.6900772505397856,1.8858892684854138,0.6447042257417027,1.5229544525459633,1.418710599737752,2.0044317206749693,0.9396125539078826
43,1.5629392645184452,1.183278633713302,0.6357069313155552,0.5348765586853528,0.5026000680902902,0.6695701771182154,4.280590504644541,4.7318157952294975,1.3791955945750674,1.3779121011663418,0.6403206450210053,1.5553706911638245,1.1437197685669136,0.9399411886556306,0.9411282827919856
44,1.246205787364583,0.7962318477731913,0.2363950642220649,0.9345971683947643,0.9025256704307784,0.6990785747790252,3.2135517198112256,2.2753094180541518,0.8465956631761639,0.6075266005420127,0.6233814453054027,1.1846423291441444,0.673613131372275,0.45012416618596257,0.9390498129598964
45,1.582874627747954,1.2131765455471544,-0.4271211680281741,1.1715050051558396,1.1656789229604676,0.7267047726780456,3.236193564329376,2.5663921257509075,1.0598580389793222,0.7848379740600815,0.6468212168108125,1.484225751073673,0.8821277892705179,0.5683881652879144,0.8860876948050999
46,1.6341818452771582,1.3521988953370212,-1.3784378789105298,1.1095267799011903,1.1185230112787168,0.8117614529600108,2.927390131854874,2.0216370162906228,0.92006712452117,0.5744932148094061,0.6233814453054027,1.429944424935047,0.7760182183444576,0.3562571096111659,0.9428601898356684
47,1.5454608212339331,1.0278151683612875,-0.8809613977249071,1.049409398014284,1.0546783526259826,0.6052168135754549,2.6321121369492833,2.7875909269308585,1.0828068349624094,0.7229219539009476,0.6097226960127671,1.3829665710272159,0.8673423774014588,0.5072816982336715,0.9232325756407793
48,2.1992027891472428,1.4217581947420848,-3.3533122966038387,0.6484202508495032,0.6293726254185533,0.6180046118445636,3.6526808680414113,6.944898522366146,3.624332663480258,4.474417363547548,0.6097226960127671,2.1968246573148926,3.151617096415713,3.420065865966538,0.9489253650681534
49,2.206639626880746,3.2565607183779126,-5.272022711483309,0.3067472034318899,0.2897146228493778,0.6651225660613059,4.54656408256206,5.6026224185113875,4.33632189866269,,0.6509067234006624,2.204752843757011,3.148372759286021,3.751854253275325,0.928124549611196
50,2.1572087452695254,2.82315844389951,0.39172431991827494,0.19680269520187346,0.19427381101672922,0.6296448669973981,5.227392643458369,8.60411798099468,2.8071488277249967,0.9672196709402274,0.6584896970785714,2.1559866693199745,2.7885488230717574,0.8246747875869244,0.9286025498899882
51,2.443273469170858,2.1605142379345423,-4.455497594585523,0.21741154249979316,0.20950179803562882,0.6915481549604388,3.6301193376847833,7.191757223056449,3.2086247668761767,,0.6468212168108125,2.4428693939969426,2.18363792937928,4.478472532942134,0.9479698339041529
52,2.172125435330989,0.7248438609535506,0.7896167319934273,0.2026936958102423,0.1928509380343225,0.6025130951216956,4.218011537300408,5.32908629486043,1.0327792373465199,1.4267314585804591,0.6403206450210053,2.171946770151951,0.7230356003018971,0.9007401792781374,0.9638698261064805
53,1.9644419850520762,0.6184709239175419,0.7014236478608917,0.2444673364541365,0.22319346104951168,0.6581934441986687,3.9751909601792064,4.582971801740781,0.983002707419684,0.9259069355357389,0.6528756675646988,1.9634180778537564,0.5946329059722469,0.7307109685063639,0.9420708153312347
54,1.8914361733068983,0.4926279623173002,0.33519337908777125,0.28753177437928934,0.27889538834418165,0.7060031639657806,3.7579431350407,2.4708668428947207,0.7195487991222316,0.6631324213870343,0.6547956803312163,1.8909170407612736,0.4877095163095167,0.33326434341735767,0.9311687287149165
55,2.298841019351084,1.3112950949467552,1.3874023308929742,0.2444673364541365,0.22208906347760007,0.7910737949164367,4.906044613132213,8.211773370791363,1.3218803125869263,1.398578094309713,0.6684167106117298,2.298703746286073,1.3169252460882706,1.385055970868744,0.9376328398168051
56,2.2588690713058504,1.3895090985586864,1.2581561001633537,0.3524322278694498,0.34255980274435494,0.6815392179041997,5.08698452381106,10.789991673545428,1.5938692808040908,1.8754291172868771,0.6357360191111145,2.258461886807409,1.3933358924019956,1.3212206513155444,0.949512609925433
57,1.862049773832114,1.572612335628097,1.0781496183898804,0.7787787566504643,0.7426632271792888,0.8388969373823456,4.690355928542287,5.480344117251257,1.835773638156054,4.263673789654602,0.663668482632973,1.8607523407150064,1.5722797644671676,2.4371985771116917,0.9034552607470479
58,2.2304262523195826,1.009609968130197,0.02241233821073063,0.7620471723859279,0.7332263159337369,0.8254057320314799,3.6499097194340764,3.9469614375472055,1.203502177005728,1.2558608963169906,0.6584896970785714,2.217019204664399,0.97635132979544,0.9096784683924082,0.9181357667161368
59,2.1166141988097538,1.642349702162421,-3.315734889376957,0.22226326193366597,0.21075375912374814,0.6056162351087396,3.934251479799275,7.912861221082851,2.1418620069259062,4.833542134397011,0.6619902821573977,2.1161977386938458,1.6459695111899226,3.9077280811452653,0.9375613468150498
60,1.6413056670210393,0.829814966694538,0.5434847145398569,0.1740656785227582,0.15398571163673708,0.564718656040317,3.2307033652432566,4.84685913472159,1.06865588847212,1.0644132809668958,0.6699045166045591,1.640412716733531,0.8115750862973597,0.6590306259808966,0.9528141018311972
61,1.8896958436754447,0.9884319853084862,0.906102553173628,0.25072527410623685,0.24840461805665298,0.5565814474716708,3.7239525231009596,1.9224553119698675,1.1192109368311618,1.1483241804780917,0.6447042257417027,1.889592829576818,0.9914228333953216,0.8912454000808476,0.922620823374872
62,2.3620239122078956,1.1854134225504063,1.2664864717573852,0.3300669804009198,0.31529146322574525,0.7205670585154913,3.903074499982726,4.662419916753127,1.2953550261981315,2.9265510811313993,0.6547956803312163,2.360096510308861,1.1738706493180016,1.5002780001085272,0.9213276447336939
63,2.193517202235172,0.8706019587498277,0.7585526557848516,0.23127557662796056,0.21856369449522234,0.5556294582825605,3.750790833171136,4.000280956691377,1.0234198166198698,0.9135044574247273,0.6333676938231112,2.193232556066682,0.8822646859561716,0.8320911663374267,0.910461460182128
64,1.9611327774780083,1.0027264477223414,0.6629739488676218,0.25254393576411527,0.24412649093765115,0.6283011399640246,3.9815833696344534,5.109405409362453,1.1691197393345463,1.2229250282275803,0.6425374456860184,1.9607305416538718,0.9989912943770862,0.6818500338737693,0.9522221825041569
65,1.545689533204338,0.8100898981053779,0.7561815180435154,0.3034089062470924,0.28588749157381393,0.5775851687175508,3.4095390903280527,3.4567576472081334,1.026813482730038,1.5522132948822602,0.6357360191111145,1.5448473093194857,0.7888845126713969,0.889319374287799,0.9393467520954744
66,2.5158060547140497,2.157969925205961,-4.482088560768736,0.3253926555460111,0.31640417169108204,0.5589458917253941,4.07238843276895,5.468459579426659,2.6846333468239303,6.203899903254089,0.6380535849069913,2.5056537229327893,2.178078785558404,3.779393461654768,0.9382425555711029
67,1.738989633507183,1.6003906145089035,1.3398543236745941,0.27951915233958313,0.27560094366184257,0.48031214708921616,3.8038073302854274,5.04475542176544,1.8396117535341598,1.4791516789038723,0.6357360191111145,1.736829462369594,1.6035864470327026,1.4078551202264682,0.9251930457547961
68,2.143476591673162,1.3131867502621324,0.36650523842013394,0.29840716303958675,0.29203024866616656,0.6383835681023261,3.402968142716105,3.2348064345723833,1.775670051775107,2.9332968214124544,0.648888643467878,2.131343208222707,1.4202895413710817,0.7700307353530029,0.9388830755781271
69,2.5647300556748567,1.4730394875163721,1.2755983231480563,0.11539037784936122,0.10524983936170075,0.6399974588560294,3.449131647163158,3.006061740712013,1.6075278715893735,1.5471091773704464,0.6097226960127671,2.562796121782707,1.474538185722614,1.4300593890866495,0.9128491040386835
70,2.2834487922070488,2.0297750810451602,1.2482290577361752,0.2516420137489525,0.22862783581982535,0.6536348240121795,3.5323686291618164,3.0052993456875905,2.290911081525466,1.1719548225710823,0.62595550513784,2.2823468307530543,2.030983272634592,1.3871245811758797,0.9326225320911853
71,2.169081534417082,-1.6964476073407837,-0.4726339270762982,0.4442382197994685,0.4144037898371259,0.7155700076674846,4.066899273802169,12.705885837051387,5.736907966128021,,0.6357360191111145,2.1674716191868715,5.328070324697385,inf,0.9262275743800192
72,2.1293090188175037,2.4938664542652327,0.3820461080828599,0.3003896726702448,0.2691307301525732,0.8978191981812677,4.057974502375207,3.508480971297989,2.559110363871064,1.3105205110463642,0.6468212168108125,2.126393396575628,2.4899500900105886,1.149314391788072,0.8902444747561774
73,2.6409777591980914,3.0372457816402623,-5.678223540838354,0.11826719857387902,0.10050026936036105,0.8823650240196381,3.55868450119967,14.948348410909478,3.012503495702404,,0.6602640781246099,2.6389906651707156,3.012832070554775,inf,0.9487600818747295
74,2.4910724437365177,2.4391475473295143,-3.9169785320566812,0.1934275347400857,0.17323771000973937,0.5545239619357764,3.8067607816372564,7.7443405021188125,2.5064762440997423,4.201303706924058,0.6333676938231112,2.489182444650789,2.432221715717524,2.515868875391967,0.9429223411226106
75,2.273317694420493,-2.161245740374392,-0.11207195404610092,0.15530386776307528,0.12887671548254542,0.7968863477275486,4.833732468640132,15.18126634192178,7.519285570346559,,0.6547956803312163,2.272163664000713,7.189491136256375,inf,0.8928347933600475
76,2.6207871516269265,2.3750924522350503,-4.995879603861977,0.6671464995154313,0.6583313644056782,0.7014690851549347,3.4441995623834676,6.403610196914579,2.7575528435474346,,0.6509067234006624,2.6198867102729055,2.379149447979999,inf,0.9069839183308712
77,2.1102316716838874,3.474927716068827,-5.508688334242574,0.1792080277878048,0.17132137087229482,0.6120706967281122,4.20460376398211,7.1186102999862495,3.3899554452381886,5.202785979070857,0.6547956803312163,2.108298368141818,3.333119842046892,4.579852378003801,0.9513875562077541
78,0.9388189629185604,0.5191324762245277,0.23703890212376644,0.7744686463075737,0.6888499463995424,0.7588954117067733,1.5830805403027555,0.6157476114931559,0.3178314103805717,0.11457255032922661,0.648888643467878,0.8629342894631244,0.2887623702974406,0.12067395504101144,0.9132090186714575
79,0.6428450697251513,0.0664748826650069,-0.1706592174038717,0.3530348314993323,0.33333156518463136,0.46975775331305825,1.0524338742985762,0.41891813121321575,0.10924913285338683,0.032343374432869686,0.62595550513784,0.5203149497871062,0.104197942087535,0.03418992139771418,0.963503602556831
80,2.86846375699009,-2.330592580992192,-0.5378711759978981,0.38315386259734413,0.34666413966751525,0.7353022957584149,4.652622523860191,9.762091527405616,4.67371580469465,,0.6566669596287297,2.855970331178832,4.424460233088478,inf,0.9361250402945117
81,2.5284357075727755,-2.431409553597733,-0.09702615397504273,0.19517169521930086,0.17475318201969428,0.6465611798360871,4.043912564401671,7.2704971069243385,5.6560048612397456,,0.6125606311107803,2.5260064606734263,5.298039550182866,inf,0.9471870890209008
82,2.267029479931454,-2.1619648936543965,-0.10506458627705775,0.10234807851457901,0.09051953245898613,0.7580420847482631,4.087679929862619,11.91882985541644,6.3014206389785015,,0.6309483474627791,2.266253163746655,5.922435960697546,inf,0.9422079287783242
83,2.7141007025350636,2.9131220424092477,-5.627222744944311,0.06698765724152846,0.056155454964613424,0.7898461033565485,3.7374863768254887,11.052951085462325,3.049804686794306,,0.6333676938231112,2.712727790653321,2.8927187832820183,inf,0.9472244308783189
84,2.5310659636670025,1.5703878903277064,1.3279909452252063,1.5468111541221985,1.4993731001878066,0.9590722998422169,3.8490383315368994,2.788945944949387,1.7824326585254489,,0.6547956803312163,2.5308807826979507,1.5762113523466523,1.6514985761065928,0.8856217955396837
85,2.419661153227182,2.1821701314953956,-4.601831284722578,1.6014518018054522,1.5628308114968128,0.8916948770082646,3.429973286627733,19.123955897531236,2.587927764513396,,0.6684167106117298,2.4193686283173457,2.1891404589362606,inf,0.8927861961818482
86,2.02643809698524,2.975827936658958,-5.002266033644198,0.06698765724152846,0.061207109670166036,0.3629720912614378,3.416949792493202,15.09953638041387,2.9779092599179635,,0.6357360191111145,2.026048231647263,2.9746367315958246,inf,0.9539830802273301
87,2.5251998261726554,-2.4930622754116074,-0.032137550761047885,0.04466961139416602,0.03386451944548193,0.7979062605456939,3.584863174721187,9.399092505316624,7.490113360753659,,0.6309483474627791,2.5244794249078235,7.273647611970478,inf,0.9213754617578445
88,2.7489761799539596,-2.7489761799539596,0.0,1.5489640451804934,1.5342891470875195,0.9132422769319043,3.1660023491076417,6.965035550169015,,,0.6509067234006624,2.7419517527778914,inf,,0.8922042602007033
89,2.4393000335087027,3.261143539881984,-5.700443573390687,1.541544117827315,1.5055012503693894,0.9233390631265453,3.2827469603100274,3.4628286278323737,3.261402179474636,,0.6380535849069913,2.4390413939160505,3.2680799820056654,inf,0.9080832883158986
90,2.2480133949626997,2.376871089886429,1.072209001656276,1.572798450971977,1.5362753422055047,0.8972782998101165,3.195153794456443,3.705112415203725,2.4669575945573454,1.0049007379079158,0.6180765742263259,2.2455748382772662,2.3820682035628837,1.0828284209668477,0.9038310200271542
91,2.5496028792526166,0.6342569092298076,-3.1838597884824242,1.488688254018533,1.4669811134450146,0.9558745135483596,3.3174561681926527,8.864237195116745,4.008356504618511,,0.6333676938231112,2.5483435557042706,3.7412275811913767,inf,0.9001148107788537
92,2.5836689637096013,-2.5836689637096013,0.0,1.1815492119427817,1.164657069432045,0.8698885888146523,2.59077090106317,2.5643891203455675,,,0.6403206450210053,2.5824459789673413,inf,,0.9014348775129831
93,2.500075127960745,-2.500075127960745,0.0,1.131376847681691,1.0984345329216672,0.8954574200131064,2.9347642227637585,8.705281059887707,,,0.6425374456860184,2.499276063755302,inf,,0.9021874592021729
94,2.361322585135453,-0.16211664848259133,-2.1992059366528616,0.08467349851939517,0.08102522545895775,0.5872993024674167,2.750287326241953,6.47113788355821,4.764242199127672,,0.6284777104787076,2.359978828637645,4.235401765302339,inf,0.9361366114825783
95,1.6207802446579804,2.2385939552234717,-3.550323090706354,0.1963043554646035,0.18813047161223018,0.504904226914105,2.5526387790053153,3.2378166385418394,2.4248450805223314,5.155542887148838,0.6038851895711802,1.6165744280034202,2.2340399492960823,3.946032659368675,0.9387387369369856
96,2.2973942099451206,3.2822059834823394,-5.445775849784716,0.20443785628945746,0.19404362160423455,0.6222628624646754,3.661486638923072,7.71911999289311,3.355663979782778,4.356398451017799,0.6333676938231112,2.2958301810903414,3.2857346608416105,3.880089958325137,0.9338976402857673
97,2.3636087374331862,2.90182132540115,-5.265430062834336,0.24617879408116716,0.2332535024884976,0.7848764636918442,3.7961981686254487,12.08443105178955,3.418269129055824,,0.6180765742263259,2.362217152008399,3.331614991794634,inf,0.9287946361693071
98,2.498991095415763,2.63245411804013,-5.11465344732856,0.10696905971831198,0.10040690886801328,0.618621549451749,2.839699262488974,7.717905511907359,3.2087136982545608,5.693743399620122,0.6652988471865258,2.4917298751361256,2.648634525634914,5.574053367981417,0.961372059826226
99,1.8095542467238417,1.7096530678058444,-3.3208426155697195,0.1405401224257846,0.13400208804008537,0.5307496573310881,3.0125928804226643,5.721593677067261,1.838070066475035,5.267580614949232,0.62595550513784,1.8036296417985422,1.7778912939948945,4.7815215757955425,0.9582399917093555
100,2.6810035435026704,-2.645191704150759,-0.03581183935191113,0.10060391803536387,0.07767642148504111,0.822044943382524,3.4383589903888665,6.645787534697925,8.72061422667861,,0.5748741956352443,2.6802729201027633,7.628679740541529,inf,0.9097671774007074
101,2.9741203006414305,-2.9359902432943357,-0.038130057347094896,0.022340379843483554,0.018157270118546936,0.6465544006423818,3.5917388926039564,7.28695954849649,7.7467311287258225,,0.6447042257417027,2.9610088374956054,7.7534089312568515,inf,0.9283418767054957
102,2.5205203987524873,-2.492409512888851,-0.00899312248610181,0.022340379843483554,0.016673358253506226,0.715174117945037,3.161674303119816,5.251205688631401,7.090181535541793,,0.6468212168108125,2.5189461420115244,6.691394229964659,2.1972245773362196,0.9121995446041821
103,2.696710615210878,-2.696710615210878,0.0,1.1516030304029783,1.1176972992314451,0.8820090171727876,3.2145437499946548,52.84721402452547,,,0.5748741956352443,2.6934900497708805,inf,,0.847452223422924
104,2.5931950341204786,-2.5931950341204786,0.0,1.2312514310659046,1.184376019420849,0.8862144023637116,3.144476445733477,34.35642644916628,,,0.6233814453054027,2.5929373940017055,inf,,0.8473815688080542
105,2.747109469372394,-2.697262960533478,-0.04984650883891585,0.06236667603779547,0.055440921221870984,0.6099398630981367,2.9993019274592565,7.925029197125166,6.5760396174555575,,0.6425374456860184,2.745405987645979,6.264263688868053,inf,0.926577996432717
106,2.525985848759048,-2.478457557915316,-0.028410527466197176,0.04466961139416602,0.02586587657364333,0.726512731411981,2.4258692706628167,3.617642173515943,6.480175651121782,,0.6309483474627791,2.5228162228612203,6.399842076663181,2.4849066497880004,0.8996081497321877
107,1.3746930703731535,1.6312163573628624,1.14576624000104,0.15992484896680823,0.1537854974069803,0.3810625707284426,2.699669997685877,2.6689064880493474,1.958275736817144,1.090131170526551,0.6097226960127671,1.3211310352134775,1.7752813660972349,1.2653759711221781,0.9545393850150995
108,2.4858368614580395,-2.3822501969284797,-0.08701441878650647,0.14228428290499973,0.11030335434255133,0.5925078252195454,2.9572807895764,6.750546835055044,6.515414995639123,,0.6180765742263259,2.487576878343879,6.522092798170152,inf,0.9314669421444358
109,2.2573385138949082,-2.2573385138949082,0.0,1.3704849817946636,1.3476236648091229,0.8809375712856803,3.139344656670926,9.050923003372528,,,0.6380535849069913,2.257080744489585,inf,,0.8881300975346795
110,2.7325396287842114,-2.7325396287842114,0.0,1.5493278011249771,1.5125454089351364,0.8929532914312085,2.8867341326826006,10.739304490333826,,,0.6207552362147116,2.7316600667413438,inf,,0.8821796259192741
111,2.6586956855313466,-2.6586956855313466,0.0,1.633176007736156,1.6104285988938085,0.8653978528886743,3.4878512056338935,10.76046711482536,,,0.6447042257417027,2.6578324849415926,inf,,0.8995647337998633
112,2.967530395081578,-2.967530395081578,0.0,1.34448109123699,1.3254567406920417,0.9337123594361137,3.294287419356656,10.33123259562643,,,0.6425374456860184,2.9653108445606584,inf,,0.8844324385366366
113,2.756527997503168,-2.756527997503168,0.0,1.6989452908106355,1.6750114526900932,0.9292522843244532,3.325045748455288,3.4207395014770094,,,0.6547956803312163,2.7544432406719204,inf,,0.8712859257637757
114,2.61274530821317,-2.580607757452122,-0.032137550761047885,0.06698765724152846,0.049990693038164453,0.7615244457286038,2.9566072883838035,8.071610472413667,6.8432970204435435,,0.6180765742263259,2.6116799772825163,6.8499748229745725,inf,0.939548285520014
115,3.342236008355996,-3.342236008355996,0.0,0.106969059718312,0.082201015550474,0.8544279770573318,3.5195808002283253,5.8605455606017145,,,0.6233814453054027,3.336034055755742,inf,,0.8992111505636564
116,2.902660499573988,-2.902660499573988,0.0,0.48156596428488374,0.46434283514903074,0.8885423970976665,3.70750399638535,4.3249514135013625,,,0.6125606311107803,2.9008262158000235,inf,,0.8898547481374037
117,2.7435212500011064,-2.7435212500011064,0.0,1.0123404523258601,1.0116616122998554,0.7928468012423303,3.2116599880817946,9.227787569670614,,,0.6207552362147116,2.7429867709831064,inf,,0.8777791108315499
118,2.8699975464615854,-2.8699975464615854,0.0,0.6243065868005319,0.6128068585926628,0.9329489294068039,3.262707358014067,4.058038084116037,,,0.6008849035917525,2.8699810682484306,inf,,0.8947849535623086
119,2.243357251582535,1.6479302967340104,0.4061062230157866,0.2920994119318466,0.27963325511091464,0.6592911462564172,3.3428378403255974,1.584557511357131,1.6581357181191225,0.4079278472591202,0.6619902821573977,2.242221943266955,1.6527254613709363,0.4134158011214184,0.9311461835498108
120,2.873072702658011,-2.873072702658011,0.0,0.27009206368965855,0.23894900239245698,0.9099840629196316,2.6903037023098353,6.3375223413775625,,,0.62595550513784,2.872924844292444,inf,,0.9174390557006639
121,2.4922481818912376,-2.43370819216878,-0.04174822359512347,0.06236667603779548,0.055115524572937453,0.7319162171974991,4.342383592186837,10.105729182195198,6.078089563386046,2.826513170285652,0.6468212168108125,2.4895842393391114,5.9222484364192995,2.3025850929940455,0.9136885443060874
122,2.5339437200918185,-1.419126199835977,-1.1148175202558415,0.102348078514579,0.09579957893292354,0.7606708671224996,3.292747340464369,8.4575852570999,6.671244936986102,,0.648888643467878,2.532417632459052,4.700760046957713,inf,0.9311832071786589
123,2.3350702686591407,2.9340020237785054,-5.269072292437646,0.5414812084507413,0.5344139585816852,0.5223491269290362,3.1065028258373864,10.939765804955606,4.0169553794464194,,0.62595550513784,2.3340757600854163,3.1846112308941046,inf,0.9317364219270441
124,1.9670618402013187,2.1204555635588953,-3.991928586872539,0.28409675553504915,0.2596561660792361,0.852621891734976,2.3763021125735513,2.5453656814886596,2.133467741794813,6.195835343417358,0.5883313578629602,1.9662715991305277,2.1168033708333422,5.715052066914432,0.9194279653713696
125,2.2562694387662283,2.122991192961698,0.6246856742175337,0.14696382737077213,0.14406542613659012,0.666925865730926,3.7866574182865844,2.4972186730878985,2.3391449695176627,0.40878171258107177,0.6357360191111145,2.2560196238467247,2.1224577613160154,0.6388468970843122,0.9553200191518932
126,1.2391451743720971,0.8203936295892766,0.24517776879241593,0.48927156591193327,0.4829442469763208,0.6122809418454898,2.668744138106304,2.1907771130788647,0.82705470455928,0.683650262349001,0.6180765742263259,1.1695713776086036,0.7067297934960329,0.4901708035382656,0.9474085857286182
127,2.5120160915959713,-2.2658903326359465,-0.229333992832691,0.5740644785895339,0.5428349732088112,0.7616985091934848,5.146406251662237,6.044210480822398,5.758104330171093,,0.6357360191111145,2.507288600681131,5.568071838456067,2.639057329615259,0.9202179297975787
128,2.7519914566275445,-2.7519914566275445,0.0,0.47820822957194253,0.4550238115305768,0.900312810391231,4.339138439622571,91.61137323133543,,,0.648888643467878,2.7518279484481054,inf,,0.8809017766847367
129,2.5633688524470477,-2.5633688524470477,0.0,0.49831637476483376,0.47845783977292783,0.9239410313924894,3.658840371215761,29.248366792267955,,,0.6207552362147116,2.56322861656347,inf,,0.8869834890192865
130,1.9707827469172783,2.123492335763598,1.3925230066716434,0.1515848085745051,0.14331410214407894,0.733416844917748,3.9507706301828627,9.14562732439122,2.1389389392569376,5.206195460723477,0.6233814453054027,1.969611031350558,2.1422188452125623,1.6362528569896608,0.9319501174795295
131,2.6073656377318803,3.016817820964617,-5.624183458696497,0.08467349851939517,0.06908417011100396,0.7906282968544632,4.233014219154855,9.166497137556314,3.108718974779051,,0.6309483474627791,2.605192815662502,3.11539677731008,inf,0.9187484360155608
132,2.30282042952897,2.903842710887575,-5.206663140416545,1.4706360495266022,1.4494593376903278,0.7471558337452432,3.7153826944334227,2.7864281824849404,2.8620435685223518,,0.6447042257417027,2.302473988055317,2.8667663362175775,inf,0.9164348027533912
133,2.451401698992009,-2.413271641644914,-0.038130057347094896,0.2619748448837403,0.24993166533837885,0.6197210564924015,4.107821903296189,11.350989868991977,8.25691263008629,,0.5915533975974677,2.450827336135138,8.263590432617319,inf,0.9541548551881622
134,2.3436608118251554,-2.3436608118251554,0.0,0.31347238570933617,0.29748944539073596,0.82485215122739,4.186311643251224,86.50654189145045,,,0.6380535849069913,2.343522834953518,inf,,0.9105666086841228
135,1.9977548181813995,2.148728723191131,-3.578236898120526,0.37423311764638073,0.3478453108469634,0.7542623411595577,3.618996438210615,5.349769843896684,2.2389852338144265,4.450743100188072,0.6447042257417027,1.9964084379061002,2.1366769526324307,3.445838162284776,0.9557498032047442
136,2.0888316330050034,-0.030396188048732675,-1.527229871797622,0.5860554106432109,0.5798775509214076,0.5549456321045414,3.549800384670531,4.324264419147063,3.242844855239725,2.4897140828689164,0.6309483474627791,2.0781090964460573,2.898124770932866,2.211823376757372,0.951004750793095
137,2.054022487093834,2.3021970289988505,-2.3472646597037095,0.7160085090239896,0.6934112576871293,0.7807850506596516,2.9775271998157664,3.307555869868678,2.519699280144268,2.834109517177587,0.6547956803312163,2.05139412912468,2.268597114629749,2.267292139952936,0.9338347386046817
138,1.9254030104855728,1.767986938128402,0.9409016516184154,0.35248946034816026,0.34488145058594855,0.6923914546328699,3.158990876008806,3.115487558494271,2.252897489209084,1.7996580948786438,0.6403206450210053,1.8693607152516065,1.9393037771893862,1.7352692812733121,0.9560029715761532
139,2.071950163424265,2.924145253941956,-4.647547202672567,0.2933224123996716,0.28924126402181405,0.41886053022982833,2.5160706340411028,3.2535237925442115,3.0138329610662606,3.562832522710806,0.6619902821573977,2.044932766993961,2.8072752905077767,3.058849330344185,0.9449617114767659
140,2.092541278775161,2.9319329587632996,-4.974614432841758,0.08467349851939515,0.07753982720670233,0.4467212447616106,2.051047209595444,2.44995851870353,3.5857559589067387,5.710327527635657,0.585052858160615,2.0981034864684123,3.3031083032422575,4.907740870933623,0.93481192804201
141,2.499853229746069,-2.416513099550426,-0.06422236681810829,0.08005251731566218,0.0680048609173095,0.8297850011067659,1.9404153906722499,2.887504352266748,6.599972383667186,2.295884919223482,0.6380535849069913,2.498329670120141,6.201185078090051,2.70805020110221,0.8794940587160283
142,2.7417817659139776,-2.7417817659139776,0.0,1.249312637004055,1.2198114199553676,0.9198474620152214,2.0299248455567507,2.7359511817118225,,,0.62595550513784,2.7390250054016407,inf,,0.8955489755766883
143,2.7865321859183503,-2.7865321859183503,0.0,0.913682238841558,0.8845796365872076,0.9352205601871224,2.280061596963777,2.841417674610997,,,0.6284777104787076,2.785111247238672,inf,,0.9007727067880271
144,2.5115818146314495,3.1367194781946623,-5.648301292826112,0.06698765724152846,0.04947980249579646,0.5744664613753583,2.342041606495364,2.3557218127686346,3.169066087255861,,0.6038851895711802,2.5049733119383144,3.1595884495646054,inf,0.9423431164679557
145,2.813528687519623,-2.7944636588460754,-0.019065028673547448,0.04466961139416602,0.034132830371779464,0.737627636440047,2.894951894652383,6.054337628059091,,,0.6566669596287297,2.810082926667362,8.59748202264504,inf,0.905848807304377
146,1.7374207598965796,1.7275094133312678,0.3553517347205428,0.15181554680464496,0.15006152053920507,0.4067639396150091,2.4616643751518374,2.361079668932008,1.7810220789464708,0.6856993432031508,0.6038851895711802,1.7285343101730135,1.769541146465629,0.4553484145270811,0.9567443776568327
147,2.543144932150859,-2.543144932150859,0.0,1.3357400002337179,1.3110768325856867,0.9380178720297995,1.913604022839547,3.2466940948031175,,,0.6403206450210053,2.540278425322987,inf,,0.9135370370317757
148,2.289389870774395,-2.245888244828074,-0.04350162594632094,0.08467349851939517,0.08464179667776024,0.44387824983886204,2.2825170583372576,2.6538334482913433,6.820517968592691,,0.6619902821573977,2.2777840851946363,6.564831506656229,inf,0.960675452115416
149,1.518310958714971,2.104455119387187,-3.519675687145402,0.16280166969132606,0.16386868281134523,0.32937067459947156,1.7788794859843722,2.006053650781473,2.567165862453026,5.376483413420714,0.680118107274185,1.5046275480817553,2.1424703720172262,4.669424575855105,0.971622315596108
150,2.1599384064763534,2.8775299080224266,-4.9346797029228515,0.08467349851939515,0.08402074952229642,0.42270390077935754,1.7278048274458861,2.6193847273584447,3.4956993933000398,,0.6068309995095971,2.15579476757308,2.922049276216626,4.720282993088596,0.9677634764232845
151,2.470170814136633,0.801034158974467,-3.2547371676835226,0.08467349851939515,0.06726089105359094,0.6815774441239787,1.6044807859283186,1.8328326471919758,3.8696850224982327,,0.6309483474627791,2.474956318934832,3.767822656454056,inf,0.9160593820408682
152,1.9562756494459226,1.9030105427735688,1.742218477398238,0.06236667603779548,0.06247630486235868,0.38448629629739467,1.8845378707392195,1.955319117586704,2.1215073386282346,1.6487611991395703,0.6309483474627791,1.9437458262259366,1.957776944568343,1.825869569501055,0.9544601643298155
153,2.287009068639935,2.86817203678001,-5.147557741857812,0.06236667603779547,0.05245230037300786,0.6645122019814022,2.038171084540397,2.4327198538506387,4.476818292307712,,0.6008849035917525,2.289339866244025,3.5198031240700023,inf,0.9525527031801605
154,2.4216358552160235,1.2561157454955274,-3.658633837334016,1.3321263339092415,1.3187548976504837,0.868253849418293,2.2547860617835602,2.811787084560342,5.648814382997391,,0.6284777104787076,2.419868253608778,3.6744907166618366,5.313205979041787,0.904177010817833
155,1.526298768348444,1.3639099440903328,0.26844881733659154,0.2602724759225059,0.25086083958077343,0.5237541936285866,2.405793617718233,2.8607385886981955,1.8621688742662565,1.07600162484727,0.6403206450210053,1.4740817967408937,1.5167734997335933,0.47115422458442574,0.9595502170276895
156,1.3253240383637257,0.7845445994723241,-0.20734582920577593,0.5173010016847941,0.5081943074028826,0.6257134987223779,2.5513995631156967,1.8789610147393185,0.7485505395365191,0.4182889414448736,0.6180765742263259,1.2881598905538039,0.6445488923624741,0.29652259055502783,0.9519617566021799
157,1.1372784786909624,0.7684037617663604,-0.5266045392590661,0.6714192834992404,0.65326753206601,0.600938638824891,2.3392167638002164,1.7628692397083339,0.4550557423349851,0.1974657193579139,0.6566669596287297,0.974685203436445,0.38317288383885106,0.13934300556154589,0.9383495872464326
158,2.0329563350887923,1.6225806609855904,-0.4031365242365079,0.545260486910819,0.5199008592306155,0.652702293814035,3.269455691076149,2.8895321247101546,1.8522209695346543,1.1308780834309293,0.6125606311107803,2.00751372211041,1.6965921793348175,0.9570469192938003,0.9459310889443464
159,2.2006597877236036,1.8584780736974063,-1.3052374485270546,0.9539383056068138,0.9487803826871495,0.6267156916141499,3.567107135742583,3.534814729327782,2.1595122556895343,1.8812108720300074,0.6425374456860184,2.1605069944010564,1.9705015521926355,1.5963837937016427,0.9315404665295829
160,2.176248778949451,1.6709851271848244,-2.487233033263135,1.014717181829135,0.9958483408143763,0.7010154433277092,2.8095635349762067,2.5270917911841124,2.2436188204313834,2.938560835857291,0.6403206450210053,2.0531242333624626,2.005209891336605,2.3452845186678752,0.9466244825709159
161,2.241337997387149,1.3937684949441351,-1.9576459358482352,1.168864066505972,1.1459450924256234,0.7535105844415131,3.0209363270748413,2.65833346547631,2.4290961586793265,2.1391784235270297,0.6180765742263259,2.1163821894921186,2.2044448253097064,1.754019141245208,0.9421831684062542
162,2.1721441441327403,0.9134331717952229,-1.7387559399877333,1.0853835606161621,1.0738243296083945,0.6419321961004575,2.5451299605526985,2.2700364512794016,1.682627209533308,1.291412877497384,0.648888643467878,1.9872067932409376,1.4568980894324943,1.0667657350162583,0.9439803387083772
163,1.7478157731931359,1.6523912949016557,-0.16537888083793773,0.6855884109768048,0.6683780356555868,0.73102018578356,2.939849677782252,2.2713464039868567,1.8424952379946458,1.7275285114773244,0.6357360191111145,1.662955901843762,1.5996396303807652,1.3238619448314102,0.9473152930736273
164,1.9295753672577538,1.832808663234431,-1.438312645242855,0.9088977968778781,0.8933970979154732,0.74588915046868,2.812790004376768,2.420162671768511,1.920793415491111,1.826742457528045,0.6528756675646988,1.8628259176619153,1.728725192491459,1.4898643660039288,0.9407414178677709
165,1.8578008267829769,1.407228316822554,0.046923338780394896,0.7778700131206416,0.7325770317106177,0.7566080426013426,3.0365936743246054,2.841839370977741,1.6758077798753146,1.8350137735410188,0.6425374456860184,1.8057231762454413,1.4857233414575948,1.5340932927165396,0.9388850162874552
166,2.0359601350049985,1.7021809594407848,-0.5065617798112845,1.1664669891137611,1.1592090294541706,0.7325424845526789,3.3061468777763463,3.0597159871997532,2.120468073292004,2.2408004777826624,0.6713451011121618,2.0024805005437076,1.8837664685694546,1.9567975728765465,0.9463939914088324
167,2.0735898575137752,1.8154552732952003,-1.9068955801118013,1.150975314769844,1.1318167911426058,0.7514964854731232,3.1854168923772552,2.9123896084714693,2.10798675526858,2.486574725687953,0.648888643467878,2.020501998942746,1.8733537025299507,1.9882563087079212,0.9403094210930681
168,2.044350371040882,1.7517445311012954,-1.9437948332428236,0.9949605209032557,0.9819325769917752,0.611310640543357,2.7446418900953073,2.391047265305494,2.1671513135693146,2.052015237392155,0.6425374456860184,1.9020208634855924,1.924844333602247,1.6352791436179877,0.9437944240250496
169,1.81262357516801,1.684208579585563,-1.8832566579629124,1.2099090760357087,1.2015036952827325,0.72449400376698,2.455592152738107,2.414278510994891,1.9590975865307463,2.8815649897084707,0.6652988471865258,1.6707224741852211,1.7341483128432431,2.206636411518566,0.9439425409473445
170,1.9872837943924624,1.4012378212965155,-1.965773697592958,1.0320569002802464,1.0331406891146204,0.6759017583144878,2.549584518525019,2.4171257178769556,2.1515903802895635,3.2208875916996584,0.5978297680564633,1.8628259176619153,1.9012561245732862,2.2775068920553494,0.9424047874940301
171,2.246211344957975,1.5014468466052309,-2.413047178884313,1.4747683302746772,1.470988541120347,0.677235189118167,3.0484343801010954,2.9874369232748177,2.47048465252354,3.156605799942826,0.6380535849069913,2.1561786079002183,2.1934884040003273,2.5580882670815916,0.9499928428980142
172,2.4772528566720213,0.025591095393444174,-1.1987012007233042,1.6632597748046694,1.6600550388787836,0.7928698610980682,3.1884408518707015,2.9826932225055924,2.526452800072894,2.214585714725773,0.6038851895711802,2.3626890170637513,2.297289405419335,1.7708527844087412,0.9486749582924344
173,2.339409404359085,0.6461858417028186,-2.011090383636308,1.6711529464622294,1.6534115125931106,0.7697119927504643,3.172844260071575,2.7895466392107013,2.0679188144576495,1.7980316254062911,0.648888643467878,2.148339179606409,1.8202541773101315,1.336412997782293,0.9223381810388858
174,1.822700770511656,1.2335917549988582,-0.019876497099569956,1.1540125883124952,1.1528288391592654,0.6898509051590573,3.2744631973795726,3.0198754724663783,1.7148535552513837,2.0305240434133798,0.6547956803312163,1.7060099992193443,1.5073256452732413,1.5781641196869993,0.9455786412330713
175,1.921301133234303,1.3776006639387355,-0.22665737149919174,0.8312242242840707,0.8182465543447047,0.7086907328024036,3.1246811981572837,3.3263725764512015,2.045426282378283,2.5094342053178895,0.6309483474627791,1.7959013683953902,1.7678149427645402,2.0631051223601427,0.942177864343289
176,1.9288448902788378,1.6413819165781487,-2.117414993227582,1.151769105375181,1.1324537910716337,0.8024473286628335,3.654415211284895,4.15185669146499,2.130821243944854,3.184328815440515,0.62595550513784,1.8743442942344735,1.8721642727160992,2.733802697204625,0.9445767061248044
177,1.752961633200326,1.3584756547508996,-0.2569665465272073,1.29393001317225,1.2755017989610165,0.7086276624826716,3.173662477757141,3.075171352640894,1.662065557567051,1.797588107166154,0.6153451465759925,1.6392673068379575,1.4026252586994494,1.3717394085518058,0.9352465755685636
178,2.098992835453333,1.1392409465069235,-0.3310850972434376,1.1135559983632546,1.086989680571079,0.7373011235881741,2.7008478168055765,3.049520038037378,2.0338273170994308,3.0598415021967766,0.6008849035917525,1.9567127318609177,1.7855674989801338,2.407789346443569,0.9494092180475923
179,1.6701397479081828,1.2900362622924737,0.058914044369652085,0.9949155317875731,0.9637108848586167,0.6441495291248271,2.991556697029618,3.3450656036992332,1.4284392119150402,1.9867159972947968,0.663668482632973,1.5837701656855225,1.2938828198028676,1.453258148380061,0.9381631996759006
180,1.896972280322445,1.6504961876543638,-0.07507931738235873,0.8391563412240682,0.836863402749507,0.6828120780829938,3.141996278584052,3.3261841932543392,2.0133737011577706,2.5517274214445855,0.6699045166045591,1.8732587928071918,1.7535852703872918,1.8171415424994721,0.9514462749283492
181,1.5903092619178862,1.1330301875222226,-0.33057476512856754,0.6796562706497078,0.6409165198211958,0.6655899209409791,2.3557170196259403,2.423016966650857,1.5525727972490788,2.184870678258427,0.6068309995095971,1.4976481090113702,1.3191015090141807,1.8327208268591204,0.943942842970523
182,1.7603067682799505,1.4645008341146346,0.023150927918578645,0.49813944728562887,0.492559506984024,0.6274068454284218,2.449919886627966,3.507673975865536,2.1378152123366094,3.3342650211397373,0.6038851895711802,1.6880002349372025,1.6794400499268194,2.073977925324688,0.9486699926483074
183,1.2914761654971036,0.9797548746404401,0.4930516779297478,0.6149614421597035,0.5968972756999809,0.6454655697762547,2.286888402032999,1.765243128048819,1.1668255921024404,1.1672959739179951,0.648888643467878,1.2364194761554208,0.981211910958461,0.9697996050466606,0.9406141839064491
184,1.1425022581814517,0.9301845240575024,0.5915371499728588,0.564514422549,0.5529585871037686,0.4889801145144764,2.2276016590366114,2.1213959948103436,0.9712731110389791,1.0467812351529031,0.6468212168108125,1.1002469573445701,0.7758365937962028,0.752693469066929,0.9463793102749649
185,0.8331036969850012,0.35377437403162837,0.3211693266786291,0.3629345687299664,0.3569236228847515,0.4854779378395975,1.6812064952149612,1.4497660223845439,0.5571368294882701,0.7032492917745582,0.6333676938231112,0.7354053911300826,0.4137636211551793,0.3942731080132889,0.9449082423660838
186,1.081267957221404,0.6719186473902798,0.4636469201904281,0.2718374830618747,0.26339898808692636,0.42690903395059093,1.6619152873366692,1.284640804975009,0.8999826196104665,0.8533367123940695,0.6528756675646988,1.0074926953006258,0.7064419084641239,0.5928816502015641,0.9455365011762604
187,2.2070315048462508,1.3927920926563266,0.3834252371020157,0.49517197430885435,0.4873581239396879,0.7330948561248533,2.1417772672995636,1.9292210396420768,1.8939079412452398,2.0759912895217703,0.648888643467878,2.1667923702160174,1.6398701195543024,1.9554555618988447,0.931979756582542
188,1.6748138404120931,1.6086833541891639,0.1972201580796864,0.2299005062057301,0.22148244090525576,0.6243141793708047,2.335002087031028,1.7238470822450402,1.8143316628148924,2.460692893524728,0.6509067234006624,1.638523493329197,1.5920875877574248,1.82258382742843,0.944869189778505
189,1.6127556685591327,1.228715234943955,0.009627307512962702,0.3681733900675466,0.33700143992703774,0.5010162584949486,2.176361276717362,1.6416877276821276,1.417352924535935,1.3903492920959164,0.6425374456860184,1.5337637071466343,1.1809754821063723,0.9705910153497881,0.9481728407613077
190,1.5518177116492704,1.2478122892444445,0.5209264749969718,0.5138434563254526,0.5077354251889199,0.5908841677463919,2.582614852522332,1.9676851089776006,1.3756965222087878,1.5666216351806939,0.6652988471865258,1.4858446285152145,1.1426245099166568,0.9679324258552525,0.9429914312645648
191,1.559884095133466,1.0048011024784629,0.042644892825644654,0.7507248987198856,0.7084321514049488,0.6320127901686923,1.9091593496153652,1.6268426324696146,1.3251614647944907,1.2808740779140708,0.6207552362147116,1.4097677173055327,1.1663774129167388,1.100366675083003,0.9501529651348989
192,1.7211944086232165,1.2629480432732763,0.7306813715678815,0.4720868534239917,0.4587518502385958,0.5792430144312661,1.783367509083322,1.8165770726419244,1.6218451196585872,1.8235973148699158,0.6008849035917525,1.6834433257445962,1.4134607176605816,1.4489495654264943,0.9477729513507192
193,1.371168637633561,0.8943361912776955,-0.3503166954014292,0.8345946771430108,0.8129115824553288,0.6516888202225091,2.008549212719528,1.630184240447297,0.9205028295037802,0.9104324132056795,0.6468212168108125,1.2599946094484087,0.745205635632471,0.546843855694612,0.952645726285927
194,1.3660270356057072,0.9530275054299384,-0.6430344014760256,0.5903618360640117,0.5809655047151217,0.49904561959930416,2.2654192018809214,1.6708384284544877,0.769374179996345,0.6482653934860747,0.6153451465759925,1.139156543983691,0.6322775587831182,0.40726316995552647,0.92977755593007
195,1.1627750889398079,0.804422577254752,0.011119335962916477,0.5865443318575454,0.5713799692870973,0.6105392390161303,2.4703877958933123,2.245304747025052,0.6994919677833137,0.5173531560929779,0.5783247308855777,1.0710295475823821,0.561904471318896,0.3567887031106883,0.9163379117949915
196,1.406906874396902,0.7758476884099077,-0.48898734847551184,0.8359109531606579,0.8252901034571942,0.6661549373236849,2.2303034435280793,1.5539955584705316,0.7288671088416708,0.5705522436052174,0.6566669596287297,1.1323759188209188,0.5640127663786785,0.35959678044389753,0.9401257438823014
197,1.0382475269414417,0.633372481489956,-0.02312405314853594,0.5255908848276468,0.5209806900846524,0.6183324212638325,2.044757340500795,1.6446526729003175,0.44934646161176484,0.38267159549145696,0.6584896970785714,0.928982037992465,0.40547917448740817,0.31227481803397955,0.9361772693378326
198,1.8300659883808537,1.2192797428914626,-0.15827155703345852,0.316300716912178,0.3039690950183278,0.3625280609390174,1.5728414445694099,1.278305076843609,1.7973282797641583,2.175239428875117,0.6602640781246099,1.741446655354466,1.5372381518322975,1.6427193531815496,0.9478993690168882
199,0.6848493886989647,0.2934731469951747,0.01971586830802574,0.34757161183154694,0.3380931161476641,0.27438136198760965,1.9190384826003566,1.4363160265435175,0.3510980173627549,0.3692383718845972,0.62595550513784,0.5300084431827646,0.2765563155239241,0.18991220965928934,0.954088971497541
200,1.350147007427117,0.8756830893143621,0.15780206200601654,0.5636944896508324,0.5496723922850152,0.6970040271236193,2.7660381831354512,2.0529972044493254,0.8339886032005379,0.6775994095109278,0.6357360191111145,1.2690052745967906,0.6859792557342308,0.4813859557969137,0.9488646265883872
201,1.7217859801378117,1.4028179485630992,-0.9916669515908763,1.2560438617553198,1.1970394696567142,0.8666143365591211,3.61927511923199,2.5995881669617713,1.1237765948944667,0.8864731646849073,0.6584896970785714,1.6311724045801064,0.9490710920344473,0.6754115797569435,0.9224505003293543
202,1.9108839644379547,1.7003936981937084,-1.1511768644056724,1.2578069744600346,1.2659674480207581,0.6397336917225807,3.409593855751461,2.9143346521460107,1.6498235777515216,1.2148968373983526,0.6333676938231112,1.7984484573788515,1.4560545451325002,1.07303544687846,0.9452499662994733
203,1.9790558691056375,0.9328710858106186,-0.5731844726883804,1.0232154485827019,1.0228765706175187,0.628292025638135,3.3975990887013707,2.898686104883229,1.489495996502289,1.1625078076925375,0.6425374456860184,1.7961691777167552,1.2970534282258568,0.8596223940057892,0.9507822477534973
204,1.6731430050519358,0.32000545363040356,-0.45225809450150534,0.7193393687793496,0.7080947994745332,0.6762364926057092,2.628280394921338,1.6390998149325315,0.859394507861235,0.6172259692380306,0.6403206450210053,1.3677125222557576,0.6946315728866436,0.4083966991726997,0.9535619821226349
205,1.9189522145048483,-0.6053197440671323,-0.37797249250139775,0.9088072632104633,0.8814959410940733,0.6755491848702847,1.2322903391594422,0.4382301490807945,0.3635341839403874,0.1766800415398142,0.6584896970785714,1.1041609875985263,0.3089794141856456,0.17584150208254604,0.9502853770774737
206,1.9631411165397632,0.04163457460938225,-1.1800914833086966,1.0594994380282303,1.0420867790262964,0.7576679321425897,1.8547369179169806,0.6135822483191582,0.5956146410218249,0.22054847362048238,0.680118107274185,1.3956715229324876,0.5159230860780817,0.22331266226078847,0.9461691856055917
207,2.2362199364143116,1.94230890575811,-2.6366263630835514,1.280903624279591,1.2534098765568495,0.8081668893029569,3.617627681842656,3.3076107743867085,2.240625513057077,2.2334494482826894,0.6333676938231112,2.183913563276547,2.0337292152900472,1.8966173460213154,0.9471519070789701
208,3.4677376104777173,-1.863698423752054,-1.2497638368111528,1.5192880689761432,1.4926970568768432,0.6347096778309022,2.3262463196673084,2.1101296170695587,1.9099419399584006,1.3808820175337555,0.5677978065141052,2.8355048564553247,1.6957954809663114,1.0183314574073068,0.9238443955361905
209,3.5269696254401817,-1.0229226052743483,-2.0451018429005994,1.4892965831456821,1.4577242428243506,0.6749590496619113,2.2616645868665834,2.127389934613268,1.4969763854700426,1.2652867623633013,0.6309483474627791,2.723840887008534,1.277620681066853,0.9306706645329251,0.9474041994906971
210,2.6758405601867965,-0.7863249478894401,-1.2650257847096387,1.3958991796336828,1.3765174428832285,0.7778551844022557,3.255214305813597,2.833966103233522,2.1579875199786094,1.4593176611813652,0.6468212168108125,2.2920848583601794,1.924804056620015,1.2853141862776372,0.8863049836325009
211,2.8804181660770776,0.19478491997554492,-2.8879136228053155,1.0881697139099282,1.087697000906926,0.6735783584287088,2.7171598422893553,2.063241601751601,1.3812170513897284,0.7680516367665638,0.6547956803312163,2.4043717555658297,1.207135219430449,0.548977389730367,0.9112341342181539
212,2.6006559507181337,-0.8365131822430845,-1.2468180199652308,1.051122271388533,1.0450043845509807,0.6577119858205498,2.427612367958587,1.3982674870577085,0.8812235316104358,0.49301144948190867,0.6447042257417027,1.9425048425872655,0.8295506884908569,0.45043794070199705,0.9345800591743145
213,2.1557122935328423,0.6833243830906413,-1.5997701498169539,1.3658692539242434,1.3348928366016677,0.7658789333151919,2.832344876721968,2.0296027591877897,1.2017603593977775,0.8353972415268814,0.6125606311107803,1.7646632435663538,1.0792066806783909,0.7093138144152922,0.9393137883607888
214,2.257977238368779,0.7864509721124695,-1.0239652755857875,1.2886476225804055,1.2666068609295087,0.7972694420860073,3.5545431952782858,3.5160400242496115,2.3015608779947447,2.3490836136776796,0.6740851607140061,2.1688315028350016,2.0943262661562616,1.8662925210906218,0.9454961645011893
215,2.2355842454194796,1.1539077223374967,-1.5351990375719216,1.3827395443965453,1.3846162742399146,0.7083647644836899,3.1848424534435082,3.323355869490625,2.16403909041172,2.1778358907473363,0.663668482632973,2.1035521014735843,1.9125976131634597,1.7892964137956575,0.9441628527131555
216,1.9890099712561868,1.097248800613491,-1.5443744798333,0.9831820588044196,0.959768783906408,0.7929166259660125,2.613015262361137,1.2215705616186097,1.147573020969242,0.4927880795489652,0.6380535849069913,1.7659617764069144,0.9925049106093117,0.43112005914544366,0.9536649527735257
217,2.0092828186641807,0.5811110724522539,-1.1344704115650341,1.280416970486841,1.285389486594316,0.5559263957407716,1.9973038151512352,0.9491717084471061,0.7491337072344678,0.40609391649308946,0.6125606311107803,1.4417131125797242,0.6421827794494921,0.40114409998179656,0.9361377285176097
218,2.3388616776767894,0.4647936329906659,-1.7192117149540154,1.3772870741437397,1.3664788207748875,0.7767731850192671,3.037771331716082,2.2292599072235455,1.5044614142607826,0.9912322402413376,0.6207552362147116,2.0201668502173638,1.3727317286300964,0.8909935852603346,0.9373051081953541
219,1.863312554118386,0.4439612065695151,-0.9415707912194378,1.151843038675494,1.1536294872998225,0.5922471770128186,1.992244004353896,1.0480782365894432,0.6140900697730735,0.423350611842641,0.6447042257417027,1.2053070273390727,0.5313962361409039,0.3646658282127215,0.9531746903033632
220,1.4619585188961017,0.44446646152344105,0.032693989685750546,0.7317057530641304,0.716971319982315,0.5868993656991587,1.7334607344528048,1.187163938154573,0.9066290363622389,0.7940519568797033,0.6547956803312163,1.2250829527220586,0.7418238695519506,0.553143529649572,0.9469193025941471
221,1.0763101866535263,0.2883208437893159,-0.1747344864601954,0.3272526373273481,0.3013884226390937,0.4802351579348838,1.1708997941902748,0.49029487532405835,0.448550183526787,0.42450566472193474,0.6125606311107803,0.8812185693345068,0.33625233321691933,0.18256184393824687,0.9418026834019579
222,1.6854955488854955,0.9444595846638368,-0.7499298446395999,0.8578971204073876,0.8596480284986298,0.5456397366364059,1.8913383136214343,1.3083394152523977,1.0673292081568466,0.7640970110632809,0.6333676938231112,1.5268343838988903,0.9237352534846602,0.5744770238392157,0.948587792462987
223,1.6860856660468893,0.7271954589512426,-0.35512271830065734,1.179512076055162,1.1591434634829332,0.5864111522442458,1.2213212547700543,0.7897431758598468,0.9646998402149396,0.8228572827512053,0.62595550513784,1.2521909099298525,0.767640903849165,0.5387931405032657,0.9478818280423407
224,1.5868878868363907,1.0759230341096127,-0.33572954579770053,0.8872591890247233,0.844720752333542,0.7397641704799831,2.7766093420035634,2.652139537074238,1.0578222033461702,0.9205930267416745,0.6403206450210053,1.4841277214686537,0.885072120607376,0.6065119629871503,0.9504850593478182
225,1.9967526909528304,0.05580640941723103,-1.3313916524519445,0.9720340739740454,0.9452710175624148,0.6085157727910343,1.2344479190545663,0.655650737779832,0.5546468954536882,0.3406252917499819,0.6425374456860184,1.1899968504699623,0.4203303461490222,0.2297125667843024,0.9392593264725534
226,1.8508936214402987,0.8361793124623305,-0.7028324751144637,1.0165225974384018,1.019818697324137,0.7506828421159119,2.5936647578420424,1.9410736502954502,1.2605094836409534,1.0066145343856505,0.6566669596287297,1.6602634799656029,1.1191037198876506,0.789460189859867,0.9340093284389341
227,1.7237504130420866,0.45215365671166285,-1.3929106091879473,0.8971308194506206,0.9030495383314313,0.5568599120339351,1.07922451564713,0.5136754308477247,0.45329825385547956,0.25953412657961206,0.6447042257417027,1.012893413265572,0.3450078733531005,0.22879713884593827,0.9429153357278096
228,1.6727660236990198,-0.2813857199381864,-0.3507242099322456,0.594091361629429,0.5799680525144681,0.3023587291896135,0.749795485046224,0.48518245377288594,0.37920376566118164,0.21934759428169984,0.6233814453054027,0.7841909190267071,0.2921381614009452,0.19315061498929617,0.9651473437006811
229,1.6209551539806915,0.9401081397765949,-0.8924468542994888,0.9442072210337562,0.9251038301655817,0.6561761910485948,2.6130814461910497,1.4126538194291935,0.7656628549772022,0.5172190920159809,0.6447042257417027,1.4280890507769362,0.6532209019629271,0.3624547537169617,0.9474138190260532
230,2.1598392499345533,0.14023567337634102,-1.230262061097003,1.0816023977270772,1.0684865469807463,0.6706783973325694,1.9779254707409528,1.2704009651909898,1.0735629412668461,0.6932345504377997,0.6207552362147116,1.6176941235632416,0.9042915344661794,0.5808370216422103,0.9438152105011315
231,1.925454589779497,0.6656929307757489,-1.1174845069433987,0.9963320992025815,0.9876429316531657,0.5899011663409642,2.1861654347090176,1.2423766024245073,0.9984997591666359,0.6881253288616562,0.6566669596287297,1.5266809429861272,0.860736085524616,0.511390208206523,0.945778372962708
232,1.6748955362733546,0.5440866387924064,-1.0816586034249212,1.0201095832119924,0.9921970865261196,0.5593293994817762,1.7696869975244085,0.9556331910434059,0.5532104589827342,0.373608667921769,0.6740851607140061,1.15176696347263,0.4760046556499751,0.31163748536812697,0.9562839900253529
233,1.6108746175571758,0.43619040953728594,-0.8902872328679186,0.8794861526626665,0.8810195047151278,0.5935745012799295,1.475194812059125,0.6552455090959071,0.44727154688230547,0.2766860958185077,0.6309483474627791,1.0748306600033113,0.3708834934760479,0.2559608876433861,0.9545853679584333
234,1.7502007119155925,0.2231034290467102,-0.4135032411328088,1.0554440709447985,1.0304374391044582,0.6552656283890886,2.0122547595918743,0.9231060647446538,0.7547607671441513,0.4387683859337638,0.663668482632973,1.355312623511162,0.6318941697297754,0.38711302191765506,0.9394828987552367
235,2.3580915017452306,-0.754224705479883,-1.2042981584393195,0.9900268017227245,0.9786727055259711,0.5062478279910337,1.2302123423292446,0.6366095715295363,0.37590233759495495,0.24752821662834573,0.6684167106117298,1.2096183400454692,0.3161424515619635,0.20289869067739763,0.949395314449184
236,1.6099102854641267,0.5694980313893991,-0.6502535178151165,0.8094119186621176,0.7986976618130455,0.6021723031141252,1.8379604249278105,0.9081707073528182,0.6427678535495783,0.4191879911475875,0.6528756675646988,1.199095827246432,0.5244444030044791,0.3244887807234551,0.9477971741395117
237,1.6639821022187413,0.3107653909975434,-0.973454556404233,0.9340060353117992,0.9280952261531819,0.6834141113752051,2.0350974844968825,1.067097903521705,0.48868822878136875,0.37296784415281303,0.6403206450210053,1.181993897607161,0.38865074344122635,0.2843386583467033,0.9492017798531288
238,1.593998806818339,0.1508565201120704,-0.09305008716934626,0.5848834723871832,0.5781933229179752,0.4454480178994561,1.3825774670294395,1.1200639961182206,0.837506868772948,0.8586951374102724,0.6357360191111145,1.0520468195207888,0.6478629960773872,0.5711766103364987,0.9403408856309461
239,1.6164924848353728,1.3702728608271073,-0.4159934577349098,0.9281599962493158,0.9397023815310129,0.6494037953863715,1.2069189295360538,0.8590280482653141,1.3463844424908653,1.0633310376106104,0.6425374456860184,1.4449126636083025,1.1286066445363014,0.7977956990356819,0.9489955733449779
240,1.4011157415789504,0.7288523518711212,0.06434885195982964,0.6649423468505367,0.652197271468911,0.457897121789532,1.1644307779157546,0.7319767396961805,0.7246490454217518,0.6156117908628381,0.6403206450210053,1.130068556626335,0.5609410095015767,0.4599041083450572,0.951708863965714
241,1.6834619263095854,0.23909024912420418,-0.35600009739575755,0.9485974371696774,0.9222922536010992,0.620776866713812,1.2102485315671454,0.7126864276154672,0.676767759120667,0.4611468821162316,0.6309483474627791,1.113996690711857,0.5597427339116172,0.3466787766069006,0.93265773510616
242,2.152921718071389,-0.6399952141848857,-0.2588272287995701,0.896736385447225,0.8865552261546469,0.6452382224392121,0.7603502347150215,0.6028618436573275,0.9473398308656573,0.8957198290730937,0.6333676938231112,1.3073188894067769,0.7423481235718279,0.606898245435097,0.9414324834374288
243,1.0722525583583,0.2506232509387565,-0.12009292600469301,0.6622248542899503,0.6204528200354881,0.4591178610673131,1.537869140091072,0.7796024100802112,0.3850258389403922,0.24432548095999232,0.6509067234006624,0.7689968395101099,0.30919209951712145,0.16429372006058024,0.9440511292906814
244,1.5629447509235428,0.7472324692754486,-0.9488673781626191,1.0151167845094453,0.9863732415383496,0.7143741003311346,2.0918175458471504,0.8493294194517356,0.6272578283303863,0.30996335844814416,0.6207552362147116,1.3081817199552015,0.5243997437931085,0.2482833124717139,0.9440751380039943
245,1.5881938151029842,-0.400152502556435,-0.5196834710876617,1.055250393655491,1.0083979127280267,0.6390268116482369,1.222270872582108,0.4168177782352529,0.3203532000368616,0.16123242210388375,0.6528756675646988,0.9313197708939155,0.27554610321444833,0.14896394620770717,0.9395961793587015
246,1.49923248559352,0.9741564300661796,-0.11936955739393351,0.5640025227321126,0.5248341371083788,0.6905851973227826,2.920034145105069,1.5997230453376492,0.9687840803285362,0.5525486192375029,0.5883313578629602,1.4235117489367068,0.8792955909745777,0.48591076425838037,0.9324524803866806
247,1.5153482854207663,1.1153495243333833,-0.1387100703722992,0.6495331430563368,0.6503726120178469,0.6533792612267316,2.478388215071325,1.676962047839626,1.0295806085334982,0.8076376011157622,0.6602640781246099,1.3205482360961573,0.8925008915870336,0.6356050368611054,0.9471578419269266
248,1.4575061494754449,0.8184047929658633,-0.8501383909771276,0.5444200139486567,0.5192063752064899,0.5787426974337111,1.9216089018396132,1.4236354965894356,0.7974151306879421,0.7789467157467608,0.6153451465759925,1.169428249544524,0.6632226610596075,0.5216954225043001,0.9484704654666933
249,1.3690474678176834,0.5489050560815989,-0.27043470797474667,0.7295426621150451,0.7308348114880429,0.5906523427994822,1.8004739431496957,1.0828066393815783,0.539255220543265,0.4355730786127674,0.6357360191111145,1.1115286806013367,0.46597999426082043,0.3049051626340288,0.9557506950324558
250,1.7798899418141196,0.9951098028460585,-0.7322248052643223,0.8241839263545693,0.80095019924016,0.67667498894318,2.6906618010919123,2.4561316104936504,1.358493042829026,1.1288290587251877,0.6357360191111145,1.5544237712130125,1.1153677177721073,0.7691077598610471,0.9366371005284563
251,1.8809827043624068,1.596264521584139,-0.6717997448646229,1.0778568936041528,1.0748013065892703,0.7081485208803117,3.3678581091838673,2.7950945797220768,1.7268363339336559,1.5698845424763495,0.6403206450210053,1.832164883863094,1.5199249236920336,1.2149286124685876,0.9436700267674166
252,1.7830483718648944,1.7172502647987828,-1.2409571764069036,1.3354123964186675,1.3235201058779136,0.7935287652598405,3.2602401045949585,1.3953798638236332,1.5029936587984185,0.9331005655999447,0.6068309995095971,1.741383261902988,1.3150430803232591,0.6449756368865796,0.9157807286091518
253,0.11730525197395958,0.022292616781092914,0.004024159221676246,1.0123666391893194,0.9920057887888576,0.6465563627407446,0.5580008688792772,0.27446710950372444,0.10680170519688961,0.055604761894948104,0.6333676938231112,0.679463453474023,0.08393930020704764,0.05015591388895004,0.9527295132233018
254,1.2210462380099656,-0.3148953180193552,-0.11597023176816645,0.5476743501739578,0.5077670311275289,0.567201510290668,0.7972831812172356,0.29737210063550434,0.20782278087174047,0.09296542973716837,0.6468212168108125,0.8043767372464865,0.1863981058889043,0.062354330930307005,0.9588229435817092
255,0.46655603648784927,-0.0231719349996497,0.08385845034524642,0.27979550255740415,0.2153774761842711,0.2873803727921801,0.5850045055058021,0.28246282611189055,0.13271815025411146,0.09802497542740021,0.6333676938231112,0.3550096646196711,0.12137874849239243,0.08454212762105712,0.9569070872670355
256,0.3575109313395711,0.23314750503779497,0.1563451650395098,0.27979550255740415,0.2591296536403747,0.16028196877619535,0.2734879080245458,0.2530140232585887,0.31527130952421584,0.3385152785873682,0.6333676938231112,0.3295231045330069,0.2254285772755389,0.20381312042710334,0.9515393739054209
257,1.121024689636856,0.13714818643578508,-0.28611685700177203,0.545016228705453,0.5309472090595236,0.5668541785146393,1.2447012736789616,0.5264134657077797,0.3354836349570606,0.1951158444290634,0.6447042257417027,0.8132328652790044,0.2879159710411022,0.14110290254961383,0.9533728517931064
258,1.4248573287538258,0.6698268425579612,-0.16424702697513238,0.5823041684572484,0.5733118071062544,0.5740889557663384,2.0931995001247024,1.5340836954326114,0.827298738557728,0.7062430176158446,0.6309483474627791,1.1733717550493983,0.7009725391850753,0.5102947869617098,0.9482104214410415
259,1.8066410726626396,0.8909925341923695,-0.33655735751971827,0.9543742853877948,0.9324371526090443,0.7180009047762062,2.942857627324121,2.591922337584092,1.4010210031072974,1.3586356737189935,0.6528756675646988,1.6125538731123579,1.2047533139268016,1.0464548947717331,0.9582560447980787
260,2.2845741831264323,0.11284570262545834,-1.0023571907796522,1.01694799247734,1.0202596913630368,0.6112829192737014,2.410225245436247,1.8229577896629565,1.5760560647933772,1.2995782918431533,0.6509067234006624,1.8631122660066308,1.3416963016501346,0.8638682478167576,0.9414069762296974
261,2.3063966380537813,0.4717375033092943,-1.4724522798456998,1.0595832645204977,1.0355662714502312,0.7639195012729877,2.1490511863346304,1.6053801217981398,1.4368373724216987,0.9043092783240066,0.6699045166045591,1.9197443673690353,1.2519298560148715,0.7200016407133698,0.9416536343907423
262,1.7962751587431027,0.8724753052488476,-0.7883364843229601,0.9690529617460145,0.979246025551995,0.4288381820985812,1.7296603689152947,1.3507902588400436,1.0108974396970318,0.777687510261786,0.675384900321601,1.4283671375417983,0.8531089922420122,0.6627184348098608,0.9493431928549353
263,1.631341455300348,0.9126974813054756,-0.7965893079148778,0.737975265887471,0.7180155068600833,0.6768482651447576,1.8270086538080201,1.2136063335268783,0.7141918721163258,0.597496078520964,0.6403206450210053,1.2643127444458284,0.6037519809923012,0.4736077562639631,0.9402890945038451
264,1.6433604787226843,0.09991296305969355,-0.6321642368879561,0.8178836893029126,0.8049767040977113,0.519535130612809,1.4684136952083264,1.0015152114239823,0.5254603352123439,0.44265362895291366,0.6284777104787076,0.923958946514334,0.4052831792418491,0.2934499023563332,0.9458722595475633
265,1.5455585029867727,0.173403524171303,-0.8508334833986304,0.6797591490895795,0.6420692492188106,0.603532715285724,1.3647868586880616,0.6553583539934096,0.34051894408031946,0.22672481437066355,0.6619902821573977,0.9583577140329628,0.2932503660472749,0.18551184857115538,0.9534568412374749
266,1.0146009663894386,-0.29331156549444726,-0.12905667876540244,0.5163601813023971,0.5049182735321243,0.48785345579859213,0.7874047834186353,0.40146542947763086,0.2763365373424429,0.21518399534292895,0.6584896970785714,0.6752854333749562,0.20445909884173238,0.12198305927463866,0.9417447184498448
267,1.3929594270356616,0.49262272228806614,0.3652428770323679,0.47232732259712823,0.4610652376680995,0.43829142318805175,1.8237738058410786,1.3451798090135743,1.0341169175946037,1.015579207439939,0.6403206450210053,1.1655715151278698,0.8264291121970906,0.7484006039949092,0.9454362560257443
268,1.5742274576146857,1.2726124023726775,-0.5356671039888865,0.8884907159508246,0.8586275081741174,0.7449213875516506,3.1661596564517573,2.1837229242350475,1.2127090907429068,0.7424092307885165,0.6509067234006624,1.4811912929895732,1.0424561851148577,0.558126945321881,0.938655506616531
269,1.8051671065387833,0.5659620719110829,-1.2947201425835928,1.0157616668972358,1.0007511517407497,0.6181172684912084,2.0140729101727657,0.9741234996756631,0.7161021690030673,0.40559276367622377,0.62595550513784,1.3771364233351249,0.5957453221114025,0.29960531639023863,0.9556936608431214
270,1.7287327589020387,-0.8707576061050384,-0.06983953662549425,0.9704986520412721,0.968484609058616,0.4206418247733854,0.8782257233933373,0.5509433877211013,0.24185861517630547,0.19262851929353245,0.6619902821573977,0.8031604789519682,0.1658573232133574,0.10223875649292895,0.941858435928478
271,0.9211818249997155,0.08035028514060372,-0.37584773357110324,0.7168839069494306,0.6545282528118682,0.366112113394302,1.2063850857493406,0.6545608576250146,0.223397548794809,0.12456899266624817,0.6425374456860184,0.5638748448558062,0.18290755153677088,0.1158096031476436,0.9323193912146561
272,1.68804219877119,0.7549253333997621,0.4413329687758685,0.5416019008897159,0.5233577989081668,0.685528836653817,2.301081069346983,1.8066977322380788,1.3580673986726606,1.2709114094995224,0.6125606311107803,1.564783271893669,1.093842045881018,1.0095804288486168,0.9464524454835632
273,1.3051948604679169,0.8616290509409541,0.4541997020902886,0.40550066947838453,0.40330965423617576,0.37883938641884496,2.2131270647721686,1.8599217844148797,1.0686412764332132,1.1201113650855974,0.6180765742263259,1.220290400293378,0.8914906952253738,0.8537453359781733,0.9472551607973525
274,1.775802242383054,1.5824189177152708,-0.008551715448777308,0.8187646649733744,0.8085230810829445,0.6146247569792684,2.9313054518467507,3.217225532619367,1.6545339296742771,2.5777981715942606,0.6380535849069913,1.7413198724699854,1.4052352908185892,1.8475508288564706,0.9537373512746515
275,2.0619708855022547,1.3257254394194766,-1.3945387137460357,0.9436501278083537,0.9251967197498435,0.6727023119396593,2.6568317034063598,2.0398767406036,1.7273077545918158,1.2923039092283395,0.6528756675646988,1.8945307472640007,1.4888267162698239,0.9517855852412068,0.9386342661597731
276,1.5832181261486,1.174399970789572,-0.8302757494305559,0.9577076527428772,0.9519697568180003,0.732687205737909,2.378457722850736,1.4740088899489168,0.8073890385627807,0.6369774729975316,0.6403206450210053,1.2751108321592757,0.6952172449934267,0.5133792920598158,0.9464400840206503
277,1.7574197964680494,0.38851365727703735,-0.8530235652921732,1.0978358330610651,1.0786474248703728,0.7141811955109759,2.6888460884589755,1.7556841233055631,0.8955165775849229,0.6268063130966505,0.6699045166045591,1.4374005385119941,0.7612250197398533,0.4863593699193665,0.955185028064904
278,1.6901416050587503,-0.4108860219227999,-0.4211001077603017,0.7797726915682863,0.7566075632368342,0.6030969272807499,1.1213586461125082,0.562788769016545,0.36349676556997024,0.2582071259709733,0.6207552362147116,0.9757458988806178,0.2993251663130709,0.20085628816623927,0.943831498380863
279,0.524466614619507,0.3501372060775245,0.2904495218712012,0.34900113938972993,0.31891729839447247,0.27304091218587007,0.18348848213980598,0.1354802234643245,0.6128774168870603,0.7261893962131901,0.6425374456860184,0.6133506570333933,0.4248566417787522,0.38097763094616605,0.9471068216039081
280,1.8521747724805826,1.2699826801509275,-1.1889744205235433,1.1714567518460488,1.1408261031607276,0.8192475174156975,3.256635038406875,2.823707423758888,1.1566427233922152,0.5637322068912117,0.6425374456860184,1.7705852339966486,1.0356292158927929,0.5220423073709989,0.9312239340857668
281,2.0681642652260064,-0.5173949004448966,-1.2364489713296125,1.140045918881329,1.124185512676432,0.45575261543559537,1.1713733608298702,0.33466839417363814,0.19533358193828726,0.05208900999023492,0.6668815377411301,1.0869143109223003,0.18181432210140194,0.028212650584179107,0.954798243674009
282,1.082360351863049,-0.40882665557770814,-0.23146363107494639,0.6713197971446075,0.656781683770915,0.5249762353436028,0.7039176106637812,0.19899792787497894,0.11378596479124076,0.06186541102067311,0.648888643467878,0.5885869850728881,0.09217059784113431,0.04594638117476553,0.936708804721771
283,0.7782101583523837,-0.17169530198775074,-0.27073866844072636,0.45669322233660925,0.45359849603047436,0.3786402812340345,0.468878251013057,0.16250761646713857,0.09089410899697775,0.04157238060006463,0.6509067234006624,0.34777813027907234,0.08497253252351454,0.04485512308325994,0.9472822619148238
284,1.4008747227669842,0.39436640237069276,-0.5394354970198998,0.38368854097900307,0.37229386489721616,0.5804055181941865,1.033850463017757,0.47493674571706257,0.41006495814470306,0.17728145236134027,0.6547956803312163,1.1486782663415938,0.35574919169897584,0.15082172653744327,0.9502678757451568
285,1.4316828373169248,0.6344744962793027,0.19674565400031563,0.6884339835841622,0.6746554860465069,0.6837030226077838,2.6223120965952296,2.3819568548026218,1.0691237898887036,1.039200129014732,0.6284777104787076,1.2250073011730571,0.9100879046976135,0.7524804647234928,0.948515872918618
286,1.7779427546567887,1.5108030911001473,-0.32487589788354976,0.9810135453841433,0.971357346770806,0.7923090568844086,3.3618082284476114,2.3723124341622532,1.5254610500497794,1.1869859858450964,0.6619902821573977,1.7483169113852182,1.3964311002562548,1.1303193860108853,0.9372851397839057
287,1.1557091654108642,0.8241884944948867,-0.3436994010890573,0.9536148617830804,0.9087275526322557,0.5680520744155375,1.3137916141599388,0.504066747460145,0.30813787046410357,0.18943960497840548,0.6357360191111145,0.8487618945253359,0.24875099869947281,0.15312455800590544,0.9435625763088693
288,0.5909185318727656,0.22095297728201102,-0.06219929716658967,0.388458916892572,0.33937492405325737,0.2706289611533217,0.3634617629348565,0.21094557465655067,0.09250171989835984,0.055729712550724855,0.6547956803312163,0.31994512046474094,0.08378815479866458,0.04950501431644212,0.9523084407579557
289,0.4455227413317022,0.03997187045043005,-0.017656024872739984,0.2424924377447815,0.24326178696459733,0.17191496607078904,0.5437930180001872,0.23206917986719666,0.1698533359285574,0.10793582648269866,0.6038851895711802,0.3245458616301111,0.15408151210703724,0.07278878985532028,0.9621059538574536
290,1.2625469123011241,0.5235974264141372,0.42640796615191956,0.40991439065305546,0.37911970760044195,0.5877862028950509,1.5802931020057338,1.331061439998821,1.008054170707626,0.9630658882645478,0.6357360191111145,1.115114368767616,0.7622029888220856,0.6586019242208297,0.9509462337217899
291,1.4404964721933555,-0.07465841795538064,-0.25654547775686076,0.5661965599669324,0.5471693796476572,0.5320710242239043,1.0714343810040436,0.5251569280819197,0.49460086585224844,0.5095033942888954,0.6333676938231112,0.9566787927794432,0.3688340960805886,0.24161080963387763,0.953601526884014
292,1.7301620737619954,1.1203137331887738,-0.9678003263884722,1.0692463148160058,1.0403359229117743,0.7315354645111932,2.6462882912781533,1.2790493970222103,1.025136302559535,0.5472842715278781,0.6309483474627791,1.636694921391113,0.8828031731665062,0.502806334599371,0.9501660548784774
293,1.7368512536914822,-0.20843372487074152,-0.9702929878258284,1.0082915544776956,0.9795674538053286,0.5879473037939538,1.1996169451385565,0.3622368860315861,0.29089079989753946,0.12661840308776345,0.6468212168108125,0.9120497376169006,0.2567346890282115,0.09781268271689944,0.950209559546401
294,1.2564473676003782,0.4130249216812161,-0.5289433123714546,0.6744122132559023,0.6409676257818883,0.6569882856190747,1.3957082213276384,0.35876224806365853,0.40341797622111253,0.14426365718261971,0.5915533975974677,1.0162338494022076,0.36244513797973293,0.1416802419686165,0.949134484371441
295,1.8672679873131002,1.694521956080675,0.43464860122471993,0.25717791297430465,0.244123332613694,0.540286631196809,2.0638658515209527,2.0454264579344144,2.3667365274559726,3.6398680822716494,0.6468212168108125,1.8322343017937732,1.894693219957693,2.10468832441462,0.9423269413106138
296,1.152242969252182,0.03689753098352622,-0.5557296086175777,0.600985002009917,0.5879668155436192,0.27404339611839945,0.2304781148118867,0.1562562649107281,0.35711941625013205,0.24799134029088649,0.6233814453054027,0.6560655056554136,0.27075266801284265,0.11239377171840596,0.9401660468510477
297,0.8717834312462405,0.25389793142983574,-0.17204862067823057,0.3861507561239234,0.3600201914805777,0.5208306426445163,1.2474306291774302,0.4691451842245806,0.274081401960712,0.15518899542601727,0.6584896970785714,0.746618283247918,0.21266694019909255,0.12168363004850398,0.9553771312535685
298,1.1906954897920092,0.06530319738419399,-0.4596761298123483,0.4926759155881092,0.48531308537279627,0.41156968037150343,1.0893819168336194,0.48486579310892597,0.32556252725985896,0.22060954581619102,0.6425374456860184,0.7661719788745552,0.26341188338313126,0.15629438125679126,0.957253009284705
299,1.4789186655541802,0.011173098313033147,-0.06266503540757729,0.5863647470755398,0.5743731836276286,0.610644912026169,1.5905129869950216,0.6987888256729999,0.5964691216283937,0.3990072410991446,0.6380535849069913,1.0926964882388055,0.5139120971851352,0.31670328354649646,0.9461063986647291
300,1.228891471858768,0.7424208354357231,-0.2288513608685756,0.7264950249373998,0.7288848153974482,0.41348227648137614,1.9787312769516454,0.7850826600028828,0.6684580316362649,0.42102825827647394,0.6447042257417027,1.100881528112153,0.5312565387316387,0.37587209744130223,0.9472816564834939
301,1.3427913204673398,0.4604189905316505,-0.18277767958071856,0.5646353960595011,0.5425014236881249,0.6847449058480068,1.4153804103754801,0.561694508588495,0.5241089899504189,0.3782226620372864,0.6309483474627791,1.153913604453199,0.38051991233797416,0.18481926165013374,0.9493184650286578
302,1.2628536510698791,0.7197256883077483,0.18461391028318785,0.5825202188040983,0.5707321388470465,0.6226206843385388,2.53986799761554,1.58479688662415,0.8121793607798823,0.8059908277076301,0.6447042257417027,1.2013096869064523,0.6722384577546102,0.5226152952925494,0.9468086030618997
303,1.7234813148476429,0.5809209724825661,-0.4784644203520956,0.885954218065144,0.8784502972922398,0.7137561755366683,2.1275648597645684,0.9946904418676468,0.8136508820399602,0.46665033882888035,0.6357360191111145,1.4138711288901251,0.6934213409454871,0.3656856090871143,0.9369936130458617
304,1.7533983513948916,0.30130260207560067,-0.9356588135433284,0.9340712468853333,0.9159270732272743,0.687958710695958,1.738389694116343,0.7758486933895388,0.6680913773371402,0.3814842180724155,0.6619902821573977,1.3243425158790865,0.5602635037153205,0.29409125312792894,0.9468046943814231
305,1.3943543361175463,1.0338430483507712,-0.032640977823028994,0.7451799896323044,0.7291453784958066,0.599969933641152,2.648380511469986,1.609425978580659,0.9679246117239307,0.6521712763238322,0.6357360191111145,1.2991792858034146,0.8077476535520243,0.5114349154832406,0.9472288445211088
306,1.8261440966440956,1.235110181910256,-1.1140624000053332,0.8315207101870646,0.8329672537100831,0.7225969635009466,2.9598052210524752,1.7730094698680574,1.223672995247475,0.7456966656818205,0.6566669596287297,1.697722827301672,1.0561968074589927,0.6736217222410927,0.9455717051337592
307,1.8314167992460346,0.6580955373473578,-0.5201776466167551,0.8598772272116717,0.8473037243893584,0.6101169289130309,2.6052618972501524,2.2175523932733463,1.2356728409557904,1.1165090748980504,0.663668482632973,1.6036215271126606,1.1141423661771885,0.9383257380010962,0.9512091151695258
308,1.294668402470767,0.5989804683245921,-0.20334724414049843,0.6774407681781361,0.6546988399843342,0.5148799377576047,1.7835624981620537,1.0217536310027948,0.6790840572375393,0.5264907028211191,0.6602640781246099,1.06491964770164,0.5767545370890806,0.40609643937716106,0.9402391293468889
309,1.3996801533009886,0.5985950431329217,-0.23318213115353226,0.49390021940774514,0.4884528236983889,0.5652312806767348,1.4784341880667289,0.7203405573605148,0.6907425115065099,0.4719477313223366,0.6547956803312163,1.1542307124311217,0.5889290869608709,0.37747417578251424,0.9413587238708714
310,1.3606583280948807,0.6632799489179086,0.17290141868294162,0.6502593386486296,0.6325250177184125,0.5709080856073013,2.052653927616369,1.1179258329017876,0.7794375217526752,0.5713704822164987,0.6584896970785714,1.2216465881071938,0.6694176955314717,0.47920501371129937,0.9526024294325204
311,1.3981964860045941,0.46288312385897123,-0.30566181253333147,0.7194713240991855,0.6892195779269126,0.6292428253798974,1.7830315776601897,0.9475057742164017,0.6211397584271242,0.4440976347757398,0.6425374456860184,1.130378191431761,0.5223152296732966,0.3057505041375531,0.9494669458210406
312,1.1129899553410796,0.5556470744291573,-0.2811505653783066,0.6464433598413963,0.63991712723265,0.44649425137775856,1.530458442455227,0.7799885181187762,0.5283476025216758,0.38444187528106927,0.6233814453054027,0.8702026276814001,0.4101313977086966,0.2995450848024593,0.9621308719034405
313,1.0334446104013368,0.1996996478822881,-0.014905418974242801,0.5457460161670281,0.5416715132459257,0.47055330128445866,1.038798237017723,0.45135605264776757,0.3338082632620092,0.21858850963893792,0.6153451465759925,0.7743572359854884,0.2786763890714575,0.1744732040222657,0.9537802957765952
314,1.4223154016022521,0.8988809338789525,0.5763755518968452,0.2415905157296187,0.2276727366678068,0.5048293441131391,2.1125842309745435,1.5023264296608003,1.0868327737652417,0.6937749990780172,0.6468212168108125,1.3870057251904364,0.9843341723926382,0.6686926348674961,0.9565336218129902
315,1.3234386551027102,0.9451620886639827,0.6244726640307148,0.21938644120914816,0.2146819873262363,0.5032199625010637,2.481211357753568,2.2191926478359965,1.0365362003607972,0.9178723005428358,0.6357360191111145,1.3108983299815373,0.9005265967558235,0.7485112945447131,0.9439412071063917
316,1.1648975220623619,0.8299244971549848,0.614208242586981,0.22976106386191675,0.23050975125122408,0.36334042439721287,1.7157448757473597,1.6397624193934333,1.104290491769789,1.0396350525998626,0.6668815377411301,1.1216762282666615,0.8817924146499403,0.740554218644426,0.9513814741895729
317,1.4164706205167932,0.7849645949443913,0.11157012845505765,0.35715499755301844,0.35209176245822027,0.5306407815260575,1.7702722940077327,1.1865708040579965,0.8852003193456525,0.6965290077526841,0.5883313578629602,1.3492983429887204,0.7995170951398113,0.5009658548497025,0.9520375244496426
318,1.419847467860011,0.9820549471856816,-1.0115698096115997,0.858003545602494,0.8092446697280686,0.7099327415808924,2.127797268399846,0.8529764148081811,0.6543103665458502,0.43857007810202203,0.663668482632973,1.216982996970241,0.5724458569195318,0.3848607521639508,0.9479782621893316
319,1.6978990623175994,0.11137387106547236,-0.44615245406871473,0.6801526315004365,0.6601542275521655,0.46548034071682753,1.496711857644062,1.0028074914318703,0.7113247489617471,0.4653800653923056,0.6547956803312163,1.2611312181658847,0.5908737780774537,0.34112796318962746,0.9495815798196752
320,1.1528014574401257,0.6668320486553623,-0.05174158088021241,0.4911262845086877,0.4826671041965845,0.41791886417089236,1.6927262626979678,1.0838475024302914,0.6067782554606409,0.3732710855113807,0.6602640781246099,1.0019999267679933,0.5052826009572291,0.28567766207935147,0.9530849130659326
321,1.868985187529486,0.014097859078812336,-1.0021648820666793,0.6827183256959408,0.6687963028531594,0.4105900383056794,0.9783385804760981,0.6222293714527967,0.526146453619047,0.3226517796039773,0.6652988471865258,1.0972132677544024,0.45212303542748655,0.2507914157166827,0.9501717260938494
322,1.5931177808639034,0.4331760016523234,-0.42788444537726833,0.6417978950867363,0.6300998394059345,0.5603879935925254,1.2538704005203922,0.9498147039898257,0.9080433636410302,0.6487066788065344,0.6652988471865258,1.2137238957693341,0.7650883046285768,0.5091658279145754,0.9562407678318734
323,1.3227579484239633,0.527770851689296,0.45309947911795856,0.40441227352251846,0.38139850978013695,0.48799637777594373,1.5549075633499705,0.9936305124551408,0.794991890691377,0.5516611873216024,0.6566669596287297,1.1373531169845403,0.6685728921610928,0.4885806909971401,0.9409561173777348
324,1.7355526276289088,1.1176946770040634,-1.1449092960765581,0.970381006680195,0.9578912894593845,0.8059476558289224,2.6561745213210406,1.7657404377708552,1.0700927442220316,0.7620296879553884,0.6547956803312163,1.5882201648887022,0.8613193410620068,0.5213917598038725,0.9544332865654669
325,2.009535173784848,0.9349519288354418,-1.686657308396656,1.1417670695193018,1.1320400185070725,0.7804963215470062,2.4968949898610804,1.3035330891930599,1.2596765245209791,0.426327812131479,0.6180765742263259,1.7697370851935625,1.0561586535182375,0.4882069360994217,0.9358153980689194
326,1.2515528724525709,0.4409267489128281,-0.6735361917270792,0.778480121001618,0.7539613898459228,0.5307822885426623,1.307117408804925,0.40809010965204284,0.33856305061381115,0.16866482031811222,0.6425374456860184,0.8644892333108918,0.2768218098903332,0.13173400084060205,0.8991521924900698
327,0.6410050463588784,0.23794174509668975,0.07178221443486454,0.6314358629185979,0.622472521921692,0.5913532596943648,1.132639865778374,0.3320676898817674,0.17199757209025662,0.11026277614242663,0.648888643467878,0.6079281496039852,0.15050449765458962,0.0945964199790922,0.9235957911380481
328,0.9852793559412131,0.600259207650882,0.211452422880805,0.8183971729329421,0.806200349310753,0.6222092658457574,2.0415394110429554,0.9722159538213457,0.5357011879735716,0.44007307811524937,0.6602640781246099,0.9209404137995055,0.4389067773055367,0.3151371576499324,0.9412993306195263
329,1.1459394153598015,0.41801663074987916,-0.22906086126634806,0.43278893714454436,0.4261391956452836,0.388088677131539,0.8447105924371985,0.628200778261899,0.6191441261039831,0.6936453031339274,0.6333676938231112,0.7628307667258445,0.44719737122048886,0.3681803081730159,0.9500352212803934
330,1.0942907241055086,0.7253745995788197,0.7416108502488843,0.17287203109334173,0.16116975132388714,0.6743484137191907,1.8913829379572993,1.4836015773347868,0.8202718835736298,0.9391194408286326,0.6309483474627791,1.0799213902246205,0.7206770276706389,0.7799384629079911,0.9533928935404693
331,0.995745684356623,0.6072039694645109,0.4192571327651613,0.17293301827745555,0.17125032705056537,0.38007998091662215,0.8507290507414438,0.5091235252732804,0.7638278264304942,0.5996001203933168,0.6233814453054027,0.9434906518008096,0.6106176785810294,0.38159849452327904,0.9464913239813332
332,0.6423818836802722,0.41111899547062536,0.314138592052029,0.10234807851457903,0.10210901314803615,0.10458426548515133,0.8358186185526213,0.6594792480819607,0.5711636304031524,0.4834994197826637,0.6403206450210053,0.6173184675081568,0.4476334096673397,0.32307732123811067,0.9623176531540313
333,0.9632072986870167,0.8386353039341748,0.714882549227893,1.3639699286954015,1.3665880657455758,0.3507663299619618,1.4479548674895935,1.175051726217307,0.9982724047134067,0.9884756094055919,0.6357360191111145,0.9619566150295733,0.8402573121023407,0.7086261046825909,0.9378604524051773
334,1.192384998897529,0.8560467759032366,0.8609127529773146,0.1683719286747565,0.163333021373623,0.28738958634728046,1.6184249853916177,1.3916447726890713,1.0304245928583853,1.5149534645595586,0.62595550513784,1.1905813894315134,0.8568448228163112,0.8534000035521988,0.9026221208891252
335,0.5066802039912446,0.3297299789777083,0.33105237750132954,0.3145290872414563,0.2687417997981313,0.3167128429970402,1.4895752381868035,1.2896712911310568,0.4014984426520863,0.5077486924706441,0.6380535849069913,0.5019943640172349,0.3251414565460273,0.3203866394748557,0.947498051368506
336,1.1710479018235027,0.730451889443362,0.5609869641043814,0.3841344399225931,0.3721494267133004,0.712868210660869,2.456077770026319,2.1447236425971816,0.8472085082981071,0.639049433303359,0.648888643467878,1.1687129163475987,0.729592956610852,0.539208414526949,0.9524718677584942
337,1.3300805593218334,1.1426823702693811,1.0680959073676797,0.5762469682705729,0.569087694661359,0.4953584048005333,2.7051349111797984,2.459074328943593,1.3825139550603684,1.4595808270684878,0.6566669596287297,1.3280673825961222,1.1314314632573452,1.0695319073185727,0.9493961180194136
338,1.2978642498927604,1.1207732405681816,1.2861213122140027,0.32537507335967497,0.31669915227556633,0.33513937600159666,2.278611634403341,1.860059386507467,1.3326063784810782,1.9073790689596775,0.6380535849069913,1.2945866219158513,1.114223557900849,1.3153510884418758,0.9530383243771726
339,1.2184424330535653,0.7350630697402822,0.6045448787467491,0.2728722042917192,0.259198634069792,0.6126038727513972,2.7690057764151916,2.966825553633956,0.8524962482466938,1.062463527885791,0.6584896970785714,1.217959046300676,0.737417994927562,0.6035350218702582,0.9512555364939277
340,1.4195300340608148,0.9327659078855721,0.7575972227886738,0.24333467620883387,0.2380003531598311,0.5467496808385625,2.1967132611455646,1.6155744915337857,1.1000865174655425,1.0068449129405206,0.6652988471865258,1.4178538300276566,0.9435380935224754,0.828194822611538,0.945279628491506
341,1.18475180359115,0.47640340114557445,0.30591384659076937,0.27102786057904715,0.23858517300064783,0.6619006629166106,2.621714569199396,1.779222033143705,0.6140139092234184,0.4685066972715016,0.6528756675646988,1.181993897607161,0.47564268729541626,0.30017746865556055,0.9462435842052671
342,2.116448538815251,1.305578541707527,1.2878327243859506,0.252469434585452,0.23021743854157775,0.8103329705828475,3.841004335248514,3.9604617768223833,1.4832980877960409,1.5180476571792776,0.6778444222523095,2.1161977386938458,1.306223279419936,1.3465761420320994,0.9368649022803472
343,1.3567635625093974,0.9962335641318203,0.8938593739993976,0.17868665972649117,0.16800228915971188,0.6406190248901477,2.8688797639738954,1.9352902215929957,1.2177879091133186,0.8672143794369376,0.663668482632973,1.3562178935374214,1.000823385252683,0.8945873325499042,0.9532512736533406
344,1.641997819413638,1.0280344050977075,0.9830563889116068,0.49698127085248656,0.4791646347471804,0.8312627471440498,4.029661731227198,3.867865368805833,1.3077482290286442,1.6098094492656763,0.6309483474627791,1.6414447085691868,1.0278656642170927,0.9854897676747942,0.8874971525957237
345,1.1829287306494498,0.4730326120993886,0.3016617413960374,0.669505506315927,0.6579344762694264,0.6874227592700268,3.2736179277278663,1.3392609125722794,0.6524809460091338,0.5161412712668553,0.6309483474627791,1.1811609113032688,0.460685415217901,0.2895584252204033,0.9434075527977894
346,1.0504780346623703,0.5374151711077513,0.4058276602420028,0.559394496514466,0.529030479157215,0.6531610070229156,3.291203803992336,2.6336807337033368,0.6815758419253828,0.6311870372860975,0.648888643467878,1.046747490953034,0.5323228848646702,0.39942035869300563,0.9315004355804563
347,1.269783256011214,0.7972732643810403,0.39019344608333517,0.38270527544353644,0.37818050201331765,0.5354064497968821,1.256472659361104,0.989050137013133,0.9633280692010651,0.8569417657327428,0.6566669596287297,1.2136117021979083,0.7431010296630094,0.4814375665853096,0.9541853334221795
348,0.7622151655618777,0.34082907186391254,0.06320165998142069,0.21103373620254545,0.1646445687281552,0.5516584198080234,1.9190385328903414,1.080169476947714,0.3665969375745157,0.2854233529071131,0.6180765742263259,0.7100220977847901,0.31937512186184663,0.2003493370462742,0.9586786750885035
349,1.4960120117639333,0.9043613037628115,-0.7354442314908274,0.8340430760507033,0.8146400372935952,0.6907075067994336,3.713174347853452,1.7524056244007942,0.7737677308284546,0.3449826126162614,0.648888643467878,1.400708863799241,0.5924326649615111,0.24970822660174286,0.9182624904568536
350,1.4197524282517084,0.44453862541397204,-0.5057839668946567,1.043967712233689,0.9707053492233074,0.6901405135123853,2.6864104755788296,1.7635395384188826,0.6774813385461673,0.5268728413846726,0.6284777104787076,1.0547549056043333,0.5155691369908671,0.23263119939358942,0.9289336568286114
351,0.8207834310344092,0.44462343971430973,-0.05489025054346497,0.2977514594186032,0.29076880829901186,0.45713523637744624,1.7303071786738606,1.0564254869940968,0.3739613730781942,0.2532573506663622,0.6619902821573977,0.721981134456425,0.26577576307189754,0.1144284335265695,0.9524718582463234
352,1.126233099227198,0.767451783651153,0.5604056306862779,0.6801896914665415,0.6548133009603082,0.47281975702997103,2.9343606747771314,2.342410809710332,0.9668215094843737,1.1081163838911647,0.6668815377411301,1.1217103399140866,0.7625299821081335,0.5518761635963481,0.9571965969337489
353,1.2537668480662942,1.1489706971834703,0.8067300596203602,0.5571666210109487,0.5397450498219922,0.42994441236763586,1.9878553854624152,1.9197791833730053,1.2785406007143814,1.3471013155403349,0.6207552362147116,1.2147342047478606,1.1264762231167402,1.0343192070489766,0.9490696985535072
354,0.9222119048296201,0.7309011005913711,0.6309680634968367,0.4120965493914725,0.4088318164543066,0.28696813578082514,1.8558191930315842,1.7282730781197067,0.8891484047943552,1.0430837747751418,0.6547956803312163,0.898068874033092,0.6968088870696786,0.7026092381718431,0.9345523861978264
355,0.35204068066186917,-0.07726785858123653,0.013428154577270368,0.22203252370352614,0.20695599639143636,0.2540128114604047,0.26750049252924607,0.13974370247870643,0.08454396355587465,0.1078770906506161,0.6153451465759925,0.2203280740481762,0.05320274946713057,0.042733639134555426,0.9500888596057571
356,2.0013640876821164,1.7784885685048588,-3.6946911699260236,0.2400665695721527,0.23722336048651885,0.5522403630281612,0.07681595581800946,0.09314209101080667,2.3759634109632395,5.651910582238916,0.6566669596287297,1.980018618688763,1.9838826475080482,5.651904213887536,0.9621272429006895
357,0.8195253789374553,0.31826399667459304,0.09476819034526485,0.28295640516323756,0.2728575456718054,0.5740024587023076,1.2245237696467781,0.24894350840936585,0.2855877036858584,0.12270916664200905,0.6309483474627791,0.7942206026533815,0.2636016920064839,0.09282040210262839,0.95234577752202
358,2.373153895728402,1.9525410853364455,1.371398505440557,0.20264667687343146,0.18687267413893266,0.8881598129158972,0.0661966116861438,0.08070669635107516,2.2387886214612123,,0.6333676938231112,2.3731267823279905,1.9577843515404605,1.3795603289385465,0.9217479340988435
359,1.9936188169730011,1.9217727692121505,1.0885547197603085,0.1908056509083984,0.1805584702237435,0.8314906887892898,0.08080585081588035,0.09287065680601736,2.092201017206199,1.6014079512335349,0.6584896970785714,1.9934677398221998,1.928044591627062,1.0958119507977906,0.938885051849364
360,2.013293538268089,1.7458798730854963,-3.7591734113535855,0.13300420363711613,0.1291809711864925,0.8390516033075605,0.07102261528444097,0.0823510390539504,1.8915520603822134,,0.6619902821573977,2.0132377412232034,1.752282805215941,inf,0.9408488874383791
361,1.3768422709904355,0.8564929314180774,-0.174237345106806,0.9192712029774391,0.8740329912390917,0.7180920387784361,2.1807375163408045,0.5475353668897869,0.6029148436591629,0.33875861427210846,0.648888643467878,1.2725292631182539,0.563878957778683,0.3016044968074363,0.9464786944858686
362,1.4936758763461992,0.7252147003017755,-1.5198876124349143,0.9148870206572779,0.9066844237795753,0.6044500249943803,1.1522413581950248,0.32398498936816167,0.2656963567515474,0.10848323289300377,0.6380535849069913,0.8500869314175227,0.22565554315983916,0.12989838684927107,0.8963917274077171
363,0.0,0.0,0.0,0.6547399095123759,0.649737244772632,0.3515688531985522,0.2547615312932571,0.11881813408405034,0.0008504638897623638,0.0008428973289293993,0.6125606311107803,0.2231435513142097,0.0075142726759952405,0.007542965145317958,0.9373862532725428
364,0.6224690768238292,0.09586099741093412,-0.028930566791389944,0.42483113528528826,0.35770084653681405,0.5875462059332652,0.6889142386517105,0.18349416589129464,0.13070447019892853,0.06144706725499186,0.6233814453054027,0.5746532865121562,0.09862590941032287,0.033268482700712754,0.9495321929095697
365,0.5519503303035067,0.10379051013854868,-0.03861119694412107,0.858974045931274,0.8553671373679617,0.4535736495282667,0.5607064821265355,0.15686094043062138,0.11097117228834576,0.07688777974017119,0.6547956803312163,0.4755121064201989,0.08569105183223297,0.03229981364579614,0.9509117048481882
366,0.7511435512224506,0.04403087261129579,0.026439603181470983,0.22028836322431097,0.2101171568921384,0.5326922544468047,0.9091473891661035,0.24577567221643504,0.16832478416128646,0.06877934933473581,0.6333676938231112,0.656793822205398,0.1584456655990292,0.08403025973542494,0.9436710744122595
367,0.7122646353036542,0.1313655645752393,0.02934615820361053,0.2257515828920963,0.18398171226169036,0.5005106179164357,0.8350311419499691,0.23341355072579584,0.17318894847839972,0.11337104960022995,0.6357360191111145,0.7337608634452423,0.15626667412978892,0.06630424383630755,0.915831814837944
368,1.838490883955061,0.8580557057187821,0.36379133298178656,1.624215816606664,1.5688804961734757,0.9430209283645502,2.137099140738553,1.190961941083362,1.0114891209183412,0.5529639245105286,0.6468212168108125,1.8378034077294618,0.8576596778672768,0.36380080878171994,0.8959131379760078
369,1.586294802497192,0.4268752006729595,0.14917448707229708,1.4250015033183687,1.3838517630537768,0.8850357163015283,1.7717953161846458,0.6266182718333071,0.5569616980812425,0.41680424305229546,0.6584896970785714,1.5859384232565945,0.43121713233896397,0.15313502050057995,0.8820713384000924
370,2.635006731251722,1.8055572295575137,-4.440563960809236,1.427159910436871,1.4062085441205507,0.9101839230430754,2.4854949183221127,3.226874643863537,3.0083037459117725,,0.6380535849069913,2.6273922980847555,2.2985955219512153,inf,0.9055534562494001
371,1.976804990605617,1.511335343287834,0.9813535649660547,1.3106889898850624,1.27544544558703,0.9533011121901431,2.2799963667539163,1.8519811731868452,1.9262477374396019,1.7550433995172252,0.6068309995095971,1.9763235385747897,1.5035563651218344,0.9692366523181228,0.9042808058629022
372,1.8727701861260373,0.7831518053924094,0.15955371428519394,1.471404370851499,1.4074555042782666,0.8343819446623804,2.120946706853736,0.727694426583529,0.8832299374236403,0.5960108185487902,0.6357360191111145,1.8722467201407416,0.7838437420307575,0.16307753671833364,0.894144876041591
373,0.8048466965984516,0.18033220571807984,0.06761933676689769,1.6185857793836256,1.5500617067596882,0.8335830518080928,0.9170279465110694,0.2579084406173995,0.2557559743072092,0.25969362880757363,0.6447042257417027,0.8039049512795755,0.1845085450904586,0.07139483264113665,0.8960160602912319
374,2.0726183642530946,2.5368812417318276,-4.554472313102519,0.2257515828920963,0.1773165538591863,0.6142226698044536,3.000639307824022,6.974417617115664,3.1069256862129326,,0.62595550513784,2.071385192497072,2.5862485630267606,5.363636832668679,0.92546742361979
375,0.983413940926629,0.27978669120740685,0.054192875746339686,0.24734415717865432,0.23200404650119974,0.6897812421666538,1.3173236250796347,0.4346485050370503,0.3538567094502933,0.23069405391485742,0.6333676938231112,0.9253314765263042,0.3265874038672358,0.1774221702687171,0.9195519251870821
376,1.6009753989379667,0.5066347434291711,0.20224365216551687,0.09598293683163088,0.08428549104493621,0.8653412305649855,1.983265070320947,0.6680097026691727,0.53110592718455,0.31725802891613525,0.6699045166045591,1.595808987375867,0.4723190166259426,0.2822477528285848,0.9158269326307258
377,0.789336584039859,0.2918169781972386,0.13369289311014065,0.2619748448837403,0.24820046359467018,0.4973269443415326,1.2886157789127932,0.31209168756981653,0.31427075266675203,0.13113048056044366,0.6602640781246099,0.7853599401047987,0.2868376423918599,0.1230357447758766,0.9619820770024203
378,0.6349645444123526,0.15177692093914008,0.04009208715618562,0.08467349851939517,0.07810136884535643,0.3050324093080191,1.0830041043927006,0.33210245197823696,0.18384814040442982,0.10323647613082867,0.6038851895711802,0.6159392563217112,0.15615493610941936,0.08540365960153284,0.9759650797043963
379,1.2407267248408718,0.4096210357121026,0.120736119890825,0.08467349851939515,0.06099233503742449,0.774145311060138,1.562498066106139,0.4345760074132241,0.5204112368714976,0.290837368320116,0.648888643467878,1.2253856161626258,0.4119374997610102,0.14336453933736915,0.9524352685373573
380,1.7737544950450237,1.4840522745171383,0.9077333892084747,1.6667156853966882,1.649770814490919,0.9178108199916987,2.1164135956329964,1.638776100144022,1.6935487069343427,1.2364695429684491,0.648888643467878,1.7696066645869217,1.4259324801020434,0.8888550866799674,0.937540043726313
381,1.0981251828635525,0.2865837003402991,0.16668000864692512,1.5907665138437197,1.573358544049191,0.8857198484380994,1.4068788177138618,0.42159335694626066,0.3583914436438275,0.3208453501134613,0.6233814453054027,1.0971466965064998,0.29012592072769006,0.17062758623959107,0.9062188812021438
382,1.1858866581288705,0.4727192982529358,0.1739953824594611,0.022340379843483554,0.017045651128107044,0.6485272550779111,1.484329941770094,0.4567050572184723,0.5992044375655571,0.37426668520751044,0.6333676938231112,1.1818852078619313,0.45395372009659685,0.20476070668900068,0.9367381054071846
383,1.5122405929881546,0.8292017886752026,0.46725691275893055,0.06236667603779547,0.05581887277653886,0.8343168974415109,1.7241072438308898,0.8807263444407756,0.9376498095749105,0.8245221269018377,0.6547956803312163,1.491407993675611,0.7546917514427449,0.6151016354780288,0.9147912892578333
384,1.3142017861380373,0.4811341543520613,0.2513877581556907,1.6287687031781326,1.632772755369562,0.9104172264482697,1.4907357544664337,0.5230904928378417,0.5865587375459919,0.4281498581227324,0.6333676938231112,1.311393052946773,0.47186928602733585,0.23648573323135574,0.9271838582832583
385,1.8416268941593439,1.0989850618092907,0.5139585963974946,0.08929447972312814,0.08035383736321897,0.6942998374335289,2.3693206796724087,1.242939585992366,1.3420361303337518,0.6135276622942484,0.6509067234006624,1.8352238406421393,1.109181805746511,0.5151273122864685,0.9482690415279925
386,1.4295198613585756,0.5714975173270855,0.26545002129784834,0.17868665972649117,0.17584012560412912,0.4875578690372891,1.9388779420772742,0.7497952127569778,0.7692277459186055,0.5062435770602469,0.6153451465759925,1.3976025022692684,0.6517194451434555,0.3236856098778676,0.9541947459562772
387,2.0322405474490037,1.1028804877883083,0.44684251840413935,0.1330423204975338,0.11263953649569432,0.8143136921204795,2.701795679583833,1.9845377247075304,1.3452261288785106,1.213367574806193,0.6468212168108125,2.0265539632831264,1.1028366950855382,0.7296183117738643,0.9221824989286994
388,1.6152105543094868,0.6800233827532189,0.43040873909891086,0.122888179777612,0.11579000383433302,0.6694206483543905,2.3163777368709138,1.0367597924128722,0.7672270910954541,0.7338011779764866,0.6425374456860184,1.611941042652219,0.6655179273946065,0.4983348831419042,0.9559152225989536
389,1.6887249014951615,0.9719479593242057,0.35917252041162095,0.14690526410873272,0.12724519877323207,0.7678328475342073,2.443453113601235,0.9865187460292866,1.1786703698705012,0.8182299774046308,0.6207552362147116,1.6768249311359555,0.9792655310355436,0.47737248484857153,0.935282420582941
390,2.4011263493772126,1.4982062406172085,0.010727843028858874,0.1581806884875931,0.14705573169055206,0.6894091538330605,3.829485793042751,3.6170730412339376,1.8841419887690916,3.1794903979704436,0.6425374456860184,2.398728953546948,1.5605021348679786,1.9070703157390494,0.9227746337811426
391,1.9733349212471019,0.8253383990493359,0.4777354214374139,0.17755399948118852,0.15940328145561733,0.724685608000957,3.0287736285850815,1.2244231388736098,1.076916815343123,0.9762494711299702,0.6566669596287297,1.9695313913234382,0.8552399094887776,0.6141279480339509,0.9429941544930579
392,0.7310479490797035,0.026085037695687263,0.02029350323792023,0.10060391803536387,0.06462770683830538,0.6478350578057624,0.8485505111175494,0.14179654254562502,0.05409203113635757,0.037001212896451634,0.648888643467878,0.7080352374982948,0.05248707617418832,0.039492690803340155,0.9470125750100986
393,1.1196588271883021,0.19319951483581588,0.0899777727806852,0.04466961139416602,0.028149559593742955,0.8216423029590968,1.458676089919503,0.20128062583909156,0.21147349662847584,0.10144011034529678,0.6547956803312163,1.1129817026354114,0.19589904487760337,0.10106898653856108,0.958165658325588
394,1.2569895422803214,0.16806206556042125,0.06793817907271382,0.06698765724152846,0.05465372601621003,0.8307083137304206,1.5714949105574851,0.2109769733179927,0.20764154960208422,0.09161852922621526,0.6357360191111145,1.253474332565914,0.18692428754717755,0.09966871439633783,0.967978333419669
395,0.7003977785382981,0.11106893053416533,0.03972712966301295,0.10060391803536387,0.09412280316686455,0.6871563287171324,0.9323727143132126,0.2058301797761264,0.1154507103304405,0.07148285962160249,0.6740851607140061,0.6759841996442446,0.11193774852316447,0.0755391700622138,0.9482707355723783
396,1.5234568046090304,0.4624740319324978,0.3446277896899188,0.06236667603779547,0.04397103373494316,0.8609186935996547,1.8568876969629564,0.6287775962002815,0.5686863423725327,0.6771112118737488,0.6284777104787076,1.5185820829791559,0.4620805544084082,0.37462024460693083,0.9184929939280815
397,1.3382276048858202,0.6217019692668784,0.423788597920185,0.28922259120732874,0.2738379732635724,0.5726838695812988,2.6624570210580774,1.6368184320024302,0.7486557360962719,0.6853151447556979,0.6584896970785714,1.3039568526196041,0.6409537961026256,0.6413644954540595,0.9081608157198763
398,2.1389068273820113,0.990830359712068,0.7657066278341982,0.2703566767940242,0.24362390086409705,0.7687258910564647,3.067405708211656,2.5240661995814744,1.2894976588996523,1.3296670133928195,0.5978297680564633,2.1286317858706076,1.1640101892372021,1.0596101308648405,0.9484761305629875
399,2.078285799639094,0.3552621259829829,0.2016376809622522,0.25082195422869397,0.22298131586843667,0.8107563020610061,3.649519084091629,1.3728319347680422,0.6729538913079491,0.32121704154745806,0.6740851607140061,2.0669861004124903,0.5434837723508559,0.27312490085379487,0.8789436124258765
400,2.2077304262506896,1.0976244038845153,0.952062543720134,0.06236667603779547,0.054649868228554895,0.7989699155929485,3.3836547460936055,1.7393727643983583,1.4480621241037175,1.302713143013369,0.6357360191111145,2.205660056157321,1.107831745085729,0.9687900565586413,0.9333652053151266
401,0.7919401027210794,0.05439558004714384,0.07052373452667349,0.08467349851939517,0.054650241683186086,0.7129514331728655,0.926513402291483,0.17401668127687797,0.09582194199147198,0.06749652559141443,0.6528756675646988,0.7788261123157965,0.08582138640652012,0.07947131173775686,0.9445808617362508
402,1.0558769702882678,0.20679677751059677,0.11686197918129859,1.5273551808594037,1.5065787986190258,0.8123766728941111,1.3268571762779235,0.24944006857448597,0.22773917356767837,0.11632002575632296,0.6528756675646988,1.0558401968242408,0.21340226004823976,0.12356193749436488,0.8463938032402872
403,1.1227535753656697,0.18860295389321058,0.14472931457609373,1.6759108569722523,1.648905900656485,0.8818445459039848,1.474533288689083,0.3214567951869749,0.19484693688088936,0.16381169348497235,0.6380535849069913,1.1227342307885195,0.19527862291496556,0.1514215996292494,0.8431296303716381
404,1.3260331468066797,0.40260415834578556,0.2572349482529681,1.5866116770095928,1.5452411080894268,0.9150993175747377,2.067600749271151,0.9208828200387607,0.48124421473902607,0.3755879890598137,0.6380535849069913,1.3260148969027028,0.40911222275887843,0.26373852318305946,0.8356464354469435
405,0.9549413383832963,0.25790723284873907,0.21369769533486438,1.4276571931589832,1.4065736226226944,0.8138115024437149,1.5601770587129842,0.4848223113754244,0.3517013836492192,0.26626399438988096,0.6357360191111145,0.9545408051396715,0.2639817802009957,0.22014167288737477,0.8957473079708834
406,1.75618157807137,0.6433262616421302,0.510432282967106,0.06236667603779547,0.052073308869373565,0.8838976246348895,2.4899326664199584,1.1814212395941173,0.697524929456477,0.6267635759166996,0.6233814453054027,1.7555561242678421,0.6401193917922157,0.5474643073747628,0.9215629999252384
407,1.2782219653129683,0.35652394039555624,0.20158685811976618,0.06236667603779547,0.053601970184855914,0.821748249624274,1.8594868818416517,0.39944173598770116,0.3864296304960856,0.19482241097129457,0.6425374456860184,1.2756677357895645,0.35368947741346723,0.19093891416721223,0.9035202357299341
408,1.462851779539758,0.44073902230504025,0.21728899733992857,0.06698765724152846,0.044133956882544664,0.8674236472234531,2.1576198927185417,0.7424168405766309,0.5231954033120289,0.32079831735697484,0.6403206450210053,1.4591996379981886,0.4440874727237418,0.25193217246925886,0.9424593949461922
409,2.708719279056182,2.171279493076657,-4.103148465404511,0.10696905971831198,0.1018635933678844,0.6117751529192879,4.130092972180116,5.214706682613977,2.279544641291127,4.460848634341479,0.6584896970785714,2.707883548322889,2.1673471087671636,2.748144658304088,0.9530179601254469
410,2.1921004155315997,0.846644671070925,0.7519216121317625,0.1330423204975338,0.11252344998168132,0.9372787675691534,2.9768840527543885,2.005754160267574,1.148590061266564,1.2330481069072876,0.6380535849069913,2.1914413325804922,0.8502185395294543,0.7501140051666227,0.9130621442233932
411,1.4028280564359201,0.38713490082461255,0.2383482534437551,0.19517169521930086,0.1812045532632596,0.6516063035347086,2.005680187986441,0.69865260012915,0.5542408011177847,0.3541843154007446,0.5748741956352443,1.3878066151108877,0.4302968294567694,0.28417465545960885,0.9408191027595807
412,1.4111857272184443,0.6628002370151798,0.2355402103579154,0.15992484896680823,0.1339629490476054,0.7225245693748991,1.9484302185221152,0.6751527195347546,0.8401893146689957,0.7332640668345974,0.6008849035917525,1.3890982884526248,0.6902543682887055,0.3986445847457352,0.9229718509769224
413,1.3470507352987169,0.2946163975430496,0.027334672993949427,0.19168337426087054,0.18192440922172257,0.4457612900028809,1.698681324809275,0.5244451049207837,0.4082888656261531,0.3516491417601614,0.62595550513784,1.3304182505609727,0.3323618374106219,0.15286232171979233,0.9516408497368848
414,0.6079975873452925,0.10230347126045303,0.011438355117931676,0.19517169521930086,0.1849832189805843,0.5429835069869903,0.9839778404572931,0.4170468792633779,0.25885871152257506,0.3339433958621684,0.6284777104787076,0.5352701189918733,0.15843277150179502,0.10542228027289795,0.8997750124055359
415,0.8624284637687923,0.24081108497903836,0.20896193448687872,0.30262405835824796,0.286300205597818,0.4200735730334034,1.0654830343287942,0.6012535958447023,0.4932180343393471,0.43287162776554644,0.6668815377411301,0.799446408275043,0.4007557361546999,0.30302561339195316,0.9517471188310469
416,1.2151176060328346,0.255069691695643,-0.014640235479870478,0.22226326193366597,0.2036141832755038,0.75843246233737,1.454648684824005,0.28184281476462925,0.33319344646509097,0.09835741867597947,0.6380535849069913,1.1740544838349682,0.2934017294856605,0.10388341051481303,0.9212103351189308
417,1.2862633853381886,0.18252836149136709,-0.06509386323259814,0.1645458301705412,0.12883371761739001,0.8091108028495911,1.434848891242943,0.1970513379567178,0.21258626131184072,0.03223261508147385,0.6284777104787076,1.257295446896665,0.2082345402673701,0.03595078376497296,0.937739964093642
418,2.414300392046876,0.5974070711453927,-1.5276468557743712,0.6575635610199358,0.6463181885533033,0.6607640395261867,0.08555514389410274,0.11050805609824904,2.1929312766801727,2.3388727908367306,0.6425374456860184,2.1895540710319996,1.953980735380873,1.980826414161541,0.9507211943164025
419,2.6265153486377484,-0.18946090372846092,-0.7436178136253382,0.8525148843772148,0.8335137110825295,0.6838536896865542,0.08683842506616718,0.10326352564181893,2.4227846495830923,2.858978971535229,0.62595550513784,2.3988512851881794,2.148049992675936,1.8567173655028273,0.950499897349886
420,1.224918120186203,0.028362245648727802,-0.12277498394371777,0.3414335063956875,0.33802605478142655,0.6214355017876554,1.3733710436866864,0.15491398949275315,0.12709036173842445,0.029163022141079017,0.6619902821573977,1.1547947083571017,0.12354251125769657,0.03350954449074044,0.9025220473558431
421,1.8327266586901199,1.9766238549815154,1.073699898249362,0.3119796848695354,0.29361903341775875,0.4324812895767146,2.7475746758992905,5.0092803474938705,2.6582351390029832,2.1686291928629986,0.5947193981915972,1.7966380166791625,2.3302297372484984,1.3780638619833752,0.8921755624514033
422,1.9703993605738181,1.1165555963039246,0.87976110289654,0.36168600738119283,0.358053753274422,0.541488499608019,2.0037574691678848,1.2937953632441408,1.4375158139273094,1.7385392798225983,0.6333676938231112,1.9700890047524722,1.1206868174884128,0.8702040279137919,0.8998948869363022
423,0.674686914283064,0.2217678737325317,0.16974815824077694,0.6375163186702465,0.6150044299072026,0.518870316618344,1.8911326381996645,1.0897770707112093,0.3371250618608714,0.3178020251010237,0.6284777104787076,0.6746744131704577,0.22826144884189542,0.17613527144892122,0.9058739832905395
