,bvp+acc_XAp0,bvp+acc_XAp1,bvp+acc_XAp2,bvp+acc_XCond1,bvp+acc_XCond2,bvp+acc_XDist,bvp+acc_XFuzz1,bvp+acc_XFuzz2,bvp+acc_XK2_1,bvp+acc_XK2_2,bvp+acc_XPermEn,bvp+acc_XSamp0,bvp+acc_XSamp1,bvp+acc_XSamp2,bvp+acc_XSpec
0,3.959279034848024,-3.1415483844444223,-0.6725570857925077,1.1536754623921626,1.1404611530174569,0.6672787785528984,1.382554459386485,1.426508959058638,3.951576928643444,,0.6380535849069913,3.735738151433621,3.701534884326659,inf,0.9398408410167716
1,2.994476935198932,-1.141608302847581,-1.1175211846585533,1.2735705944639686,1.272918445002925,0.7789212933079105,1.7485855361166691,1.77812183659543,2.5004763573431683,2.084213769071509,0.6447042257417027,2.635109576700495,2.280215537591436,1.8870696490323797,0.9457754077165538
2,2.742362028026725,-0.5376275728961044,-1.0448041957771774,1.3162103126100848,1.3009166615186631,0.7202502000353913,2.228730029515002,2.2217812383389313,2.0442776864690426,1.899172602224912,0.6357360191111145,2.2467299972400587,1.8617134893615437,1.5690216797372254,0.9384733238427222
3,3.1379046460429776,-1.0545960153664085,-1.4605698838143772,1.3735793491602004,1.3557782466943626,0.7648009684875471,2.3276125121232183,2.48483782020146,2.409102205453453,1.929890243335947,0.6602640781246099,2.7113891023677246,2.1978936974682437,1.7797832781813394,0.9430646847187389
4,3.386254024988489,-2.007120110497822,-0.7541809183505923,1.387202726081321,1.3407870532411585,0.787143761273875,2.28449347402201,2.2450209658231755,2.302192227352195,2.351704989321172,0.6509067234006624,2.7513057097731672,2.083976696845227,1.818692351587643,0.9495970350071935
5,2.608495360786381,-0.6755186029968097,-0.2543038665942732,1.2298973059380658,1.1943638722657601,0.7680368283799227,1.7898021330420162,1.8105524605219,1.6673779426162083,2.133789091064788,0.6068309995095971,1.9653988256391757,1.3946566126918045,1.371686289346574,0.9498255332661505
6,2.08240078299236,0.7100257914333938,-0.24288700901882665,0.5315576107975252,0.5213187245495561,0.6039743193088916,1.7162644344574973,1.6561853961141633,1.6155405446391469,1.9041442935408832,0.6566669596287297,1.8880501295463412,1.4665817829684933,1.6040436426507103,0.9363714845231497
7,2.242250031641941,-0.011279183189072395,-0.7213981683244051,0.8730794481113289,0.8478900245885921,0.7020141665794372,1.5771295235086693,1.3297586627038946,1.2860996119878008,1.1497814745988362,0.6699045166045591,1.7474874329519516,1.0956191324770987,0.8796744403605672,0.9435828386093417
8,2.303965112505689,-0.15049094041557542,-0.22830388817827307,1.1293695919431068,1.128358813439078,0.6792127166987381,1.6984404389033798,1.9587261029400365,1.6894311593896452,1.9924268841775332,0.6528756675646988,1.8687845124122706,1.4517549662324303,1.2835202130593633,0.9419933174283605
9,2.212205935239545,-0.10404702194143,-0.27786009634643816,1.0635903005123672,1.0544615746255557,0.7341022793658806,1.6460780933303105,1.5164145454803075,1.3235434259798675,1.431424074386509,0.6284777104787076,1.684580607763445,1.141315130948355,1.0911398085398905,0.9492931261598511
10,2.2857343669856163,0.8748907531980272,-1.3071959138806428,0.8330662454060758,0.8175115338213782,0.6825727714370408,1.8233512713987508,2.0022081981181685,2.2906252559224183,3.0501271991432377,0.6713451011121618,2.1414115125170063,1.9377160839002336,1.6936477497259121,0.94431404119332
11,2.3983796055053115,0.8165562369649213,-2.240352669653943,1.0081501427850013,0.991897447926255,0.70912091547631,1.9366540030153792,2.0361958171711905,2.520105694195714,3.3281463458674785,0.6528756675646988,2.2500980669432873,2.288452431703408,2.725879724274174,0.9428941357801809
12,2.171744417603429,0.9158179941365923,-1.3074606652212182,0.8623368957569392,0.8460276975229866,0.6399451825053101,1.7048617432436883,1.8992297483773681,2.03923515309053,2.433574321996668,0.648888643467878,1.9309449111448744,1.8015381804511936,2.1105614503936403,0.9368993135073157
13,2.161857817863628,-0.13028092265130997,-0.5210985076796903,0.8745134173496891,0.8496762971417121,0.707573128128523,1.141519160255672,1.0068424758617698,1.2980750817663373,1.0931966365899024,0.6309483474627791,1.6530415499162323,1.1286551913542764,0.8701010379388958,0.9413739504733815
14,2.026794126904423,0.3360360461005054,0.17505723183324706,0.5773555862014134,0.5679961032547082,0.5704440812114279,0.6877303178830889,0.714845902249817,1.4237802028371118,1.5941854568482192,0.6357360191111145,1.664480918269298,1.2444622252123019,1.3362243084750842,0.9390622445604776
15,2.223274545396678,1.3016719785438466,-1.9763414953731027,0.3548091460899946,0.3408162509008167,0.5539998225241961,0.3784630543152724,0.5508678472138773,2.2470262130701935,2.886272365825658,0.6357360191111145,2.1020053107552856,2.0010436920969616,2.517024203678109,0.9210946826817594
16,1.8076959437803892,1.3693349483585389,-0.6021380396201819,0.11190205689093088,0.1076950650773928,0.44776837059862823,0.4721746849080239,0.6305986790779071,1.9387793453840345,3.0297031395143548,0.6333676938231112,1.7622653940003523,1.7104279893668728,2.564233537817514,0.9548729655738497
17,1.8185667411809288,1.1241343852917687,-0.225827634121039,0.42049627333488615,0.40793918392366774,0.585480647530171,0.8978947559152891,0.9745561196885717,1.8633270051167092,3.107963900643684,0.6233814453054027,1.6693058761440511,1.6356726477775612,2.5691969366632694,0.9485291343857467
18,1.927036898284719,0.7631499446697945,-0.7558516310718979,0.5590766614426212,0.5528626449861062,0.6226563627568448,0.9457780891089924,1.0752942382580986,1.760616698946666,3.8392530841462356,0.62595550513784,1.6834433257445962,1.518903197172394,2.9902826687864263,0.9434993225406851
19,1.8524210516247888,1.1052998648733432,-0.6754555510429388,0.38948855711548286,0.36948125136177706,0.5116787933437645,0.6072195884537788,1.0031196335284114,1.773824040179171,3.381449492499116,0.6153451465759925,1.7391037700022571,1.5360485048092394,2.6685808694752957,0.9125230892858678
20,1.3693214575414154,1.2075580614975723,0.19577380333833005,0.18043082020570633,0.16734481190296563,0.28209630112547185,0.4598560880274131,0.5867856306520352,1.4902741187569393,2.9295511898762943,0.5947193981915972,1.3253874262163692,1.2822143035890352,2.36381285113757,0.9435049526590009
21,1.5034281469427597,0.8544578526559035,-0.7021069255236672,0.33537962677818395,0.32503939719985925,0.4400282912525545,0.5611027209597517,0.6961208877177655,1.4553821423202158,4.137725708384589,0.6309483474627791,1.3467318260524967,1.2429429223143926,3.1759831300073995,0.9478019995631549
22,1.6283701212361945,0.8753863471349896,1.6013336464734351,0.24784845338171907,0.21597723212710768,0.5347856217599746,1.0481518951408473,1.0510325359637596,1.3798209113023547,2.559271574128665,0.5748741956352443,1.5255053441898945,1.2034280678287397,2.1035556966941473,0.951925511195922
23,2.2026021533542943,-0.6039397532525328,0.13117430539554187,0.8940158450504225,0.8772228072720928,0.6831349921743427,1.8998081906245023,1.4702692692628805,1.0311872883026556,1.1404558473571242,0.6333676938231112,1.6231425039352139,0.8397417618182939,0.7501751737932533,0.9423773442178875
24,3.748970039752807,-1.5124028230473798,-0.09378412263567246,1.2031982356571986,1.1920929600837948,0.7212907251500952,1.6825206709700407,1.5688748436445161,0.9483595090979979,0.8997114111574664,0.6468212168108125,2.472846335295634,0.7614251750505403,0.581936392267677,0.945604313676559
25,1.9145876185659736,-0.025563682568270372,0.007574411988482688,1.1150342806365756,1.0961436983288502,0.6975768832978678,1.4743760723366544,1.5613165375231552,1.1361791879348377,1.4233968100077194,0.6403206450210053,4.629918355677286,0.9370049362617183,1.104443208978903,0.9435597296623073
26,5.4750484685436795,-1.2045106630796096,0.0,1.4425957040693145,1.4476322733245939,0.7623038203008511,1.6657448389081315,1.7552608036772475,,,0.6284777104787076,6.725433722188183,inf,,0.9503927449914682
27,3.3360887062418327,-1.1283284526407122,-0.41761533611428936,1.6123542689910784,1.5982747942478097,0.8763861665241832,2.0072209183413845,2.1853571809965766,1.7908179767803827,2.0866442730782633,0.6380535849069913,2.6884109858498615,1.5890554533369627,1.4811242719643716,0.9358145749402057
28,2.5051285958759095,0.17008553972039842,-1.0285845188147755,1.1573531617605086,1.1257027786291236,0.7611422209309845,1.9682264057953185,1.9693093243768238,2.352419500726359,2.721484935740702,0.6180765742263259,2.2427450926380286,2.0468036522090403,1.936232654173248,0.9511386016702216
29,2.3313038323223068,0.5184586442591601,-1.04038498899761,1.1938255018100055,1.1732579472151845,0.7279234978502391,2.0226778100281657,2.3980077147782524,2.250444916386259,2.1678819268158955,0.648888643467878,2.078020329857743,2.071132468859353,1.980297491364789,0.944352127752485
30,2.287178587970262,0.5408501236047036,-1.071355254239547,0.7178697636679969,0.6940818826460259,0.6389949010188389,2.2691035858757598,2.3838974853652077,2.0894285636131658,2.443586275370833,0.6309483474627791,2.073680391244764,1.8613838133300795,1.844879631046921,0.9390588581426219
31,2.192123073107863,0.5746728424807968,-0.32284554846227564,0.45005491594279806,0.42731494575116763,0.5663244452353381,2.0418003891647385,2.1957796562349916,2.1310159793560217,2.623211823022503,0.6403206450210053,2.0149863573480133,1.8959261537961056,2.254905423108641,0.9378758078360243
32,2.135960831736577,1.1032556705607712,-1.121405378166227,0.6779467816913098,0.6597181149326556,0.7114837930633453,1.7357997488436088,1.5205114833290179,2.0475948995586646,2.694273767504932,0.6403206450210053,2.0079274068058393,1.7848321777954888,1.976450695377328,0.9371059094371272
33,2.1208809312130845,2.006604900632868,-2.4649080310857574,0.44840826999493827,0.44056243644608967,0.6671482738953243,1.8440524423309215,2.0732266902752294,2.5263341292714507,3.4421529419904116,0.6447042257417027,2.0934953915737426,2.202557441242503,2.476783128266521,0.9427206955642802
34,2.130143057374856,1.8957375747258163,-1.975390930806891,0.690523259276825,0.6586580496166669,0.7076385745473587,1.6044418435673249,1.7790603171531065,2.3820056667405143,2.782353811484733,0.6284777104787076,2.0709444114258897,2.1773286330889476,2.3886072803319,0.936928791299085
35,2.175553981775431,1.4203497054964678,-0.7051831345528718,0.7884273083303532,0.7601747168597379,0.712758843088774,1.2781920547634038,1.5124206074337894,2.0180615837845215,2.167104129357557,0.6547956803312163,2.0850572804654717,1.771320801550781,1.7891354845159726,0.9457519942401337
36,1.9477571719526057,1.3225705803964027,-1.9660082438341162,0.5527022252188336,0.491392123682195,0.7100519789223326,1.0104423436594614,1.1927725715203192,2.1722811299972613,2.9919348594413884,0.6233814453054027,1.7756236873186513,1.8796060986914591,2.531979338223967,0.9402822467891597
37,1.811347770114389,0.439847994371239,0.6804403354528397,0.689001085938778,0.6689992945732188,0.6379913999238899,1.5668623128860868,1.5541416206089194,1.451299491569702,1.728298258932527,0.5883313578629602,1.6079390363103645,1.1247454457502066,1.079996080035312,0.9422710451582256
38,2.487617363151496,-0.41324547162629766,-0.6249381715551046,1.0396910966655268,1.011726999255052,0.7336129088813218,1.9417631262683348,1.6651237516793707,1.33614829286841,0.8872674588972637,0.6425374456860184,2.0690952496256916,1.208410659693914,0.7355659327737587,0.9398141928356939
39,3.5017731579547715,-1.871318080585384,-0.8610122644318952,1.4848046707800207,1.489865640448433,0.8260704275751025,2.1114369996466946,2.199479304020941,2.4914124426242723,2.0070325716235105,0.6357360191111145,2.852690690928476,2.2933825740628837,1.761682013990777,0.9371342687258433
40,3.6392700514681806,-2.4844231191601254,-0.5385868786075299,1.201219941246066,1.1961597553579149,0.7499691376126868,2.136932191624249,2.2218184933540464,2.9838596541458577,3.058765437798102,0.6309483474627791,3.1543373037306295,2.802189192016072,2.7429882524634905,0.9419927935411445
41,3.3664715443840785,-1.5969380502420785,-1.232973214010367,1.1063267403032369,1.1007836825812283,0.7038236769276563,2.235967541174503,2.331693660518983,2.922398767707328,2.618658311486533,0.6207552362147116,2.808607456093525,2.6935956451643066,2.121172214136309,0.9344707037584449
42,3.188560309983298,-1.6527289877946587,-0.6764312287724176,1.2474159342140372,1.2531361871036975,0.7556999266959069,1.8803903764473693,1.7032732674050748,1.5242861500403022,1.2489388392726974,0.6233814453054027,2.414386056972882,1.374436514669107,0.9316337698038988,0.9454558147799117
43,2.9556847771247114,-0.7294631983563389,-0.9607198077107588,1.1384880381156615,1.1157391667703964,0.7281342562872678,2.1069217463408507,2.10932371434516,2.503779547374441,2.6543360625634698,0.6528756675646988,2.4294088733025783,2.15161085245323,1.8026647027103173,0.9513256057764133
44,2.907766539524138,-0.9844893597904505,-0.3531748818818061,1.3773235411694378,1.3721272268536722,0.7902900552173071,1.7373423779448098,1.8720302693003315,1.8858170909536167,2.1179979594973926,0.6528756675646988,2.148624907500157,1.6087713409672448,1.4256102715696406,0.9333720947269327
45,2.572894516151466,-0.2362826973180412,-0.5629576634446827,1.313004516742992,1.281933699580368,0.8021251050002242,1.9931822871620652,2.15682781847277,2.1668822604208526,2.2657751177521113,0.6233814453054027,2.19084497037218,1.9569003685770354,1.8217403014399907,0.9422691075032101
46,2.9073586488445504,-0.1972817502830475,-1.9239613875919865,1.1265091200474455,1.1103004085940913,0.7330195603116143,1.7945199556270204,1.7984578639470408,2.6612851300185363,3.5915249120752413,0.6233814453054027,2.433326729814821,2.453617091938885,2.9652730660692823,0.9403591370262441
47,2.512000400406103,-0.08218008145291034,-1.085743334066228,0.8108644111775052,0.7948686313760098,0.6586255421472191,1.6691963898564801,1.6079953494229715,1.9699747726903414,2.1686656097531563,0.6619902821573977,2.0351907654889865,1.7669818190084814,1.6573573756342883,0.9479457613967556
48,2.220349623131355,0.4973052445910664,-0.8294463686536546,0.592997938501332,0.5785526472718011,0.6516401511459149,1.8099758823995638,1.9042348135963783,2.017691670082724,1.7805094013555138,0.6233814453054027,2.0469098166773514,1.8084178450742496,1.5001481186363845,0.9420884164505186
49,2.2084901144772733,1.3280007596822907,-1.945577054264342,1.2005889145933144,1.2099822487233562,0.730754436111506,1.9936900605694727,1.8727037694881188,2.257886543168988,1.7219153998745047,0.6284777104787076,2.081666236701947,1.9811796584607826,1.4839328306838067,0.9388771227361085
50,2.3803360967826115,1.676542484663066,-1.8977412803060583,0.9590815625452167,0.9157879517629238,0.6595001493863112,1.9772470850969832,2.1158845779921664,2.748255984470031,1.7599233221859487,0.6699045166045591,2.342712884084825,2.548658989184613,1.7040087206705465,0.9380523240213801
51,2.1057224011181663,1.2613105266214921,-1.360645536238519,0.6377458094984643,0.6231975078123674,0.6754977755683763,1.7226602725748419,2.1139035560675117,2.469032651164608,4.652958197501597,0.5748741956352443,1.969611031350558,2.0855128177182616,2.355228826479468,0.9482072832468645
52,2.1376727711572263,1.3172020591122542,-1.3560231929768989,0.6847935937376157,0.6608723416815655,0.6716840852685552,1.7900199818410396,2.1499622590715886,2.6373252599534163,3.9053228316575823,0.62595550513784,2.0183255373435944,2.226067021122165,2.4718245086174986,0.9474484399312383
53,2.054005457004225,0.6026430726660983,0.5471413814898036,1.055990740507649,1.0328851063400364,0.7510309111475142,1.8794800828780764,2.2964571249265218,1.7578413764900964,2.540631278338019,0.6153451465759925,1.8753584931043688,1.5487663932014915,2.2404368751970596,0.9401963744396793
54,1.785665211527468,1.046419859270349,0.41380234629826473,0.888349963758528,0.8723421270512355,0.7302556089628088,1.528997172954191,1.9032892871662213,1.9408256261197352,2.223009858710144,0.62595550513784,1.8737652135089173,1.656402549450198,1.4574022582061443,0.9350290889002508
55,2.276323600909145,1.9004540761774296,-3.3824508747828523,0.6377197248319497,0.594535726564393,0.6367167329019006,1.8020530617922612,2.029205403556336,2.9748254605832174,2.9870300971127537,0.6207552362147116,2.2134555904466366,2.7033858243632585,2.729523418808945,0.943399269847092
56,2.097866028343301,1.4631878881231761,-2.8919317027240696,0.5589141046111537,0.5312923942647572,0.6151981299451608,1.7481562155424966,2.021640566227089,2.5356592694919984,4.4550194570852675,0.6309483474627791,2.005612973635172,2.263878941632883,3.6117125094281857,0.9325603565144867
57,2.0666345081703352,2.458201020298628,-4.042245698918085,0.3145290872414563,0.29625610623042653,0.5573188642979496,1.3947267651756663,1.687864627204434,3.2300119757688335,4.501959111836683,0.6866242695638369,2.052777972971191,2.8655820450158935,3.398162477967001,0.9304345114540862
58,1.6600146374558682,1.1804336005596074,1.083182585444205,0.37943480340877395,0.3592555262617629,0.6208505553214841,1.235928758991232,1.302370313378286,1.813350943437482,1.9279813236224859,0.6602640781246099,1.577508674862157,1.5838847145926813,1.5092046018557081,0.946060345073515
59,2.1557738882086612,1.3347239047617898,0.6282114446378206,0.5595438833311814,0.5381530515454804,0.7288670584845872,1.9300336369748745,2.2613060228310733,1.9509167328871455,1.8495978165950622,0.6403206450210053,2.0924142129838743,1.8856298935420657,1.6518685195638056,0.9408828146198779
60,2.1803159836755412,1.621067375064941,-2.067786742689294,0.5915350497095963,0.5680888498432866,0.7016998150752998,2.1033513915964424,3.0226815296298333,2.3206241234590808,2.673924214350739,0.6309483474627791,2.1655321306037294,2.1798411864221166,2.5848548178083495,0.9310833826334836
61,2.1190934364230474,1.2868009568593761,-2.550414209019787,0.599313404413441,0.5668369187476742,0.7132210057906545,1.8358470787017922,2.205293923902545,2.028766707410423,4.869768605418784,0.6233814453054027,2.010745010393601,1.8268922836761492,3.6579046498145056,0.9344341747620019
62,2.0849495101560116,1.1432071588015416,-0.46510324378330914,0.4406373799508155,0.442578356955559,0.5924147422406353,1.7687076239386257,1.988929970074204,1.9349527970156877,2.553747206475519,0.6425374456860184,1.9855060436914773,1.692323574235874,1.8689491079191851,0.9378028758293142
63,2.3290419363286827,1.5501030401209053,0.23448738061521102,0.32870322302979116,0.30698318032201033,0.6067999896451214,2.2447884938293687,1.8318989398003,2.025286814866384,1.9105643772077847,0.6566669596287297,2.310841304123187,1.834095044214974,1.5456008995680195,0.933338575501188
64,2.038741259610181,1.4187196263428627,-2.1915830711910456,0.46792360182369896,0.43854078060777824,0.7069791572894416,1.8765994470373144,2.3430925667885387,2.0353242014521338,3.962411798641709,0.6425374456860184,1.9307150701172393,1.840097766759383,3.3462926712873884,0.9359949283739073
65,1.9712479419970672,0.6360480641856749,-0.039298754781715406,0.8234670154062546,0.8191173724812023,0.7067657408469121,1.7441804472160851,1.4618045291903146,1.4194717938130732,1.468855284072972,0.6403206450210053,1.8038995291222237,1.2822438332923,1.3229119446472772,0.9352969373000568
66,2.298167557896666,0.43058648075495753,-0.4168381523243756,0.8125040534350754,0.8158532888859372,0.6588404716419551,1.965327612113682,2.0281947972679806,1.915392779179265,1.8420347032394284,0.6357360191111145,2.103370001864595,1.6968135218080156,1.6310305163418577,0.9415434037840693
67,2.4611658608061853,-0.5049599837618688,-0.08623627313965287,1.1289923284014571,1.109804685557243,0.7523880048877486,2.191851749304204,2.1880815269297935,1.794164381271345,2.0885062766472093,0.6333676938231112,2.0476845100666443,1.486282649560218,1.4043474728897674,0.9390114053161319
68,2.4946796738339985,-0.23856112924467365,-0.44134323796030706,1.2023980426065446,1.171537605311103,0.8169977604303545,2.314288349784208,2.3232895250388634,2.1643386998355165,2.1692121214988425,0.6403206450210053,2.140655225848325,1.9087159707310446,1.6848704855615402,0.9394700582760166
69,2.2442601544369682,0.36547412319144534,-0.749991620774878,0.9074354245651722,0.8880142541993941,0.7179724047071885,2.1283181093932764,2.310349036384322,1.9993143116352825,2.796660207135971,0.62595550513784,2.076423877190515,1.782058361309601,2.0078191656538595,0.9401102604171337
70,2.151740257626945,0.7192939554787368,-0.6206255407539167,0.7464334429703918,0.7252182095357829,0.6780453407980815,2.2389713099713004,2.6192294769370013,2.3140677464401596,2.102467548174473,0.62595550513784,2.000917935975602,2.0288881051089276,2.059638914383656,0.9277228185901857
71,1.925586928592266,0.8458573506525915,0.3665774768219423,0.7303775360667544,0.7280853603296189,0.6748180823040968,2.1167644533099668,2.078787629646297,1.769271832177395,1.9803224845022493,0.62595550513784,1.77529574319739,1.5940800261418093,1.757793341013008,0.933721112508475
72,2.177716176211886,1.2606597324284317,-0.536684302955956,0.7472371462540225,0.7108028139368374,0.6963891978810232,1.9581108301134083,2.4504335248437084,2.2141873094447577,1.7091503322721664,0.6038851895711802,2.041503702339444,1.9490816255918044,1.3887011011504555,0.942259850082222
73,2.1478705822852837,1.6596062321902654,-0.009146955006750446,0.6735011891514563,0.6449563035472359,0.6466440112578661,2.331195732452291,2.6042788181812417,2.498232181252675,2.0060499934105995,0.6403206450210053,2.0696232327424977,2.1678221731202765,1.7902221899091686,0.9461288264547673
74,2.2679183070915956,0.2370360271160723,-0.048209754719135134,0.8811175413491478,0.8400591592984259,0.7033668466195767,1.9826554934698952,2.059505941714151,1.5099012693482705,1.4625630126922518,0.6619902821573977,1.9760028715847082,1.3538045139907742,1.2129097857660591,0.9352378276264843
75,2.279723118244023,0.27937062715040684,0.17890262036957072,0.8870040748010984,0.8801775143638377,0.6386600294625226,1.7096305977285182,2.291371719176717,2.1244710582457453,2.561321382727943,0.6125606311107803,1.8800807947348195,1.8390287980276387,1.8803128665695,0.9492253243616052
76,2.025479509824406,1.0634613095190901,0.3633818986719195,0.3455249753661921,0.34019418371004406,0.5141706086932804,1.756545438640115,2.098615562163776,2.0566308407415894,1.8095789126318096,0.6207552362147116,1.8860701486992963,1.8487369039705952,1.6938721317413887,0.9401338985555499
77,2.2976359365749395,0.3442785050033459,-0.5319800737185947,1.003432594349909,0.98727413956867,0.757839227679014,2.1570904846758823,2.3653341932386267,2.026976177148087,3.3064936032697045,0.6468212168108125,2.0533840073605463,1.7946214459441558,1.910585257846494,0.9438113809459073
78,2.357435565152852,0.4588610956811796,-0.4339334857944155,0.9307548898715469,0.8928010438667091,0.7510759669609921,2.025708753787608,2.140601995556144,2.0777823531260182,2.118897945415505,0.6180765742263259,2.0500121976558328,1.8504116719289616,1.8066975063369215,0.9375680503844643
79,2.248719730540989,1.4272333864446756,-2.1319517376159087,1.1132784230976156,1.0889204476577579,0.7792181269845697,1.7016366217387637,1.953793732557694,2.4840192513916755,3.113808170930781,0.6528756675646988,2.158773390961967,2.2161672973224293,2.5000247678747503,0.9343323748864366
80,2.0599710830510727,1.3477358147037242,-0.20674966404367856,0.6838819458658627,0.6771471467101722,0.7202409190124847,1.4674262958043607,1.4671493123414152,1.8731646186891278,1.9015817737806877,0.6584896970785714,1.9358608132023118,1.6294253569927384,1.5233106653709172,0.9385175545533077
81,2.158523590204849,0.27978460256329973,-0.29264692511940904,1.1043659360862932,1.1049651783117784,0.7840171857272348,2.1377583458769647,1.8629032661125389,1.6601399163031214,1.6490852363992694,0.6403206450210053,1.8177612717670557,1.4148191446022584,1.127467311585792,0.9578048358774574
82,2.8632653621660333,-1.0132391322355092,-0.4320436435016378,1.4417655444235395,1.4278592633728302,0.8521129597851563,2.0340562561039817,1.9837838510088726,1.5823328768951275,1.6022140413486083,0.6403206450210053,2.2642194461604976,1.3390941196237918,1.0449961128644194,0.9446478947307858
83,2.4996700313740097,-0.9347422862457644,0.108421874083928,1.2158693812639692,1.2077378124095286,0.7490313784925735,1.6203663339248624,1.696830389952475,1.3464102688890265,1.3729693772835698,0.6528756675646988,1.6735617047687368,1.0538412248492883,0.982132849421572,0.9453654574558382
84,1.9249812349600517,1.1182699459218595,0.5400175585144535,0.40447043024719037,0.38678803095262887,0.5461983862016533,1.0535397188736852,1.2106938236324298,1.997426736032062,1.911939832212104,0.62595550513784,1.7547206217930686,1.7222784732853686,1.4173357433216578,0.9435786253715938
85,1.9890254749634746,1.926042855803594,-3.3721996081825956,0.4281906701541713,0.39938833636570403,0.5723635406118078,1.486819380382378,2.0681896784745444,2.747153042638195,3.3501969489950114,0.6207552362147116,1.895639599715447,2.4176905036722,2.999890283702655,0.9392743447559735
86,1.9484860055177682,1.6322779308843653,-3.0488027962271538,0.42992536522985864,0.4056561417726956,0.5633757010229032,1.314925052050877,1.7807914519849006,2.597812460319366,3.729976888600053,0.6584896970785714,1.8883437937434449,2.289382377417707,3.317815772723104,0.9464368310588271
87,2.441337350725558,2.5873561156209046,-4.835390657070579,0.2415578128774342,0.22950028015138677,0.6584055461017173,1.1799674784218301,1.631574827656827,3.1130053152686217,3.9110208527722197,0.6180765742263259,2.424250655914654,2.843429741171493,3.5749351947647185,0.9272575865405045
88,1.9822458041872497,1.723335276825076,0.7141834578029838,0.1405401224257846,0.13732237433350844,0.512787638696229,1.0475489500855895,1.259152731267827,2.0886320505344114,1.6709083543826309,0.62595550513784,1.9578927658254852,1.7905008158208588,1.1899210508702855,0.9388011946343923
89,2.121800517142924,2.4638445218011884,-1.8013349009347461,0.18880655353635273,0.17854830864501678,0.6587713840599949,1.3108838128797677,1.7621605555960758,2.8198557344668487,3.028562938540062,0.6207552362147116,2.1117810955187517,2.501197272917151,1.7707060600302227,0.9044001430969897
90,1.7392421276639134,2.039726359538369,-1.2392144571530936,0.19830345283664919,0.17028119336652806,0.5269567017535473,1.153742687791789,1.3563348719406094,2.4566512466124237,2.77507913984833,0.6153451465759925,1.6851197720718485,2.17599890349453,1.9260454080288736,0.9464715716368637
91,2.0001946756893845,2.266742766470592,-3.4286394812901246,0.18880655353635273,0.1717907507923232,0.49264908590948897,0.8260235683537935,1.3704454218411906,2.7735198743984677,3.919882982988912,0.6357360191111145,1.9927339145212193,2.56364610729744,3.0669952935754816,0.9334995001195514
92,2.390414851002965,-0.8245803368848068,-1.565834514118158,0.9797409267214982,0.9715121209737497,0.7560891272083283,1.208968044332093,2.1931561194225586,4.529419251927529,,0.6180765742263259,2.3828315251217034,4.083091001581394,inf,0.9068176968852838
93,2.2676346579343627,-2.065142558191165,-0.18337433636566264,0.11539037784936122,0.10565046856132954,0.5641890370397744,1.1849135186428885,2.1452474150852052,5.891954261975022,,0.6468212168108125,2.2508363467848684,5.755531220865378,3.4011973816621555,0.9263221845290118
94,2.541916354011364,2.563399168725825,-4.878074016557562,0.122888179777612,0.10699157764761909,0.6968186007085155,1.2662380580968275,2.2090855638342295,2.917561303387375,4.832223742643753,0.663668482632973,2.5457896383115717,2.7436781129594823,3.720201925242977,0.8968739498309378
95,2.453398081378298,1.3744938200175025,-3.8278919013958004,1.59511600017857,1.5830445365097219,0.7765089825129532,1.3586343713325852,2.588897355567792,3.150451559370987,,0.6333676938231112,2.4513429329498595,2.977336251461421,inf,0.9186526538054456
96,2.161292719580516,0.6990383815877728,-2.8340090287254855,0.106969059718312,0.0720919888732068,0.6369465627502515,1.631632024269663,2.169286852456959,4.330324546086052,,0.5748741956352443,2.157907714959269,3.992161862325352,5.2574953720277815,0.8845092757760559
97,2.103906225049743,3.0614868772030586,-5.036660480487261,0.17755399948118852,0.1719367674096912,0.4909278073268385,1.691077546002415,2.36923794817764,3.6870114942929457,4.529477140730576,0.6233814453054027,2.079086049319178,3.364899556374778,4.171819874390391,0.9414966211717966
98,2.5715605322047863,-2.203288615139937,-0.30629481148390203,0.13591914122205162,0.12362436397137344,0.46248745461544477,1.2983742962836646,2.3676262894867968,5.429225226969571,3.3944972078915914,0.6153451465759925,2.570464538149647,5.075900295469193,3.7612001156935624,0.9415584107572423
99,2.8853267598768877,-2.782702078638078,-0.09300692537255348,0.06236667603779547,0.05044601186146281,0.44734782490545527,1.3593528230909946,3.099972937890375,6.907059548128656,,0.6068309995095971,2.884389686218617,6.73141579386573,inf,0.9063740051107697
100,2.6217703993035943,-2.6217703993035943,0.0,1.2314261062501632,1.211468987981068,0.8734262645763814,1.3699726069429004,3.4009749225708727,,,0.5490601803369085,2.598150005402352,inf,,0.8589801211475834
101,2.5977888200305883,-2.5596587626834935,-0.01901229396955998,1.3024390573881104,1.2572874397372886,0.7098121787834936,1.3580372881398621,2.66140851794803,8.117324641652433,0.6864470067893814,0.6153451465759925,2.590415324568996,8.12400244418346,0.6931471805599453,0.8760716796612354
102,2.3073109306872825,0.5699720154734211,-2.1468525918850396,0.14228428290499973,0.128363200231643,0.4910300273114788,0.9682836694274161,1.4492670532342307,3.685500170241572,3.8088119312767383,0.6008849035917525,2.290436959058398,3.364555351428371,2.1416547261814087,0.9311282862195231
103,1.9411629350383515,1.6691798199122017,-3.3367309731820787,0.30787986367719256,0.298870160290014,0.552776825872872,1.8883473651243843,2.2292259523871785,3.94781623071507,3.4511925515681368,0.6068309995095971,1.915736649047766,3.549028925137935,3.109586031070485,0.925821467383048
104,2.2961933607721403,2.5927924353851166,-2.969555480534525,0.3206567574142602,0.2995784343983741,0.6941897158966386,1.8180650184075329,2.6969903807836917,3.1338542074280773,1.9857299909196422,0.6403206450210053,2.2856187280988145,2.8777793205498514,1.6389967146756448,0.9072952250121794
105,1.9938319710607113,1.2332209181788938,0.8376240963538719,0.5717178867083138,0.5627470375919068,0.594117846408179,1.8462490065274322,1.8849360355919746,2.0593921402556337,2.0001936506399236,0.6566669596287297,1.8792800667575502,1.8056073660868486,1.785141311385577,0.9355501312265149
106,1.767352914738385,0.23408941298774533,-0.36071317236622513,0.8539796469443044,0.8146407052216142,0.7018553987075068,1.4471726394656699,0.9792617261187762,1.05764100813853,0.6548492431603223,0.6233814453054027,1.4838826894907549,0.8664930673396393,0.45804741841860314,0.9459301501223824
107,1.7027836628891209,0.9959265413276244,-0.7530062727407154,0.4558682490996651,0.4357337636065104,0.5175230082213264,1.4110087472301587,1.4890027653533915,1.5616298824795958,0.502155006008128,0.6566669596287297,1.7136262758247127,1.421623525531668,0.21177510141738173,0.9014689112981151
108,2.25555290785359,2.8114822506546404,-3.453624525102452,0.10060391803536387,0.0913366342927248,0.38805695059826645,1.8639909348215724,3.113418183499367,3.5381597298155834,5.613700691946586,0.6125606311107803,2.2423265512486394,3.265341044481271,1.4690805547391779,0.9270191364292255
109,2.479442157023112,-2.416300481807576,-0.054876868025458575,0.11826719857387902,0.09376108147171365,0.5041905984219268,2.492591189172363,5.318116420516295,7.5372574013698,,0.6468212168108125,2.477335384291682,7.543935203900829,inf,0.8852108473796466
110,2.4525309691676904,-0.05768593348243911,-2.3757272723077163,0.10060391803536387,0.09030872996945218,0.6727563978736609,1.648435692369058,2.6375910989766043,4.151308362324027,4.797320870962692,0.5978297680564633,2.445557739724089,4.094472759132731,4.867534450455582,0.9404591558735841
111,2.798383652378959,-2.6672578365531754,-0.13112581582578378,0.18880655353635273,0.1602690687518629,0.742887686867206,1.8910637356478002,3.030458806086909,5.718358678485998,,0.6333676938231112,2.7921567103992095,5.570885801189769,inf,0.8898236756784511
112,2.158265992109647,2.6754692162648,-4.637473123652505,0.32743650467680574,0.3092106824949673,0.6967932295496996,1.440367974155472,2.0747299778084463,2.9396628601979606,4.362747678696458,0.6068309995095971,2.1458662850610772,2.830367582317846,3.7922737523182204,0.9266151070371736
113,2.4401812170018693,-2.0654462956489383,-0.27987467134132327,0.2823362895129905,0.26344603723251275,0.5954538766952494,1.2999352034516076,2.529486601373808,4.983754784247707,3.289136692233765,0.6038851895711802,2.4281483159693913,4.548599834499697,2.4849066497880004,0.8698946649351519
114,2.25918697172216,2.1064165478263064,0.2951604883617316,0.10060391803536387,0.09533005945962349,0.4790922184416042,1.4888857575731862,1.8040098404867138,2.395365309237278,1.0966124760778775,0.5915533975974677,2.2567622900524156,2.178196407958233,0.6645078097922228,0.9103171290128551
115,2.2309557736109746,-2.1751525945181376,-0.03349362135672737,0.08929447972312814,0.05236556515402719,0.5601483596263971,1.9625234659163318,3.0875426441678924,8.063290346528813,,0.62595550513784,2.238984511584451,7.78228607660806,inf,0.8877181081581897
116,2.327373536202697,-2.067629670163691,-0.23647013067697917,0.08929447972312814,0.08212895005390365,0.4414216560706066,1.338108083012196,2.414764372671948,6.366300631862604,,0.6584896970785714,2.326536313816559,5.902974805147897,inf,0.883007151670272
117,2.400491598417122,-2.314319897633632,-0.05105066008317345,0.14516110362951756,0.12122564775371494,0.6315437129611803,1.8971106314869033,3.2946892024929415,5.7460169289630905,3.251396364250918,0.5978297680564633,2.3967736797968002,5.609593887853447,3.4011973816621555,0.912844325962007
118,1.174627202105126,0.877347127332849,0.4607894500467218,0.6273638268754517,0.6239565123395104,0.31813662151560806,1.404897871259539,1.5318872520178999,1.0265964034792903,1.2694619820073227,0.6333676938231112,1.088101059042462,0.8730242558193315,0.7746387248079322,0.9453104172072473
119,1.7412144346428917,0.8544340151475298,0.8660600350227745,0.6140480890479704,0.5201321514300616,0.5670306592549397,1.121381991614879,1.4887374918686695,1.946887837789715,2.3347494435929437,0.6309483474627791,1.5141277326297755,1.7133964931924663,1.7076944289892597,0.9503450420815606
120,1.9456388034821246,2.9778944705730535,-4.369093442818469,0.47695113961655117,0.4817207839963514,0.5229039288286056,1.0842024525243272,1.7640448318774549,3.5140015518961207,4.544541670191972,0.6125606311107803,1.949349389802826,3.2970082378144996,2.760009940032921,0.9397797330055396
121,1.9533213274692607,1.3845465958599072,-0.0028993565519637166,0.4216659301515354,0.3978974117921095,0.5648268246112746,1.600058541333114,1.8058500691176744,2.1203425161319416,2.1297003998325,0.6097226960127671,1.8018098050815563,1.847421676739935,1.4057040711713444,0.9329301713207571
122,1.219530079802893,1.2732223997171814,-0.7656766601864973,0.4157786120086961,0.3982253426798715,0.42995576327268875,0.573708079960967,0.8665337767510379,1.6960506362458017,2.3679922019481427,0.6652988471865258,1.25250189146783,1.4342761743588401,1.7863896735571736,0.8969051353765157
123,2.3935260176801405,-0.239495278740804,-1.771675471388638,1.642446354276391,1.6280457631856942,0.7907960161687098,0.30189023363233325,0.6136727534233527,4.415079322097764,3.2021253152441354,0.6309483474627791,2.3906879745490186,4.134075052177013,1.8870696490323797,0.9132611846251317
124,2.363274843724868,2.4156166730669377,-3.727414531027385,1.7142091760496838,1.6919168105009754,0.9079288802778378,0.2531813941518076,0.49258491742602956,2.653087157411719,2.883671584125601,0.6468212168108125,2.360920670007009,2.3796874868761866,2.6596236071967354,0.914808269335173
125,2.341776001510747,1.9834505314251634,0.7941340679521325,0.8478864957623101,0.8363054626344258,0.8486544108973118,0.2520646351824498,0.4861183607165824,2.076229947125293,1.5889444165312006,0.6699045166045591,2.3399408795378145,1.960198595663883,1.2903143141475004,0.933000519042017
126,2.187476769925493,1.942152644987598,-3.502991663817138,0.106969059718312,0.10309807830963598,0.4510740373661683,0.3664988418589179,0.5271949240465421,2.9087679798279837,2.9304527986649433,0.6566669596287297,2.1876703645314075,2.3354079327382116,2.8414353842082325,0.9188040663693547
127,1.5091896496061357,0.20747817770595267,0.6222868399739223,0.5073281719411948,0.4835953275888658,0.5447458105224497,0.8281438948018777,0.642206117000239,0.9279839872359571,0.8755677638646934,0.6380535849069913,1.3010957372860168,0.7832466829935302,0.7616297503199333,0.9441930652684255
128,1.2320719029385527,0.17053043996121908,0.13458798123976878,0.6483854318862075,0.6454892441993199,0.34032167184244105,0.7859971383824857,0.7018880831861121,0.7455191186864346,0.8498681749594248,0.6180765742263259,0.9681104806039514,0.5614898734034084,0.457768566341585,0.9568153540231142
129,1.1381780760401692,0.7144304981459213,0.6821764656085076,0.15530386776307528,0.14741818934610584,0.21514807043892165,0.4143776750051072,0.4706008821759624,1.0658627301789922,0.9317834097537574,0.6380535849069913,1.0866178438197416,0.8344154277801947,0.7534209800737581,0.9476056298322274
130,1.4386822616224029,1.2616939364963977,1.1786569195009826,0.15643652800837793,0.13300112884241225,0.3077767369271868,0.12165391059189627,0.1828083232230015,1.6308006274687146,1.6787606934269312,0.6652988471865258,1.4125927066540958,1.3703606544747986,1.3093931984305334,0.9217656637688024
131,2.539240561724664,1.5392072387126077,-2.8221672658154255,0.7773488402781328,0.7661845747486948,0.625560568875713,0.07534667265915843,0.126981084239184,2.315198745953987,2.9473873985117085,0.6097226960127671,2.4940146688187275,2.102305901892381,2.534578259585238,0.8989559872629578
132,2.6859279255576523,1.4147453905138976,-3.476765116363501,1.3495877841869142,1.344371224101798,0.8064387736255516,0.08030949905553297,0.126662694710805,2.6295122497859538,3.0190129319953627,0.6652988471865258,2.6101675753003426,2.425785526780203,2.7880929087757464,0.8872077816419214
133,2.8474501292121714,1.081979784004719,-3.7620220373194786,1.3895809574746123,1.3774980710047275,0.846487906570168,0.07601229821132903,0.1322723953961516,2.8167428878221803,4.699822506477815,0.6207552362147116,2.779009290042704,2.5741163130003275,3.6565440734709997,0.864796278260311
134,2.502908576063118,1.437974350808025,-3.6349987128305843,1.151761904740943,1.1272194325542673,0.7886298829139361,0.09320172791676182,0.1653045677623683,3.058422858849286,3.6681930383686328,0.648888643467878,2.4703464984566708,2.8257511113530533,3.338878617262897,0.8567650482533398
135,1.1015338296441775,0.9928742667156945,1.4232848649818126,0.08929447972312814,0.07763496176407172,0.17192339658585754,0.2015667589372268,0.22225228620145254,1.3052868548956913,1.8082638839649146,0.6125606311107803,1.0683417656498624,1.06647155156496,1.416432060690992,0.9758244216866011
136,1.490553255950957,1.5629752635517533,1.0377658048842573,0.08467349851939517,0.07594620450874676,0.2664748097001932,0.23139166799122898,0.4092436310088985,1.7746729470106075,3.2543734429606026,0.663668482632973,1.5053281786779267,1.6029508637372014,2.3857829012590037,0.9294740881024565
137,2.3914044433648254,2.1347205481823828,-2.8912987596268156,1.5451800582478736,1.5299338584370967,0.8298353278965346,0.16437598261281197,0.2965451972466153,2.310007177537602,2.3214804664124453,0.6309483474627791,2.3682501743883226,2.103944328908969,1.9937280234058061,0.8828309319880624
138,1.5985356567337259,1.145321204179143,1.2478044592625146,0.11826719857387902,0.10907611958982508,0.40118858170798954,0.2903345745793723,0.34131719195827626,1.3767870866826541,1.6260457419132843,0.6528756675646988,1.5900711099432503,1.17050121041807,1.2984050980234891,0.9443396551480411
139,1.4936188995837278,0.9029871871120547,0.9240068614922894,0.18880655353635273,0.18276796607427917,0.32843261810101443,0.3969935996637524,0.4104185095281161,1.256621131339445,1.3890934671796513,0.6333676938231112,1.4399295769525222,1.050995145161041,1.0806656454772727,0.957426868855964
140,1.6729206584930283,1.08965062755892,1.273303724822901,0.3044818829412846,0.2848030246067716,0.4537117510493652,0.18903820778972166,0.20475404022645027,1.5598536368000169,2.0242091442039216,0.6038851895711802,1.531602767841026,1.34073262756904,1.6766645191109708,0.9475620458872426
141,1.7456710503471282,1.3595426098256096,0.6534065451431164,0.19517169521930086,0.18715037992433703,0.43378725315825306,0.2175887523574116,0.28017412099454764,1.6330608399593385,1.0928410513322047,0.6233814453054027,1.687279340997536,1.4249867488124064,0.9941510536464274,0.9387795450155784
142,1.8763332593370035,1.66906255937965,-0.13479692640622654,0.08929447972312814,0.07168299595399012,0.3500647382880242,0.1375572072203278,0.20204520122121883,1.7315390108363466,1.4496130045511495,0.6333676938231112,1.7881659337179248,1.5544481238453332,1.1784192492186338,0.9507766774275038
143,1.6850213555628306,1.1311506168722647,1.0577330310062942,0.20815691547802764,0.19478675189279737,0.42064149739337664,0.4515958160833173,0.5056640598915902,1.5474549550333798,1.627792354120975,0.6097226960127671,1.6109390385603677,1.2738483410418966,1.2042380211422365,0.9550002173395687
144,2.1211464416779773,2.085029730284484,-3.962622035154189,0.14516110362951756,0.13112780685033626,0.6321159579477554,0.30984845928545923,0.5136336006441087,2.435395172634569,6.851864861020801,0.6528756675646988,2.106926939355439,2.168939499490052,4.646791860678911,0.8753661478697458
145,2.2715467233106073,2.0441904768062478,-4.315737200116855,0.07830835683644703,0.058595386169482594,0.63648385074653,0.41551214594521496,0.6792973585732394,3.821537245625025,,0.6284777104787076,2.261229907312132,3.449241555494866,inf,0.9387227158559175
146,1.4195593011305283,1.023408617671147,0.8789568352204888,0.15818068848759306,0.1526908393593596,0.3790605147453441,0.5667309526909868,0.6170247636727784,1.3121772135176042,1.4426355777073836,0.6333676938231112,1.3880291984136073,1.1243171671331749,1.0852714972888295,0.9517926600542976
147,0.8581108174256109,0.40217874057479897,0.5393505574342288,0.22226326193366597,0.2051547261579797,0.21727232499556665,0.2008973570004399,0.19366863148032784,0.7652333206508217,1.0072023226933133,0.62595550513784,0.7481432281175638,0.5407421471321207,0.5682307274563775,0.9475514677396797
148,1.3414365501789363,1.2222464451162485,1.1965213090519256,0.06236667603779547,0.051182058254195646,0.1301464544226185,0.11888780518121296,0.18195570002492237,1.3975117506043728,1.464969323586812,0.648888643467878,1.3327746581314501,1.195874914604469,1.2354324694992822,0.928441699168349
149,1.730491793750233,1.286530766087541,0.9432897769332609,0.10060391803536387,0.08815915322151485,0.3722431274202916,0.20825782893294625,0.2423949791350502,1.602938347137301,2.2370444192005485,0.6180765742263259,1.6764684248933204,1.3545456628053103,1.7275663115889952,0.9663263079764214
150,2.1361715048876206,1.9378399191027413,0.05817920260444609,0.1330423204975338,0.10889507585678444,0.512502539941477,0.2137844445173273,0.36122652993683235,2.327544375406199,2.3931274667788607,0.6097226960127671,2.1302203485557456,2.0613695981051907,1.8043289507964262,0.905526007961526
151,1.3580118135759651,1.1783604651104322,1.2053945680538671,0.08467349851939515,0.08506511968103724,0.25422840301387023,0.23067462489266127,0.3097593686725832,1.5167874604051454,1.8327304630732806,0.5748741956352443,1.3488701324738914,1.2421380481966544,1.2292462626192409,0.9610819251764757
152,1.819218012527027,1.7682627968182925,1.6213723440549788,0.08929447972312814,0.07539888360972265,0.4288652677778069,0.09588992376139663,0.1618204847229399,1.9126766905820454,2.0718010763496304,0.6357360191111145,1.8262128972974343,1.8221646135071723,1.9185457811343973,0.9047412142550241
153,2.1477957992970906,2.1661337907846847,-4.084516429551356,0.11826719857387902,0.11133827785649132,0.7339240997254792,0.0859232254006574,0.15578926752356137,2.168987926176485,5.131616099272039,0.6125606311107803,2.1476727985069717,2.168982328725447,4.606003172291984,0.9429788686710938
154,2.0584096351064254,1.7483749120563208,-3.1133832856951615,0.33092543875880104,0.32816765788220525,0.5245632328318073,0.19895447435362354,0.3041045673283144,2.47494874073384,3.92305934251629,0.6309483474627791,2.0517399105942387,1.7425000591775242,3.8291353456223782,0.9450090251361466
155,2.2487272475046853,2.192801373709741,-3.466749199086612,0.6288760218834227,0.5885493138601691,0.7659297860089272,0.1692566822346298,0.2961637669911607,2.4981190057361906,2.7064651279984164,0.6125606311107803,2.2383591206947746,2.2126603854660587,2.5745188084776873,0.9183601765388937
156,1.940497648799493,1.7641939944349092,0.25550107028989544,0.8647961030722711,0.8422321708859964,0.7615987840413545,0.25792112178266546,0.40548426524433434,1.9094106231240626,1.827170780807618,0.6528756675646988,1.9210332715999363,1.620576263778964,1.2992829841302609,0.9345691951234018
157,2.172957059381759,2.1226742144232715,-1.440957374593947,1.115658072114753,1.1245024063949207,0.7494394794187833,0.2825485277853485,0.43565760001331594,2.335789572336553,2.6548760193800445,0.6447042257417027,2.169414876696952,2.0898043287153825,2.0984897366505306,0.916275708300471
158,2.267485387946559,2.3729417213633646,-2.8787570959505846,1.2667236725989708,1.2416379121992547,0.7569084578958869,0.2722296817696074,0.4400321161291746,2.8453847182501755,5.593571924515972,0.585052858160615,2.262083149684716,2.316769727986002,2.2235418856535927,0.8967355745526516
159,1.3058117964645362,0.9833473282543199,1.1212276984495322,0.12932326130896363,0.12924857543554497,0.21300559044254197,0.4744655170143498,0.6324040787904842,1.2135019400392555,1.6957454863543617,0.6468212168108125,1.2815340255340968,1.023609894021617,1.2288232400711487,0.951499150271474
160,1.7603232299105207,1.463865066184038,0.6055758428023528,0.11539037784936122,0.10357336356739572,0.4442448174969991,0.2995163466015148,0.3936434748411655,1.821428473844677,1.75178026345019,0.6207552362147116,1.7274084656708064,1.5459822115036925,1.4212180714608333,0.9385664426553101
161,1.6719945646565817,1.32962458917904,1.6524946524309594,0.10696905971831198,0.07951814173631684,0.6332043907522161,0.6297595565780906,0.7848341333292959,1.6849567650931445,2.2512277686397395,0.6447042257417027,1.6528674703614363,1.3860042958531722,1.885585831640595,0.9101692274307297
162,2.009876576943246,1.7259736041192864,1.49526796876639,0.06236667603779547,0.054337061390059234,0.619990802527324,0.5243050169774477,0.669094221395248,2.028819026533256,1.785059295457491,0.5677978065141052,1.9930599926198125,1.7952715404657837,1.5301885407799598,0.8892925277737387
163,1.2981049082832028,0.6670406248467877,0.5591794421604404,0.29139312567799774,0.2867723813263364,0.3945285145289794,0.6487924653511221,0.5948517167279778,1.0885830420646256,1.2297070982339213,0.62595550513784,1.2000176732159527,0.8841461118362525,0.7134464927626485,0.957402042841446
164,1.4951042645754018,0.20458572934014407,0.004331031467954993,0.697122128446674,0.6869954947339506,0.6141298650838916,0.6627618260959628,0.5032820926441122,0.8674937513323249,0.8084816431980003,0.648888643467878,1.1389829961447937,0.6495151303808898,0.5308940847847433,0.9530555109220707
165,1.7119451813995075,0.12553185792682564,-0.19580844402094888,0.6031000392223195,0.5883364034714625,0.5829680319952857,0.9796489769603447,0.6891873684718852,0.846284163624607,0.8077985469800611,0.6566669596287297,1.3062926799289545,0.675094974608828,0.5396298822625762,0.94691810114636
166,1.9791157397954682,-0.1723199581079531,-0.24722839345854175,0.9704330812750741,0.9260013592708006,0.7446065094318575,1.7908115402534341,1.272957637943493,0.8982031367811013,0.5823695438569406,0.6403206450210053,1.6243259693724499,0.7794308934727825,0.4679894309277675,0.9418966754269092
167,1.6056214202839718,-0.15864948097680442,0.18232488984911033,0.9743714496157785,0.9633350732777743,0.6732071901117829,1.3214491072469199,1.1531908564879652,0.9260244839387373,0.970002419232735,0.6357360191111145,1.1949029489863958,0.7308451602449759,0.6157994412707744,0.9457933721426963
168,1.9691921909879233,0.2078033461362263,0.13050236618917221,0.7527298728954183,0.740716962024697,0.6233389269784476,0.5688943328462833,0.5374145371317472,1.1628055933169197,1.2033816359245675,0.6403206450210053,1.4565260949180516,0.9558738640832006,0.8298013578371675,0.9494594916691066
169,1.5059347269313725,0.7280327477182131,0.3027096763325714,0.2775301820667989,0.2587130616312202,0.542440337738892,0.7244868526640879,0.5799017284817096,1.0733324107618762,0.8817401603112544,0.6153451465759925,1.3993120582011942,0.8611718587742162,0.5891298484485865,0.9492012759251369
170,1.3509346601479881,0.5222840544815506,-0.02553780339960987,0.3511125435024489,0.32704299148206495,0.5522278009395654,0.7846653228394606,0.4817691205315201,0.7069888385460529,0.5394058090266264,0.6528756675646988,1.1992064039038124,0.5512831711260258,0.3338528452497088,0.960133120437354
171,1.9077089362454567,0.9467221097104055,0.8594918219404466,0.3593879189773909,0.3429834866959866,0.45214994933497626,1.1108879979678163,1.1110419598689063,1.5837776589907813,2.2609976602230413,0.6180765742263259,1.7968390149713536,1.3042537742404636,1.5838423652451366,0.9522752766114763
172,1.9681943587186495,0.8760691407302641,0.04627516086512262,0.44256062104342064,0.42631540156977876,0.5697253157870679,0.8880631580286863,0.8172608536591786,1.467625371663931,1.2382042081122826,0.6284777104787076,1.7588406224709454,1.284682314919394,0.9422662182774157,0.9510041145690021
173,1.829223480675803,0.8339714008379362,0.39347016509605304,0.31574590341680636,0.31277395749277226,0.48177822881778887,0.6278412243943406,0.599810852207328,1.4657832543953966,1.5896345136651093,0.6125606311107803,1.5994325775931293,1.2580848434320882,1.1893076252289068,0.9307884498323796
174,1.7074536254286663,0.619257003607042,-0.05734458790438035,0.5661488575343762,0.533568196911101,0.6366872884577447,1.1099141982810499,0.8765508829379447,1.15567235926562,1.13838958910772,0.62595550513784,1.4329667693183212,0.9493832921445869,0.7798304197287472,0.9541901504050507
175,1.854629433588,0.7550751818393036,-0.15644981932185287,0.470062002106523,0.4132123665070686,0.5411334857223381,0.8600439447352937,0.7230887217328856,1.3556209801909427,1.2095167043103865,0.6403206450210053,1.5476636249391968,1.1555648858837995,0.9278014103041652,0.9525103707520284
176,1.9122420032683716,1.243170854687416,0.0056252615872800504,0.5960800608341776,0.5981525594060317,0.5459705995439414,0.8476880547490656,0.7198676294664698,1.5894827541228624,1.4901113562591777,0.6528756675646988,1.7549776251355267,1.3777205034916218,1.132830245978451,0.9504050130659398
177,2.0062746003803644,1.2374993926822668,0.23553007749807886,0.41799511201167816,0.4087024484428176,0.6414301373960444,0.5867760097544532,0.6214039558896037,1.9301542493925388,2.002399878551027,0.6713451011121618,1.881903019081021,1.6708927467322485,1.581892176952965,0.9353140779857884
178,1.5247251105637418,0.6392792536590253,0.7426825867852167,0.24792295456038232,0.23054767690521413,0.35019117635701635,0.9091225133087671,0.7881838616922675,1.2028747506759754,1.3876841191112983,0.6584896970785714,1.3878511278081418,0.9794502799055952,0.9322423202219187,0.9503622739199425
179,1.8828083253135495,0.37522399644934046,0.2759209722445224,0.510981164970896,0.49704201149329963,0.5815144190210987,1.1920741571705633,1.0822853019689245,1.1982356001999712,0.9090145765190776,0.6153451465759925,1.6448923934185027,1.0431917950428296,0.7161177022211219,0.9526163162921046
180,1.5823786574783494,0.17894937291877833,-0.05881505407822418,0.25717791297430465,0.2543934777177973,0.3528293617755126,0.4670583105256092,0.43960591947585387,0.8174856895058366,0.7228651114118878,0.5978297680564633,1.2123037064212396,0.6220153772256113,0.5020526250995268,0.9280610837471742
181,1.3485698016359624,0.17813084232907106,0.2936105047055244,0.39965034790689186,0.38325106457107744,0.42436474589306117,0.37055811423903157,0.29538927663077186,0.7454892020010433,0.7717642411961877,0.6528756675646988,1.1128802604658146,0.5682923741328326,0.49341021225674736,0.9581048035865593
182,1.754938613843996,0.46730514821228786,0.45663544876298046,0.36303635720980204,0.3489416732513986,0.5563856698254509,0.7677715291657432,0.5126089924076627,1.1628716383770574,1.1999096001312108,0.6180765742263259,1.5470370912164098,0.9771649411792328,0.9363915592231692,0.9468003938267021
183,1.6972825331967647,0.22217214926473972,0.35923945774620525,0.5694680338503199,0.5567488836841918,0.5081370465544397,0.6415595907683608,0.6361367788468352,1.0158643443513422,0.823307830937611,0.6038851895711802,1.3825679793790768,0.8444974399681637,0.621972475055947,0.9477767991070891
184,1.630762717516464,0.6479052750964791,0.2747427433820344,0.4123055284600038,0.3867871786049468,0.6227105765952884,0.9370086339378336,0.7040149150696485,1.0859780846281357,0.6085285696969255,0.6357360191111145,1.4669743088247718,0.9455496658026082,0.5056301642812362,0.9480758896258876
185,1.9293269336686159,0.7287704911681769,0.5748548092267822,0.4212426875600743,0.4103401249944252,0.5799114369213516,0.36551566033426025,0.38535093256985514,1.359038170345253,1.583296057048951,0.6309483474627791,1.729222950761157,1.1298439573065955,1.1466564625008202,0.9449885251126012
186,1.7365902536521831,0.8609161306147652,0.20234621233238892,0.3757592901980877,0.36234464758230894,0.6400240075030789,0.688607645521799,0.5580636539062481,1.2070623876911284,1.0901815116389668,0.6068309995095971,1.6381803812997544,1.0161710874685213,0.7779926418907166,0.9475399117199813
187,1.3211889011085554,0.1336803955574002,0.26805611363125803,0.4459091783573043,0.3960384350067799,0.47165754468504,0.5823673834213142,0.40019655087629624,0.7343389134754694,0.6810717070554452,0.6207552362147116,1.036576897748657,0.5403400452045747,0.3916592624343329,0.9487050209311523
188,1.056492844432869,0.32819076883113274,0.5105626298189743,0.4642140984217101,0.45441557086400075,0.3763613175571018,0.5125506781068043,0.499238541194569,0.8966464100205779,1.0688246984257592,0.6468212168108125,0.8980143231234421,0.6820266124598706,0.6576931850911164,0.9566436422244217
189,0.7610000752187787,0.6334707725137833,0.7143454737825878,0.41868347919075005,0.3850953888796468,0.3226146557652676,0.3532029544652086,0.4484838829695095,0.9680995698492496,1.2687902654732095,0.6566669596287297,0.8351460674754474,0.734643872666208,0.8047686524774795,0.8982040569166666
190,2.289475232310605,2.1971257791896415,-3.972747397557005,1.5777252218179996,1.5352737778460386,0.8048812760605032,0.25365855488264816,0.4736579277306548,2.8780245114832668,3.83177414363477,0.6125606311107803,2.2864930450944017,2.6093265745732728,3.179540819469524,0.8918395670091462
191,2.359124183514683,2.4692859762125634,-4.503408182309153,1.6895437842649617,1.6609697216644794,0.7237558776942692,0.27837505652969036,0.5140516191597213,2.645837409339389,4.782456848330543,0.6584896970785714,2.3564548029067764,2.413852115121169,3.8040446872282407,0.8797883867408557
192,2.111402331577252,2.129997302136018,-3.4002180451017336,1.3330272791773268,1.3226262177571695,0.7710565347529751,0.25558654520523594,0.49470851176518055,2.2225428273145686,3.8876678964188613,0.648888643467878,2.1059224189294334,2.10645521020426,3.4109976862604476,0.9037645353971216
193,2.08774079503891,2.009731927739971,-3.9254128523810667,1.3162954095195452,1.313708844077103,0.8608504736439032,0.271286607130525,0.5076177159232216,2.215396153534397,,0.6233814453054027,2.087115354656189,1.9854677157843987,5.137757301535594,0.9189724361487058
194,0.9499043369629562,0.38598853741665884,0.4187682945061748,0.3178671239167429,0.3109302969403703,0.38645611041971084,0.5455585055464377,0.4765559329067969,0.81924543677688,0.970489439186918,0.6038851895711802,0.8621971951606598,0.6195317979518524,0.5178749901405832,0.9400712054556373
195,1.3283702838806533,0.02241670819115149,0.11305770384463631,0.4578024043808341,0.4255571271001092,0.44609606723034967,0.4617932960208979,0.3907504127370913,0.5907540556838007,0.4685329527893913,0.5978297680564633,1.0107845783025895,0.44169706983003426,0.31133845240618974,0.9464644711814242
196,1.9815835785439642,0.5552271639528474,-0.31389171090637236,0.9617608271736089,0.9344409203933656,0.7212295877861934,0.8125819141269448,0.6300578408112297,1.2126164564893402,0.8394466901583713,0.5978297680564633,1.7477425838112808,1.037188661626887,0.5828313601377503,0.9396306123791017
197,2.0801767893723437,1.1632060118738736,-0.7869085060937975,0.5773181561185804,0.5684943125534683,0.6674221217256754,1.3523406455197606,1.256599481964997,1.7145207651108845,1.6420404559990769,0.6547956803312163,1.8870229834545682,1.5415455950037191,1.3696471276867344,0.9455225741561871
198,1.8263628388514423,0.34094852582998136,-0.28633623442028644,0.45078126437344423,0.43931552722878664,0.53000389222808,0.5064063164719357,0.38894299500844154,0.890273255275896,0.7579839301079758,0.6357360191111145,1.35135630975861,0.7316471234875864,0.5405524448795722,0.9464448465286179
199,1.525690267858974,0.35497212034516656,0.29481127343503655,0.6948424617383917,0.6838356418063428,0.5656545543163952,0.35333507844541173,0.258161490458751,1.1056335861693214,1.023708821027612,0.6468212168108125,1.2049362312355993,0.8925335129636279,0.7150154750398663,0.95514571634347
200,1.2527494542017832,0.46327176807531756,0.1246474887246265,0.30618930808830824,0.29774720508619634,0.4789466839551391,0.41361336391601916,0.32933630448122636,0.7395881274124187,0.6961558209163423,0.6447042257417027,1.080084984054226,0.5853355631308109,0.433498341367059,0.9539926518872347
201,1.3834236380236835,0.5569251287855792,0.19258726847830476,0.3757666405756983,0.36952254602983986,0.4992675485803274,0.43703168284930355,0.40176294193682877,0.8941944365348753,0.8454953976471906,0.6207552362147116,1.2404447063320188,0.7023702378159922,0.5133099042145374,0.949184622843043
202,1.2890313500286457,0.23684881660833912,0.4130443834965427,0.425363230178497,0.41151860788141836,0.354787500252147,0.29341305405891194,0.22900293980397368,0.8264169597828104,0.8524160611460908,0.6380535849069913,1.040815189941893,0.6593987526620639,0.5782206901578058,0.9389342882887812
203,1.2747585900019054,0.4704268740320787,0.24764960576061168,0.34299487433162446,0.3304460669545233,0.40586572650612146,0.3336930871925059,0.2728456369672126,0.8732711323200347,0.8141180933264984,0.62595550513784,1.1083933005232152,0.695033973572522,0.544620192975066,0.9448279574817
204,1.5076305271621995,0.7102457283173897,0.6345890255076934,0.4124836512951799,0.3896917694788602,0.4767705784011486,0.48745295936465405,0.4205723972345983,1.144750871556633,1.190380429517146,0.6403206450210053,1.3569513318859803,0.9479698209056133,0.8651645079071754,0.9502868705077615
205,1.5561524128932496,1.3759431069550163,1.2632885495731139,0.21741154249979316,0.2117834135200582,0.2760805449444712,0.3047433019110842,0.3851251498462781,1.742665105422717,2.4277511036324673,0.6403206450210053,1.5435981549385573,1.5261395319259292,1.9577047255481503,0.9593415700859481
206,1.3803569971544274,0.9854090774784539,0.8496732954270323,0.15530386776307528,0.11825983483710635,0.22399067105093592,0.33660175036766765,0.3072636727126593,1.3700785950302425,1.2702290991475294,0.6207552362147116,1.3261404383001434,1.1342687398874693,0.8964523896544907,0.9625905593555304
207,1.4068911167759308,0.12295185576614931,-0.2750568792851349,0.6724726672629672,0.6098309705533929,0.6146583589558995,1.241491161015787,0.5709382903579383,0.5767048764861038,0.3003432645575557,0.6740851607140061,1.1356221143020102,0.47242787285724197,0.1933558591206081,0.9473709685804445
208,2.0177898225054545,-0.09305976702719132,-0.4847075039617672,1.1899789634591182,1.1466610163289979,0.80328120295066,1.8646863193378609,1.4150553088365703,1.0346473875470164,0.7393863920836005,0.6380535849069913,1.6021864898865934,0.8656664053355795,0.5997334820998018,0.9444538244543818
209,3.150681957748602,-1.5513835202848774,-0.19919049779593245,1.3655034191357418,1.3417709994085654,0.835688102747864,2.4138709456705594,2.314975693054972,1.578282163535794,0.9919900898706578,0.6153451465759925,2.343870157677704,1.4235716189393344,0.9150895305285209,0.949121981681668
210,3.1321168262562638,-1.5815359900723813,-0.2538455671546762,1.4468275680511609,1.4309439135587039,0.6932326827512073,1.9549619227645962,1.7388640600830614,1.2539016883447713,1.0275015446270164,0.5978297680564633,2.163886517725709,1.0766102532454553,0.7799779426844807,0.8993228328457564
211,2.0782222404359243,0.1310827658910112,-0.0042211351645962125,0.8839070959485034,0.8724343780042288,0.6814241872238075,1.1877396274636798,1.2160152733863903,1.4934005047363657,2.0149433633855436,0.6380535849069913,1.7058264512363273,1.274907746740229,1.6122878540758878,0.9442222995543299
212,2.0794791299265825,-0.026124121529404354,0.4346988791649766,1.0188714191068038,1.0116622098755967,0.7222691264902911,1.6524758224840375,1.2592369922034259,1.4206586389434799,1.5195062160243893,0.663668482632973,1.6866789927775474,1.1493939917112383,1.0616089036687024,0.9447858965152061
213,2.7030307152743895,-0.5583056893268974,-0.7028999241794026,1.4151465193955122,1.419972321068116,0.7946084895037787,2.0761950214033633,2.11788095113424,2.302756153631158,1.70296884228206,0.6509067234006624,2.5286495727359193,2.0632753865021516,1.4084682186142126,0.9389946428997574
214,2.0794858473447975,-0.9621125222015254,-0.009913103891098785,1.0329385043276385,1.0018372199460264,0.6840217824651659,1.0298612078400946,0.9532299692490971,0.6778880780385796,0.7947184440558501,0.6357360191111145,1.3018306711750496,0.4919308007236785,0.3978787271435906,0.9411302863159192
215,1.683982114156441,0.353928200085738,0.12452776457662251,0.5170307346440156,0.49186471838305684,0.571790602017662,0.8066563572159533,0.5851374638327795,1.0515670220964082,1.1367558037912486,0.6668815377411301,1.3616234289813407,0.8588697752942331,0.7435250937888895,0.94911165720863
216,1.704395544187045,0.35468582431049755,0.1647722447507438,0.5707195726415123,0.5682564531345873,0.5073092312925406,0.6814752184873105,0.6187744566708099,1.2143991411357609,1.4714457880104497,0.6528756675646988,1.33496773395455,1.0159909433237115,1.136886511109566,0.9555309597736519
217,1.2607739019950286,0.7130313987553833,0.3150987058160237,0.3750210822341031,0.37382382945343795,0.3224965077415628,0.340591181606632,0.3177131457317815,0.962547246911229,1.0961477611142405,0.6447042257417027,1.0801831531997423,0.7620979783758927,0.8109652774859009,0.9351246606060575
218,1.3936798434139328,0.3387548618180074,0.344973842335049,0.43674041787121765,0.4273354310517865,0.5080403877112837,0.7259458049723995,0.47463960387797566,0.9499263752371291,0.9729830164441875,0.6668815377411301,1.141137121083111,0.7573912625382272,0.7068148192886091,0.9453944316860908
219,1.6745458870492171,0.5277024443750908,0.3614527925622908,0.4893828268116131,0.4522172221108152,0.5546435256343816,0.7580383049287557,0.6013944235120778,1.2823892366343455,1.4405135149883344,0.6207552362147116,1.429201862131167,1.0702094738597148,1.072574366651555,0.9398722182728961
220,1.1796157113780144,0.35511367843067254,0.3437013413604755,0.5053659068045961,0.5066372540380584,0.3256978777118135,0.5541336824545717,0.4983589901599379,0.8265531579542765,1.0326105535872092,0.6068309995095971,0.958995284332193,0.631021337121737,0.7195930864770801,0.9535597076088507
221,1.4857116918452338,0.870228729349855,0.23001265293800088,0.4721462910633606,0.44314929681966403,0.5179178805827872,0.3288027451534468,0.4084973889819015,1.4933338476805251,2.002442699185129,0.6425374456860184,1.4214380632554717,1.2761668799851997,1.6008978703845584,0.937925778875211
222,1.2955610973648024,0.9158881629370483,-0.2464814935541797,0.28121224468402234,0.20812257519451677,0.3288306527958843,0.2736356696224371,0.28130333286684905,1.0844766157109575,1.3104649925031566,0.6357360191111145,1.1283157680415523,0.8903443013784247,0.9750742014713408,0.9531350888521193
223,1.2565090127578342,0.7916473771033872,0.585381788051837,0.4091421387470641,0.38283301639614564,0.43220829755316875,0.5080108649575005,0.47697732264696846,1.158888178326463,1.2754194563664178,0.6403206450210053,1.1816678638054354,0.9586094330890337,0.9714895417817884,0.9500380687855506
224,1.402859584989935,0.9918364583203125,0.36415406120518323,0.3524233312654198,0.34423594783811445,0.4064622910610906,0.4818111359169196,0.5296675835787157,1.3382542418415306,1.493107726297275,0.6380535849069913,1.3896332623854053,1.1108609107443088,1.0894453331293188,0.9339901093590265
225,2.137467905375868,-0.376479004491719,-0.12977595362641292,1.107568934137245,1.0946881744126125,0.7552364817928358,1.361014698606408,1.0762236618960854,1.184118442215139,1.1250336353324282,0.6584896970785714,1.6746877976422174,0.9898241014455093,0.7788973313837382,0.9479404892139611
226,3.110551410380916,-1.9707683886240162,-0.4585262005066552,1.4202839871571842,1.4011606976400761,0.7947544631308665,1.7786797694694718,1.5698447772157051,2.0716988393262294,1.8505443381990931,0.648888643467878,2.3659983215849056,1.7754378481710458,1.297421219571085,0.9356037289452603
227,1.9828878344354646,-0.4213207646424322,0.12134871590272911,0.959915264261638,0.9384285419243821,0.7115676666752805,0.8798996334212553,0.8577109128933265,1.0079038703874221,1.5478229198930729,0.6284777104787076,1.3895440801861132,0.824114803613531,1.0591452830941124,0.9351088344205675
228,1.5682176255138585,-0.05741230518784746,-0.10027592644265959,0.5504041662305575,0.49337098237630433,0.39394286724366917,1.0554958685886109,1.0463215295360628,0.7610742907573799,0.970148113360505,0.6619902821573977,0.9992497248139194,0.5991932979980759,0.5924019475601852,0.9395556132911828
229,2.2739992764077708,0.10831473215509169,-0.5051060172838657,1.119423193569711,1.0995790503734741,0.6621356660709283,1.252118376322448,1.2057904024188089,1.7387800632067165,1.6229574671127915,0.6602640781246099,1.879716747987197,1.5433854690630082,1.311164764494543,0.9474116308513386
230,2.1000070631039858,1.2926959507604745,-0.49146502366648326,0.7785500279625601,0.7631686536514735,0.6756349508617117,1.3442065740144864,1.3545665379553933,1.9024279431000746,2.0824344971149316,0.6684167106117298,1.9669068222740091,1.7184233823287856,1.6584495360219993,0.94570462260657
231,1.3332984896326645,0.771676922601259,-0.18275782442875177,0.6486339511392283,0.6315858117427277,0.4832933443404532,1.2169517956494365,0.979905971617556,0.7562493060546317,0.8084834721916938,0.6284777104787076,1.0353871296130683,0.6104842727810925,0.5470623935249023,0.9536514785243086
232,1.6427336912656727,0.27500661607373234,-0.5692524382635453,0.5077862104777361,0.4922282882509133,0.5442185800337754,0.9100984866319655,0.6595579204330992,0.8073580853004886,0.7735001052050553,0.6233814453054027,1.1151482573082094,0.6583129836384701,0.5264607346278827,0.9386640250805949
233,1.38222932559693,0.8625099952482409,-0.017640713425157273,0.4128048388903693,0.40401432730879794,0.6422538300031551,1.0982264515909619,0.8240946297649074,0.8424331570399503,0.782308106733108,0.6097226960127671,1.2297085533866186,0.6968020997279742,0.5737127007853008,0.9399632210169505
234,1.7238097189606592,1.0598895594862467,0.2636086106861186,0.5146587655675565,0.49432934951707963,0.7289488796088419,1.7764389145509782,1.5989663910965024,1.3536089007763294,1.2301859452342319,0.6125606311107803,1.6356678171638712,1.1723868982430798,1.0121997278828359,0.948751631004876
235,0.9106253301594601,0.6345759901229918,0.1817188474026572,0.5952974453694478,0.5826453952959416,0.4752606519516636,1.7373986756519648,1.0542984465087428,0.4821777044789278,0.4055244404010131,0.6403206450210053,0.821713143581798,0.41096401331697796,0.32148374004548486,0.9302252733411485
236,0.9194678257455845,0.5344460532525906,0.25442919916492146,0.2608501012821926,0.2482772411116914,0.5175945680533885,1.7952682485787619,1.0769524665530896,0.46818545437859255,0.4764893763595256,0.648888643467878,0.8260692350591324,0.3596271605160905,0.30927260883706,0.9463081547621641
237,2.048728467109095,0.5828446259993707,-0.6272634986624359,0.9943847337343087,0.9646648463949417,0.718239139125266,2.496591257511231,2.0026632856166406,1.325883268652618,1.0996163132505334,0.6652988471865258,1.8039670123357998,1.1193412458066296,0.7199606847194544,0.941200742378957
238,2.170977554684445,-0.48802401390304784,-0.31345960180536925,0.9929102682562849,0.9736294986308072,0.7455860512852661,1.8025894804621432,1.3156830856966701,0.945109846401895,0.7367088415702696,0.6602640781246099,1.5823092450458478,0.8086214479509644,0.5933122805094232,0.9470812510502203
239,1.3832669021315593,0.38511490337177423,0.22085790847290654,0.4454027552541814,0.4069689826751313,0.5427102705076744,1.4574373794792987,0.9570385232792071,0.782723433602147,0.6320980580654249,0.585052858160615,1.1834805093133514,0.6695871486431082,0.47335485785144177,0.9511165359728986
240,1.2502059570843518,0.7572858473938751,0.6359911763996617,0.18880655353635273,0.15833656668017823,0.5138418623964657,1.0242446922612392,0.8480178048552112,1.0381446716095675,1.0874071415777766,0.6068309995095971,1.1782328632301442,0.8620734390346564,0.7565751125440252,0.9659821313429178
241,1.4584557184443483,0.6071020671054308,0.17991252541334823,0.4088606732207835,0.3850204937134713,0.7099516255252618,1.1791592854341029,0.7676000542204988,0.9136905577178522,0.7099018972648715,0.5978297680564633,1.3337440792943862,0.742236790756469,0.5373653955820574,0.947297085697307
242,1.6781469575335362,0.9118373826900552,0.32473241315740964,0.446272434502999,0.44363908571895555,0.537358128523395,1.0357374838952673,0.9862074061870691,1.504701057368394,1.7241201587776362,0.6180765742263259,1.4870236422104466,1.2907339713165837,1.2507992081570671,0.9437392479980716
243,1.4410336223948752,0.4502577188684722,0.19822041852218986,0.42462754614623727,0.4027192328416519,0.5852778870588674,0.7878505353281998,0.529154541052315,1.006540412868768,0.8954569053112796,0.6425374456860184,1.16204919458438,0.8261307558171315,0.6649086926267244,0.9417782707417138
244,1.5005277072013117,0.7097523503609824,1.0520317776320565,0.22688533365436742,0.22141209755593735,0.34458505249858734,0.37261949290007873,0.43788469357316495,1.3870102286149708,1.9942309036866523,0.6180765742263259,1.3434477508513067,1.1589442132777132,1.5476167842730293,0.945626311955707
245,0.3613253223102558,0.09160508991922328,-0.028215974069365046,0.24617879408116716,0.24842463949930407,0.14580025130728547,0.6943565746793069,0.7246133304484059,0.11437981950516654,0.08752852788693717,0.5978297680564633,0.2484613592984996,0.08842651924540644,0.058164959216948496,0.9703604449031868
246,2.0887694077727184,1.023400643582871,-1.7632113047740066,0.9317972366833656,0.9213547201698178,0.4763293894204542,1.5888129196492504,1.370793522858165,1.8161116406835258,1.5536481284670127,0.6566669596287297,1.8078211027754054,1.5830959694791935,1.142449381604509,0.9537167436536763
247,1.9256575601546684,0.6935662296949905,-0.9785890948853619,1.1598105894443484,1.1501551971142145,0.3550745712206029,1.720830801193655,1.4107787475371145,1.4844747159430247,1.5029732085098313,0.6602640781246099,1.6143946210871436,1.2228155886947887,1.0826209780940255,0.9335366019829248
248,2.087090274053064,0.9314851562724185,-1.1751092096178515,0.9673705640387738,0.958958654139194,0.600993207069108,1.991202040144662,1.4221241116693157,1.6852937367936969,1.4489615205519437,0.648888643467878,1.825385196877715,1.4651656646973765,1.0095886136266057,0.9431069047800981
249,2.307129016030601,0.33897206095121923,-1.272213786631206,1.0936653899245479,1.1019682445222436,0.7169444617058667,1.9148614785396665,1.7222119002469098,1.8038547812049508,1.8544687468296588,0.648888643467878,1.9675424491824272,1.6056301972195386,1.4095232790050487,0.9491625555892973
250,1.8497718049763705,-0.521128344869257,-0.28706181051871993,1.1623641707813017,1.163683970393254,0.39901049587053256,1.3528732270551111,0.9118526165731033,0.6550808571874915,0.4842315890123889,0.6425374456860184,1.0805759261820111,0.5294732841677048,0.3799986091943726,0.8991550369900101
251,1.9409837444224418,-0.902577451038155,-0.0026875809903885717,1.0241174540713964,1.0005035970638732,0.6753081106517952,0.9797487494401083,0.577694715314235,0.49189368337811384,0.5283877818260665,0.6547956803312163,0.9843316756357244,0.3733536329254793,0.2998929792008316,0.9444039226184293
252,1.9367404021571748,-0.27734449772046266,-0.2901429292667572,0.8169355569385953,0.807150768565975,0.652340615361657,1.1582391302304398,0.8738788576389451,0.9419293395360944,1.0757409992444602,0.6403206450210053,1.3318903544629173,0.7937580243840803,0.6661458156881733,0.953400539783277
253,1.6790680269398535,0.33558109903308075,-0.697921752431895,0.8317723071403933,0.783656905514935,0.6634751021723593,1.4348740427558617,1.0045988503941585,0.7279996966401784,0.5595609407057504,0.6425374456860184,1.2189736453392936,0.6153454383075574,0.4700453692472721,0.944859326272822
254,1.4672230853175667,0.8759036543182301,-0.2541174649918978,0.5352051555313564,0.5082981644207114,0.5901763705321493,1.7782538570254556,1.408485117317513,1.045950308718379,0.9536193753419371,0.648888643467878,1.3212143199640878,0.883740055434073,0.7264477320559959,0.9289748668700862
255,1.2674556657476466,0.7376143325742734,0.3042369850825133,0.3266271007071985,0.3067986734880235,0.7089399962425087,2.354570666548865,1.6874412292583205,0.7760171254790582,0.4443311950867136,0.62595550513784,1.234126598354808,0.6598871049120035,0.4052435996345596,0.950099275719122
256,1.3048813344187153,1.018484208943374,-0.03591307728878368,0.4374138403615322,0.44094805541428916,0.6548826868822168,2.445705882794319,1.5098539946827163,0.9028377710253451,0.6662062593014374,0.585052858160615,1.2374912876192277,0.7763289859717994,0.42981648199875644,0.9459060796969461
257,1.1587279195533744,0.5436599122508996,-0.033317073655933616,0.49921193877262326,0.5002344718902929,0.4431872844314265,1.9599173775004792,1.4925804947853079,0.702404113926503,0.6222373016822054,0.6233814453054027,1.0200784110140029,0.5452362952334606,0.4366720890282549,0.9422409560629954
258,1.5368455322111243,0.8495678271485507,0.8860529859085182,0.3246407573044811,0.3197530506538923,0.36869566051050434,1.0811410914298305,0.9718657997616076,1.3663331608950358,1.6739184168841652,0.6602640781246099,1.4059983266166391,1.1369612546199783,1.2206434190732556,0.9522037861984833
259,1.025133347472073,0.5578174422507334,0.3167606062627615,0.3034662968223003,0.2976674910233112,0.442662529182404,1.4090094267517295,1.0760645094249022,0.7781863998714915,0.6052626249881423,0.6153451465759925,0.9491296299753917,0.6089816552933679,0.4644039682756466,0.9501707362156551
260,1.2934787377827333,0.8951091841426904,0.7851728744261415,0.27012593856388434,0.2683588705294397,0.3978761372438227,1.4913032358894502,1.6286994246652369,1.1852366331381599,1.346060473294205,0.5978297680564633,1.2314582020015388,0.9376649452238056,0.9941077542309628,0.9522038989332697
261,1.4131809889305442,1.2878640109530215,0.7797208731899596,0.1774930122970747,0.1440520220193211,0.4735338847949104,0.9471360962814518,0.8150665102163325,1.453450137150696,2.6817620662585604,0.5947193981915972,1.3896778564677779,1.2860665098825168,2.1415195347654215,0.9505955423052096
262,1.3270532957922505,1.0304208632047174,0.9209466906764008,0.5873912639898398,0.5909164608191401,0.5448846141106,1.3259334830189005,1.1582707908024388,1.16090076506197,1.33448939466678,0.6309483474627791,1.3145319948929999,1.0065565696656054,0.9869221023774325,0.9471062781275422
263,1.037112191033858,0.7181204435680717,0.5820006213983719,0.15530386776307525,0.1475712373914087,0.38280636124483725,1.503769381748251,1.4599820916062305,0.8930273777102051,0.914428939258896,0.6153451465759925,1.02322656176222,0.7287354375917688,0.603203766050807,0.948891329680774
264,0.9473200239202412,0.39698851704926674,0.43932049929216577,0.2118886392808974,0.16032412766664805,0.37869430903736384,1.4093841023708116,1.3577866248192456,0.6808481692441483,0.6819416782292537,0.62595550513784,0.8538899106564645,0.5673640329206966,0.47253825121604565,0.9624147156376159
265,0.6208951625666963,0.2389484684312273,-0.06285230946543119,0.34789532820109265,0.3382623676361084,0.4051121062053232,1.2352406007855945,0.8879259748443138,0.19950278512007158,0.12665095747447103,0.6447042257417027,0.5009302999262307,0.17132552160233835,0.09674101798154093,0.9585906465414409
266,0.3949709813289264,0.11843590444756535,0.052465190084007185,0.11826719857387902,0.11349443571061175,0.3704314653718064,0.8456188202267312,0.5649525326907037,0.09004813147758499,0.06012944771464898,0.6468212168108125,0.3491792970975725,0.09022184603943785,0.054749469803841544,0.9550704120272944
267,0.2833183495424615,0.07609675061696958,-0.014895902987963061,0.224850751393902,0.22451324767326097,0.19078645692462806,0.6888064619551741,0.49098021921257995,0.09451803303254643,0.08723563151446659,0.6547956803312163,0.20096086101289318,0.07914994594256969,0.06011290209170283,0.8917455761573972
268,1.1704259114821258,0.7570710569929477,0.23282512120247434,0.21369248331122298,0.20256878845080117,0.6096704769083104,1.8987915361302863,1.138558494754987,0.7783749772796662,0.5056371660807486,0.6097226960127671,1.1315143400107075,0.6676726450461441,0.4011424072328465,0.9425599545368981
269,1.232162681865393,0.8424420758058917,0.6142602657364233,0.18043082020570633,0.17924839480710714,0.3089989505423316,1.5206760434528577,1.447297272150197,1.00336860698787,0.9615705176411232,0.6233814453054027,1.198138008053662,0.8613266295780717,0.7884225086582757,0.9473460619663534
270,1.2180631670772855,0.8528363563563854,0.794230648059024,0.24704321148901337,0.20270849541737365,0.46322941062700607,0.8590965485986676,0.8749364902038309,1.2321561118173394,1.540331752766458,0.6309483474627791,1.1233832376600303,0.9918927570290216,1.0356816099971926,0.9422027805269323
271,1.084854765616778,0.7358589806378659,0.6461736505035967,0.1914526360307307,0.19214636369427923,0.28740045291409694,0.3310905479533946,0.30574346965374805,1.019976542379994,1.2412240433567125,0.6528756675646988,0.9495890172756697,0.8148147219425301,0.8822378337553667,0.9445012488657414
272,0.9234298850486942,0.33084057572807224,0.3286389053277867,0.2783864920942805,0.2745213026254027,0.20989862675911156,0.26607436449144084,0.201635359855323,0.6327025607010065,0.7834346857785374,0.6153451465759925,0.6731267120691344,0.4631528303287336,0.48962656274353966,0.9500043982011421
273,1.391904080787763,0.901311491984794,0.8344570930868076,0.17293301827745555,0.16334487267924042,0.3932172470075986,0.9583072800475485,0.8979908684313711,1.2594483937765057,1.32951673377853,0.6125606311107803,1.300279777059602,1.0734433437677833,1.0572464191684403,0.943996555870021
274,1.4385029610791005,0.94576819532847,1.004907548830007,0.16921395908888537,0.15021318142152493,0.42502284114369343,0.9489319116249362,0.9740997388821997,1.423144565970966,1.5991599173156525,0.6380535849069913,1.3507985254350503,1.1478014514849526,1.1618000058720648,0.9390609429971888
275,1.9480200909700058,2.0791286917253347,0.14596488192037071,0.14516110362951756,0.10857860777520882,0.5507455057963205,0.9952882435751219,1.1014968933822271,2.376347024287861,2.1213650180495125,0.648888643467878,1.9336303004135282,2.1279244389855814,1.7475882509149177,0.9454717103064568
276,1.3699614276945529,1.1026656481827535,1.017239707004527,0.49475427096602015,0.4929762938605714,0.5535610118566531,0.7209429540351705,0.659386162625407,1.3070215773605804,1.4654621542139434,0.6153451465759925,1.3618836310730988,1.0917827829788451,1.0867930349437191,0.9356042602600351
277,1.1585890361983602,0.5829389375620853,0.532677020781569,0.22226326193366597,0.21647392176782287,0.5375404792451268,0.8014561064028902,0.670623119074364,0.9361416166038032,0.9797948167768397,0.6509067234006624,1.0789403888706455,0.7468585725809336,0.6559127974399022,0.9385700905626854
278,1.1701723550396055,0.3725025135878788,0.35137541053008614,0.39782859750778604,0.3737076664112405,0.285944839879986,0.5940145025371508,0.6095985786448257,0.8492146863159651,0.7726997023052401,0.648888643467878,0.995333939214608,0.7003883418165049,0.5330961678962851,0.952118415585259
279,1.3558122480631105,0.908184259992034,0.684119910860268,0.19804851594381867,0.17394610060221904,0.47569108327724463,0.6970168749735057,0.7038074130019703,1.2512057365071343,1.1589071071786068,0.62595550513784,1.306210628646857,1.0583680783615306,0.9268678106946485,0.9487806629082983
280,2.1131050575759738,2.158659384958882,-1.645825183518637,1.1506132665441142,1.1396102120977734,0.7812306445638523,1.0790926927929,1.061127868689378,2.601093264443669,2.122275303031549,0.6380535849069913,2.1064702140677554,2.3154529176054384,1.7871447863733827,0.9424574221443041
281,1.5751879013059673,1.5990002086384052,1.0874467867568782,0.06236667603779548,0.061209998774270954,0.48221788582965375,0.8917083434925491,0.7672338702669761,1.830012853967414,1.7944616481358815,0.6528756675646988,1.567176953719591,1.611677196799124,1.4953089069563281,0.9581378092983861
282,1.4094121318644193,0.7439010820313383,0.7047610795498658,0.2285328140111255,0.18969666737138305,0.4683077053531174,0.8869898988119824,0.9870852209154715,1.2455119357967364,1.2126723574089489,0.5947193981915972,1.3045710152282184,1.0161780483934983,0.8775074740437482,0.9522886506229368
283,1.4325924245596213,-0.19780900918990874,0.09084749837846684,0.6657469607283709,0.619744795349725,0.5792575369640521,1.0214307205887685,0.8705325371129669,0.5828272584317671,0.6150540569399431,0.6097226960127671,1.0043329430211008,0.4448775523143332,0.3809433618799328,0.9394264464757673
284,2.14980414609113,-0.1969648653925513,-0.1331703876124919,1.2297445450356828,1.2150062931177867,0.6803538670585133,2.3012139181730875,2.143626877936547,1.4267667160265067,1.009856500262901,0.62595550513784,1.7069282448227214,1.247875373232832,0.8428991303432943,0.9198190801299653
285,3.0085416820231345,-1.1335830283575075,-0.6513123369540672,1.437322766223964,1.4233744108717297,0.5967555008272714,1.9776992175635815,1.7125156358165212,1.3733699830687878,0.8621967984201014,0.6038851895711802,2.1154602755335796,1.2205737802221623,0.7523284347888111,0.936611806950221
286,3.1821560765126478,-1.1340922612671187,-0.9184549805814828,1.5571985747300823,1.53827366363574,0.815769938756438,2.2861811769396803,2.3489469239901255,2.0070382742517068,1.699828862838856,0.62595550513784,2.6568819145278106,1.7903353056832838,1.1889066059712918,0.940147356050954
287,3.3849376435127967,-1.8710902972696466,-0.23932264327352798,1.434945286900163,1.4266626677923575,0.8154455941865033,2.0533109731515546,1.9274532573120209,1.3680060901913111,0.8123272526783842,0.6447042257417027,2.6670682193805897,1.2361051707705737,0.6006443015766403,0.9341125467815289
288,2.6132866693187333,-0.9992689800232228,-0.4665532497204693,1.2160298524471806,1.1635732648240256,0.7833005530672335,1.753484689083863,1.3141037597698164,0.8320172574711185,0.46506731404945456,0.648888643467878,2.1236024374656055,0.7000456883876508,0.3710772387826612,0.9462648866657207
289,2.5264106350744697,-0.8391576393552556,-0.40538107340513585,1.2177087363360197,1.1763567675689366,0.7679544310051738,1.6594726957049222,1.4056997952700818,0.9056472083980157,0.893521822762116,0.648888643467878,1.7523464668712199,0.7893421970157648,0.6799688039430928,0.9394091395869687
290,0.8405742834182448,0.1766106710264954,0.3938557510831555,0.6520037950202503,0.6148086978484846,0.4449003246761372,0.5087999033932393,0.48851461508003313,0.6525811767973874,0.808984102044845,0.585052858160615,0.8122060297203808,0.48258336203212443,0.5196247680403561,0.9462895093489931
291,1.9663185662806606,1.3096997918623874,-0.9425886021700887,0.11826719857387902,0.11471008971299228,0.4323406521053375,0.55514006875327,0.5224654021042294,1.8751047121038815,2.1985300973710125,0.6008849035917525,1.8609666493917563,1.6654160976935446,1.850496941965838,0.9469167842242758
292,1.5869487397086566,0.41670223055354305,0.25844609912270067,0.6305530041572615,0.6103598339685872,0.5904789514138685,1.205607951420829,1.0084489176696843,1.0547214916169718,1.1134762928133863,0.6584896970785714,1.3747171914705671,0.8790777373540466,0.8394276771179983,0.9429022960521954
293,1.6479423180397565,0.33317339945068514,0.5891622745948222,0.6782786466730669,0.6606448573360947,0.5323212311231095,0.7522866211232263,0.8817520180460836,1.322817825561764,1.3949127367398582,0.5947193981915972,1.4258208988105066,1.0911958048957273,1.030363188134003,0.9478791239671045
294,1.9795305273991988,1.6901558840421447,-1.4355803097642998,0.40359173185227826,0.3732174340436228,0.6527514835006408,0.8639252135432458,0.8372583848269814,2.431640233695081,3.095641834841685,0.5915533975974677,1.9156611858926156,2.070726234824393,2.3091897402388506,0.9453160196305996
295,1.7281458105164222,0.8374784565065152,0.881532070002423,0.3092643914442069,0.3059089602895568,0.4927264353825977,0.7284936574347087,0.7768189325991073,1.3888787427413256,1.8918495114980558,0.6380535849069913,1.6151765692949938,1.186818077983758,1.3303979825808787,0.938713850844025
296,1.8994387204317102,2.4041674319202815,-4.100658875469365,0.17755399948118852,0.1509638114687185,0.4119933134447594,0.717054978436248,1.2877917643649632,2.871929113785549,5.215006090405632,0.6008849035917525,1.9209574076997369,2.6524988027988265,4.436213466015468,0.8767330597882209
297,2.1657940606827464,0.9128413521550178,-3.040399886082694,0.7983352063334052,0.796061305617107,0.7543800031183046,0.685384024993266,1.2276000180609596,3.582054006113614,4.9596348614291115,0.6425374456860184,2.159350924908138,3.345580691002898,5.209486152841421,0.8873501478892343
298,2.4355478118948146,-2.3400973070111752,-0.07633274150610446,0.11826719857387902,0.10313546605717325,0.6832926628694099,1.1561817271864123,1.828823059715439,6.2621659240328365,,0.6207552362147116,2.4306710216463263,6.032454948499636,2.9444389791664407,0.89333519698208
299,1.7463317125121312,1.181309874581046,1.1576573023996888,0.18706239305713757,0.16875519095153313,0.6939026682961665,0.6800497074768443,0.6356375718963125,1.4346903779874698,1.6524457551231975,0.6125606311107803,1.7195008250753456,1.205462377590438,1.2556657281533292,0.9161559705763243
300,2.2856569780046243,0.9349616739218267,-2.472006830125481,0.3076265593716571,0.28940099405008685,0.678708712472555,0.19204644803640117,0.37721145600004913,2.7770636529254125,3.08783268452752,0.62595550513784,2.271194097536394,2.540590337814697,2.8581108956779433,0.9373095988169102
301,2.12538912782292,1.729583127504164,-0.12186541193834488,0.27466743290571033,0.2745272886867988,0.5023961284684457,0.901728034888165,1.0862067771882336,2.223157370098353,1.4923896814946709,0.6566669596287297,2.087652940906928,1.8915788142146677,1.0231047361599646,0.9468790677135334
302,2.199150412659407,2.276157626630671,-4.351421948221779,0.1628248267931701,0.1528319255053695,0.7654122156543455,1.029490119538489,1.3087105019574412,2.7134658946194135,3.599703058519134,0.6284777104787076,2.190646261976097,2.2452500826105153,3.505932701926063,0.9046655299828484
303,1.1106641276611566,0.949067671771608,0.9534542749528421,0.2628588748657734,0.2656750277867983,0.1668881055337869,1.137375771966791,1.5214276865573428,1.3944424161406397,1.520248247288273,0.6233814453054027,1.038175919864279,1.0622849890396324,1.1397520533524206,0.9436949736561416
304,1.9675867955137807,1.67449206593206,-2.33079559845212,0.3005320855225746,0.2647053299855252,0.4994242313176658,0.6668467110288739,0.9759197422211922,2.260435959246831,3.382101861436874,0.6233814453054027,1.923007755838009,2.000188550188262,2.783888277493715,0.9147815804736189
305,2.4831041697351894,1.1162210655064122,-3.5993252352416016,0.6080585835166304,0.5855923833287496,0.8587288778065955,0.38824604357838705,0.7762010835647393,4.1413800926094275,,0.6233814453054027,2.4803835610604157,3.4978357592975455,inf,0.8931083084027609
306,2.7846388539642546,0.4222109748143841,-3.2068498287786387,1.5689524572698457,1.540897092633103,0.9403785559946851,0.35818063185081495,0.736677877193416,3.698132473655101,,0.6509067234006624,2.7827737472981466,3.3990445283010544,inf,0.8938137407059753
307,2.218651427871615,2.70920815135013,-4.927859579221745,1.4006824319830713,1.353319406764145,0.9014842141642035,0.37041938190672996,0.7209476416352969,3.390458659844811,,0.6284777104787076,2.21437073617119,3.122456485138722,inf,0.8771086737285114
308,1.4822594666925781,0.6974890785513816,1.0607779251511307,0.16020273491155929,0.15862334475253373,0.32097351997820595,0.5826071091443767,0.5588130557254004,1.048851972620331,1.6147046832504905,0.6566669596287297,1.3878511278081418,0.9098569881063999,1.2620942959242523,0.9521635199124491
309,1.225559880600918,0.8862328038203375,0.9636714570175737,0.16921395908888537,0.11764205470374041,0.21697888376644525,0.1390041428311288,0.20124917842650505,1.1652086090175882,1.5403674079370784,0.6509067234006624,1.1897412220792116,0.937211302271676,1.0891493736345879,0.8874133416724921
310,2.20495098724269,2.0178441214723697,-3.4650625653642666,1.3276838819947174,1.3057278252436078,0.7947749969757352,0.09794734367211183,0.17406444637655305,2.172810159982864,4.185624796811741,0.6038851895711802,2.202538672159988,1.9529723252996,3.4908538361592516,0.8539076051329463
311,2.216914074053168,2.7217692549925783,-3.1578955523088723,1.487187596665752,1.4493911727318245,0.8564269921645218,0.10464754322234265,0.17757990259878398,3.0194519482073328,2.2282647315485025,0.6447042257417027,2.1952265746735464,2.736905657934766,1.8603121998628305,0.8479368812600444
312,2.163027515755095,2.183359134325978,-3.1107100222919075,1.5917961966187644,1.5785807360688857,0.8474641712040629,0.10450930388279266,0.17894433569798746,2.4362949699046323,4.314115729858421,0.62595550513784,2.1588696234597555,2.1234122343419357,2.9057753863346045,0.8932565170814771
313,2.3194077942606204,2.3591155973147173,-2.4846325976592247,1.5375406038272357,1.498877664657849,0.8495228729303335,0.09244496157654522,0.16682521625510915,2.5582715549305077,2.5153854792591903,0.6447042257417027,2.31319675358864,2.32243263988416,2.009761621041846,0.8674944747423103
314,2.4271462621481024,2.4797235405072198,-4.849516512522717,1.4702501851480654,1.4532565825043569,0.8961703721663443,0.09969432147051167,0.17527170811090534,2.706787006020154,,0.6380535849069913,2.425003857054957,2.3977696998717284,5.486179103717607,0.8874297051665495
315,0.45449959797644224,0.15578280619149365,0.09318641624041246,0.20004761331586435,0.19973530282829507,0.25068441611889014,1.149267826405365,0.8022438043505042,0.188604283426588,0.14223207994871426,0.5947193981915972,0.40057707403538834,0.15916649984208783,0.10319776462540324,0.9397674164715863
316,1.4805665886892543,1.2021694319815657,1.0121860892432029,0.21302129952620003,0.20004994364771422,0.39481490431520744,0.44075002726082363,0.6489871839130411,1.5349326038900422,1.5872335521275711,0.6380535849069913,1.5023788401406926,1.2908662070247494,1.1818360942298411,0.8623517216311288
317,1.6064074533263855,1.2910026176528382,1.5069307420091098,0.08467349851939517,0.06659436719415505,0.31688811165033653,0.3673403651333894,0.565509862922464,1.5726269334945198,2.4629144275217367,0.6380535849069913,1.612442421454399,1.3269095186634843,1.5929809219179418,0.8840630755991197
318,2.5248290380674385,-2.372308808679059,-0.15252022938837959,1.5150001469717203,1.4808263702277993,0.9219498084462823,1.0033164101412526,1.7993149390839047,7.780150820508447,,0.6038851895711802,2.5221240376048164,6.80599937002775,inf,0.8843066397935796
319,2.106856994075429,2.403080905541285,-3.384656908008652,1.360198214395783,1.373003274862411,0.8756583178963537,0.21764841663413265,0.39527104295354587,2.5805007657700947,3.165383489590878,0.6233814453054027,2.0929546561604226,2.359971428270992,2.585191012413966,0.8448180823599484
320,2.420791298787785,2.283487343814527,-2.8614855812324316,1.6345814243812997,1.6276293730725038,0.8684006583010627,0.1465991727439961,0.2719520783410643,2.454255727955804,2.612154448527175,0.6447042257417027,2.4157537910996836,2.171794793538588,2.195043551389859,0.8950337209633762
321,2.001857839714666,1.536347491437386,0.9322522819247352,1.5537255904076885,1.5358512846700383,0.8388379658078757,0.16039715058777232,0.2623539316385946,1.6914160413447334,1.7922021829698713,0.6333676938231112,1.9916748944230578,1.478872565373891,1.4357278189750644,0.8955436328376521
322,1.495116602154355,0.7384709615298941,0.6671288416244812,0.2286284036166141,0.21226126814087462,0.41574250788944306,0.39256300208959793,0.4843993925646737,1.1474467115006663,0.9460820436177105,0.6403206450210053,1.4172118637546922,0.9809056559609173,0.7254481253482665,0.9286263123014742
323,1.2059725895963167,0.7293305563399932,0.80250834773762,0.2266535049072591,0.19734573403662817,0.32159539838893964,0.23217000520993575,0.3276250357479407,1.0172859741423,1.2111097416515633,0.6509067234006624,1.2009403697696326,0.8642914981080896,0.8764331844059927,0.9336945192913171
324,2.1897691500863576,2.230336987935316,0.4215629206244893,1.3641518719723846,1.3491460745937274,0.821816508819255,0.12199335573993542,0.20972093342131043,2.601967826666206,2.4156861190361023,0.6097226960127671,2.186878285282075,2.1898291879142064,1.3371253373134209,0.9061768067873042
325,1.5483961594320677,1.1948925804013835,1.099003871092492,0.13766330170126678,0.13526635997252318,0.4757704837172074,0.2818993306256992,0.3209899461327193,1.5583996344057327,1.6621516271091152,0.6333676938231112,1.4803120432260122,1.3037196788988261,1.2265846245665502,0.9512485971828594
326,1.5862342334793726,1.0010442386977223,0.7830135343663565,0.2554429354324269,0.24462337582415014,0.5146643051026422,0.6442618813664588,0.6409081169367795,1.3124162535397124,1.5708780121661883,0.6380535849069913,1.55816406268004,1.118225985694301,1.0654214690763621,0.9499502641341682
327,2.124379767480948,1.6563004635260765,0.3238055786442562,0.17293301827745555,0.14982805721860845,0.5370684026142603,0.34895038132749673,0.5172601749864711,1.981077100400294,1.6480129607255238,0.6403206450210053,2.1126077316163405,1.7260615542890658,1.088851101480343,0.932282187459457
328,2.181487640237894,1.8784792203991194,-4.002613570504408,1.326698435497251,1.3086054119842243,0.8897107049457216,0.29465429478755467,0.49878652094324377,2.0655392617635675,,0.6207552362147116,2.176833887688485,1.8731748607135634,6.258943912242244,0.8404019106628757
329,1.5551531247755748,1.0693375019473554,0.9677474783206765,0.10696905971831198,0.09871433255219289,0.42990656217371087,0.3538114665458872,0.42530461392964575,1.3736162884750618,1.6570731103678116,0.6528756675646988,1.5154922995915725,1.1333460418787915,1.042711341199451,0.9335243092144798
330,1.2045004250929914,0.7865497365912915,0.6881053221042412,0.18508749434778254,0.18423075198773395,0.3543470549671871,0.43431371094701715,0.41095798379851006,1.1437681251965266,0.9514045589802137,0.62595550513784,1.1482578185585175,0.9317171987274621,0.8072018497136658,0.9555755962099758
331,1.4979282173339998,1.6664721184113396,1.4254101060884397,0.13766330170126678,0.12745829731703265,0.36656765792488805,0.33879309550453146,0.43352589505259087,2.172836777728609,2.1590766257966445,0.6566669596287297,1.493929065724459,1.751119633447765,1.734410977455582,0.8872923957168275
332,0.8610534699084045,0.7753356057109501,0.8160871511675967,0.14054012242578456,0.13574342028161868,0.2066090932847608,0.40860406723815973,0.4623900705333188,1.0365364869054974,1.1975931710386807,0.5677978065141052,0.8523513485171176,0.844886130234106,0.8558052668037464,0.9679075466038579
333,1.5822488740554912,0.9009902866358275,1.3240285143885826,0.2730027592884022,0.25087926186430504,0.4717475252811305,0.5690444635899286,0.6548965886680143,1.2644246344346346,2.226147723176673,0.663668482632973,1.54750695470361,1.0803467044043233,1.4684929057848404,0.9442969103159955
334,1.7859511641801369,1.656433598385145,0.8870849186301513,0.11539037784936122,0.11147651139482069,0.42579245057599435,0.38838274096687814,0.5462097385918769,2.0551306396118445,2.4429933164253272,0.6425374456860184,1.7543994604709774,1.741841469878072,1.6441234704219905,0.9369871306339482
335,1.763989577125433,1.571335028863017,1.1660635149394016,0.06698765724152846,0.06476391564024357,0.526679373745261,0.6429807704452889,0.733959489413173,2.0087707279963647,1.5497607397291022,0.62595550513784,1.7534365949088957,1.6034249729332077,1.2350633913959672,0.9603483745142843
336,2.097769748760641,2.069320032758732,-1.4367779744246039,0.1506828865593423,0.12776096682297186,0.6457345283882256,0.4803514313391289,0.6530886076101421,2.4136903261194,2.8285395134308846,0.6668815377411301,2.091514122914105,2.140561112774075,2.0756232858000234,0.9358817179104624
337,2.038822418061309,1.8440487453046317,-2.8156351642901414,0.1998168750857245,0.19527785589542376,0.5324015701418131,0.6764828621820381,0.7863550298604507,2.310334732303319,4.613358624711278,0.6380535849069913,1.9855869662082117,2.0342687440231497,3.139213997031682,0.9452579614962757
338,2.0078808353955653,1.4435431380796475,-1.865845830453966,0.2026936958102423,0.18819574224769148,0.538973645339993,0.5269643381510528,0.6955314780975231,1.7095755737563088,4.662562005104768,0.6125606311107803,1.9775269564263094,1.5744933149704297,3.146014476603329,0.934866514258939
339,2.388842113507916,1.869576958635029,-2.943945393593438,0.08467349851939517,0.07165418777627672,0.7383214873392527,0.4476457888860311,0.6726854044421766,2.0882085238611188,3.8453797956905484,0.6528756675646988,2.369556200100826,1.8802732649616696,2.895055607208591,0.9183728626443891
340,1.8965834787995588,1.9393686857609351,0.005070797409376215,1.4292192786068276,1.4303842145437318,0.7599287259556488,0.3103016000788664,0.5157359439319866,2.177566722365121,2.360204885011041,0.6333676938231112,1.8935707353747397,1.9292211363254637,2.108309525680688,0.8373932551135131
341,2.2343534062569717,2.4003308429926786,-3.6979138437504395,1.5539541343553382,1.517743447758711,0.801223112250132,0.3829795781033765,0.5957166616886831,2.612453460360733,3.220710553547474,0.6509067234006624,2.228818448927398,2.358730135710874,2.928196066563504,0.9090199765607145
342,1.7099155006544808,1.1237232204731036,1.234974453068956,0.10060391803536387,0.0962216158036207,0.4917553175364112,0.4972871200418867,0.5872181871101589,1.3366945596761557,1.5674867891927367,0.663668482632973,1.693181905867061,1.181513372644096,1.3673761957403991,0.9578517870260503
343,1.9237141540728409,1.7974485617943567,-1.1252891056469263,0.106969059718312,0.08731972003909984,0.7030935621430601,0.7462363971490241,1.1441726120832496,2.004663326444875,3.5185498565615703,0.6652988471865258,1.900681876452242,1.8581432839039178,2.658307202177506,0.9081391068380082
344,2.3436551303836475,-1.3813163517186013,-0.8128900674864108,0.12463234025682715,0.10761302561772816,0.6570873601937454,0.6622168024058128,1.01519926207179,5.275256084766483,3.777489460147697,0.6333676938231112,2.3414414280966285,4.6472829134191755,2.472930458741285,0.8539857849355365
345,1.8260388610402478,1.771758827732472,0.7344293338745382,0.13417498074283646,0.10501611130770543,0.43135174497846884,0.6737512921207951,0.8527173249330289,2.0443653567778757,2.246185250671209,0.6584896970785714,1.8153693348671889,1.8506620251633854,1.833450651112897,0.930186702507833
346,1.3444707917971634,0.31199807971288585,0.11156523256257334,0.4623266719978069,0.4600306719759603,0.5099699617152118,0.9342496456763936,0.7612114444758409,0.7543946911016229,0.8347764226243048,0.6509067234006624,1.1550415566348253,0.5890076964371536,0.5244565262692042,0.960450013689671
347,1.5423819877038807,-0.229933485892436,-0.009228896501835449,0.7255333543165665,0.7173365601744488,0.605957072163377,1.0929636401219998,0.8396348722804678,0.6148292121993839,0.5761513013858157,0.6284777104787076,1.0901482102559803,0.47161126686137855,0.39322505321366247,0.954864076786063
348,0.5809579436018374,0.12402018272712273,0.05322373607693476,0.5691151640686504,0.545841304129972,0.4254277359272962,0.5078740051052488,0.40046422996074793,0.3202662635958246,0.34328211256865154,0.6584896970785714,0.5800566188402086,0.20723031562864414,0.17054943332047617,0.9281054958064882
349,0.7214600605449645,0.0028877306297165894,0.13435680657632254,0.3400167642690692,0.3356389597711358,0.37429299108211145,0.3932090284144089,0.2670405319566992,0.3552422613608509,0.35225043504625425,0.6509067234006624,0.5248118657407306,0.23234064479512712,0.17744363668253701,0.9526161224719383
350,0.508153122270263,0.03560230848928864,0.03391046559559885,0.36960998668764966,0.37325764398978367,0.12440360362487955,0.6450938314943755,0.622572653166301,0.3027539918544248,0.31962304467763464,0.6207552362147116,0.3533155137834078,0.1925425690923157,0.17397536294672766,0.9444982501631136
351,0.4852737156133747,-0.11636848902560049,0.07009349508311113,0.3552404684388272,0.35205100423382,0.20775624113865096,0.464880100925938,0.45961071903422723,0.1775841502124167,0.18044460687066372,0.6125606311107803,0.29112502966976156,0.11943637586315191,0.09754569454713068,0.935659992105625
352,0.6994590375691783,0.09598079879060306,-0.06404228863752592,0.3856634396883581,0.37751303297353095,0.4370039282899661,0.5299740758927148,0.2918634324131809,0.19165245659412333,0.16240640041923973,0.6509067234006624,0.5693967997905282,0.14069310149972925,0.0904940228719272,0.9503203631023655
353,1.8025486127853494,0.9771181557798414,0.7721481165980895,0.3067472034318899,0.28534565816180874,0.5428124257561289,1.0168249977237638,1.2177379316644352,1.2509461353241085,1.3616428951817994,0.5947193981915972,1.7950314830984744,1.095940454869723,1.0050683629533395,0.8570020409000146
354,1.2254910272776665,0.2584762237621665,0.31285338894170667,0.28418574553099724,0.2690034565469626,0.4605588000779105,0.5760850725674849,0.5000202436543,0.6393191727393428,0.6186142282399605,0.6447042257417027,1.0749934230694758,0.511053536574049,0.4032695390212624,0.953261140404496
355,2.1634885086471414,1.6498163247616713,0.8960008749028869,1.6823292887658932,1.6439283121532327,0.9063943078082777,0.32893869410130705,0.572977225562337,1.7530683258287845,1.5032670170617735,0.62595550513784,2.158965865219129,1.6012902517370349,1.4839940283215969,0.8630131776723716
356,1.7919986072440761,0.6129366759334562,0.23143498770550952,0.5770054763972278,0.5506867830192761,0.7041824396534302,1.4659839242444221,0.9914006662784236,1.2547137455791715,0.9450043656386643,0.6403206450210053,1.6432819944968238,0.9882702356326614,0.6694982029277313,0.9642044990017311
357,2.03623316843606,0.2647174969801511,-0.4120814436003908,0.557828448117092,0.5422133167503769,0.49805334816586844,0.8467902950913699,0.7140547375612322,1.0586183942376866,0.7777066790520842,0.6425374456860184,1.4960596251826908,0.8295666669580528,0.5490689863704136,0.9585724332668117
358,2.2072069070891427,0.3239289458687744,0.37054598661555493,0.49384452726138406,0.47911996966132203,0.49639196509186945,0.3535095317859597,0.39432035779517466,1.516182454498438,1.5910276513916706,0.6425374456860184,1.7796991547356886,1.2917149784560504,1.2140909344915207,0.9345489079599513
359,2.009355542492932,1.4125756707751609,-0.11632484341356841,0.3081639455585081,0.29036980747500146,0.4982644435100299,0.2227318127332086,0.28374554947560426,1.8037175154584855,2.1924977638508305,0.6566669596287297,1.9818712914970726,1.57364345054944,1.7273668163716847,0.9331691221222767
360,1.2314611412325938,0.7557185503443626,0.7533923859752114,0.18880655353635273,0.1556826312489139,0.36257688450558856,0.27992203227211604,0.2947300477367865,1.0239625437842361,1.2511318002281013,0.6447042257417027,1.1878078674725807,0.8396739352765443,0.8267509085311666,0.929463273997698
361,1.2152187346824315,0.10070753918382636,0.3260486882871554,0.3975787690750797,0.3817688716616661,0.4421920713748511,0.4162804298908586,0.2786176247827715,0.7783697583054263,0.8500559800983933,0.648888643467878,0.859096824836937,0.5907291571074212,0.48372749290158346,0.9606797371738627
362,1.8379320813990112,1.5291817446525873,-0.021138028808271425,0.4143376236133629,0.4056264831851796,0.5438864009219904,0.13969642272128385,0.1807099510773337,1.9203060185562184,2.1799520228552596,0.6547956803312163,1.8008674882587823,1.6470721559555046,1.6139889442695192,0.9146031019881672
363,1.3357293710959324,0.8283153591643855,0.7968943159158286,0.2306043928429376,0.22646425619256258,0.5756313621972071,0.5194562283600228,0.5541558825305057,1.0964965903136403,1.3282547845147004,0.5883313578629602,1.2361899516526726,0.887784163943954,0.8899221285850354,0.9485470792770677
364,1.882210809423434,1.7240871430724654,0.0008067345161806294,0.24643171125510083,0.24465331286269085,0.5423114515916554,0.5633773365326129,0.8148382021554945,2.183229668988123,4.263908991537302,0.6207552362147116,1.8115540965562347,1.8813333789552407,2.3120000919286476,0.9022905428452639
365,1.3092290658925663,0.7493200157988662,0.483387774334906,0.24617879408116716,0.23240533258551516,0.5496589479270483,1.0317261454465674,0.8810958973541059,0.910253190125744,1.0138195776413443,0.6309483474627791,1.2502494633310695,0.7440342700084597,0.7271894880948216,0.9481700493556233
366,1.9394875941207328,1.1772314086010793,1.2974806101262808,0.26201663640172107,0.23753750035063426,0.4838073208586863,0.2951235649752217,0.4618240916409531,1.5075190123411835,2.0835072298358313,0.6125606311107803,1.922627744433094,1.3920861773409243,1.6205047330374833,0.8576887590210588
367,1.2016936961702165,0.35536787710810147,0.4184173051557061,0.3769311890349691,0.37434060459798113,0.34344724662617687,0.7253616297669205,0.5922326386051524,0.87935485055533,0.9669342529498292,0.6547956803312163,1.0474440020937104,0.6842243209240536,0.5887413548888337,0.9548493880175772
368,1.3084464312842043,0.38201504304206835,0.5334960968308273,0.42655557397491006,0.42260513116822135,0.38674207076204836,0.3427463845780924,0.3909007750012245,0.8762849086202787,1.2166328778399134,0.6602640781246099,1.1920442334606622,0.7088606830281907,0.7706526482543313,0.9440198914209212
369,1.9015181122083098,1.0315186073114877,-0.025399183265667702,0.425444672891216,0.4042109115859251,0.5714596602435448,0.2711977031540658,0.3478200641383721,1.6416674139117786,2.5272092026278856,0.6547956803312163,1.813664304616105,1.4113413806276327,1.942283418897895,0.9066045579559102
370,2.0006575730827065,1.3815503020841795,0.04044739985826906,0.3772730938610421,0.36962487966075847,0.5259457652193692,0.530772922590208,0.6628111846951017,1.8980204475256852,2.399288213509972,0.6125606311107803,1.9094925061343968,1.6321170292445035,1.7929108798330968,0.9364084605740903
371,1.264944492027506,0.41991314385905243,0.4536376046644779,0.18508749434778257,0.1821111614382366,0.29921565685264623,0.3318623540660536,0.3003260702010909,0.8068575903039521,0.8972150405256671,0.6207552362147116,1.1519427443797605,0.62914058485106,0.567545702264632,0.9636218087871433
372,2.022898890648395,2.0128405482851046,0.4117214362815318,1.2888826579886687,1.287697295981908,0.5149786652123642,0.09065441180713751,0.14243812128152983,2.2235378757448974,2.0557262629032893,0.6207552362147116,2.02117263355586,1.9869942324251881,1.9355662783057437,0.9306212398129703
373,2.1388032362625564,1.924495470434863,-0.102058622810131,1.3783716882458903,1.3792266638438782,0.7895228724411789,0.14106195597945914,0.2337794395373958,2.0944779569328476,1.677553842559348,0.6038851895711802,2.133217447361927,1.8804692118427193,1.4537070373873244,0.9272918158316973
374,1.9270143702283187,1.9582311867363693,-0.7022035183449629,1.5657827257825945,1.5522292630517651,0.6954370785447274,0.12400317843324676,0.19288350416672606,2.110058922524572,2.054187960013524,0.5915533975974677,1.9118200966284964,1.9232418676635215,1.7856056036536767,0.9315620273738376
375,0.9628327125642565,0.8649863893054494,0.8236041657308955,0.08467349851939517,0.04178490043141435,0.14749348004362633,0.1666063944001207,0.19199065039097035,1.1607093045020729,1.3795941873493267,0.6008849035917525,0.9715685621791414,0.8751399985339295,0.8136632050723976,0.9471533826763128
376,1.7461230137150598,1.2388818439743947,1.0654285643063957,0.22203252370352614,0.20482673477307545,0.4467165619963929,0.6353327955738055,0.7277483382979714,1.6600869660729753,1.5765517037807106,0.6403206450210053,1.68057594026744,1.4480530067529827,1.1863622863173005,0.9414141172447278
377,2.140312984521039,1.491016004068951,1.1577319855700239,0.1330423204975338,0.11944489397362197,0.7797122634402744,0.500610720110952,0.687274200711289,1.656921311719443,1.8655981579415033,0.6153451465759925,2.1350952058706705,1.509023354714369,1.3035419343498276,0.9202837781391061
378,2.283519952538383,2.488114739210014,-4.656928111483188,0.24137394552797656,0.21840364970078063,0.8930539074382147,0.5065807503510882,0.787930517285404,2.7490747784497325,5.670053628497718,0.6468212168108125,2.281911385503413,2.444798885018774,4.88909520956216,0.9121362538590921
379,1.466973679969935,1.1735945114062174,1.5049007340561618,0.08467349851939517,0.08246639740730667,0.349498894689691,0.40026316521236466,0.5717709541258917,1.519723735295249,1.9262782882261962,0.6403206450210053,1.4620241605452746,1.2211708395587593,1.5397407964910537,0.9592196941157775
380,1.743210038157192,1.3204969446314914,1.2846000813695673,0.10696905971831198,0.09094839686081393,0.393151941756694,0.2383981900277447,0.3570214350299988,1.5745315797271948,1.7546653720028482,0.6547956803312163,1.7036875437077708,1.3612757249204381,1.4611903770416583,0.8825193377596159
381,2.0960781878895056,1.8121132650857925,-0.4259227356378168,1.5065965199322546,1.5027722177549958,0.8348579216417567,0.3048424649532545,0.5025901363525321,1.9994297755731976,2.741759565669523,0.6619902821573977,2.0782866532647057,1.806337377975326,2.275916845911884,0.915409801608015
382,1.5145896817008886,1.4693164880479364,1.1967762897846912,0.14054012242578456,0.1318262943360565,0.3373486983464289,0.38021960366569413,0.49029923325222297,1.8034472000172872,1.7332251194196857,0.62595550513784,1.487613670745609,1.5645713833131596,1.2545279863095835,0.9553345877717164
383,1.9925411407843434,1.6663692029881247,1.3129184539138588,0.14690526410873272,0.12243840090174397,0.399227990680112,0.14676982094083818,0.23290496664264715,1.9755939240408276,1.7685494864936788,0.6425374456860184,1.9975543822076518,1.736787445983042,1.7871190896715528,0.8771103086202787
384,2.231199585353947,2.202268846622573,-0.7093635072322293,1.640278834698404,1.6076735803614612,0.8601983551199931,0.1409071171846143,0.2560548031482337,2.37229331207371,1.9696006089897586,0.6125606311107803,2.223979314645039,2.150961373639357,1.5354560357348044,0.879092955484776
385,0.8395975981969349,0.5076885292165161,0.4492168168052255,0.14228428290499975,0.13068655082345987,0.36964039212764765,0.3164585757799038,0.29736056311753695,0.8955028091601556,0.9080450798341889,0.648888643467878,0.7950568670600386,0.5992696657571163,0.4896213274058029,0.944753005896233
386,1.8479957651942902,1.3473881062099509,1.341062300464941,0.14696382737077213,0.12620557243206987,0.42327649017400526,0.882997781442338,1.1458365068177474,1.7887694397762106,2.118089187887731,0.648888643467878,1.8140050781753747,1.5618494958149856,1.628136177387227,0.9538862694892744
387,1.3855220106037291,0.9614164898513589,1.0169657121960443,0.1469052641087327,0.13675939882105725,0.36907492115628165,0.7331636677725482,0.8444960852954246,1.2874709812896241,1.8435330662776177,0.5490601803369085,1.3425114211948839,1.0700125534324962,1.2938407938275758,0.9496367600373594
388,1.4253061169767698,1.0091510825560648,0.9577900044025975,0.10234807851457901,0.09520835087326267,0.20685560545414822,0.41557193393621367,0.5156677358386916,1.359461756610401,1.4673171561999092,0.6668815377411301,1.3842963584572177,1.0872334942891442,1.0708471423785733,0.9561618316278101
389,1.8209790762350841,1.5334460046160439,1.2474097991415394,0.19517169521930086,0.18208356276176782,0.7073364251100794,0.5917246108204253,0.7235269423372204,1.9558532277603244,2.0820959730764925,0.6153451465759925,1.772741463392293,1.6874984589036455,1.3611533721617886,0.9151142225909783
390,1.7872416440697059,1.2471620814084476,1.7150119017266139,0.23612729606183336,0.2263783542578185,0.5193870097702993,0.37954708026064105,0.5009151442319645,1.6172178888055047,2.387386779604356,0.6447042257417027,1.7301000888413274,1.4084766509644182,1.981129649344872,0.9296942595289671
391,2.170181920964956,1.7034767287272974,-0.5073513774028342,0.13766330170126678,0.12090038212629932,0.5549130915528795,0.19080012055144174,0.3136438991471526,1.9359428698738852,2.873580681143638,0.6380535849069913,2.1658228141966878,1.720965720052917,1.7308162441655441,0.8942740828539018
392,2.193042872210445,2.6185433198924843,0.7516829507597294,0.1515848085745051,0.13868221795200347,0.8160932412203142,0.2302369685978378,0.39247296540742105,2.8049130775120212,0.9346964792346675,0.6207552362147116,2.19074561123851,2.5980803545566724,0.945415716345727,0.918841598149642
393,2.4246292415737947,2.461532514095007,-4.506132485368305,0.46919692346099295,0.4492879268197446,0.8619529507782067,0.20162791609421182,0.3326117452683195,2.7952735665946262,6.197857588798127,0.6403206450210053,2.4010558176180563,2.488837858782071,3.473148835188852,0.9235094815857139
394,1.6039937073638701,1.435592051612908,1.1860778785178856,0.17755399948118852,0.17430664776712912,0.4708305496328816,0.49260383378647843,0.5821267502818669,1.699596092411999,2.525498063553953,0.6008849035917525,1.5893629910586344,1.4846912492708264,1.547923063975012,0.9524500347466147
395,2.3209280562762187,2.5919662565772517,-2.986744606911418,0.20905883749319043,0.19430108580581934,0.6384539474726251,0.5497309669065347,0.8377498710168458,3.097471287042819,2.454108924438376,0.6207552362147116,2.2872587000402005,2.748694402040345,1.6180216561254919,0.9195294909938615
396,2.24182706575998,0.5903511475981973,-2.793942686603107,0.21234068234975487,0.1961486791045708,0.7430937202978042,0.4309317137335131,0.7330571401486975,3.889896535124525,,0.6509067234006624,2.2277868829188594,3.570306271208583,4.916324614625014,0.9157013075215722
397,2.1389712201092523,1.901476495505344,-2.604911220261838,0.7980949681150957,0.7707280817680063,0.8886923059369798,0.3165887782999852,0.49353595237160364,2.113146076594492,3.479655016231898,0.5641709578113449,2.1378242340547717,1.8758624251498743,2.7494873909663835,0.901630705708717
398,1.9560485353312225,2.2160507075948797,-3.1379341069420974,0.07830835683644703,0.06835584534774977,0.596012811405894,0.6913570654051863,0.98347633342698,2.4487428727835368,3.033232994769218,0.6566669596287297,1.9609673868766266,2.2335659026009065,2.5979111429936097,0.8895438122137677
399,2.168109418294962,2.623413156040792,-3.056469807568979,0.102348078514579,0.09256484743453938,0.6159904555431077,0.5972262858229223,0.823572225377348,2.8030140076602543,3.946144826177837,0.5947193981915972,2.160121489384717,2.4641182593237247,2.2835155302736947,0.8594979305465322
400,1.7029546914380338,1.2886395601107827,1.5391098238814696,0.14516110362951756,0.14088752605593666,0.3793160038914889,0.7164887969778998,0.9137500779172999,1.8059396173853812,2.9239454832635405,0.6333676938231112,1.6806952506535506,1.3551648139912196,1.6171007851796695,0.9499074943320269
401,1.980500069117287,1.2828938460516774,1.1748066048246164,0.22688424313739894,0.21164562831971045,0.6621124640522053,0.478785439232777,0.6082909111035883,1.6564669522567612,1.6375671298052163,0.6380535849069913,1.938945569253755,1.4408165316883355,1.3469481695800967,0.9188313834238809
402,2.0113451274326413,1.662769455222367,1.090432148018973,0.21741154249979316,0.2141050066201535,0.5016163568769342,0.5936685976694008,0.7879557584059942,1.8269874726584028,1.745445191268452,0.6207552362147116,1.9957542017035037,1.7002617679797523,1.5212335737759988,0.9299288301389572
403,2.0400067634783916,2.005391132735625,-1.6741514113164992,0.11539037784936122,0.10069150302811587,0.5551346849772677,0.8070923575261187,1.133893658551684,2.278848420372553,2.7113003581848143,0.648888643467878,2.0220115597795596,2.0350372176988443,1.6737623695657164,0.938549863629064
404,2.4513964788807643,2.9112880895510926,-5.362684568431857,0.47407577026846465,0.45203793238698353,0.8264469131727666,0.9195115110963781,1.2785143243831563,2.9252848849482675,,0.6125606311107803,2.444917001571842,2.816318690071663,inf,0.9066627082151251
405,2.1521974807812256,2.7418025273976356,-4.894000008178861,1.5863247411369286,1.5721132478873585,0.8611205156254541,0.852792397720523,1.2197556870612392,2.844655974053386,,0.6468212168108125,2.14605629076182,2.7033108557383136,inf,0.905699217596145
406,1.7793138149367669,1.5638765732120483,1.2986030524420729,0.06698765724152846,0.060093549710805126,0.5452368463153225,0.765929108535394,0.9134060580254687,1.9419081516776926,2.964629623670825,0.62595550513784,1.7691503263671964,1.5498528176689723,1.3816994686734863,0.9552713608187643
407,2.131511298809538,1.8954083434586027,-1.7041246983836857,0.06698765724152846,0.04417368109215529,0.5946068819311666,0.3875879801880049,0.5140215585743435,2.2546419352615903,2.9961495675522913,0.585052858160615,2.1180437794617784,1.9506330360117448,2.4713536833832968,0.9069598263943265
408,2.126065505441169,2.328042863307298,-3.4026313829840467,1.483738637989739,1.4724328136399405,0.7427851152758655,0.3154971336096611,0.5008626503610253,2.5661089469448246,4.318034348286513,0.6333676938231112,2.1121484049811,2.2815010695207745,3.006582289578057,0.8587062495897638
409,1.652698988548644,1.1859528495855736,1.2202296096477987,0.10696905971831198,0.09623363186474472,0.3700183404191575,0.4818646342436298,0.5369218423831055,1.4180107874671706,1.9881194783170235,0.663668482632973,1.6424203463980187,1.2461530295567664,1.2862584371800019,0.9529816908827231
410,1.9310285183898659,1.8914474651825866,1.0062576991480023,0.11826719857387902,0.10131280141820265,0.5106926900784149,0.6444069416540021,0.8052926852849808,2.2778244224707747,1.9638472796701345,0.6380535849069913,1.9107682558102572,2.016932562337119,1.9115196274039294,0.9401257127279304
411,1.799942455236458,1.397934984387048,1.047172155823469,0.1581806884875931,0.14314700580730957,0.588180603776713,0.7573323304874771,0.9791336911890551,1.7252267610808742,1.2117610729715018,0.648888643467878,1.7877010491005536,1.4783828587544279,1.1221843877423765,0.9242889737069239
412,2.103687876432743,2.395776151709214,-0.8519302895257579,0.06236667603779547,0.05702805112705656,0.5687878404260074,0.6272230716933013,0.9113205121415945,2.7269127130925184,2.0603016774336327,0.6357360191111145,2.096113075967808,2.4117287660597215,1.5152280444957837,0.9143488227382334
413,2.2208470714788677,1.9684423963578133,0.7720720549973121,1.3853892704006057,1.3282154803782849,0.8383635615126154,0.5162121304493156,0.74553083582019,2.148191262846537,1.4873048803521065,0.6233814453054027,2.217427284653739,1.9487713813363456,1.1729406950782075,0.8873995030573886
414,2.0810793555105502,2.5441891557513707,0.8997651048456685,1.1033907930251527,1.0871799692331838,0.8606487004937137,0.6560006192060138,1.084143159264871,2.6891368689628465,1.0016252682254452,0.6233814453054027,2.07580372213188,2.6055278248217753,1.0598067142463146,0.8774606670298988
415,1.7532417268339133,1.9065044797592805,-2.451808971969249,0.14690526410873272,0.1339259331621522,0.5166308523266211,0.5596875339287903,0.8042717877253551,2.2015592750366237,6.776625026833396,0.6233814453054027,1.722855490580844,2.0096276010152243,3.516198774356662,0.8832683612572888
416,1.738178200291189,1.0811616371662953,1.1193016936081932,0.2554429354324269,0.23429675589467874,0.4818664634650166,0.4640611751151444,0.5751243849719784,1.4306644202757774,1.807170749064922,0.6284777104787076,1.6701910147260204,1.257259751411565,1.2337461030723558,0.9349496784048641
