,bvp+acc_XAp0,bvp+acc_XAp1,bvp+acc_XAp2,bvp+acc_XCond1,bvp+acc_XCond2,bvp+acc_XDist,bvp+acc_XFuzz1,bvp+acc_XFuzz2,bvp+acc_XK2_1,bvp+acc_XK2_2,bvp+acc_XPermEn,bvp+acc_XSamp0,bvp+acc_XSamp1,bvp+acc_XSamp2,bvp+acc_XSpec
0,2.103705794970484,0.9004601536287824,1.0383380290663062,0.10234807851457903,0.08549242367139973,0.7155322632973085,2.111449833566656,1.1011731305595323,1.113518710301083,1.231591552425498,0.6233814453054027,2.0887289811829204,1.006946409899123,1.1174527071300242,0.9056393371675248
1,1.8543361226711976,1.065531367382066,0.2765254288094443,0.48770652427309247,0.4766777175451071,0.6266493080846358,2.5910904704165363,1.658748176872722,1.2159949411778384,1.3923212033507988,0.675384900321601,1.8255230993808642,1.0938656075857933,0.8968191956471938,0.9452268649445523
2,2.4890045538551693,1.09578539637896,0.8729489731639508,0.4343187337070448,0.41825819759023797,0.638411698334827,2.625326247137618,2.35307536786459,1.6806898262553367,2.298717782307786,0.6652988471865258,2.466019474069518,1.548897954521261,1.5965897699562515,0.9188401045496098
3,2.471032491625894,1.0243480034006867,0.6808201808396261,0.08467349851939515,0.07066253465489097,0.6219299102848171,2.5315377609607035,1.194097395814007,1.2289398554721975,1.0022101533251255,0.6309483474627791,2.463536624051808,1.117186227102301,0.727640354605201,0.9253074850471854
4,2.3010535405006056,1.6591203259278346,-3.8760326344499654,0.06698765724152846,0.06165974107482262,0.3614150576414734,2.5358129222578847,3.4197824393754686,1.8545668322046072,6.543665620334972,0.6619902821573977,2.3028073399112845,1.6599243355089242,6.058538912772303,0.9530921770536802
5,2.7837840812055714,1.9732980918246263,-4.635422309744504,0.10060391803536387,0.09081477274382453,0.5172954750175555,2.5464757904579134,3.648405531528588,2.344608109088498,6.271821250395281,0.6468212168108125,2.7777576135270303,2.051945978064325,4.6319512086657335,0.9383433523382791
6,2.162452728535372,2.2989830583766415,-2.2293588835943945,0.12463234025682715,0.12197094595723042,0.43579691047059393,2.3181071673998463,2.83240552794099,2.926370768729275,2.9074604460896154,0.5947193981915972,2.159158376529763,2.6098387836161185,1.884977598060156,0.9381977408957949
7,1.188752512947011,0.7352780052206873,0.5265268035596637,0.25567367366256677,0.2534269024738905,0.217104915255681,1.9071731747613614,1.4704928429155466,1.0237507150158514,0.8572534410710981,0.6547956803312163,1.1263261272356253,0.8577244298238745,0.6502846062204293,0.9585399418895263
8,1.8876807546013128,1.067371254056,0.7073367492884799,0.3400167642690692,0.3171723328475582,0.5980748881724506,2.184386457431287,1.6554199450179867,1.5197142921050875,1.321756534945414,0.6468212168108125,1.839759945283238,1.265043423325115,1.1928821176317779,0.9515889348422208
9,2.400697333344876,1.875194333380493,0.5303766377480068,0.20641275499881248,0.1764074814271512,0.6579569216895643,2.5718225320042496,2.56566772271986,2.0960816484706024,1.0103503426754807,0.6125606311107803,2.3851216484633597,2.0184691641263623,0.9471901234940554,0.9347418825127924
10,1.7971482502108884,1.1827419211511492,0.7129127985493304,0.3279924047565381,0.30596682786144414,0.596071311717129,2.260777562738116,2.1091416339735805,1.5140514685384825,1.4658545316337337,0.6125606311107803,1.7588406224709454,1.284449241849932,1.2495056366250616,0.9348512981162326
11,1.7240205225458582,0.9346358804793826,0.7190588557858963,0.46003272564874104,0.44049895212752066,0.49343816264878065,2.0712626809428363,1.8802247442252011,1.4356877289032886,1.5536481284670127,0.6207552362147116,1.6774193907896522,1.2671973819589084,1.2101857585106544,0.9415719829858045
12,1.7025839967065846,1.0054224811682464,-0.07862496524945417,0.4940613371875165,0.47730070630830906,0.6669627103593821,2.089720679032435,1.7211267588499153,1.2662637232619334,1.1178028690018624,0.6509067234006624,1.623649531917119,1.1164074653201776,0.9351387297907175,0.9495138470213432
13,1.8893463253347849,1.0871979766053872,-0.5489997975240914,0.8967848959459289,0.8983456979712152,0.76217245707148,2.6325190950996578,2.136027890514558,1.641864030188371,1.499910794160803,0.6309483474627791,1.7647281301770246,1.3069257249384323,0.8969395018010835,0.9371624987718734
14,1.5815070627783374,0.33767503275394883,-0.5785788668812977,1.0322521094814392,1.0062968472383365,0.6405842131361215,2.1970369977562445,1.522716703438444,0.847609921707425,0.6386925754934814,0.6468212168108125,1.277898456918543,0.7231016584547303,0.4472532167666915,0.9435666437729217
15,1.0032443220181957,0.9438422996598437,0.46665040577152217,0.8238974143612808,0.8308330024219513,0.32852470277943147,2.8325641499479506,2.3076287479529065,0.9569410970316788,0.9685642065826582,0.6602640781246099,0.9558981864689344,0.6982465715719618,0.5487961262914322,0.9395421973009255
16,2.1421637859033855,1.4821497741442462,-2.2654771987846742,0.775274657276379,0.7602570837615348,0.7447216489706526,2.9511774802302435,2.9526151241351597,2.1808419987899272,4.045498767000773,0.6468212168108125,2.123323769496685,1.7468111432292082,3.1554034019126274,0.9310889602950742
17,2.3482504937527375,1.7720764814807222,-3.5393062967808833,0.7064193538815746,0.67757408171875,0.7340015644947738,2.630238047043354,3.045025244668425,3.4061356988143547,4.2803287322810375,0.6403206450210053,2.3214281807955257,2.779861481568861,2.7227563484919055,0.937024317146547
18,2.025231676074669,1.250908144237306,-0.6359426861379549,0.7992207317762092,0.77294827349791,0.7354947798065573,2.7873075909248057,2.650304887167747,1.7535468326183556,1.5550676366454064,0.6357360191111145,1.9456879515207917,1.5545933883652627,1.1160621467001623,0.9247462139894302
19,1.514336821877169,1.2610400554272492,-0.8167143424717773,0.9132853229018247,0.8968987769153386,0.5933195886788679,2.212398903537229,1.6702859278099478,0.9130338318022592,0.659382680882357,0.6333676938231112,1.2678596859747926,0.7674161243754093,0.4545763818308127,0.9220236700160723
20,1.9607590873530902,1.5529732297672825,-1.9363031722727988,1.22597694033414,1.208438774358966,0.8475459980283137,2.807025563177638,1.851813726845895,1.3091877928442142,0.8205124448204553,0.6425374456860184,1.8632554709331248,1.1078925969903275,0.5593989857665517,0.9478840545303197
21,1.7368516411664239,1.571156865659187,-0.45083724733795805,0.9707750236299758,0.9696166267212125,0.6469957497623762,2.480015547658544,2.1639696537321327,1.3335441984236485,1.1650958863445062,0.6509067234006624,1.5190387619164343,1.1304281150868785,0.7894323718428542,0.9416311873447026
22,1.9695615505561297,0.8132075758090149,0.9952352257851453,0.5345711276762135,0.5137182313712442,0.5369862306469699,1.8321693758008473,1.5793645307509485,1.7041376520674767,1.4686867305427809,0.648888643467878,1.9114443121740348,1.4239653289501175,1.3117406171048218,0.9392484441550469
23,2.564963552746073,2.022520129598776,-1.6624658855820078,1.3149690283337427,1.3124454160786443,0.8792435558017166,1.7573608574720225,1.5852553495869388,2.2632926482378393,2.0549204713391607,0.6380535849069913,2.5541852763847688,1.9916683324469031,1.8312734190882947,0.9060420028353033
24,1.6734092633226396,1.377088386701732,1.3393577307662459,0.26624769637231455,0.2613227787952094,0.2833109122697342,1.9329391466329748,2.507382622368956,1.5740935000047962,2.6638650130669155,0.6403206450210053,1.6714315264484423,1.3866490758738317,1.6549222884690329,0.9453310204238428
25,1.5344952804417977,0.876837395208024,0.669545797860442,0.38368854097900307,0.35201154771551746,0.5893257791136753,2.1410012322201335,1.807910251262586,1.2263123156386522,1.1548191727369626,0.6153451465759925,1.516403046466911,1.0082151035573172,0.9015552177081042,0.9455455200440908
26,1.9511410771933122,1.710224893625598,0.4738560142268704,0.3831626104299064,0.35965813849253386,0.6736846033411557,2.949867344985875,3.1430913941451593,2.0600169808247015,1.9950211100696364,0.663668482632973,1.9275028302614312,1.8927516130283555,1.6738075003843451,0.9305700984148122
27,2.6570843860166753,-1.8842385507144073,-0.7537280719247332,0.5346561214053016,0.5027752501229968,0.6116212355486942,3.309677776075719,5.109517241743992,3.6331743903426688,,0.6584896970785714,2.6086574572241754,3.475897512949819,5.3230099791384085,0.9158876437312888
28,2.18383843392327,1.6911617731837563,-1.7775490658708106,0.32993256339755095,0.31389778548978786,0.7135899292277367,2.8476072826200745,3.0029223973978083,2.0380336843090614,3.308999835733177,0.648888643467878,2.1759524420606797,1.8551043809255026,2.5724870815929632,0.9424753333058091
29,2.140110342856124,2.31901615180755,-1.801757385186321,0.43441830148891225,0.4246701895804438,0.518889019585454,2.5766042490778256,4.112462750460352,2.7131339455238095,3.6141258170983566,0.6207552362147116,2.1224882312222024,2.4871363051152695,1.8634664798442386,0.9440714077178561
30,2.082567238866518,2.6161981459330677,-4.641412094666981,0.28870143119593866,0.2708851866484399,0.44102497873431884,2.3811846959514504,4.393698617419114,3.0110333777417373,6.349407486925327,0.6509067234006624,2.0337461083437445,2.8113747472749377,5.4638318050256105,0.9306461014037986
31,1.7686422049629587,1.514181842284203,-0.31637522476552604,0.33250280605366617,0.3218094663512587,0.4286120589432945,2.3391260697447214,3.3148991248772166,2.0253987334550723,2.206957832835713,0.6547956803312163,1.732484777765583,1.7755556995146216,1.617257725136191,0.9337766118710596
32,2.6291518367168845,1.2807196651502397,-3.9011076624114014,0.27753018206679886,0.2542012949882937,0.6784679747829699,2.898777039925874,3.8092854361537505,3.4854480944499135,,0.6380535849069913,2.6121341442723836,3.3793304028355986,inf,0.8935332647542256
33,1.8350063711810427,1.8764950797832354,0.9326797610003683,0.24704321148901337,0.24169422801968274,0.5687173050424326,2.6173150673461607,3.028532273539146,2.1680191859135185,1.1721053456390265,0.6357360191111145,1.8176928512545596,1.939227546620946,1.3370965051598012,0.9586396255522279
34,1.9238481889677064,1.1227078275110656,-0.23767404293116767,0.9018162220286664,0.8744256171808465,0.7188589394157966,2.7026653333650805,2.2942633265793115,1.7659117505893056,1.0066376476676993,0.6547956803312163,1.8315403392398995,1.5871423567632754,0.7802819153490284,0.9509472468773004
35,1.909769924476991,1.1900320722742432,-1.5522262111647769,1.1685489678131393,1.1528800013334124,0.7857615751781216,2.742450557952262,2.0698675169200174,1.5925151427340323,1.142257247503448,0.6333676938231112,1.7318566764950118,1.3687424074488161,0.8810122082910332,0.9398089392295231
36,1.9258159698552901,0.8108878929852368,-1.1902172075162616,1.1047685164614849,1.0909335261106918,0.6691834102868078,2.270935475013231,2.0980436688322746,1.3338235706369235,1.0939208199586266,0.6509067234006624,1.6585698016515529,1.1334056343884182,0.8327822504327362,0.9469658579373832
37,1.891654287986413,0.9762230555769327,-0.8203461071985996,0.692445427567976,0.6770368325576516,0.6333890152348987,2.357800571368454,2.1047442381019765,1.6450660910235282,1.6626208521420534,0.62595550513784,1.6583947571606312,1.3518872974080909,1.0346376243258555,0.9427636863537157
38,1.942288634714124,0.7755967477599268,0.08062216084986584,0.4544139794315074,0.4350003083344476,0.5782749163301326,2.1355409696125656,1.7143267473325352,1.8029205780933397,2.3977499711577277,0.6309483474627791,1.7339309096155826,1.4841119289487263,1.5896516115352566,0.9473653442567319
39,1.7258988457940252,1.2617471449856852,0.6725172399295718,0.5419740002501612,0.5313445256649418,0.7076619231082442,2.4850434115668323,2.5892909772188197,1.494060386118356,1.9785077626991194,0.6207552362147116,1.709012728441815,1.2597530968823616,1.4596538489194153,0.9287635608773328
40,1.9726844939121861,1.9312776972497756,0.665351991028512,0.758934983906474,0.7484977027442355,0.5698969744451089,2.828943589849348,2.615393906870385,2.2848218355376697,1.7535060814559171,0.6652988471865258,1.9622315096648604,2.0477719041234894,1.8103128771238028,0.9319459793383148
41,2.3752704080542735,2.1571568080127594,0.09407152129641627,0.47827120162071235,0.4466616623051102,0.7344378730303797,2.5850636059455905,3.272033404313007,2.4340707954141005,1.1251101843071414,0.6509067234006624,2.3669458521544358,2.1449363994100987,1.4067449715911813,0.9393782266338514
42,2.193975704863214,2.545348113215497,-4.588707708308633,0.5484196023372961,0.5250047346744676,0.6457867960179663,2.8836223276696957,3.339595688662223,2.9967627807587927,5.117263805632695,0.648888643467878,2.181548097951212,2.641225458975474,4.387566815049497,0.9482457570879991
43,1.977418679966601,1.583969177356261,0.25046545906977435,0.7908281019877559,0.7526449724505427,0.6734286906060579,3.2056690703357704,3.016546641784868,1.7725009063310209,1.9155813568913043,0.6602640781246099,1.9631015219790016,1.6455301172921837,1.5963977928532944,0.9319723593436281
44,2.237001746502183,2.0814978377861673,-1.3934817875255092,0.6792014326485448,0.6663800968610887,0.580340052485336,3.3506743098837943,3.912130139969659,2.6777727820365316,3.236492958748343,0.6468212168108125,2.221824694204452,2.3711973578479917,1.784104975867523,0.9322900424360732
45,1.894413069472815,1.598182009298531,0.49897204965206754,0.6007576762426947,0.5814395567391278,0.4993591821218491,2.7976078845761947,3.256590204485269,1.7837015044905093,2.485199511508407,0.6207552362147116,1.8782618848514065,1.6541837834207027,1.69510262738772,0.9448863135969895
46,1.3288716029790502,1.0277070016119176,0.17173493778162285,0.86861586244674,0.8654202949719484,0.5834789771775983,2.756341410546356,2.4896146824430905,0.9811840672746169,0.813031385197046,0.62595550513784,1.2576080201585675,0.7950834064453534,0.5889470089790375,0.9316119745675896
47,1.3799167200458324,0.7938546126259789,-0.1580824176036275,0.7984495417717895,0.7764294946774549,0.6396936128296425,2.7203285753926543,2.144699912033909,0.8383514939306448,0.6909892927263894,0.6380535849069913,1.2146967676889115,0.7271881601167811,0.6307606362903143,0.9328778826308944
48,1.1981324990595201,0.783065986151745,0.7579674251783828,0.26498731791926383,0.2578986381549406,0.23290157411770238,3.044704624021244,3.120522348336712,1.1200317281123957,1.6800964731833117,0.6547956803312163,1.1698934906730734,0.809803274134572,0.809382741606647,0.9450678027898219
49,1.50582249903158,0.9385227741765887,0.6596154609107674,0.7502621604656163,0.7483241047161711,0.6708792363651859,3.387557668624307,2.987240477804049,1.1144655957650083,0.9543620385003857,0.6425374456860184,1.4897800920754496,0.9559058445592694,0.7745797425225361,0.9501124149706326
50,1.9009627760384915,0.9481871188916644,-0.6552363835018289,1.3161531702909055,1.300742892245317,0.6258209323413367,2.8034833410797786,2.45828826842579,1.3228314731088708,1.217347342017932,0.6468212168108125,1.6861989735675624,1.1828027585924097,1.0134624710266293,0.9611196741020988
51,2.225387297093163,1.676897575689095,-1.5919944109756359,1.1851142013942246,1.1732555955987745,0.7182224049999014,2.938189846998673,3.00872178309666,2.118386002041682,2.5320277250813312,0.6380535849069913,2.0709444114258897,1.8790112481709065,1.8628979101137668,0.9387477906559956
52,1.9029769551862765,0.9571403107775338,-0.3873168545446881,0.9206209902302109,0.8867357253930942,0.663665176620755,2.679761322213837,2.35437927881166,1.6752989072949183,1.6387116957179477,0.6357360191111145,1.655307346092555,1.4271939095886501,1.1775044224417432,0.9528397749621114
53,1.9378609160742035,0.9862739198517005,-0.37844585595596403,0.9449216227344565,0.946403881740846,0.7205982855312777,2.65867022577626,2.1066522096799134,1.4489722899740065,1.0810831877525617,0.648888643467878,1.768238274186709,1.299109354178658,1.0243338164372497,0.9395767109427822
54,1.9388664835873517,0.8136191998386308,-0.7032778084293252,0.8017437870066331,0.7675467036786747,0.7436425356196357,3.049546336765365,2.4184881841648447,1.4270982502130856,1.0760207475609112,0.6284777104787076,1.8144141597928611,1.1617333751247074,0.6154035752358056,0.944912926196128
55,1.8559772044076177,1.0918538382282792,0.5345797177683438,0.43566967988231703,0.4090558033634454,0.7501364355146563,2.803605815169202,2.8975424043719524,1.3385933514074,2.069482266708365,0.6528756675646988,1.8527133118983952,1.0182480524779463,0.9377031280646514,0.9344184856276918
56,2.4075956985436964,2.1352398863569206,-3.973954678074972,0.3914170811373937,0.38165749712549296,0.7674530141554022,2.886401833784233,2.983195817255819,2.4746894525813943,5.828110563292041,0.6357360191111145,2.398239776577428,2.237389616895372,3.3061996530398754,0.9298199479531406
57,2.6055400474165222,2.540531967702989,-4.086087681476711,0.23810219477118838,0.20817293528962807,0.7485886046568653,3.515066983872025,2.732050918305722,2.973791523768814,2.5264085778353143,0.6333676938231112,2.598150005402352,2.4191742768447004,2.020792814598328,0.9234865384071405
58,2.1010463282281155,1.1528769022751129,0.49199839032206416,0.3765813753638606,0.3635218993443727,0.6851516056048546,2.931912852129616,2.8134464348176427,1.4849968838761491,1.9106979872831047,0.6233814453054027,2.08229003924412,1.3165767270797533,0.8378097044760238,0.9467431865519064
59,1.6064612963108402,0.9945164350724305,0.7398721863836815,0.4447283555825118,0.43239833477111567,0.6105302681031873,3.1882952526871406,3.1241468787109197,1.175627007511692,1.175030582233939,0.6309483474627791,1.5917071467372481,1.0199728305452682,0.9714390411522666,0.953612713153827
60,1.6542820985673856,1.2195794764451673,0.5586390080597488,0.37687920014075865,0.37274969476621284,0.5635128404806252,2.9061196812415515,2.9010762496658646,1.4091984491200265,1.2768530326366836,0.62595550513784,1.647659125254298,1.1648260939847954,0.9636480654964035,0.9441959484105868
61,2.6289930737756464,2.3164367222329094,-4.849840979120882,0.26334616000293776,0.25103338973132516,0.5092956075388478,2.806133255421109,4.163987472444868,2.5011972432579213,5.588011205831275,0.6509067234006624,2.611831343361667,2.3757386778035925,4.810557015713042,0.9418302544049454
62,1.961310550483243,1.3115237124627237,1.1002017752578261,0.42767713856014816,0.40456208992982157,0.6284968134837597,3.2670839755011127,3.518949986570798,1.5577011879788534,1.8168688369366648,0.6380535849069913,1.960493752513494,1.2940092499978582,1.3429194966859135,0.9465276771563764
63,1.6536382619372119,0.6347062247342796,0.00484888255307192,0.5596333106639162,0.5403197771836158,0.6959622453115482,2.334303196181691,1.6594429214368351,1.0857166433373482,0.8471648743980906,0.6684167106117298,1.5020294951589737,0.8816451495549804,0.6748791064224459,0.9502747866053117
64,1.9388578518570962,0.7131209311867308,0.02201462701387724,0.4636954838398464,0.45386749212907834,0.49998510281074066,2.2775746904650176,2.1662615657483477,1.2784000293048343,1.5625289951000667,0.6699045166045591,1.769932748001948,1.1144569382166694,1.101399469449138,0.9504134930944483
65,2.04927675230619,1.352832856465655,1.1667924358911814,0.27102786057904715,0.2530407994312955,0.660203925841232,2.0713995326691315,1.9772325558650583,1.6595191228390582,1.846189435862499,0.6584896970785714,2.0334064921068244,1.5120462455428292,1.6102083284968598,0.9441726392052854
66,2.081368950475193,1.5423610783322648,1.4858745728706921,0.3412397647368942,0.328271320050623,0.6448008785809772,2.579055972689778,3.106212014063957,1.7478897991212516,1.999579917359581,0.6125606311107803,2.07076815338366,1.5840319870774136,2.139636702463258,0.9323144939966479
67,1.7787649512972294,1.3098649986039568,1.4080543640074286,0.5023559448104882,0.49484868480768635,0.5685460299778583,2.339119917297582,2.6254698217240686,1.8921408616823003,2.2062142382221466,0.6447042257417027,1.7085832147061124,1.6302655418915077,1.9353181497181333,0.948616339062163
68,1.8423860351862573,1.1390242850920953,0.7567264386176413,0.3926997651563292,0.3537295227034316,0.5616235474876361,2.1890695749216986,2.0447304559531028,1.2762871692571796,1.3786055565223874,0.6509067234006624,1.8196103973838313,1.1866212466068684,1.215189000799377,0.9335085434650948
69,2.164133187076613,2.3885350913286474,-4.244260495871471,0.1581806884875931,0.1435522256131753,0.5858271477318497,3.0668612490486167,3.881757797282982,2.775592673493284,,0.6309483474627791,2.1700959099479666,2.5220856530297544,4.007333185232471,0.9283154756186215
70,1.9084540736505582,1.510312985128053,0.4696319896873282,0.2589220734535198,0.25017358778146054,0.575117692364595,2.3864467843966977,2.1660713769379027,1.7240974896978387,1.2239186699736677,0.6403206450210053,1.8794983835360617,1.590334790516232,1.043061735826627,0.9436828023518131
71,2.4493248393355027,2.817123467049113,-4.559091061415824,0.29332241239967155,0.279505577376379,0.7301492442519855,2.5527383758297217,2.9478444167905744,3.553272082239774,,0.663668482632973,2.44044329308148,2.8556543167282435,2.500549426858454,0.9338245799488114
72,1.9559271217915413,2.032167492331301,0.5316683295878062,0.11826719857387902,0.10980122493437477,0.5900228164514559,2.314570042299537,2.33846563625726,2.4933377276817734,0.5210777190672499,0.6547956803312163,1.9500520482226484,2.070422665432997,0.666870080521462,0.940337082449918
73,2.0891870802081978,1.952398785554387,0.7505732968075796,0.19979267642303383,0.18307694642995806,0.6113291309268488,2.1974546126467516,2.4178918812763945,2.3248424013224684,1.8054492511605402,0.6668815377411301,2.082111770235715,2.0475146061310254,0.9305493632896514,0.9516904110431226
74,2.239258622218276,1.8792998418703926,0.8234229016217212,0.14696382737077213,0.10993495571101741,0.5991227984196248,2.4249537702241337,2.4973330023536002,2.020226405620925,1.4002790935028389,0.6125606311107803,2.233888561707811,1.9852636511076376,0.961876067209488,0.9451945594348841
75,1.931703539099564,1.3762377521212954,-0.2649066896457697,0.6751445408994555,0.6371164668555068,0.6584418029799344,2.656064262756673,3.313700783407343,1.9589180215953144,2.3637423946191167,0.6125606311107803,1.8350845939664286,1.7305944263613504,1.5429366821286805,0.9412692796012566
76,1.8439071803185616,0.652916552406033,-1.586324097773256,0.8898191318345602,0.8583494454996018,0.6664258768825635,1.8323939015528508,1.1959171798925898,0.8119833590109837,0.5766494945119256,0.6619902821573977,1.4597734712197497,0.7091552369616224,0.36741159672147783,0.9428160713667334
77,1.5684618773482828,0.5311489145328381,-0.892165424228891,0.8974533385584529,0.8531357939263404,0.4619499892326576,1.7957434283912759,1.2090679954574648,0.7449892624671856,0.5228387525651516,0.6547956803312163,1.2241755116434554,0.6167742017753713,0.374744380201054,0.9440963041440906
78,2.0344451570668105,1.4210503712632283,-0.043453814133989965,0.6191443271898608,0.6105469642871922,0.6344094437714146,2.57373650435217,2.8980262320412904,1.8925799734712263,1.4528046276552131,0.6699045166045591,2.0133209393596134,1.635483465795126,1.1110721705943332,0.9452746181737376
79,2.08024274908936,2.04374695155373,-0.1771822142670323,0.5001133112996466,0.47071534978964974,0.6755410566485912,2.601398072558622,2.8768285684839525,2.259778566374511,1.3412880884885874,0.6547956803312163,2.0695352161953298,2.137604840172115,1.1506914377129993,0.9295787709002991
80,1.6796937798175517,0.34425093817716435,-0.3990599668183963,0.43999705391111565,0.41445865255173575,0.5686509797109648,2.0149642472369234,1.363645132519085,0.7637685997567016,0.4909703498733794,0.6380535849069913,1.3360238117800243,0.6511829814609131,0.3650355063618912,0.9490538498336422
81,1.8517725071096895,0.24020982431690951,-0.035587927700573285,0.4871189053717417,0.48634701527220847,0.4832373208548047,2.030969534945096,2.032566430379627,1.2568331864055093,1.6679704632305834,0.648888643467878,1.4846670032564508,1.093378851275173,1.1689336330775222,0.9528666163946758
82,2.0378168119717923,1.7873115814159062,-2.8408089289424794,0.41864882056192726,0.4056443003809494,0.5309711498306523,1.7474848640500396,2.4941496099741665,2.572924385070894,4.9660848961945945,0.6528756675646988,1.9092675426900074,2.3650014517263265,3.2414756567854415,0.9441274197984479
83,2.676281116219202,0.7822897092783365,-2.493761719566729,0.2812633128187983,0.25617666791153565,0.6885782871349945,1.641679057827825,2.2892888738230983,3.0856264806477087,1.9926986602357357,0.6528756675646988,2.652300185997718,2.839062700707249,2.004179057179289,0.9340781361665328
84,1.548335829674783,0.9278016736609374,0.638237835204281,0.3942958891531497,0.37452980416777754,0.5156636454237185,1.9469555984871783,1.946216618659674,1.6298748206545939,1.2143066275088619,0.663668482632973,1.4319893203820202,1.2996707463593236,1.0507977343321586,0.9600610899302021
85,1.8673752932722465,1.118084976087044,-0.3822440608776758,0.8091872918685521,0.7915584262347988,0.6388826364846466,2.171691138613056,1.9451055253091294,1.6734773716446496,1.6459826021165431,0.6566669596287297,1.6450075212104787,1.428325998367064,1.0590591102820879,0.9445465796663911
86,2.292118671227423,0.4020220087904196,-1.2050878667684986,0.7516496144525473,0.7318365470348839,0.6181617834349616,2.1975704190773935,2.0676331332334117,1.9946095042624823,3.5505940446743356,0.6447042257417027,2.0647937901557296,1.808008502119135,2.87132356292547,0.9527857842255018
87,2.323216372636463,1.6641146399452968,-0.68962741503266,0.2285328140111255,0.21548550999837415,0.6208983705161664,2.2251136901189446,1.4539785153276918,2.2075050142396964,2.9767116153953865,0.6619902821573977,2.3181500452651,1.8409108316766922,1.925494093232202,0.9256292333996516
88,1.7116473253647486,1.0117055488472517,0.9716491837300478,0.15525433535522937,0.14709428368953917,0.4881252604716398,2.2153765834479313,1.792572007322382,1.3249195602960815,1.8242800086107724,0.6619902821573977,1.6939070690605504,1.1042502048478033,1.395639367285407,0.9617591224652374
89,2.104992728243579,1.0930780643867073,0.42424008442460837,0.3015857801954124,0.2919972399633785,0.6011034701191459,2.484503452863093,2.1419977240964148,1.4108971963210084,1.6758348155273075,0.6619902821573977,2.07500694461197,1.1789205183151492,1.2898340949323284,0.9462151890708386
90,2.5570546094880355,2.5463892468411298,-5.086396825599245,0.2849823720073685,0.2746868969522567,0.5937187587482007,2.543545114497099,2.702753133765689,3.0297834379604716,,0.6584896970785714,2.530462051447503,2.923859563577115,inf,0.9602395480185631
91,2.8169325962972374,-2.785310599649324,-0.03162199664791324,0.7280385571945007,0.7040613277015082,0.8288984545566866,2.57020637807232,9.69111813275549,6.648210823684692,,0.648888643467878,2.8067661740413676,6.521357233591198,inf,0.9229677448074357
92,2.4097384067981094,1.130364419895669,-3.5401028266937784,0.8204688023768755,0.8278709736582237,0.6701920906275327,2.521610321274087,4.184846808759497,5.207887333046411,,0.6207552362147116,2.4088101798167,3.7570077544360596,inf,0.9314647275208849
93,2.497303424856512,2.4773850719923556,-4.974688496848867,0.9339659843452038,0.9179926117774297,0.8712563190625882,2.4999943722805487,3.2908428305779522,2.6511581439430336,,0.6068309995095971,2.495900191262866,2.555557097353645,inf,0.9239689221802849
94,2.433472828140978,2.6526429765260113,-5.086115804666989,1.208670371656601,1.2071174438498018,0.7466088451560096,2.7185844145415987,5.281801117310491,2.7846006761114945,,0.6509067234006624,2.4280223475872886,2.6444883502270544,inf,0.925068662826174
95,2.0757329497018295,2.083810970720365,1.3517024471438166,0.08467349851939517,0.07878613862306513,0.652356660406319,2.3135977344247816,2.3095432619229865,2.2412098117554273,1.5216767009630996,0.6284777104787076,2.0629559565311855,2.141203471698122,1.4257531978604383,0.9492900725266361
96,2.3140909663897613,2.4534801703836684,-0.44003961801833036,0.08467349851939517,0.07301854064165873,0.655921303894656,2.3232900586716867,2.424773775546169,2.778018564080579,1.847050971485459,0.6284777104787076,2.3147701411912633,2.470058484171299,1.0854020569313034,0.9556672088848447
97,1.8759703970894088,1.821900161176745,0.6717092826672988,0.04466961139416602,0.026434715190851575,0.7053206870386153,2.5147041510462387,2.6931599539954267,2.194281874679791,2.978722730124566,0.6309483474627791,1.8644735415168603,1.8560112520124072,1.2493285060467332,0.9499870218746698
98,2.3772629226151225,2.332325704890414,-0.8682246151193689,0.022340379843483554,0.010539430808102697,0.6663429547741235,2.659289955963321,2.808371724960646,2.5490548998255833,1.2946236273945497,0.6509067234006624,2.3687248954985907,2.366807108352744,1.2784053991087057,0.9313227741248542
99,2.315719603720695,1.915967524857543,1.3889353044170267,1.3127982323368204,1.30432076234926,0.7780837778966786,2.830013107027629,3.1404196667779134,1.94838857394706,1.460697340509302,0.6153451465759925,2.315220135573927,1.9092331119951942,1.4995319344045994,0.9307770927066013
100,2.7890431105610114,2.6952104825408574,-5.484253593101869,0.5163792764247952,0.48490459330179786,0.8917063450948199,3.0987467538871,4.952729678678171,3.0459902137631083,,0.6380535849069913,2.7865524292571675,2.721115166472743,inf,0.9119305975911306
101,2.306023662344544,1.8838952125866117,-3.1407678864169357,0.2802743822151231,0.27370118112723235,0.7531620435150911,2.5060260235030976,2.5033912431717287,2.1331655197386925,6.262396109935698,0.6468212168108125,2.3054781627764735,1.8736983349623249,3.2030367608384545,0.905802814788338
102,1.8824901662148614,0.9021692635299139,-0.43845125381673533,0.9813112729532424,0.9732553656278852,0.7304614229692554,2.879968553129754,2.5151323174648645,1.3633742524874388,1.1632887777397733,0.6284777104787076,1.7310407341933491,1.2222708234766895,0.7889686731710127,0.9422173933844626
103,1.8917790973667827,0.9568703520211281,-0.6659799975739342,1.4452513079995069,1.4599426500925674,0.7537633808459346,2.978406991835152,2.7052212561468765,1.4058173741511315,1.2223867140855407,0.6447042257417027,1.6634835289994878,1.1680534431757843,0.9416907415088103,0.9316000903463038
104,2.3231774958028275,-0.30801519313815584,-0.5904432514041957,1.4509596387549952,1.4332710777031077,0.5424365374481146,2.6406396166347634,2.3519128148480206,1.487323157249817,1.1356453196252594,0.6207552362147116,1.8348757603016832,1.306524752398227,0.8402107795349512,0.936192421446549
105,2.278542927744753,0.18544994697339545,0.1390393163664294,1.132771221889659,1.1186734056678276,0.572642343042113,2.71748348332988,3.005488198473127,2.099093631701908,2.167534885340957,0.6125606311107803,1.7339309096155826,1.7182089507841476,1.253464722910132,0.9203874035296137
106,2.4401123292957285,-2.1976992740620447,-0.21801193194072663,0.3978285975077861,0.3851064974556926,0.4602997641835706,2.6191182792969805,4.461347043394708,4.849980407780414,,0.6528756675646988,2.3920236556412866,4.572890037180799,inf,0.9554666700419189
107,2.160058557780793,-1.2519962736913786,-0.25805832925322747,0.3403975262728419,0.30262427715213447,0.4215901609777432,2.7850881719125518,3.960447140162431,4.575090242198098,1.7937929754262456,0.6068309995095971,2.0808647762200243,4.363855542832471,1.4364841056437458,0.9466159881794738
108,1.9470143342911586,1.4303354242214938,-0.5460490922020074,0.6555942259380779,0.6435094696690514,0.4838174963582255,2.8184401723262122,2.9192373449023212,2.02250048278964,1.4629518151854854,0.6357360191111145,1.8756484532368822,1.7280731925367472,0.9296448080854783,0.9549760383227404
109,1.593791580384584,0.29928009524362365,-0.1636781358829531,0.62281833522865,0.5932555521669399,0.5519691975724212,2.8737846582359325,1.7595678198424776,1.212547187262544,0.8318917886701402,0.6380535849069913,1.497697789812235,1.057488272988182,0.6867309612144816,0.9441058996207149
110,2.4939843621402304,2.012427704744674,-4.4202924427111,0.48237091935149773,0.4628349340053794,0.6480285418117876,2.6612817988563657,3.2217357530293347,2.9078392011670036,4.92537279782259,0.6403206450210053,2.462362685353106,2.439418203831068,4.559873911072915,0.9260586891321683
111,1.9570774076185478,1.9337152322000324,-0.14605409733797892,0.2775301820667989,0.2647931189657232,0.5607489911247926,2.1403320771072614,2.5165224223926894,2.3175095014992633,4.025930158075727,0.6097226960127671,1.9597048600775024,1.9618074713717593,1.5276279248333586,0.9370592571142524
112,1.7724378034168777,1.6739866916909916,1.461560792255407,0.3115254604348726,0.306999411423678,0.5644439987802351,2.3583245114366416,2.540701285257197,2.217361376331466,2.113373770998492,0.6528756675646988,1.7115936922047847,1.9077596992605412,2.035638919021443,0.9386315657437164
113,2.3443231495824315,-1.307421695444155,-0.9404761115126311,0.32049460282828734,0.2778708690638641,0.5190737450926499,2.3380315131008635,3.124182391453285,4.88874806441254,3.474539915565128,0.6233814453054027,2.337751812473196,4.615465840585698,3.355735007585398,0.91690521664805
114,2.593055663955749,2.9873184430983017,-5.563087069294346,0.12463234025682715,0.09546680520035182,0.6334965205805644,2.338172668896877,4.269081581785207,3.147089223679753,,0.6684167106117298,2.5839170001211,3.100062847238921,inf,0.9378863108147958
115,2.669345084980523,-2.631215027633428,-0.038130057347094896,0.04466961139416602,0.0347216677809515,0.6905110702962673,2.520709382839877,5.172955180641929,8.739561485852033,,0.6068309995095971,2.6613256609293408,8.053092107823115,inf,0.9137669255302665
116,2.6773196886273176,2.849220408706258,-5.526540097333576,0.9504310086368839,0.930026309196402,0.7822042680981144,2.503157567909935,3.290220929235397,3.078285604750904,,0.6380535849069913,2.670112361761818,3.0641293203790916,inf,0.9068833143599284
117,2.223444970022889,1.7475111460503876,-3.225363344349415,1.034886104056854,1.0188260086293512,0.791101347751772,2.6930392162398475,3.6958600744546906,3.9548519561334006,5.219046499942637,0.6333676938231112,2.220288516934771,3.574148325989561,1.949566460258424,0.9126228716199635
118,2.266980496027289,-0.08843673779052885,-2.0829549413490853,0.9564860370431241,0.9380071523352727,0.7246621236428573,2.908541551382671,4.590584566428438,4.462769004069118,3.9729814801313967,0.6180765742263259,2.265289308250349,4.042409213237855,3.4904285153900982,0.8842825909938121
119,2.477915779451066,-0.4991445871645197,-1.5772981613583128,0.7258507647162201,0.7077332590416902,0.7412111079523414,2.2959653851356028,3.7934120074409186,4.868651125592336,2.2619833675478005,0.6333676938231112,2.4717930106426174,4.091584852211194,1.7996646487351682,0.9232067073546231
120,2.403214141556692,-1.7827075879762462,-0.6205065535804457,0.44065447377171035,0.43349606558372983,0.5185889031075505,2.34458353672714,2.7115138876379556,5.108378790787144,,0.6233814453054027,2.400688057883602,4.730210772412745,inf,0.9311187630045953
121,2.6507135488286226,-2.5295393369032952,-0.12117421192532733,0.2876284545017464,0.26057571960675263,0.7356280121897188,2.3757630562346974,6.15948319410459,5.497245613009078,,0.6547956803312163,2.645544995750813,5.235659428945428,inf,0.91997175395495
122,2.3585373242711305,-0.9095951450815241,-1.4489421791896064,0.874369887503822,0.8589189683083751,0.7643537300192497,2.6814592611596813,5.990742022766511,5.259773556769217,,0.6357360191111145,2.3569239560938944,4.719907652932177,inf,0.8983117749377133
123,1.852703243529611,0.8661493104446658,-0.44641253874949083,0.935062042295502,0.8971532996920923,0.5967003680881716,2.7302551196889486,2.22167320506233,1.2883678871237163,0.9708742212086952,0.675384900321601,1.678490309502188,1.1987678092485936,0.8223452987261304,0.9483053230416778
124,1.8039541840726543,1.13102295957461,-0.6501844457806736,1.0611528399140306,1.0308113538474497,0.5837822474095495,2.889763614791727,2.722983175001379,1.4857585959152304,1.2689778696280365,0.6447042257417027,1.6059440231798447,1.3167443361928632,1.0232361977311195,0.9254944426633172
125,2.2898176770885237,2.082328209673547,-4.017296998139847,0.6750054999189539,0.6550163320755228,0.5652420389748191,2.486262660637964,2.37952783411841,2.770416354321636,4.325676552259497,0.6284777104787076,2.21865252474984,2.6861223786469384,3.5070577723616325,0.9101875829106512
126,2.5994349469132416,2.2020809952212312,-4.705927125246799,0.23984635525040354,0.21877352681096904,0.5607908801016189,2.6291799446843034,3.3178832481298928,2.342280667781054,4.862371556003905,0.5713653840954815,2.5800968367917494,2.272111220709988,4.9459189793765646,0.9209782469865223
127,2.3148431735027373,2.1849383829534577,-4.407878215122703,0.2646030353449886,0.24149121007897872,0.68941916151292,2.6154354661632975,3.054788911143707,2.320599903053388,5.373197179769895,0.6180765742263259,2.3140955290676346,2.3215338644051653,5.385641194719711,0.9346457660349823
128,2.367327654178846,1.8411243930139083,-4.135316572698957,0.13766330170126678,0.11296667299525905,0.6391705927677278,2.4576258534620483,3.0261908214680036,4.432521275065088,4.588419676364026,0.6309483474627791,2.373246021581694,3.2535754119383786,4.68213122712422,0.9434328272538594
129,2.3788452513068057,2.0962811773031644,-2.06954703807606,0.20443785628945746,0.19617900986660353,0.5324453460725377,2.8896594802221145,4.132757189265379,2.3346156727324985,2.4332284807343587,0.6008849035917525,2.3496767005278962,2.3209212907826506,1.9086532206995543,0.9431147319112431
130,2.4550088364054723,-1.0791687160272312,-1.0063899607324402,0.18880655353635273,0.17629687257434956,0.4536465863953366,2.556110318174568,2.7519298307627054,4.0668097305547475,2.781392735005183,0.6528756675646988,2.4665429657710423,3.642704616993323,2.353878387381596,0.9547064211961557
131,2.3285304911377898,-1.0130435126630155,-1.3154869784747742,1.1317182038591997,1.114295888801885,0.9126187197219475,2.089499505241742,2.7049244787763342,9.073098199424036,,0.6233814453054027,2.3277889473573357,4.8456694973578065,inf,0.936680184061382
132,2.109840278641315,2.2467901093838454,0.6147746939691867,1.1900741472836276,1.168879323266617,0.9337508621411559,1.7867876004988952,1.9264996719766412,2.489553370988203,0.784427415149585,0.6509067234006624,2.108939012468859,2.2355777734553706,0.6236977922880739,0.9323617150793052
133,2.619132195186177,2.735980555565548,-5.355112750751725,1.431088354389541,1.4109289830948166,0.9232223017091499,1.8204535524112808,2.1964825092980114,2.851041661153224,,0.6038851895711802,2.617600298180138,2.5874291339443416,inf,0.9226850194678441
134,2.203269788822476,2.108120661345598,-4.2158016332804,1.3390322576181195,1.334290661344845,0.9495594911140537,1.6140039081305977,1.5532344699577394,2.3813109500645493,6.810035706824404,0.6357360191111145,2.202840316121855,2.1030486615711035,5.492238059185343,0.9283044491180331
135,2.4132397227739255,1.925554295778865,-3.115257162390556,1.525718271366063,1.5084046596843435,0.9486102331324379,1.6179823855102171,1.701968003221513,4.046472672143268,,0.6284777104787076,2.412772052028801,3.3671717835929638,1.4687380303309652,0.9298971711229442
136,2.1880099890410634,1.9883053251558636,-1.9418629962755434,1.287288728663828,1.2708712215152056,0.9199062305315535,1.6681051185484466,1.507499914999332,2.0742495499317832,3.371760046500793,0.5783247308855777,2.18697726088467,1.988577356762974,2.4613257071990935,0.9268566438296327
137,2.239849382748835,1.4845419814715206,-1.4684952856712354,1.2456876305695583,1.2118457197909394,0.8485448442294896,1.7525024557354305,1.5946125355974927,1.8250699804687034,5.538477270708999,0.6180765742263259,2.238880252605052,1.4793135891776596,2.918686483064026,0.9380247191128852
138,2.390645879167866,1.6372952442816602,0.8444201742716526,1.4016947328060216,1.367343922722544,0.9033570198519654,1.6588444729168281,1.5965807421347968,1.762092148472327,1.2618111516929433,0.6357360191111145,2.388869461591058,1.6328444095961352,0.8390656673646849,0.9319652652740328
139,2.0263668778437274,2.0188728532131734,0.987870773719524,0.106969059718312,0.10054810882836379,0.3969306521939643,2.262578220475238,2.162896416509775,2.2325169899731425,1.693709516869263,0.6528756675646988,2.02554275564661,2.0212822906075143,1.0562911006362965,0.9673649444106959
140,2.336797885831204,2.9032846231054115,-5.220964745559081,0.08467349851939517,0.06682090592449338,0.7840408364181439,2.345084442780801,2.6953869384549214,4.459575084270393,,0.6207552362147116,2.3361418765228885,3.199305283314098,5.872117789475416,0.9595593933217775
141,2.7942061892776,-2.7942061892776,0.0,1.537921016203499,1.502478097313949,0.9412804281267702,2.1720450922722203,2.1229190181590716,,,0.6068309995095971,2.793245047165442,inf,,0.8967426879494694
142,2.641504029753312,2.563803040067553,-1.1523412337834635,1.6332855245953746,1.6053446268039016,0.9252419820294794,2.291488871837076,2.554383212535492,7.374668413606873,,0.663668482632973,2.6399243720546095,2.527364732087023,0.8836895704987572,0.9036266830534522
143,2.155434053254302,3.1627193988278446,-5.2799179253270765,0.08467349851939517,0.07822230553695847,0.4877449769672665,2.088961489113572,2.2202511486786976,3.6220338297496015,5.617317332416775,0.663668482632973,2.1548358108444328,3.106399880799072,5.453182077108952,0.9589440012114874
144,2.878582920292332,-2.5614320868275766,-0.29803307008722046,0.06236667603779547,0.04967569268057249,0.8286101468210503,2.0794337227470505,2.947677798504807,7.141274782331145,,0.6125606311107803,2.873318003330337,5.489724508258642,3.044522437723423,0.9002385412385997
145,2.38330288424734,2.9601351178850477,-5.3434380021323875,1.4210189181009352,1.3960959762313436,0.8862118705214777,1.933528984891835,2.344294667982995,2.9110327339174153,,0.62595550513784,2.3828315251217034,2.908841298707665,inf,0.9174496615928205
146,2.370880103978557,2.2309511807440208,1.0952622017828268,0.815033599550242,0.8227659080725633,0.9095064863490973,1.6533367833659351,2.0437663999731663,2.2309673509752366,1.0952622017828277,0.5947193981915972,2.3708639337473403,2.237645153506266,1.1019623755533916,0.9404373241015673
147,2.042317341056919,1.8663667631057121,1.095262201782829,0.27116504038385075,0.2359545725476425,0.9551833697561786,1.4365266703792934,1.9339667523064896,2.0594914667321764,1.5953278024348314,0.6097226960127671,2.0422742173383965,1.873087689355264,1.1019623755533916,0.9310743165711208
148,2.120263536200092,2.481567748522486,-4.601831284722578,0.15525433535522937,0.13208140706044405,0.9296077884347006,1.5948516469616945,1.7364432043961058,2.4815677485224854,,0.5329562494928909,2.120263536200091,2.488245551053515,inf,0.9189623728083333
149,2.5231669346814654,3.1030936628633414,-5.626260597544807,0.4224182365050307,0.4124132785832139,0.9051351647710558,1.5734670710534122,2.0531577047334464,3.2501728019174947,,0.5604843169999094,2.5230932311732412,3.082353342762098,inf,0.9170530916032759
150,2.3118754124198584,2.3765700894190513,-0.34871321513848486,0.41621515296687556,0.3857979214496614,0.9234593462272529,1.8426981771616797,2.1113984011166638,2.6139407063389357,5.7755853623735804,0.6357360191111145,2.311513723738347,2.369817823215308,1.3012833848773442,0.9519791244304967
151,2.4276151274146507,2.4684338162321007,-4.838695653514146,0.09310611610711308,0.083421518519907,0.7872223882887287,1.8942946284915625,2.450062652578116,2.5204986121493915,6.446924825122128,0.5883313578629602,2.4267635357392896,2.4513825753108875,5.430806549594116,0.9453417630523813
152,2.1299369443731964,2.0765297430048415,0.49877132557891457,0.16921395908888537,0.16192182850289044,0.6768501885169477,1.3869213942915666,1.5314974126161625,2.1950411643930297,1.8388450248188004,0.6284777104787076,2.1291921669443923,2.0594630747489497,1.5018820062128384,0.944003944897789
153,2.1796891920937953,1.555166649420351,0.5101031565669261,0.06236667603779547,0.049751162854093985,0.8588098975807374,1.054658272484991,1.186994156729298,1.701068203244016,0.7859891933439744,0.6380535849069913,2.178500963338117,1.5535179834364372,0.5430484508778044,0.9382815440446881
154,2.215067708235324,1.8676611709450013,0.6680033570785655,1.075481423361094,1.0362115161758971,0.870354620234103,0.7627980178578057,0.7911428132069508,2.1530772660521635,2.138219297288779,0.5915533975974677,2.2125412814481127,1.840661337442813,1.681039063249984,0.9242421781601154
155,2.168839391081177,1.4672975069489702,0.7388781127433597,0.7613628883176863,0.7494084821679318,0.9228028117397457,1.2610579751889333,1.123186376803813,1.6529598545912148,1.0807388142994205,0.6403206450210053,2.1682484690997024,1.4678277200950838,0.7575732853070885,0.9286660499637079
156,1.1395268287178468,0.5207085305737296,0.5908424425405625,0.21103373620254545,0.18439406499822814,0.2389158324072723,1.013021072478079,1.061843076713364,0.891235595212705,0.9582189661723245,0.6447042257417027,1.0265397198764583,0.740397063920251,0.6177022973994741,0.9566822044083428
157,1.603918398714507,0.5434340531072959,0.42674381409881645,0.31811408832234367,0.30425542887523,0.38986997217126107,1.3461005178310803,1.3836119640613025,1.0125359930808633,0.7903288320110645,0.6233814453054027,1.5371172508544744,0.7818230851658415,0.499855223386627,0.9515339193280342
158,1.8890388204540685,1.0340397444713774,1.015589141545782,0.3071853560108705,0.2599524546942238,0.5972644914574028,1.1715045663770245,1.3247522015659976,1.448106199216071,1.2547711226165885,0.6403206450210053,1.9091175951713582,1.1634957227185905,1.1648320879728253,0.9092031853075397
159,2.2617969552914885,1.5689713319124965,-3.4292952562757515,1.0378455306854133,1.0117938661904566,0.9069910334141797,1.2710269092396824,1.364182670242981,1.7748034305180462,5.567353194210853,0.6309483474627791,2.260270879053855,1.5686372196637848,4.53413441287134,0.9322879848201507
160,2.317401477522498,1.6195507402494638,1.1150609859506138,1.0818310898572407,1.075958195215056,0.921634119787576,1.4204885611545564,1.5605868621171537,2.090849883056597,3.054489316438071,0.6468212168108125,2.3170221407918152,1.6011307250118678,1.2146500622667804,0.925947758712889
161,2.4538259380986336,1.9603514146301642,-1.0303332349051186,1.1074108828191318,1.1074426344484218,0.9471207510729832,1.3309114797045531,1.5085741628008418,2.4941125297138727,2.7833631789924813,0.6668815377411301,2.453149618174809,1.9253277669879314,1.852937831575833,0.9274835092688882
162,2.5486054403408316,1.8175643314667358,-3.4102816029308216,1.3727358136002559,1.361113772312246,0.9248673078121091,1.6534894429264357,1.8959455602803414,3.5648446615198455,,0.6357360191111145,2.5477754545669917,3.243018397078839,1.7047480922384253,0.9117281851513084
163,2.1729650819356294,1.783788578072944,-2.54203917007099,1.1065965395665884,1.0526368062584461,0.8848859654435167,1.434644978095257,1.728838217954481,2.3989516123001913,,0.6380535849069913,2.172141796968756,1.7691955961281651,3.162162463011311,0.9079284211981106
164,2.4435732311171328,1.4282823561908513,-3.7953845337978445,0.9873579863362871,0.9699591315072512,0.9495483604180139,1.4278650291386747,1.6614192371904655,2.04665391262565,,0.6008849035917525,2.442485933904048,1.419160864199031,6.159623790089432,0.9003071893521191
165,1.872468197373352,1.1921201364573888,0.8606107774850087,0.14228428290499973,0.10954154399584215,0.5735184120875804,1.3228593353079623,1.3873715982521573,1.4945520092072202,1.2295649586095647,0.5713653840954815,1.8588256265927308,1.2619660915884199,0.934973362073475,0.943307180739421
166,1.8536233496246872,1.12187281990368,1.138087345213585,0.14054012242578456,0.11230482215312766,0.6981914539485049,1.4201554003396755,1.356027399871478,1.2381013711930904,1.5471810843863445,0.6233814453054027,1.8450196088689388,1.1616612714276089,1.2572664663117328,0.9371634817946304
167,2.358404197758534,2.6448239832851685,-1.14143997878165,1.4512509665853524,1.4412108236283607,0.8792696201728745,1.6327592149371488,1.7663348165496113,2.832424146457688,1.1349957010338574,0.6097226960127671,2.3578629232990322,2.6511070914781625,1.090327237134003,0.9228361525369287
168,2.3234026959251,2.0255160119812126,1.348174778599092,1.5649181269653825,1.5329964340542777,0.9391514766404548,1.641456285460261,1.8667261167494202,2.3273379557543152,1.6145025802431228,0.6380535849069913,2.3224477220902973,2.0246408612223035,1.3633828794943965,0.9281616767922087
169,2.104302366551166,1.4144024441412548,0.9163090344757818,0.12288817977761199,0.09795101148079453,0.6508664917277596,1.5571495634049137,1.244944336193243,1.5966270299258065,1.014360493499161,0.6447042257417027,2.0824683400380306,1.511505056321938,1.017885777778919,0.9325699987017333
170,2.3135001607662384,2.1022733909019746,-0.573166078454169,0.17580983900197336,0.17410527359954145,0.6747599919097386,1.4819380702721565,1.3781538992888716,2.4657981997871548,2.854201161816819,0.5677978065141052,2.289997977488574,2.1821965258087173,1.4886330743488005,0.9291992362894584
171,2.24946054550417,2.1425948716506404,-3.7788014029238965,0.15643652800837793,0.14897003455806837,0.6421658811314711,1.4849485638579893,1.6483349672412844,2.5898285995929107,5.466970080255334,0.6357360191111145,2.2387760044944547,2.1748559695947582,3.438584913733776,0.9386333860221473
172,2.2227574262936907,1.5615056747316318,0.26922199586036477,0.14228428290499973,0.1153284288228823,0.7968085045220152,1.2040526015710946,1.1744944259428507,1.8982970439760338,2.1337059523330946,0.6233814453054027,2.2088923822039015,1.4943113991981882,1.183740040351616,0.9209780947544567
173,2.0949041910563087,1.8521980204005088,0.6816023822822732,0.06236667603779547,0.05345663463583351,0.7351234051628605,1.1243584501962,1.2969996829735593,2.0840878625157875,1.7408610825837558,0.6727386042041725,2.092774475979755,1.852575533564458,1.1414466455176067,0.9469526445634344
174,1.8355715072782512,1.5932247997682514,1.9848185216310923,0.16482371611529226,0.08994076802630135,0.5730062596738686,1.2740477679119893,1.6386658973598274,1.7355288975102379,2.1298537909933546,0.6468212168108125,1.818377267132347,1.6436322539265658,2.06781964647385,0.9574301432056644
175,1.8254945600288874,1.4613195399830563,1.1681183527879937,0.15818068848759306,0.13800823899222184,0.7567783219819841,1.173799565656306,1.4208416364335896,1.8578180675634108,1.6601783810848505,0.6357360191111145,1.8054527963600575,1.4889850487305643,1.2619421767280377,0.9411239837137186
176,2.176677780893481,1.8629676062411313,-3.057215127317725,0.16921395908888537,0.14848091256372892,0.7484698728057828,1.3833960359080224,1.5011688623466586,2.242165295111467,4.5764102941527955,0.5947193981915972,2.1777161109481766,1.8942148564370243,2.96618612946018,0.9598525561732275
177,2.3311436888233357,1.9975497054640337,-2.7036835071969016,0.1740656785227582,0.1494277463331481,0.7673481450779303,1.5017766442804745,1.461187814606968,2.171532870153485,5.511756235071384,0.5978297680564633,2.3246035066660498,1.9978971486938049,2.642413037462231,0.9651863663477608
178,2.1632354355237395,1.602707060377229,0.6983503227861685,1.3921390049529045,1.3562882946184545,0.9262857463784216,2.016815369946889,1.8498185095335042,1.7186986270524451,0.8762763514196066,0.5947193981915972,2.1619539632543003,1.6021280789809011,0.6993956988476735,0.9074075355548576
179,2.468229659761356,2.3955674564069978,-3.678495786761189,1.5896857470487458,1.5704017151423058,0.9200679600958899,2.1852342585523687,2.0259428219160367,3.5910931586322823,,0.648888643467878,2.4674597361842796,2.8601720180325323,1.9527988100504987,0.9098620557961312
180,1.977488150326966,1.722447506506015,1.1925685592081372,1.441673942749826,1.4357691043545215,0.6990955708813505,1.7787151754102883,1.7893987267318958,1.9437368586453887,2.0570635551900422,0.6309483474627791,1.9772861569709579,1.715155188709339,1.0844402179897337,0.9264895213199394
181,2.289978251755113,2.0841596900136863,-2.686390055039971,1.206169566572854,1.1932604253507644,0.9266372389206876,1.901885102295592,2.029515143985107,2.6124179183004643,4.88364895445119,0.62595550513784,2.2886821878250543,2.1031703410001183,2.066952530109061,0.9259386426898563
182,2.3022634117480485,1.8118250432329286,0.9903543668208457,0.525662168448908,0.49930445443627824,0.9184331470227721,1.7037893727509819,2.1392146945871935,1.9026428990919921,1.853197100624709,0.552929491858785,2.30080889359279,1.8295083290881284,1.6899990682312342,0.9382943586595769
183,2.297546095030616,2.700257803630369,-4.997803898660985,0.1711888577982404,0.1482716508782278,0.9224833569956646,1.9011165516739748,1.778641531761118,3.357418024724774,,0.6125606311107803,2.2972659315164456,2.705070559765115,inf,0.9265849149691466
184,2.0153249840086693,2.2988242282621267,-4.314149212270796,0.20162166157688996,0.17826093781203464,0.9420123402905649,1.9215490374376656,2.303095812852952,2.2988294382321888,,0.5978297680564633,2.0153197740386073,2.305507240763218,inf,0.9171755484953604
185,2.067110312268814,1.5543909828186009,-3.583265768332345,0.24792295456038232,0.22792765541038137,0.9367464406592537,1.6503464657177809,1.8453884631938107,1.696578865120726,,0.5490601803369085,2.067073892871174,1.561024088982903,7.08631978689838,0.9239261010903445
186,1.9680449982600465,1.6532050361950676,1.6479939611976535,0.13304232049753378,0.12601829886125918,0.5706634922122723,1.6604631153650031,1.6120840794728852,1.9298166026327612,1.9282449531434211,0.5978297680564633,1.9677809134735298,1.6569767729991778,2.112926339859175,0.9587267570408378
187,2.077462400702699,1.5103142887692962,1.208150460440446,0.2026936958102423,0.19141722821385396,0.8035660132578977,1.9155506890540492,2.230831433663619,1.8551363912171188,3.8270767546901476,0.6357360191111145,2.074387667377157,1.4940456336609123,1.5606102241084885,0.9454115300034897
188,1.9987559173507763,2.4843667620464474,-0.8544342560839397,0.1774930122970747,0.16364847281474681,0.925049480148364,1.5255357773551503,1.6608928038477724,2.9973669340134634,2.843180222770864,0.6180765742263259,1.9982917547370678,2.4217829475743438,1.729994874973209,0.9322010957178848
189,1.8446208504506065,1.7692238390873276,-0.052049786931798625,0.6592139125650069,0.613753398309657,0.9523970963234479,1.652269542077883,1.628068735228673,2.3391972568430637,4.725836608137969,0.5641709578113449,1.8442464582417768,1.755401862144217,2.027173113134079,0.9258821008531993
190,1.688761019914384,1.3101415347618832,2.322325251830669,0.725152502787137,0.6922562122164024,0.841029030518225,1.2887305471029709,1.6163954418615663,1.4029752848664894,2.2792829754087336,0.6528756675646988,1.6884811197745533,1.3148353971377456,2.236731941511762,0.9474816767530234
191,1.897256777825748,1.8289015618522158,-0.9395023407684384,0.655719658828955,0.6278286142322671,0.9431697373515112,1.4032572580469007,1.6103113791962775,2.020596817152367,6.783397061743341,0.5915533975974677,1.8970459135551558,1.8280365892227408,2.6198874135075383,0.8919065315066804
192,1.9966234191666528,1.3250815271430783,1.651949200713315,0.09310611610711308,0.07690859885568768,0.8330241103486038,1.9767490323374481,1.8845552777509527,1.543044428224094,1.51191658933365,0.6425374456860184,1.995345521326734,1.3270406799111316,1.7033627306684382,0.9671295649844804
193,2.2967673139798648,2.2904417967098687,0.9917202577117727,0.12031203713163754,0.10078811246445302,0.8401366602810385,2.2740264043795526,2.0753828928690328,2.321290215239959,1.0930452594947144,0.6068309995095971,2.2962717309374536,2.2880070960192613,1.067543908768775,0.9546769611757461
194,1.9603706499721265,1.5598853999779467,0.5810729041378488,0.08467349851939517,0.07745579807977589,0.745909460655549,2.0945262303521726,1.3154292005721904,1.7995389841992158,0.6075497534506318,0.6207552362147116,1.959783721321185,1.5616998262154722,0.6206516785217917,0.9452296890005499
195,2.2428776040787497,2.254107208976789,-3.9257779089796925,0.15530386776307528,0.13343404121173147,0.7566453365558736,2.2584584037721727,2.2346083809268875,2.3562054243076327,5.410510722717883,0.6068309995095971,2.241176464865402,2.242759856308573,3.489641423653281,0.9287196774315892
196,2.6405880672536917,2.8379726817851862,-5.440325222283808,0.08467349851939517,0.06964216388318369,0.6514049920724738,1.9912660685556205,2.456481619426291,2.982938244005526,5.78631343461358,0.6333676938231112,2.6249352943917033,2.8372090463141233,5.25227342804663,0.9521657356231172
197,2.627441949906741,2.7263051986539333,-5.317837619055806,0.10060391803536387,0.0847452203566296,0.6954667594577764,2.5315897884439624,2.517426064129318,3.0985926885970274,5.680275182569256,0.585052858160615,2.6153191018445257,2.7496130137854955,4.944020545014272,0.9475493600331822
198,2.350840574168079,2.1696474259746763,-4.520488000142755,0.7235388631675287,0.70721659256525,0.8974929370944355,2.4207401157161175,4.0894631518253055,2.6524990362653393,,0.648888643467878,2.3497931759808264,2.1661458762793226,inf,0.9405594402706428
199,1.8729237788901076,1.5017243092123254,1.3396929308662067,0.18508749434778254,0.17805494930468393,0.5962412244402009,1.7919175148701776,1.8543431177544571,2.114119543575788,2.9018272804873617,0.6309483474627791,1.8349453666776552,1.6609290619264083,1.4533522373635486,0.9539401869430855
200,1.7202899346660816,1.682455058044071,1.2549107326592162,0.04466961139416602,0.03270975272477957,0.7507934463318217,1.3259499382060758,1.4231278538286052,1.9554146371073902,1.7309920741872151,0.6584896970785714,1.71881884482634,1.6777227252996214,1.4166099194366624,0.9428864943373572
201,2.3065926497290556,2.4754130448989304,-3.4530662472013463,0.040048630190433046,0.03475273749144689,0.8574147987898925,1.6264605884806203,1.7042894181014674,2.8801391860142114,5.5167587467543555,0.6233814453054027,2.304141859682297,2.4466965654517137,2.352661430974222,0.9247510543569235
202,1.960805350199769,1.374450839418652,1.5054497575590022,0.102348078514579,0.08695062291159715,0.8676312341185527,1.509567869012301,1.5980223248684862,1.6517468651832863,2.2601958112106897,0.6038851895711802,1.956791357485049,1.360984416038034,1.614356459085229,0.9197042839941167
203,2.349704563576806,2.608023778878676,-4.709197418547528,1.6568991379655575,1.626706154914994,0.9439148696948647,1.6079618963563551,1.6035538956664446,2.7529597673616744,,0.6380535849069913,2.348978132563756,2.558799776092792,3.9348376831943175,0.913812556629637
204,2.2556436238046516,2.27712776632207,-3.2518812438318823,1.6802128280535635,1.6192153477486129,0.94949532621206,1.582849619217315,1.6426839220483536,2.641202332123368,,0.6333676938231112,2.2539007545297762,2.263055074635459,2.6859165007562007,0.9156837270660341
205,2.194598184346457,2.0336482379989476,-4.037068788570055,1.4488427961482244,1.4385255478402066,0.9439948533400273,1.5999532280449908,1.7719982193122463,2.4304501440224002,,0.6207552362147116,2.1939300103867896,2.016948368091263,4.894101477840304,0.9238818324642701
206,2.4694080497055606,2.030336854857183,-2.702675147074462,0.8988492802977132,0.879418764149298,0.947333714977957,1.702549124492372,1.7467386555028144,2.082504503280403,4.071896031483398,0.6333676938231112,2.4671977160072274,2.0286199330535006,2.3684525179816704,0.9271921038327267
207,2.134153515296274,1.492148113388065,1.0014726120306916,1.0735539103338092,1.049771334574087,0.9516190787359321,1.697238918693454,1.3562650965046819,1.868414314829193,1.566085994268934,0.6403206450210053,2.133686556532232,1.488989097125072,0.9379461560697187,0.9271805952526395
208,2.0843862580827484,2.0016295603988032,1.3446776320698755,1.1266554715065369,1.1114511774351101,0.9201030403355457,1.6530940879606602,1.639400547502851,2.22765881002415,1.8785362941801549,0.5978297680564633,2.0839851817297084,1.9984308096271184,1.550597412411167,0.9432290838575319
209,1.721396440902657,1.4129471393490838,1.226077781176103,0.52983297452372,0.49969398341086796,0.9512579462800981,1.2929960375529237,1.1986683814175476,1.762066750464376,2.1685613245152275,0.62595550513784,1.720555710221723,1.4146940911346577,1.2049952993025461,0.937987975521708
210,1.913092012309916,1.2351106297642072,0.6087765207273557,0.04466961139416602,0.03832747569911732,0.6589659778819392,1.1531393879154423,1.1353136845815581,1.4110726382668672,0.9647846563667619,0.6468212168108125,1.9092675426900074,1.2362545626554533,0.6641448934451576,0.9680545888260063
211,1.8243159240824391,1.275758212322698,0.9678830202248481,0.06698765724152846,0.049743674012200964,0.752197021057846,1.0620230243563444,0.9653626508920126,1.4348574262995382,1.14854226220623,0.6233814453054027,1.8196103973838313,1.257331931595703,0.9711549820772467,0.9537356845078178
212,1.886630272566183,1.3793074261154237,0.9825757965716084,0.07830835683644703,0.058404229035681696,0.6250596212923395,0.7755272400859236,0.8779770312273188,1.5894529543568552,2.5458222529558006,0.6380535849069913,1.8744167029090644,1.4119650043245096,1.9267778509741558,0.9125396496300503
213,2.059711200972114,1.7898109261908939,-0.04354142614277201,0.08467349851939517,0.07081091086748985,0.7626092188158917,1.0526330751780435,0.9396488901577975,2.2046957023055263,2.515886284134619,0.6547956803312163,2.0486321732863924,1.8365325446388847,1.508685075344323,0.9167669163585938
214,2.0428131593671273,1.8004737909814437,1.744771521143877,0.06698765724152846,0.06069475248832063,0.7111009660395406,1.2857571504896141,1.4189476327340378,1.9403325963073172,1.7541259857948848,0.6380535849069913,2.029847467928087,1.8445586739287518,1.8030590244819884,0.9391304411084266
215,1.7581524209716297,1.1599610945196452,0.957360649260734,0.1469052641087327,0.1346799086411277,0.7166958587128572,1.3950381857847018,1.3358625917557239,1.2977008698281471,1.3204782894250653,0.6468212168108125,1.7478063816995921,1.2117011150314347,1.022699565554224,0.9328802230499861
216,1.788218906337139,1.376711461006874,0.5996601946431386,0.12925332146056012,0.09554904392822595,0.7032102210674421,1.326544504170939,1.045980048255119,1.6505148986564544,0.9479148122098353,0.6403206450210053,1.7782511192032628,1.4489929553354546,0.6557596484883249,0.9442228021957135
217,2.200257900031166,2.1172891471863124,-2.481682944601551,0.12463234025682715,0.10143688909848562,0.6585577672073956,1.3118026478148683,1.6562147102891243,2.3788023532618143,4.516174769490697,0.6584896970785714,2.1966247572642517,2.1889637689759907,2.457628231604324,0.9139998475186017
218,2.0311328781795353,2.6708540002592236,-4.660667527174773,0.08467349851939517,0.07209402765874474,0.6745591584977789,1.9233093225715443,1.7702927040024397,3.007365926456425,5.255990015134322,0.5783247308855777,2.0322187427519527,2.680784148039354,5.308267697401205,0.953689807522332
219,1.903822400975906,1.4812916460952208,0.7077302020951071,0.6888501215273024,0.6748355772787157,0.7424163961717571,2.731502013660073,2.9485481382453935,2.0609144334346507,2.0883841449797256,0.6619902821573977,1.842211012724153,1.798513399502736,1.8345953496375023,0.9433703149153657
220,2.0607675475967877,0.07580336109674546,-0.19085474331615915,1.1229120940272097,1.1238995355806716,0.6165102200625542,1.834725741695278,1.6124393658120966,1.4133184032361474,1.5528659086233634,0.5915533975974677,1.681590532577924,1.2016070215702404,1.0924754783564377,0.9544970552903903
221,1.835410848540142,1.026996602238752,-1.136223679384779,0.6926109232439165,0.664094273071113,0.6028768447598459,2.0988640370834184,1.4543713712422481,1.2017980889896998,0.7810487468094204,0.6380535849069913,1.6119967389957683,1.045043541198697,0.5228819612135079,0.9456497917579064
222,2.0561561911198836,0.7111011410289811,-0.9837693075616472,0.8263453128711256,0.8147497498644745,0.7292581195398501,1.9560585853734345,1.3650343798323394,1.1322372933797709,0.8452773455592772,0.6713451011121618,1.7808854726761767,0.9397435106328935,0.5693252195371034,0.9461592622778197
223,2.06688372095754,0.34629652083787166,-1.0457247196224186,0.9669038391492477,0.9714499801566037,0.6821684170826272,2.118142027649845,1.5178366653197495,0.7916950591958754,0.3836445552802191,0.6284777104787076,1.6976621458489394,0.7136223640684471,0.3190113001321431,0.9406445378998676
224,2.12775034919039,-0.6152912959286181,0.03526534140279658,0.9018601272379188,0.8999272963462218,0.5931459073794144,1.7114921625530357,1.4608196091191787,0.9460781608880462,1.0058016528634601,0.6547956803312163,1.4612573995933458,0.7698342472544508,0.7258473553204812,0.9293031497609351
225,1.9466224981094142,0.8840201332300102,0.07677977691041793,0.8390914954727275,0.8178198787656483,0.7590746549250017,2.3428721042604645,2.349752558554596,1.5877338206282918,1.394361710934992,0.6699045166045591,1.761812392860103,1.4410807275014883,1.2348811590492215,0.9446133263898995
226,1.893453359524482,0.4536862369464887,-0.7221500231420948,1.2038835799154983,1.1845826136564246,0.46210437652608344,2.2441960197467727,2.0278787659322983,1.1298686236848385,0.8853747669213727,0.62595550513784,1.5319626002658098,0.9617829981893949,0.639462344100906,0.9413470654595373
227,2.473390837913468,-0.09508411745822043,-1.3949684068490786,1.3038362537033472,1.299955949006301,0.7186174484100405,2.133754750338007,1.8003076845799049,1.7992860796321264,1.1880124962443714,0.6509067234006624,2.052518356336961,1.569325696440817,0.9944994338084386,0.9415984700190186
228,3.0715367615436695,0.029422509243180794,-2.4683478017591267,1.072332006439117,1.0504813844558134,0.6017552218204694,1.2687402356585675,1.1758317682095907,2.446308852513502,1.6479943302516573,0.6357360191111145,2.6177525631214293,2.26771958802082,1.4040989857533974,0.9459637606713039
229,1.9431207719242534,1.5358474176214076,-2.9406891079460973,0.6826486902211816,0.6708605521537226,0.44137635349521004,1.5501351604614004,1.2013469076493006,2.7832180372591537,1.45599872332342,0.6333676938231112,1.703931758862535,2.484723482830807,1.2324577023346224,0.9488672020302724
230,3.2148248284412513,-2.7009063095095724,-0.4626525072697315,1.0462618794441245,1.0369098672474475,0.5833288693423738,1.239192685214308,1.098571773708022,4.583717097874908,3.799962315999756,0.6447042257417027,3.0105075591361454,4.1485621481268975,4.248495242049359,0.9388111267857291
231,3.5318253043079677,-3.0705103771516975,-0.26117815991215204,0.6347068727650936,0.6425098588195949,0.28954513197254056,0.9818012815460364,1.0628569195811703,4.055181304546583,,0.6547956803312163,3.0552464010863987,3.6888794541139363,inf,0.9474588963902377
232,4.0301801333745475,-3.078542579129222,-0.038130057347094896,0.32613766437071806,0.3156176315801478,0.4693433323160547,0.8854121774340096,0.8663250531120787,6.672921383313354,,0.6425374456860184,4.034818582908073,6.679599185844383,inf,0.9424779249683023
233,2.587334382603244,1.0704077557608231,-3.4405766204728554,0.9278518224703534,0.9282621462127194,0.4451599261944534,1.3767497509222766,1.4013512863597364,2.7642396766314494,3.9522064175564324,0.6528756675646988,2.375155785828881,2.5236400265118393,3.4642466992482586,0.9299639973271975
234,4.551098967236979,-3.3981538955369444,0.0,0.9314322127025819,0.9327260271444415,0.6455851676982918,0.9115846528589634,1.013969849059482,,,0.585052858160615,4.429351206681703,inf,,0.9440371829509199
235,4.431313345574623,-4.099651490442906,-0.09532514336773723,1.037430389155842,1.03005368370202,0.4373849375384606,1.0114679220251719,0.989076860283759,5.624533979290336,,0.6547956803312163,4.166915255056936,5.631211781821365,inf,0.9318672781719389
236,2.3818350742443783,1.3539081604989742,-3.0775782478645923,1.2052590078504584,1.1833257104497337,0.7042346720992819,2.4838282382600956,2.084155013969631,2.5873168470401238,3.3186125103667186,0.6584896970785714,2.2301610775824843,2.3336539227236934,2.461723314332343,0.9409873404249807
237,2.508154375497448,0.30519360568176745,-1.0619776000558214,1.3198158990110982,1.2867788546411756,0.7990454751883589,2.742372813606498,2.6528971932317282,2.285984270161282,2.3859567423662176,0.6125606311107803,2.256337841828726,2.0611502717075845,2.027481802749125,0.931107108238125
238,2.8965438003776205,-0.9948223397070162,-1.2087475429196801,1.356413244722589,1.3486140479442712,0.7792324598022605,2.412231509070023,2.1298636957341044,1.837419880562906,1.543272238620258,0.6153451465759925,2.3401715866561523,1.5971692267562836,0.9810192045746491,0.9498274576813164
239,3.044501333935076,-1.2342645587093481,-1.2260706602261047,1.3119799868908122,1.2858796386352835,0.7284336425640179,2.2591989097685445,1.8292435826276092,1.8262278533186747,1.2556889334765784,0.6403206450210053,2.3616276336278292,1.612861966785993,0.7905885475313241,0.9464519609379287
240,2.863081235989066,-0.9573219871140268,-1.4355316584280868,1.1942740103379754,1.1823810980846914,0.5190869674705499,2.1097036552836075,2.0066390072113975,2.1311377973746497,1.3690344271343244,0.6528756675646988,2.4217440748303605,1.9593940657824063,1.1684936542161763,0.9502698496178453
241,2.874979223587592,-0.7104708455094104,-1.8477474840194086,1.3427187295342187,1.3303870807270934,0.6644583117042733,2.3528743547393765,2.408336732879102,3.1111400120753987,3.034841635814721,0.6468212168108125,2.475616602880908,2.8822148911995367,3.0052110175085347,0.9411209957561963
242,2.561065210661298,0.6695969719288426,-2.599577720014702,0.8537727031622071,0.8400705474494425,0.6591378013966617,2.5743481273786313,2.699133841844653,2.777891548405377,3.5748326667139168,0.6284777104787076,2.4024054282762566,2.531268824683871,2.86297278370805,0.9341542056205563
243,2.6190326282826266,-0.19004603483925742,-1.6816140478715373,0.9713091548473257,0.9604541433401405,0.6582168101448023,2.387771097657709,2.0792978665136084,2.115955490767246,1.7513431177743692,0.6153451465759925,2.3011416907559923,1.8963436303856218,1.3239755967206324,0.9441589876120673
244,2.5274021057403955,0.4505422953965401,-2.0359479926419057,1.1369487179039035,1.1190017343493597,0.7713263198589131,2.6032289398723654,2.5819261490680336,2.46558923292188,2.382062615464534,0.6547956803312163,2.2980398825750354,2.1712405827204067,2.0330097055785306,0.9449140356228249
245,2.6103140398657367,0.3636193677639534,-2.571250377151652,1.1446897156134883,1.1310718603835375,0.7353497781751863,2.7484386058200436,2.6341450336220547,2.7808164408983633,3.588326371537026,0.6233814453054027,2.540137510787419,2.489001254873396,3.011130353665113,0.9409081082396195
246,2.7720880295651575,-0.5323941847597493,-1.730308037320833,1.3441121952547872,1.3362142928889003,0.686099584816271,2.474337705761424,2.358098175531889,2.723397854807013,2.476067437768687,0.6333676938231112,2.5311600343054623,2.515102437433945,1.9186512210826787,0.9437455533193638
247,2.6138156366287473,-0.39560354776139883,-0.8760168741137322,1.2189787578185842,1.1923972024542142,0.7104714561347519,2.4064120819788957,2.427256959215488,2.3191959393258244,2.322792372143406,0.6038851895711802,2.274861847063372,2.060281201711659,1.7494119213989627,0.9418782342294292
248,2.3554744949195876,0.9030500919164579,-1.8617594979296839,0.6280345831526557,0.6137382811914807,0.6586672739822161,2.347502964018163,2.4282546282496145,2.3343037556958173,3.401336511541833,0.6380535849069913,2.1321861811569973,2.12389330425067,2.6971381676512274,0.9404777700827988
249,2.5292616677412023,-0.07462975248514514,-1.5209390630496937,0.5722487606028608,0.5630532883725569,0.6450528556875078,1.969760419376729,1.5995391028135661,1.8052115601400955,1.408237053301559,0.6008849035917525,2.0582455500547683,1.5669290636701743,0.9418438062987726,0.9422765129463022
250,2.08662152892394,1.2609445051427324,-1.5876291244132905,0.7337800091291046,0.7288915747533964,0.6701130562309131,2.5732479379450375,2.54967513711104,2.15221809865675,2.121797524898466,0.6652988471865258,1.932785543614838,1.9110597372831977,1.752578675437666,0.9465943880359866
251,2.3689595345230257,0.36698025918721733,-1.676767631599119,0.7210935120575521,0.7048436825168952,0.6277762937723596,2.3830991741911554,2.3533955031647853,2.3613534656902244,2.5046039478684614,0.62595550513784,2.1337804047796847,2.1075185703990793,1.8729611494091458,0.9424431323911123
252,2.4435601178381265,0.595931708562313,-2.088257635634441,0.8696706824848525,0.8474698437862089,0.6594281742841186,2.362203498725791,2.3311287456757155,2.478636262214735,2.382674049295873,0.6602640781246099,2.2153885479638906,2.248089193118984,2.099900121770936,0.9404823036991168
253,2.408571280012724,1.0352559577435594,-2.568631621678059,0.8539115484013321,0.8543475406198092,0.6334147218392321,2.511858266353933,2.578804887743714,2.6718539352187727,3.300345776768485,0.648888643467878,2.2864930450944017,2.3817352768608266,2.6617991834514543,0.933086253026978
254,2.533599211231596,0.663381253173954,-2.477569061860712,0.9443296397331814,0.9286615868182156,0.6836815201579074,2.2586945691797213,2.1558243192232127,2.4820239182255226,2.2946182946082887,0.6403206450210053,2.248096907709976,2.243744592971112,2.0178836486804026,0.9361638258796077
255,2.5988745493930834,0.31748133767737174,-1.81272831027128,0.8371354785252266,0.8316521844555999,0.6631165137315258,2.219978960123063,2.2100018182733803,2.2520229263853837,2.2250682281538325,0.6233814453054027,2.332128339801021,2.0570348104421807,1.755711610164315,0.9384651420295389
256,2.680601798724723,-0.1633210273907979,-2.0049330489654382,0.9163757197601599,0.8990133973064556,0.6223310623914446,2.3044604788575036,2.1611893453309836,2.9325098036964303,2.7184863095746334,0.6207552362147116,2.447353993735416,2.6968126929853624,2.256065077359153,0.9476392325488441
257,2.5830098069168876,0.30820869915460936,-1.542041393741084,0.8811196711540742,0.860884251030039,0.7241517727132388,2.2778182536128426,1.9990471531202814,2.0506226132715932,1.9428662864878599,0.676637947632344,2.3508420660018188,1.8510877069002194,1.5220554090716822,0.948999623835969
258,2.556897435941048,0.37313561693107866,-2.4404759775755505,1.1880559083388813,1.1703613106477302,0.7268183865961156,2.65681547844792,2.6728155702971734,2.8006499342345803,3.3021238877605765,0.6233814453054027,2.458199806959436,2.5441366843221243,2.971241253545695,0.9437637639814502
259,2.6907599706597285,-1.2772812919197312,-0.3707397684009003,1.267463945731082,1.2444878642072117,0.6756776839956918,2.0077483613748752,1.764719662848075,2.1277044894702546,2.2141885461481166,0.6207552362147116,2.298703746286073,1.8790224248750784,1.7961167745970108,0.9325362537964582
260,2.2868473640657534,0.506975683253061,-1.4746694598937147,0.8519750706166439,0.8353257038569367,0.6723857018661372,1.8323337697587418,1.6357307924099382,2.2951990751359643,2.7328132967874312,0.6566669596287297,2.0757151599390222,2.05529338665467,2.188960067486326,0.937971609493252
261,2.111209073659081,0.87737042261017,-0.9127993867787239,0.9442410160695036,0.8925785705988424,0.6655685903080107,1.9140180101184614,1.798252527771131,2.0593574157697505,2.5306276063810436,0.6403206450210053,1.8343886512840142,1.8443204741758448,2.101234710161906,0.9369040444945455
262,2.3148813753359336,0.9533962800418285,-1.3289673518569574,1.147411990567309,1.140006940061854,0.7335797198773321,2.7188773647617444,2.588267757502318,2.242401828255279,1.9439923851649643,0.6180765742263259,2.2038464536451063,2.0282287820430738,1.7116579085986119,0.9452695772850918
263,2.4421839526745064,0.7316570231231494,-2.100352361610276,1.0138356272423399,1.0061375002118957,0.6814477529908084,2.64465948743998,2.6472327122984254,2.5750351808859366,2.874860954443446,0.6380535849069913,2.3067046779550404,2.3266363849997473,2.417515059668023,0.9388933724950276
264,2.5111855211371163,0.7926561320744718,-1.9095329611474103,1.0394768617736458,1.018606834040903,0.7172493235966559,2.075520816619675,1.6661937159123474,1.6347697631769331,0.8758263785003837,0.6333676938231112,2.2595256035335987,1.4738864244971284,0.6738184610064448,0.9523719815315581
265,2.2860127670145394,1.0771887487528895,-2.2472336290506583,0.7498413273911961,0.7367267253074019,0.6581932438799609,2.1920448340470338,1.8178964719925284,1.6780054603004437,1.158143211380175,0.6668815377411301,2.0055304142956,1.5080893967808429,0.9663872319576425,0.940752082217071
266,2.233031161821854,0.624896306635295,-0.9836950658755543,0.740524250201472,0.7092856965093133,0.6540856269887635,2.6487925205295073,2.5346942147610365,1.9679035987828817,1.9555591132862788,0.6038851895711802,2.015403145583947,1.7530006320692824,1.7202673173860261,0.9319581143991575
267,2.312743887515934,1.0901890751284191,-2.2388639626076174,1.189083279371789,1.1734748319931443,0.6785057336088559,2.554366484351411,2.6883987741885798,2.5687576932442178,3.0014546197819842,0.6284777104787076,2.1350952058706705,2.319741098816863,2.4868205259702845,0.9291040604527493
268,2.251894461734233,1.496791261798288,-2.895530527800488,1.0779279875956997,1.0691265303024484,0.5873562336354645,2.5837971902060004,2.5084059602716353,2.5444012073710462,3.086670569347343,0.6309483474627791,2.0995535501627733,2.289609600080428,2.7279423579208095,0.9339451190265197
269,2.438422061100695,1.3606496230575407,-2.8614319016688903,1.131143123715592,1.12764193044858,0.7466263048064272,2.455764059418123,2.3791953419865703,2.573978105004684,2.841111969706805,0.6284777104787076,2.290217444185384,2.328375762134848,2.6458370166006375,0.9324646194703616
270,2.249681456466061,0.8465674819291147,-1.5440248764960842,0.7623852821122392,0.7508729664709264,0.5312234037378805,2.1271336004568586,2.0554989286173777,1.599653311287616,1.5495075852548383,0.6309483474627791,1.9460768296124122,1.395908692417897,1.2133368582302144,0.9446374466662265
271,2.3839365541819983,0.47769048509168943,-1.3587226233033924,0.7022201911751008,0.6885680935753545,0.6311008836887064,2.3322958632137323,2.2483813772848507,1.963453098942074,1.7592665408957622,0.6125606311107803,2.008506853037027,1.7671415832041233,1.4539723990206517,0.9429109233398926
272,2.2317328064279773,0.9465948240187356,-1.6112528523107983,0.6746013405157003,0.6584250608097735,0.5853979803438834,2.392572588316954,2.389649413650892,2.3601286487636464,2.8708391440557164,0.6357360191111145,2.0523453160181346,2.1481007770865115,2.386837290602719,0.9417296740162694
273,2.3965529936411043,1.2244847344814818,-3.455259344564627,0.528892302749417,0.5127598434472209,0.5957463135389182,2.4678756422034573,3.0241668517439613,2.6902170753395516,5.737904295405892,0.6822068148872973,2.2729184217054197,2.4550473417625995,4.73368903678907,0.917987940032541
274,2.2045236931543295,1.1546368368020006,-1.5610017648613053,0.6662903365115131,0.657084338433174,0.6352618712123338,2.669384477438857,2.7079316407358154,2.327971950092518,2.923791577915026,0.6357360191111145,2.0993721771687146,2.0392726439499658,2.1509263157769665,0.9382703229828004
275,2.4774279274177617,1.0178664859684896,-2.3444688265391482,1.0216389607609495,1.0038062930839082,0.7052782205038924,2.4382765246591065,2.4839371084514483,2.6185214343779326,2.852321054241525,0.6403206450210053,2.3398255459352417,2.3451096085217125,2.4185647016512783,0.938663088352029
276,2.5803188058646,1.1864054328500688,-3.5946643683168547,1.2700354113701242,1.2309625977275611,0.7979370337831285,2.6964832533650043,2.882217919304204,3.02914892822484,4.278264748060186,0.6447042257417027,2.477335384291682,2.803360380906535,3.9296446067779653,0.9374388455533168
277,2.6921347214274833,0.7840674572324771,-3.3829537589083225,1.0173290095592062,1.009955887321606,0.6935069134516898,2.457020503503522,2.610241601529695,3.0507870073931387,4.690745288326698,0.6097226960127671,2.5540423886228627,2.815651640767402,4.939258631254028,0.9415603490748824
278,3.1879714347048234,-1.5362485779313386,-0.7238789094576948,0.8335097825051029,0.8301963620355711,0.6501823083081778,1.4863581197472722,1.557396983510809,1.5768897151924088,1.9876586318260479,0.62595550513784,2.2728105642928145,1.3967020873302716,1.736637419728166,0.9445952412400217
279,2.1657429214499513,0.27335917529966247,-1.0150056721195844,0.6526495463195169,0.642456948140506,0.6218724017588895,1.856654420021273,2.079691255474532,1.7669720961890483,3.4573676719284654,0.6713451011121618,1.8523590913569847,1.4310552546487874,1.5338495551099443,0.9318210242407237
280,2.323669302649309,0.20431870578304867,-1.6244448876791378,1.0671623808425288,1.0709315015702772,0.5451339735163497,2.0112126612719305,1.950945458984234,1.629681521018201,1.7632175535424424,0.6008849035917525,1.9328623102060554,1.4478790628887177,1.2333574436376198,0.9464493746607433
281,2.5920144391152107,0.339465905487101,-1.9733919170137035,1.1596384147706826,1.138530026832656,0.6717664213013567,2.303842076345738,2.2334868568051807,2.411971317431633,2.667448475655965,0.6008849035917525,2.254324169376792,2.184390401593662,1.906255345314981,0.9363178674852426
282,2.3617435850508945,0.8305640317860101,-1.8963982652149964,0.887893869848112,0.8801254188944726,0.6920915356548554,2.542378132038498,2.399910509786222,2.5525130004946623,2.716914543872758,0.6547956803312163,2.192933795919063,2.3108838958087405,2.381958680535558,0.9412708534681029
283,2.462867727996889,0.13280593225255233,-0.8675476567094356,1.0408881454860237,1.036181700892152,0.681345722050486,2.4786500429289626,2.4374411317292433,2.064383021505395,2.1890418236054328,0.6333676938231112,2.1301268338037254,1.8146489580962288,1.7490563519030788,0.9491523661843065
284,2.426498134414899,-0.0638840728779817,-0.7077972138472746,1.085072946618068,1.0794976804572565,0.7552456952515066,2.670948773015646,2.4820828444367846,1.777426568212363,1.3895665691622636,0.6528756675646988,2.120170947893928,1.5952806618230075,1.195338349409604,0.956689096944379
285,2.5111829202688454,0.12264602332121077,-1.3025995250837978,1.1885773026365902,1.1641536040310645,0.6641939364097422,2.7559415592003385,2.5904022283939674,1.887957039527573,1.5261976615412018,0.648888643467878,2.091154313609153,1.6849789711263439,1.364231116035543,0.9485114614680976
286,2.353660055667756,1.4697183687623347,-3.1626821877657143,1.1767226967340398,1.1742047075386166,0.6775314395233014,3.2841376834716214,3.298450281238556,2.6425464952771205,2.4724427713006865,0.6652988471865258,2.2187546958865827,2.4020933028207385,2.254117457451825,0.9431521262372413
287,2.356750733280344,0.39472903581620233,-1.6647329033582636,1.3710208310854923,1.3496350937216386,0.7992910946598967,2.821049371342203,2.3859271729859897,1.9434947256982849,1.4779655261288953,0.5978297680564633,2.1408442439001116,1.7340970866235026,1.2447650586270034,0.948169261043468
288,2.1907487416598657,0.530898363809488,-1.166614753473689,1.1272653065435163,1.1292635083793592,0.5929026456349852,2.3527884683275233,2.030644006900762,1.5457837956721114,1.3243869936406398,0.62595550513784,1.8802264505503854,1.3270502384744636,0.9983719427559261,0.9510469520891717
289,2.1615096166493415,1.1210012369474303,-1.7070613035889524,0.5932675836412171,0.5951596203645015,0.5982276662317026,2.739418920032411,2.4265193734446298,1.9097042899668166,1.645639760207746,0.6309483474627791,1.938945569253755,1.6643679965305347,1.293993043004963,0.9440958180396352
290,2.200121865354364,0.9683021842513964,-1.1665302208420931,0.7491271190883871,0.7466749491995678,0.6551732132965067,3.154612460296258,3.147768948557089,2.172321230703352,2.3806501858511915,0.6584896970785714,1.9736811060006827,1.9311456325568683,1.8679486075856016,0.9442584647060241
291,2.7468534387331767,0.24676774041474037,-2.005111326345025,1.4711478686307609,1.4806022269593258,0.7518047238914858,2.6992322446846253,2.430082519741403,2.3091674015985726,1.7738105829216204,0.6333676938231112,2.3072626825451565,2.1165123015091107,1.5632549659858488,0.9493522916155609
292,2.9372918205186433,-0.9055776247953997,-0.605479161864376,0.9803744921952323,0.9782668020126614,0.5577895744887394,1.7703542369192196,2.030060446875394,2.220045644770189,2.2158422115499454,0.6097226960127671,2.6015902900010826,1.9654281300226324,1.8035939268750578,0.9565427589142314
293,4.413911159863549,-3.7075835852604886,-0.29436253301579546,1.0314800390801284,1.0198099769695688,0.6622184327367001,1.4206403451922887,1.6818029281370523,3.732244164068805,,0.6068309995095971,4.031056822986182,3.4252644077447925,inf,0.9251923275486097
294,4.427095290369338,-1.755081032036494,-0.04917996722646706,1.099945110044421,1.0920097044868637,0.6568568870936687,1.2407807438422807,1.51799704748943,2.6231202016714326,2.040992669594692,0.6566669596287297,4.650632560064849,2.522825884650294,1.6691571471357227,0.9150888729216362
295,3.3584124830666053,-1.313822575907495,-0.9808580169019292,1.0696429153467721,1.0600179063657582,0.6950830811110476,1.4458441153166923,1.8349298537164889,2.668307006186099,2.0808604923477763,0.648888643467878,2.8163780779878382,2.447001237198918,1.9545308920992204,0.931849709368374
296,2.5509903778983274,0.6176009143025851,-2.9582372372212187,1.2165287965113856,1.1878899850502256,0.7393097345136118,1.8035264341307444,2.780349505791075,2.664716112458628,5.589868216578488,0.6309483474627791,2.4464554634137476,2.4703859513961475,4.544813385447194,0.9024523003332056
297,2.7348510107246553,-0.4061518524702228,-2.210744098427824,0.8828203087325995,0.8579322319332003,0.777980425240873,1.9843726029615547,2.5299766679805114,2.5525511830352676,5.051666523146882,0.6309483474627791,2.6913569781605498,2.3259673040865025,5.29162837839724,0.9160948418214583
298,3.150510973858262,-2.1972229682576447,-0.803745383502466,0.9723063633097699,0.9804393259700352,0.6347610400587124,1.5392171446858396,1.9658381043335384,3.867340416871401,,0.648888643467878,2.9691985384421358,3.525711525134214,3.5263605246161616,0.9298291003530944
299,2.701474884179886,1.083517912642523,-3.7669829642612096,1.1527416889975328,1.140039182062876,0.7494123989036382,1.7732093010239485,2.3640771883216547,2.712912695310047,,0.6097226960127671,2.583181219056341,2.4982342571009624,inf,0.9151769012882861
300,2.3739625097416757,0.879157924438577,-2.544713432306428,0.9474007650583319,0.8994356421452356,0.4527615916935476,1.7762122588481413,2.1739941856258884,2.226434917648249,3.9474240076762173,0.648888643467878,2.2245957741323514,1.9810528576484236,3.2506725989502,0.9442969947015317
301,2.1751715840112276,1.2487103803870698,-1.7416160370211256,0.9060682797671342,0.906744376697825,0.5756588954024515,2.2841587511760815,2.133815642587758,2.093170971004302,2.0395326969126186,0.581717464821069,1.9681784803693956,1.8485343452544254,1.788733748311518,0.9499381202599074
302,2.38030025158022,0.623187655067289,-1.631132592352559,1.065504954755123,1.0627248811240138,0.7069401296923118,2.350330252401495,2.194368023941278,1.9360838394629507,2.135813971364347,0.6566669596287297,2.0647937901557296,1.6850158880218071,1.6080218159029074,0.9415496773085061
303,2.496557304336971,0.4354363813222646,-1.9277756761054152,0.8484628310405471,0.8165280906325089,0.6713439143412135,2.062900160999178,2.0920422329070005,2.5420174028972737,2.883671584125601,0.6547956803312163,2.184308352069673,2.2927618312911027,2.267055671839559,0.936411869984566
304,2.5695351472873877,0.9021191114428659,-3.3632487338398165,0.9539151007070322,0.9321076261826831,0.7196247003749888,2.0768735671529917,2.3086012302868317,2.6858682120352158,5.173208961727171,0.6380535849069913,2.436497510580313,2.4519201507916937,4.909709375506295,0.9343834576761356
305,2.3348154310061573,0.9479652244989518,-1.1988075856530869,0.8239288589929753,0.8027535859077655,0.7346280089845346,1.9952312849087626,2.1066358834429435,2.177544818673253,2.597209768079049,0.6602640781246099,2.108572879741657,1.952981859657453,2.3025850929940455,0.9368123822264064
306,2.477735238626264,1.0870166568212167,-1.8190129781738267,0.9505727351028487,0.9148481043128541,0.6619713850789511,2.58487668170746,2.242869573623006,2.5894603853981066,2.4143411289207695,0.6403206450210053,2.200730716665507,2.3040914954883025,1.9974679587201634,0.9483546783784594
307,2.7075243959909177,-0.3629007910999591,-0.4566606874325243,1.257952473828784,1.249330379022413,0.6852949935928986,2.70731104561012,2.9858311378461537,2.198411504783198,2.5024710980170677,0.6380535849069913,2.1394274786100027,1.9636215242422443,2.216919611227771,0.9403289508143395
308,2.6027432884365624,-0.013677138285841828,-1.0286051159094616,1.1881352262275482,1.180816922665494,0.7082065995285404,2.512241627115276,1.9106915552789392,1.7237940016094562,1.0015496748171546,0.6547956803312163,2.231091646847797,1.508847210879615,0.9330344316120425,0.9292064962514961
309,2.4568676407066077,0.26765042887992196,-1.076780509447648,1.3596314435356356,1.3261159978114838,0.767471708047238,2.500505014353157,2.2487300196224034,1.755208994065112,1.4306307752793002,0.6699045166045591,2.020083080583807,1.558647341140506,1.1915764963036324,0.9489975466821939
310,2.2323064110581328,0.8050886768497043,-1.1960712286190451,1.1368693630648354,1.1422904444469701,0.6001585617344544,2.574546930194856,2.3734281187491324,1.9790679018506485,1.772155890621583,0.6584896970785714,2.0334913853536176,1.744097856930995,1.4417115839451997,0.9430536946736392
311,2.343685347992827,1.1035746139719405,-2.246524622060604,1.321327460410973,1.3146918562403147,0.7623523051892064,2.5440300445735176,1.9514237740098155,2.069091591526269,1.2593080214748247,0.6153451465759925,2.1388613340393046,1.8457323642236771,1.0986122886681098,0.9466186710179321
312,2.240464662807028,0.4808215612565454,-1.9209014115692553,0.9855715435637061,0.9723707313143055,0.668697258855457,1.966442017685491,1.3438829123689848,1.2108466494654522,0.8745073922055879,0.6547956803312163,1.840319659843432,1.0410923566812607,0.5244629546885736,0.954429161865257
313,2.136066234751366,1.030602569608944,-0.7534399836567434,1.0406372145628684,1.0228830924089072,0.7335584499376128,2.8022670046028244,2.717555884753825,2.0793041960706393,2.187289201779144,0.6284777104787076,1.9800990983475728,1.8565072677958192,1.9010776601884907,0.9484848389943962
314,2.266798469194849,0.7105918927802142,-0.6898116072150118,1.1216227407149544,1.1006108866827928,0.6862030604411075,2.7316701979024067,2.5605271710443867,2.136949588796212,2.1813983311012772,0.6566669596287297,2.0069348508930878,1.9106591995845135,1.7928774123293962,0.9359589204190111
315,2.2040418963184947,0.7369539687194915,-1.1795767893223512,1.1373923266667434,1.1230012185427383,0.7381780214452343,2.393206473954968,2.1252453630345878,1.6750988692286235,1.494075287403962,0.6180765742263259,1.8741270996634838,1.4884908000311963,1.2108383108038834,0.9383114741451195
316,2.283408525540565,0.7423968754006736,-1.4512438515442452,1.2292664741311459,1.19330551862285,0.7420828411184316,2.9120663128870317,2.4913603995841553,2.0668913136955203,1.8102133345738767,0.6207552362147116,2.0833603211871723,1.7905109182765975,1.3557495957980321,0.9368273752408839
317,2.3133420068035333,0.35855586727847566,-1.0091812050867384,1.159151713072638,1.1458166591998267,0.7286452143812222,2.490090333155467,2.4392294906605048,1.9748848560724934,2.1500745713124423,0.6038851895711802,1.9759227209013808,1.6831822045113243,1.5023532584181343,0.9353834553652035
318,2.4563010238566565,-0.1417492797478217,-0.7922020670763954,0.819192151953236,0.8029499952348691,0.6715748849393519,2.3837110027769697,1.798698453686844,1.5034419087012074,1.003814371695695,0.6509067234006624,2.0614706563585994,1.293161256156235,0.8443326988373687,0.9453349296427385
319,2.354420870038172,0.580143977203968,-1.532068248851409,0.9433482181381598,0.9387382732313383,0.7138132823196176,2.7266121253823994,2.0528903950760204,1.8513896451871676,0.8240783746255191,0.6468212168108125,2.1464364105041143,1.6272749791265195,0.7331228956365956,0.9434633433156671
320,2.169668712558799,0.46647230994820177,-1.1831309714964449,0.917436525850667,0.9156676141649733,0.6020514870693457,2.680918707790444,2.3533658751080746,1.5129549059233436,1.3602761365045628,0.6447042257417027,1.8565469102324947,1.3314225849028274,1.0991510817845922,0.9421278332785421
321,1.942420921516585,-0.06626785680246106,-0.24221459071641505,0.7750585603978503,0.7472795901664819,0.6428404219561321,1.9550818569806743,1.632839184321758,1.1360973218792594,0.9958482808261764,0.6357360191111145,1.4294338537805082,0.9339633786102949,0.6664665043239606,0.9316314749818005
322,1.8806476745298244,0.5537113248510275,-0.6141473403014888,0.7903609586303,0.7820362241265084,0.5316815663613583,2.400781209734525,2.1340265370741442,1.2941364917152534,1.1009838432738255,0.6357360191111145,1.592963256784715,1.141430919657097,0.9242794356150585,0.9503968676098903
323,2.1612492769271476,0.5658896824355488,-0.4443138178022048,0.7757762897404993,0.7588551953686363,0.6759964053642687,2.2821671563999097,2.378376639129444,1.994616672893165,2.4217522875587045,0.6447042257417027,1.8598242001421843,1.7649334863305233,1.9363684877819705,0.9437264477382924
324,2.3824589124657343,0.9252877271408724,-2.832128552418435,0.8678450867159875,0.8620744821106537,0.7032073761254365,2.3659859596957684,2.8125159045244756,2.334970845042974,4.682606891423727,0.6038851895711802,2.1793846592078885,2.1037020276110896,3.866381724471942,0.9394825548973011
325,2.2384877547325868,1.0127229890166278,-1.7195357754453726,0.650675651905271,0.6313866160013395,0.6339591132541298,2.038741685936817,2.5371777112028875,2.0538822203486307,2.981759340454347,0.6509067234006624,2.1244389076105716,1.8583642798786215,2.6207407170899524,0.9388361495797936
326,2.329308174175596,0.9878106017814292,-2.7303831507200087,0.9916422996625054,0.9545494853791283,0.6587613352021542,2.1305005413478773,2.7951922267961744,2.352412582122579,4.144864528781428,0.663668482632973,2.188859661004592,2.1445884721104482,3.640129611712216,0.9198481490088315
327,2.2643881071656167,0.7055539721161712,-0.4464245567176368,1.3011576396743405,1.2964145512342984,0.7557380625329724,2.4060037691485934,2.4689004173339395,1.8238572099364407,2.5065702356156496,0.5783247308855777,1.9397955480554594,1.6341691775958391,2.202388441839738,0.9475647014647172
328,2.669675109984401,-0.44311196427192057,-0.7363663157855553,1.6203447614034434,1.629215504109296,0.7977277548194579,2.7193365243556142,2.6525376487273515,2.153527115634162,2.247407206236095,0.6547956803312163,2.274753779845457,1.9271759930565808,1.4498929628234518,0.9462350493696225
329,2.997791890435863,-1.3775743692947693,-0.67338376391191,1.4007909049049574,1.367975382135698,0.8063156388818491,2.275435239522332,2.018655394355306,1.6001037590889138,1.3333887855285753,0.585052858160615,2.3425972303519718,1.4171816735194975,1.0105280141564759,0.9479195209782966
330,2.170016745148754,1.0620717288835548,-1.4024397321208397,0.9782149391182887,0.9614697713776178,0.6670487362658873,2.6502895596493934,2.31661108696248,1.7577048860767723,1.429727535065226,0.6584896970785714,2.000178625143883,1.5082328408254217,1.0384898118948112,0.9414114199622432
331,2.306394177473255,0.47468960939475435,0.12789459610501286,0.5606888978741139,0.5208374809442566,0.6050986595330405,2.242648170400352,2.4116783513148223,2.120330830151758,2.1564059556739625,0.6180765742263259,2.0485459849648566,1.8780268014780206,1.7906327085454643,0.9381862708382832
332,2.0664279815290256,1.5309721259414046,0.21201678757766507,0.6262395830359219,0.6092753687616458,0.681499585427943,2.798364800356265,3.213144935894463,1.9829853432382232,2.8036756392943185,0.6509067234006624,2.0124061403436775,1.8418722033683055,2.1967003309284068,0.9333222378633127
333,2.30107462522855,1.3160895819106568,-2.027554064177682,0.9368453478727125,0.9367798310557854,0.7353268981301365,3.0361731017637332,2.9381762938961224,2.3153335770409615,4.064461052995879,0.6284777104787076,2.2418036207341867,2.0526192198711275,2.602282602190238,0.9268175819365304
334,2.226207889201622,0.9891427335458975,-1.997383681040434,0.8842027897274519,0.8770069368962626,0.6368025701466941,3.1730637964429644,3.2225840982184,2.4368951405037937,3.5248987075071865,0.6207552362147116,2.100188614824625,2.200770196760475,2.8581108956779433,0.9435838897603308
335,2.3385756105148685,1.1873900447717585,-1.4998155879823125,0.7430987755268746,0.731655857936704,0.6816287747564694,2.6939591186041976,2.2419815818526807,2.195084870113678,2.4049342749111107,0.6008849035917525,2.27237925093698,1.949041393853097,1.7437265940005318,0.9396155089479029
336,2.1479975239290154,1.5339057150245141,-1.3071522669726043,0.5076330156229534,0.5060019321876744,0.5922983221015511,2.9764926190553975,2.7398108083344037,2.223812102161426,2.3520744642693514,0.6668815377411301,2.1269525243508878,1.9009802723519615,1.9031686006780424,0.936479153963566
337,2.451796989303051,1.3289408362980395,-0.9430883535940411,0.7257187015601966,0.6851903747441485,0.754776288798089,2.8741663534807165,2.676699596748978,1.8228317540622991,2.7923218055373726,0.6528756675646988,2.4352279915574533,1.5964548095399367,2.033547896250201,0.9345526649725499
338,1.7923860616565843,1.2571739979138892,-0.5960499304118407,0.9745134393037335,0.9767629860045657,0.591630170013688,2.4908345448658475,2.0204219148312896,1.4539677989837372,0.8662011680780901,0.6309483474627791,1.6807549111851436,1.2772534954268324,0.7795945472268492,0.9538518713618226
339,2.0460778134025124,0.905456831317133,-0.26512508442728056,1.0536030099213836,1.0497188772104007,0.7691947443350302,2.659795123511151,2.000197229352311,1.6226959018575475,1.3936760937558226,0.6619902821573977,1.9529459534920512,1.4080696385372722,1.06461468012669,0.9469887910668564
340,2.365569048910042,2.3307677034999985,-4.07378917387014,0.6967967522705122,0.6948144769928886,0.7116542140535735,3.0048763118376285,3.3853735038394746,2.8791853814519883,4.116393801737523,0.6357360191111145,2.3191662481414617,2.531620345012898,2.945860443513818,0.9301306584001855
341,1.9716863683576173,1.1499872532246949,-0.22110004688206875,0.1850520094593628,0.1775072252933155,0.5377870788714028,2.743333431104756,1.8635541066136252,1.5204146566056502,1.196550348111548,0.6727386042041725,1.9545921734381626,1.38456981730454,1.0010831099162238,0.94798764994459
342,1.9972353025307261,1.022557888656627,-0.3252611646726371,0.4533978157197764,0.43152910066387035,0.5607209330119243,2.6625880365350265,2.456264379938098,1.791936425939487,2.154448347091846,0.6333676938231112,1.9104679329609393,1.589077571718992,1.5194580390868409,0.9403984148998015
343,2.4901078496165954,0.5458919491985395,-0.8649322867656619,0.7308397556321858,0.7171069792730138,0.7370007100431671,2.838633986868516,2.0949990394152036,1.9753855962514415,2.394936918173802,0.6652988471865258,2.4491534800821824,1.6964843765274689,1.5783473253640694,0.9049902770703456
344,2.1920423384806313,1.4425437505701808,0.4508880744603636,0.4564163189256278,0.4433726720097738,0.5874820169582392,2.9666161992884708,3.3739212668320193,1.7666076361939167,2.5439017352828315,0.6566669596287297,2.178402823095632,1.5425407912721505,1.570729209461586,0.9362981518082996
345,2.6039146837024485,1.554708340323192,-0.8223823480749068,0.6307071389271799,0.6120434252484226,0.6974012998996333,2.9163156212262242,2.620493320309693,2.0136556268943973,1.6038421010065897,0.648888643467878,2.5781922138439963,1.9126577151147968,1.3483705165925122,0.9315540032023574
346,2.5097738867725177,1.8396883406051519,-4.081813540092181,0.528908811082463,0.5147843970121497,0.7021284606358925,2.7557275913832093,2.7857547697242406,2.4646666130546206,6.440605688770649,0.6584896970785714,2.488914671185539,2.225326609856914,4.05426633865469,0.9173040968363003
347,2.5906541859795365,2.684077680490324,-2.5184283721027807,1.1498460594445772,1.1204295830721398,0.8055728058858312,2.83819837956873,3.2013015498308697,2.842718806152451,3.569214165300327,0.6333676938231112,2.5843587287596606,2.668348126536324,1.0734537290319548,0.8801547003214614
348,2.3048021394104095,2.9260053283574776,-5.230807467767887,1.2445627747419317,1.253192903083848,0.7676459516879539,3.096016039832103,5.396213675664239,3.4267530737061103,,0.5947193981915972,2.304253150094743,2.8847116795259304,inf,0.9006502432428756
349,2.8242778275399725,2.680042237241271,-5.504320064781243,0.8448551373061896,0.784197137159513,0.8342441542500763,2.6806595983672956,5.173092439693836,2.976289521078433,,0.6097226960127671,2.8187955594069427,2.8717416884992377,inf,0.915718351335864
350,2.7101903740808138,2.5964149019411207,-4.646787546809017,0.1998168750857245,0.1807323533749943,0.7562973885908771,3.0210756468625446,2.588207370747009,2.8384958169881584,3.2919816443659964,0.6403206450210053,2.6987601541951176,2.695089639074483,2.3501535099131554,0.93279940408925
351,2.3063266007564223,1.9506202271933053,-3.379855709833323,0.41338880795646293,0.38149081184727357,0.6626849314339456,3.1569779607747877,2.7173707146817274,2.6040027305344586,3.7339412149019617,0.6403206450210053,2.2836543053346072,2.309367746717837,2.9643952955499,0.9451243026032267
352,1.9171994342222456,1.0125628736592704,-1.2071982838621726,0.7280602962330763,0.7005812922704324,0.6804054594590793,1.9866719570997535,1.5919749946433932,1.2086901962941703,1.0666577607030547,0.6333676938231112,1.6508966837277321,1.014094027914031,0.6814028779797183,0.940897500822565
353,2.1386031497143603,1.78183937890232,-2.214883099294606,1.097470310163799,1.0750988087472957,0.737203401164647,2.689452258091785,2.28687236528032,2.1291994661911215,1.3980790020234297,0.5915533975974677,2.052777972971191,1.9076186167411706,1.2507242318055196,0.9504833912297683
354,2.149679183856641,0.3920452547978921,-0.869183316810425,1.2896231792549422,1.2596169438351938,0.7382260667161105,2.4265590952220415,1.9355244428474498,1.6393231500211225,1.1209116615467558,0.62595550513784,1.9581289398080826,1.4887634011162023,0.9157674912587465,0.9450015085820633
355,2.4347358458481114,1.1222180868687501,-0.48494362566556193,0.7029073675507364,0.6651092871445048,0.7476853141057664,2.654751706181556,2.035425202450562,1.9985887001629614,1.7151949642203985,0.6447042257417027,2.3573933294890406,1.830529579692626,1.666682455209118,0.9237794078245065
356,2.0033791407672497,1.3885859847146944,-0.6002389407862467,0.4327241790724524,0.4076108158697107,0.6305204511890878,2.5881752738408514,2.369668824408206,2.0243197142412828,3.2252244720726964,0.6207552362147116,1.939950167305864,1.8093872558451862,1.9120243356211986,0.9317342152827411
357,1.8946686668814474,0.8648940558327933,-0.12603871195482652,0.5702660997817718,0.5477608754444404,0.5773604609584811,2.6109413349643416,2.2447401409163925,1.369975065424231,1.3680937992290105,0.663668482632973,1.7871036576918609,1.1486839637347863,0.8259015027009413,0.942701615024068
358,2.024764174857462,1.4980657846238516,0.22832528596572166,0.6442557547865088,0.6426123362110175,0.6586164449046678,2.591856157881366,2.475538091545981,2.08633916668679,1.811244074452558,0.6790044388599258,1.995345521326734,1.757776201515556,1.2311962629365925,0.9340383062743479
359,2.5031526268080566,2.2855441224326163,-2.590153960824158,0.39806630470165744,0.38160400404799505,0.6588012857911488,3.0902236203203346,3.3531391450660624,3.074017182301862,5.822245443839643,0.6602640781246099,2.4979243468693038,2.752661616857543,1.4120468572223053,0.9270325164756136
360,2.5519136991716156,1.8537982189622975,-1.6251830751827683,0.5227652939467103,0.49009085764787513,0.7249233471516474,2.7036707828907027,2.9178391287940535,2.4274439412891144,4.0267356353645445,0.6403206450210053,2.5421121235587796,1.8578522118017695,1.990320777136929,0.9154903733935644
361,2.6335245644577445,1.9562258524925427,-4.551514890195217,0.49626636918230327,0.4753173785060995,0.7888290333736112,3.101339625850845,3.1823879381439513,2.8177034451298533,5.954305165852709,0.6468212168108125,2.6221783620282464,2.4754683090576393,5.616771097666572,0.9117181890520992
362,2.4069741630908723,1.565550604203683,-0.4700930311198399,0.2210350120828747,0.20590257345353466,0.6024415541799267,3.0842511777469905,2.3066085057620476,1.996318869121274,3.5034874915999965,0.6566669596287297,2.3978730508230583,1.735212339715473,2.006621399710543,0.9028383673075764
363,2.1597833966688196,1.575954312653589,-0.4041558951513857,0.5000236937427271,0.48128108653269,0.6788389787369319,2.6562612614094103,2.301624740876458,2.169022765060096,4.10499302678615,0.6180765742263259,2.1244389076105716,1.9116367464875532,1.7693704743345764,0.9309607261948406
364,1.9453716662888658,0.3367266717499915,-0.26315893884301245,0.4883838432601142,0.4752518539296985,0.6412579504995549,2.012449698939828,0.9769390949320518,0.8622522242934397,0.800310594489454,0.6619902821573977,1.84179040283362,0.7078325616740716,0.526114980368653,0.9139752745239996
365,2.469392639056316,0.9717541618046792,0.2970798140496349,0.49393902639529236,0.47551453330845045,0.663321531011523,3.0199874938684013,2.0361972073890984,1.4786430635127492,1.0733147910819563,0.663668482632973,2.450312005023501,1.400824974848648,1.041715278567723,0.9209572473914096
366,2.7659988167591933,1.0937745817833724,0.7415310336577265,0.3528848077256995,0.3203946657895839,0.7613786437802516,3.69274774060213,2.5431261815197805,1.6041638651783274,2.3868148905352458,0.6509067234006624,2.758817318155863,1.4490692854653664,1.4097181747939191,0.8961438179698048
367,2.082592489260188,1.192243327362498,0.8222053643653764,0.23500880384502842,0.2311594456799484,0.6237027319496722,2.661055507028307,2.5816207014230454,1.5033478664404918,2.3068450451740685,0.6309483474627791,2.0827358508515212,1.285349179360432,1.564047202396359,0.9377155976073365
368,2.2589061862729007,1.3858812849919713,-3.1882871474542354,0.41748694646300494,0.40992870776402485,0.6554768577907748,2.815646342596197,3.3496539030926082,2.0053269652838064,5.209787174529841,0.6447042257417027,2.2331626841418486,1.7904128071920449,4.165113633110308,0.9356846654640857
369,2.1179600434317316,1.028598136751743,-0.29053210631910664,0.769063643893367,0.7598674123408102,0.576673051178344,2.694548530367983,2.4189664758102447,1.7208894349603157,2.0997493789267216,0.6740851607140061,2.084610432967085,1.4921315212100013,1.6570368912333793,0.9345989518289128
370,1.1527223166616134,0.768236419412057,-0.0913881903287197,0.6137388289110709,0.6104410774521323,0.4998382481476671,2.6034082589462533,1.8312972767279883,0.842361800038238,0.907593815282644,0.6153451465759925,0.9933817814610159,0.6646046576725348,0.5508047745741341,0.930977599851108
371,2.3857964943844094,1.1097319087350668,-1.579721905832633,0.5369451238271222,0.511429704673825,0.6297482016254695,2.4481141559215946,2.924710057906038,2.415921224981067,4.593457470393983,0.6284777104787076,2.3053667359559227,2.082901559641435,2.4241768035804547,0.8824616494865167
372,2.5344789476823135,2.8303372857112037,-5.337250206857041,0.06698765724152846,0.05560642327815441,0.6225274311424315,2.4518041235245756,2.5252710724861713,3.312288863664982,,0.6125606311107803,2.5356386981947736,2.8804617040096465,5.991464547107982,0.9169978623025045
373,2.3977376767068224,0.7570853093105789,-2.944527588864517,0.2257515828920963,0.20521717023718974,0.7313065567582204,2.5404418048025486,2.683778610027003,4.237814280172237,,0.5947193981915972,2.392388242143472,3.2499856043840856,3.367295829986474,0.9378872313133529
374,2.3017591554200307,2.2957761233914216,-3.4151718343853754,0.12932326130896363,0.11535203605748619,0.6512637169993792,2.1089421945987525,1.9975039686707956,3.0502286943921155,3.8551984444750134,0.6233814453054027,2.2915352568074607,2.649884968267322,2.023493467747303,0.9373336086356309
375,2.50856671516073,1.8274241167104277,-2.022741463189433,1.4103713418533939,1.3816223787321091,0.7834562383429224,2.1078688956781675,2.1342567424065826,2.13263830126624,3.920501173256648,0.6509067234006624,2.507834154431705,1.7906686591935248,2.3132715900904315,0.9307961694928375
376,2.1195435816176986,1.3617420337769093,1.4200824380545294,1.187116289640181,1.150692070552224,0.8282202314345624,1.8453331260883707,1.7308586881468802,1.524960393824116,1.8128147631790237,0.6652988471865258,2.118875610925243,1.3595628510803595,1.393885216293141,0.9332583447411302
377,2.418219711074762,1.8363780418327602,0.13949152528847186,0.04466961139416602,0.037579278322869114,0.6781647096245752,2.4627198401436625,3.146871223350701,2.116456608760745,3.602136572669836,0.6284777104787076,2.417497253558746,1.8752982473871926,1.6810474448122235,0.9540367062906829
378,2.088372947821274,2.0487028253857615,-3.7164849789012675,0.1515848085745051,0.14595879703066975,0.4651933705662629,2.7239028118100874,4.2172660852939625,2.392278103211034,5.5423759111246556,0.62595550513784,2.0732385975552283,2.0987072106904243,4.144576687708434,0.9572884336970819
379,2.473552029169714,2.864236844977303,-5.318671110769482,0.2808825508150256,0.2625540910985827,0.6673946415224076,2.858139176144775,3.2321241846079656,3.3333006449436056,5.5917217852278105,0.6357360191111145,2.4691645428393927,3.151503025106302,5.786897381366708,0.9035538039015052
380,2.5271716291784183,-2.415110842026182,-0.11206078715223633,0.10060391803536387,0.08455976403841828,0.702561537705437,3.2769692754992135,6.015749918300733,5.931552509610569,,0.6233814453054027,2.5248956580043638,5.747175075378889,inf,0.8938322388231946
381,2.9759754037956516,-2.9759754037956516,0.0,1.6055831095903041,1.5721419871219182,0.9449353292446359,2.606451418968787,16.32773970319801,,,0.62595550513784,2.974840914522615,inf,,0.9057497544193276
382,2.7872045163357138,-1.005379554185985,-1.7818249621497289,0.12925332146056012,0.11292457719912766,0.6444269404773494,2.8660918319955484,5.797660288644673,4.220689893092454,,0.6125606311107803,2.7734780064246656,3.915588071592642,inf,0.931066615171404
383,2.4248197375491714,2.6359639446024055,-5.041665918774042,0.38506317817689617,0.37577281338494095,0.6614252843465238,3.067418981415823,4.682003021264476,2.964986663201432,,0.6447042257417027,2.419743323881587,2.7225204126931053,6.26530121273771,0.9405324896891152
384,1.7524928424742598,0.5808864898789818,-0.4563113111388466,0.6765961529669563,0.6750640217950291,0.5528303486349647,2.303632866445701,1.5486377606740556,1.0116159267696954,0.983247300648995,0.6547956803312163,1.5873503159700957,0.7873276867632178,0.5008051426691006,0.9421805643611473
385,2.0711164403602447,0.4774757427649696,-1.2649829772443646,0.8571501045668882,0.8561310556931149,0.6145945765166132,2.3763459773186826,1.7757094330263667,1.0861155653752697,0.6430386760030686,0.6207552362147116,1.8571161027060619,0.9544444747658131,0.43834735664405444,0.9366741433968727
386,2.1875162969607587,0.19573924878147775,0.3575922176762276,0.6395343770054874,0.6205874438834041,0.674262958896896,2.327350706699822,2.0966957434680675,1.7722593007801029,1.8885148837057837,0.6309483474627791,2.0669861004124903,1.6254552452678068,1.7311873229449148,0.9360620669125398
387,1.8773288474267964,1.0564317468100188,-0.5089131811830958,0.5541547293636304,0.5466796216234496,0.6455670033578336,2.064750324544362,1.4127669009797335,1.4700480882671314,0.5570649977116704,0.6207552362147116,1.8049122558063555,1.313113208881905,0.4382674875142579,0.9377783291125645
388,1.9473215818769638,1.8075810008104563,0.3326486077097637,0.4396231500027389,0.4409192994566814,0.6830619234131508,2.3139717388734864,2.2178660322571977,2.0507553160558207,1.6948064245436902,0.6380535849069913,1.9152839555135526,1.8637633672237939,1.4526503564692945,0.9335373805497345
389,1.973812292406771,1.4693198473848712,-0.4162190481588328,0.41211863736295307,0.39351111982420345,0.7283401240655472,2.08409016963222,2.508551696294851,1.6039958221393995,2.57382582261971,0.6468212168108125,1.9382506690211823,1.327833238833799,2.0277988616251896,0.9366353040176555
390,2.052138133061126,1.6110257693592116,-0.002339383690731278,0.8627929626685596,0.8239022744444904,0.7194645425779645,2.4981848549717673,2.329185077707035,2.067384857450206,2.0379319632434107,0.6699045166045591,2.0418460801567058,1.7381744786671927,1.5116522650054696,0.9268424143654983
391,2.3609504371558487,2.1252639375729188,-1.3410874064363116,0.8664351531751283,0.8522760497530214,0.743874373899761,2.6133036319924026,2.9368513520447377,2.6012398269149064,1.4488092563707997,0.6125606311107803,2.3335025956288473,2.4566593757090778,1.487504263051404,0.9359515932735608
392,2.2041300870687994,2.0424519299844857,-3.191303872580685,0.6222555292361533,0.6055774883403947,0.6646361395034968,2.217304878930465,2.7796017138656093,2.5280519787653954,3.5597659763028267,0.6357360191111145,2.1708748020134374,2.2390941643170383,2.854461256590394,0.9344375249248487
393,1.9470465067985057,2.3647064321971483,-2.5117750425211134,0.5315556724750776,0.5085303924460371,0.6728095424936755,2.346773110612251,2.5151777944680394,2.9360523460252947,2.6451323473334174,0.5978297680564633,1.9009792742239504,2.3551002111837165,2.167878842196399,0.948951167103009
394,1.8066233201578223,1.9604921656724976,0.10234007466493544,0.5965733802887255,0.5846804261059086,0.5072617241387599,3.0476348390782784,2.5287308432787796,2.172981920410396,0.8118036294769889,0.648888643467878,1.7760829898430475,1.9827421705131123,0.7922778043616561,0.9500208836830539
395,2.354674981631027,-1.5464357717429975,-0.7700036831329595,0.42361906969928176,0.4041792029262653,0.4695871359183917,3.123577701066974,5.103301664758636,4.698105646019146,3.6568614723590827,0.6699045166045591,2.3460726740726354,4.436519461955496,3.9318256327243257,0.9416093785757523
396,1.442657985109483,0.3647436673162199,-0.5102062144499817,0.6792091988185281,0.6456968080036629,0.7358045443965964,1.8051883010712961,0.4319976349077477,0.6089099495583736,0.13452875066376752,0.6584896970785714,1.281013848662235,0.5836748005885779,0.13631146612246053,0.9526733174136149
397,0.5524528377398317,0.24235499000363625,0.17667488976394186,0.558322626253836,0.5434965834860808,0.42309729710040395,0.4136897825063911,0.2730344431145509,0.4496402474190229,0.3671950724595422,0.6068309995095971,0.6032658517505791,0.2985468609429229,0.22372551391386397,0.9473484138501264
398,1.1193453898557704,-0.48219044047686865,0.0829592328784402,0.6007137994602302,0.5866058358360011,0.2591753364009918,0.7100042845182941,0.3800303730312733,0.3168329665706522,0.24152033127657588,0.6425374456860184,0.6670246964143737,0.2617041805804102,0.1524364980696053,0.955786698815925
399,0.9364731451111175,0.10708715624247311,-0.2813582426575042,0.6185508423608093,0.5875793607444411,0.6131347737453747,1.3915031981294423,1.1207183656169275,0.20341832973762172,0.18059344526709156,0.648888643467878,0.6524958672715696,0.16239217079910326,0.07955966588102993,0.9264562088560827
400,1.494416635825416,-0.07303026640280863,0.24410020223648266,0.6444249704107178,0.6310323055099091,0.4751318132762628,1.1206843575895795,1.1045630952609997,0.8146751255545149,0.8160969092256641,0.6180765742263259,1.1389829961447937,0.6754993601905291,0.5474989466153792,0.9534132278613126
401,2.2661375777687716,1.8666983277309601,0.2514189111366054,0.20466859451959732,0.19560520771119333,0.5091778681815156,0.9966442172965883,1.2497594331243327,2.2110471724363827,1.8680188744261506,0.6584896970785714,2.252525893121309,1.9833822334225788,1.3725641683079886,0.9239930087447921
402,2.243640320329041,2.0760555425141987,-0.8878753460635971,0.022340379843483554,0.018117108504307793,0.5624142895309033,0.8655245471818844,1.0505362923497366,2.199509770433479,1.7898371354112041,0.6380535849069913,2.2457847679515965,2.0348893724619974,1.5623704015761146,0.9602700176832927
403,2.0942474703018665,1.851296357712589,-0.7651873452459581,0.06698765724152846,0.05684353232431964,0.5617716376690148,0.9005662413672791,1.0478444278485601,2.096066296725528,2.327442759631194,0.6509067234006624,2.0954805934529355,1.8585224842160937,1.7802386044718808,0.9413104818277183
404,2.151935242450561,1.938216846092788,0.2124134431860254,0.040048630190433046,0.03304917928417258,0.6500517465572097,0.793995596172274,0.9281334955788445,2.0595235590678582,1.8419060510504432,0.6038851895711802,2.1552192831911894,1.9031148415078782,1.758243844102478,0.9298913454765787
405,2.178595108339467,1.6895432319040595,1.0199471091335703,1.3107568142617991,1.3094721737540644,0.9243122175476302,0.7437240926140355,0.9255548354019093,1.904631487265295,1.5097209994202745,0.6566669596287297,2.1777161109481766,1.6871052929956756,1.0938541512216928,0.9247645484453878
406,2.2411556144834863,2.3679897870680335,-4.379732241021101,1.4643446382527117,1.4468391312953208,0.9141546489396631,0.6878613541020165,0.865134186353707,2.6054370233729376,5.163783821267588,0.6125606311107803,2.238671767250393,2.354350284802051,4.329636247471958,0.9318272173217739
407,2.1716682099010254,2.1357261476701725,-0.3314732865369332,1.2441307559939825,1.2432510279781344,0.9018042790139907,0.5119954328440861,0.7257323763111699,2.552610709878426,1.5953027601760184,0.6528756675646988,2.1586771677239804,2.3654251951753293,1.2415555154749789,0.9358129508104215
408,2.0871628322645788,1.8049165335580208,-2.412014023249956,1.3530315862326436,1.3356720212865085,0.8782914347027382,0.5358989087298376,0.6899795954332485,1.9572270104305278,4.006883031807078,0.6097226960127671,2.062781100786729,1.8004517404719853,3.0225435310046476,0.9318898277488955
409,1.3713581292355137,0.9648546834508522,0.834314754693791,0.022340379843483554,0.022124238722917196,0.3228072126080404,0.5680054751276246,0.5321169509415687,1.1425884009073082,1.189286278922722,0.6233814453054027,1.3660996538343713,0.9723429254173857,0.8538454111240132,0.9648361762539777
410,1.559606278147002,1.0304080635712787,0.9461251870748235,0.106969059718312,0.09695109039044075,0.3643520475410879,0.5754868668333318,0.6320022112357596,1.292996954376035,1.5334836682721353,0.6528756675646988,1.5701103673807122,1.0631416236463116,0.9898397225489095,0.9498848125242845
411,1.4790677011795597,1.3278826447575087,0.8282476696359033,0.102348078514579,0.08275734215427143,0.5229924836213766,0.6682420806315484,0.6572640262218835,1.5442539322535973,1.2026510530481305,0.6380535849069913,1.4787020904450459,1.3490705256945987,0.9348729882139007,0.9497892524735053
412,1.8599822354418123,1.3422950822697781,1.1890684406572034,0.04466961139416602,0.030232778415390703,0.5503685043005525,0.553331764341456,0.5844956638686104,1.5778783089907824,1.4654387214622782,0.6468212168108125,1.8571161027060619,1.3678895825376758,1.2559822308459396,0.9623960410510549
413,1.7386722123816192,1.6049572052267722,1.3574310427690701,0.48125731064550037,0.45772222181318756,0.8543836388935317,0.5145786098189483,0.5878332404059321,1.7031518099448375,1.9475986997661308,0.6125606311107803,1.734623277857246,1.5819266297446248,1.5645201821397414,0.9482785018193752
414,0.8036093204926851,0.43814822758917327,0.24840748100187082,0.2608501012821926,0.2578733118934318,0.4089125894529402,1.2913931308281066,1.0394239899074957,0.5226514574898896,0.4548413366927114,0.6447042257417027,0.7804980090961268,0.4013509714757828,0.26570631588003885,0.9521038604405625
415,2.2052075212217157,1.78806099988258,0.9367884330495104,0.1711888577982404,0.1512361580210444,0.7471728903440796,1.5036588543488176,1.9479187370051323,2.1276145279299294,1.8583165657309,0.581717464821069,2.204249192273184,1.7827368516284174,1.863750843711263,0.9451028947122265
416,2.2106290182958204,2.5374101242579594,-4.70980361579871,0.6474550709070324,0.6354616832932696,0.865563360408459,1.5429072614227393,1.9801696698323734,2.63653080120762,6.5500781823874785,0.6125606311107803,2.207577989415711,2.4189293339605116,6.0879104453762345,0.9558827374766389
417,2.07333139266297,1.6244799060446864,1.6703609308846046,0.3762858242165138,0.3641099428819502,0.8622943128214047,1.2995543908274692,1.7360497747857109,1.9387031059721056,2.152372637601279,0.6008849035917525,2.0720026125828377,1.6058270053445138,1.9066894359020319,0.9494120419154537
418,1.9485452785250839,2.0793172455835736,-4.027862524108658,1.2725031384986183,1.2454950894584151,0.9276284686912422,1.3884161977031906,1.4070137432766223,2.194922123608779,,0.6125606311107803,1.9482573460125514,2.0821738904658966,inf,0.9038006291715401
419,2.0454914772033286,1.972579138998893,-3.486915450755721,1.4579584158850323,1.4443207565410425,0.7488639658611936,1.2474118309541042,1.6120897223445378,2.3834339985642825,,0.6284777104787076,2.044846896915337,1.9663827585962572,3.7327736476711615,0.9265693603251413
420,2.0047746730543863,2.03438766225883,0.8280154550237757,1.625931507480524,1.6231774858316321,0.9671861188587413,1.3284691521494902,1.4650850050195139,2.0968472330492114,1.2214030979850632,0.6333676938231112,2.002892107876129,2.0306709820861126,1.0732160646869162,0.9182146523667882
421,1.9610164708023516,1.895713217019547,0.598395410838874,1.3667883858630372,1.3340322736200005,0.9466029384349209,1.1951921278215112,1.3511559605145484,2.097598328849551,1.8856876018111026,0.6584896970785714,1.9598625887844543,1.8741710977819976,1.5261590836996723,0.9022445833659024
