,bvp+acc_XAp0,bvp+acc_XAp1,bvp+acc_XAp2,bvp+acc_XCond1,bvp+acc_XCond2,bvp+acc_XDist,bvp+acc_XFuzz1,bvp+acc_XFuzz2,bvp+acc_XK2_1,bvp+acc_XK2_2,bvp+acc_XPermEn,bvp+acc_XSamp0,bvp+acc_XSamp1,bvp+acc_XSamp2,bvp+acc_XSpec
0,1.3472755452589817,0.9769487392046341,0.3465133778237317,0.6649046035147577,0.6481488191709246,0.6377874788145733,2.6527387179469106,2.821338445487905,1.0134531353582201,1.0823804075640506,0.6380535849069913,1.2731641081977036,0.8237627478231518,0.7285939295556929,0.9529160058570376
1,1.4534673277546275,1.141818272052255,0.3103576637358265,0.6872658718524962,0.6630433017819816,0.6556491937834386,2.9404977353002293,2.677377153965391,1.1874658987621964,1.1943360682709432,0.6357360191111145,1.4225434937950117,0.993085880508244,0.8788084707873661,0.9511047755431329
2,1.7438737429327056,1.4117476990708455,0.4129892689913919,0.5540156160978841,0.5316087759320371,0.8039679356988101,3.3748057184262357,3.020979974446488,1.536663054100436,1.5791867155911323,0.6284777104787076,1.732987542984821,1.3490290991661826,0.9188375769837583,0.9473118816610032
3,1.6319634803978453,1.159140130760063,1.0962794204650375,0.41135099104987727,0.3963857666514467,0.6522693596170243,2.9976945823002366,2.712959887516255,1.3894299586446202,1.551047787520537,0.6233814453054027,1.6196004880318131,1.1781920885712585,1.2721846291707348,0.9408479090749959
4,1.5973915483793546,0.9578307426737405,0.39762384646429094,0.6310101199599455,0.6140904583795962,0.7760412673128871,3.569161845222166,2.760533316736327,1.1112410291709174,1.0282500047621426,0.648888643467878,1.5562131511968027,1.0206625993546015,0.8561563546307698,0.9243838266184984
5,1.3458910082165862,0.8114256384000875,0.4998277707770056,0.7766620142386567,0.7642366303517835,0.5231956125985154,3.1972248108306522,3.0805600920837835,1.1027941122686395,1.0786424342339804,0.585052858160615,1.2375295878547787,0.9532160233837316,0.793058091450207,0.9024935493277222
6,1.3788404543830053,0.8450973897032581,0.6623697397181694,0.6416192980581462,0.6102403519525359,0.7993570190897353,3.8560745370758753,4.035278330513456,0.968781147405132,1.2040528399029458,0.6699045166045591,1.3630988035167018,0.8488334026917919,0.8341581266870916,0.9350090843286327
7,1.584367337837114,1.2723145715122925,0.4360921165383522,0.8028774737091164,0.7771581507947495,0.7262604177341458,3.6232468301481253,3.747017222535205,1.3954726510939222,1.1061242404167264,0.6333676938231112,1.5550023379615645,1.244615056666136,0.9740939950029334,0.936445962399299
8,1.6168693643300824,1.081719506260423,0.911488812565449,1.0768322420129002,1.0715512009588188,0.7173311115349446,3.766343555840195,3.9521698988799447,1.2281327486825024,1.2436742205227296,0.5915533975974677,1.6111616193859484,1.0438218607795695,0.820937447692574,0.9321877251371715
9,1.4133863208594948,0.963291308748006,0.805211918481131,1.061867128701721,1.053738323371839,0.7537287296690287,3.4572831910700264,2.8654266781940847,1.032367196330402,1.0871117014346172,0.6333676938231112,1.39428173095339,0.8765893865511281,0.8240678061329212,0.9366120342274471
10,1.875927852334931,1.3168375707596724,-0.05887521183897082,0.9741758578115174,0.9801281690423014,0.825332698624884,3.935669069651512,3.522864307333361,1.491560626543988,1.0868440014202938,0.6403206450210053,1.85448629913636,1.1934753793345756,0.6360407985634967,0.8969991181085699
11,1.6936114534236788,1.4924645963065823,0.40996233427042306,1.2610846666074977,1.2237155275342102,0.795576661807597,4.2823490114639675,4.616818667345469,1.549921527232567,1.7146703606417444,0.6333676938231112,1.66812690878278,1.3651918584333178,1.4044555121947147,0.9364992399535146
12,1.6218834939833011,1.1998353193503155,0.01399162941062393,1.0026253865640244,0.9916923662890387,0.7379855390734176,3.6291919198045797,2.7990364505796905,1.2208691396215046,0.9766584392165801,0.6584896970785714,1.5599072817369446,1.0519240616247225,0.6949653628790039,0.91465147534984
13,1.5239817119401227,1.123804160313601,0.0989862074273895,0.7894593823277014,0.78955524436431,0.54986256220175,2.812498229996929,2.3236439033141414,1.1097484897499923,0.8273982341384345,0.6602640781246099,1.452006904485272,0.9893295306013536,0.7135218376581314,0.9569459318913761
14,1.5898668252002521,1.6101200035448782,1.566463908273195,0.5435163264316037,0.5256602842390785,0.7106924854213943,3.6517686994576732,3.3517128471101745,1.8090615257114095,1.877507862155417,0.6380535849069913,1.585124775629596,1.620505822488584,1.4450019619466685,0.9548196042477266
15,1.454774137401443,1.070623997353185,0.6835360670119379,0.9922899929374622,0.9816983627486127,0.7280038264358607,3.3104997079626277,2.7906049741659364,1.2025154677677141,1.002106285631894,0.6357360191111145,1.4432645573797616,1.0088522695852478,0.7664812586985175,0.9360666843540268
16,1.3530763600906817,1.0790981651923068,0.40323431385325925,1.1138600846920335,1.0962194392842508,0.6505485969962198,3.26847091366554,2.8062438025046545,1.1101332358180946,1.1450890340422415,0.62595550513784,1.3213392600971032,0.924760485021253,0.8981325367540789,0.9473603011894518
17,1.7645166363071159,0.531609389329359,-0.12813016683306255,1.115437365792726,1.0988173749236425,0.8576146120578375,3.6607625057592545,3.4666316883376567,0.9447003461746659,0.7084762197473985,0.6584896970785714,1.5928539671671198,0.7789621209011437,0.40898403339861017,0.8201305547713726
18,2.122791109768605,1.5450187018149117,-2.2103947333689513,1.5602675967107378,1.4980238599273559,0.7989088649056663,4.061556606709393,4.025722464873693,1.5326702659498197,1.5132352230856307,0.6447042257417027,2.002645123146763,1.2984053099104538,0.9203702117328603,0.7786456644221416
19,1.9116716593199385,0.7201853259726969,-0.20701982644666694,1.3758165315000306,1.3699876267730724,0.8571576071909199,3.555996330391644,3.5080390630476392,1.3498162400407518,1.3947654434429657,0.6468212168108125,1.6807549111851436,1.1587336363964513,1.0669942774709358,0.8764360032195944
20,1.810768020151265,1.3697958401955002,-0.13528067070161942,0.9833689747557529,0.9628697430173265,0.8885635474705572,3.743459338059115,2.637953060154307,1.3114855694078575,0.8324581067940808,0.6097226960127671,1.796102218662192,1.1350915337542278,0.6579409248253258,0.930676921808983
21,1.5320819455838595,0.9570378908355028,-0.6378796870901973,1.0563966531481737,1.0442635515643646,0.7255466219392226,3.2850067735696467,2.8358139994627325,1.0256156136047487,0.8288723964945899,0.6180765742263259,1.3777531634427798,0.8637368301914551,0.6096610511086487,0.9428737986815894
22,1.5129349330452484,1.176000324301197,0.5852923977938231,0.9089730128737415,0.873677768131008,0.6207932655813413,3.060584462228439,2.9693940404698154,1.28848894116193,1.3232928338450696,0.6097226960127671,1.485991929229889,1.082876207738984,1.0389434940562814,0.8962150634593286
23,1.6413622798894205,1.184236382299365,0.06558786771893566,0.749144107252302,0.7199853807525506,0.6586299471796871,3.117105767864917,2.8932135715474963,1.3759800020330322,1.410988317246886,0.62595550513784,1.5441704903427182,1.1488269081331992,1.0012296619646142,0.929986725399606
24,1.7765822228751276,1.0574014257556041,-0.7814049566819272,1.0011449063530167,0.9888442424238607,0.7298313903826935,2.879001383007843,2.487217518070774,1.2746769976181564,0.8872063468752941,0.6153451465759925,1.6062208704449776,1.059887962869061,0.6268322295782649,0.9530314209610301
25,2.0833052674631403,1.0600280405309306,-1.3836234864744303,1.1693455425187715,1.1305814735265598,0.6627440732948463,3.2537948455023296,3.1733710267316226,1.9911526414934813,2.204038122732378,0.6425374456860184,1.920881549554432,1.702626397118041,1.5654568829481996,0.945501056611741
26,2.007271409380617,1.222364166990427,-0.2571990669274786,0.9639368356297978,0.9357626764439151,0.718874339578759,3.0879696024540904,3.3670776325235794,1.743801596862909,1.8977743159223281,0.6008849035917525,1.8692886717372927,1.5678813703836803,1.6195091904766896,0.9566860359705431
27,1.737740364884395,1.0427730121713183,0.38719620742363237,0.8890553837893488,0.8474271645740822,0.6837428976508593,3.1109668864488205,2.753017397884702,1.549979252915102,1.3276212076821656,0.6180765742263259,1.601855619694979,1.3830466220474191,1.173447650455615,0.9379718817290996
28,1.499701557907256,1.0455748200130146,0.43802337821325343,0.9531512743007228,0.9420707416604062,0.6599359879415789,2.9419100403781937,2.404171744005441,1.2369267839201379,0.9159274060206839,0.62595550513784,1.4358581577991303,0.9930463018735853,0.7604125629539408,0.9496676751172625
29,1.9368749135568875,1.173710333152525,-0.13252341162251913,0.9643342083628964,0.9474803177344794,0.6563161825466063,3.3886908289273,2.76752723656424,1.6373469203389974,1.4369655982720204,0.6528756675646988,1.839829892473138,1.362516630443852,1.1481814446975205,0.9383684633468369
30,2.0604924813196392,1.217245210893633,-0.7748181782600696,1.199797854761505,1.190955421359786,0.7572138531989161,3.414523545384585,2.9625847538405874,1.6942330639549024,1.3340825412664497,0.6284777104787076,1.9857488308896918,1.4759065198095778,1.096843315979675,0.9350023390654405
31,2.020951531687628,1.6256243750250698,0.370898228619176,0.8521961495212388,0.8498600176661527,0.6764094344236099,3.4655109575186436,3.947376138862386,1.9228174301563583,2.098775662275148,0.6357360191111145,1.9880988177902137,1.7406771333230349,1.7598951439260069,0.9481408053879679
32,1.77782651731164,1.593756225603647,0.6199178086172972,0.9119397600364404,0.8811958133968265,0.759078097590028,3.149243100098468,3.681502730782319,1.7242957712795777,1.7463774441842634,0.6309483474627791,1.7707810628428633,1.5636926867763838,1.3760569520266706,0.9560218485772133
33,1.5331559433188546,1.2452508411197563,0.8990962555413393,0.6003013185022452,0.5720503234643596,0.8055352566153422,3.30709843331312,3.2044272920128343,1.4303378466284637,1.1702916874469882,0.663668482632973,1.5246373107416353,1.2231937603724194,0.9553727102880352,0.9495758667956684
34,1.9040293815050298,1.8663753502289073,-3.1413347521495605,0.4600697222200877,0.42448715540287596,0.5546094077609572,3.163950370817658,4.748088348721893,2.1661248181210837,4.617618831056288,0.6068309995095971,1.902393122731227,1.8631274237079176,3.8578547689549962,0.9486971817181957
35,1.7352766500551744,1.019203249235976,-0.7011021715725803,0.850418130211525,0.833251454979797,0.7686269047435919,3.344782093733975,2.698134186549914,1.1435566153414247,0.503829197586209,0.6153451465759925,1.6223543043673274,1.0161698340862726,0.4293010448396589,0.9533146296681226
36,1.8473680960248744,1.5879934545038534,0.6302624019951288,0.9860440939777161,0.9928299769741856,0.7505404863676923,3.597850452755846,4.187103313823618,1.8531879830742504,1.842784968163178,0.6180765742263259,1.8148916332851015,1.6295612570480111,1.4498819480669825,0.9363996995500072
37,1.4773838482295505,1.236011659702361,0.9670932735569617,0.8390299012570567,0.8080731521134916,0.6011769968275007,2.9514877271224123,3.3607947423202145,1.4562373752857423,1.9137004214539448,0.6233814453054027,1.4366991614463258,1.212610544633284,1.355803722414548,0.9425067316912704
38,1.7615893961139162,1.4357091257817958,0.12147482038522828,1.0335244755424626,1.0172486795677427,0.8388927206759499,3.6817593262944315,2.654107740366254,1.4152916975057737,0.7371972807167803,0.6153451465759925,1.74838074592611,1.2863233828599745,0.6248322960939413,0.9088843477642934
39,2.0257460609730886,1.5924903969518192,-0.4742200747745553,1.3107966494509329,1.3141052173359005,0.8468406600763941,4.113967367262476,3.0438416168655973,1.7696715256817035,1.8722037839281827,0.5915533975974677,2.0061084728607694,1.5455242767330188,1.5226525715789234,0.945826552368596
40,1.8854972673058152,1.663973067623,-0.7153921101178984,1.008374806450539,1.0066991772944829,0.7877507369718066,3.9621213194219584,3.69431775530271,1.9019880193791578,2.3926447247950713,0.6309483474627791,1.8631122660066308,1.6427051647856272,1.910282971412162,0.9460577039954315
41,2.121180241155821,1.8959953466467492,-1.8005779653062928,0.9024898383184272,0.8907966633744179,0.8161742796242167,4.2368856166061875,3.27234689275516,2.0910821648146514,1.9302413053019891,0.6566669596287297,2.115368130866387,1.8191277304138174,1.532897835311766,0.9056040707296572
42,1.7126746064688694,1.4748080029105688,0.01418941001537366,1.2504712031615202,1.226297450649895,0.7170049259319864,3.269261082128577,3.4181994973293115,1.5405390869058626,1.8514040356385617,0.6180765742263259,1.5970153924355432,1.2917576440969245,1.3641765558662717,0.8944755147932643
43,1.9219639048636317,1.5504167839905916,-1.1639693549951033,0.6341190900801537,0.6143179941526129,0.6324452596616714,2.921628329649057,3.030351070721845,2.1069397915325045,2.7770290917174094,0.6547956803312163,1.8467789956488283,1.9279004482684408,2.2953474256938153,0.9419038858001221
44,1.3491289217846543,0.9305330814618347,0.44460819275596375,0.7331945963634237,0.7202499799084495,0.704461672080001,2.9492670045965155,2.473864235081806,1.0673256576401962,0.7576054124934813,0.6403206450210053,1.3149871327869482,0.8972495646697748,0.5596411663916526,0.9454609778465437
45,2.032526319649971,1.6336362695620164,-1.2060427147354247,0.9343996736980568,0.9409247127506136,0.6801261283274493,3.6315809406374275,3.0638885075023587,2.003895953658641,2.4154208037072795,0.6652988471865258,1.950989694798612,1.7294807697339485,1.90701155442748,0.9154930941081708
46,1.8116414684529032,1.1552541471205646,-0.46242593914327257,1.1116246187181213,1.1020343236390162,0.7714130908697461,3.3989743005314734,3.3075804825761397,1.3982785447211061,1.1466384680762207,0.6180765742263259,1.636238300378613,1.1885330004336028,0.8176487455640551,0.9346147978599163
47,1.7497912517862195,1.2670232180552117,0.6362155534776979,0.7228105444097399,0.7133387941983722,0.6281944898691662,3.451786001450584,3.0275591952297183,1.4475768781248184,1.4050544933236182,0.6403206450210053,1.7160955653070655,1.2743175467693255,0.964169507770551,0.9337873539424066
48,1.9793841641457335,1.6834497692588064,1.129040943872321,0.6981522700116872,0.6778485456010352,0.8104751938650978,3.582701147158654,2.8923796455353434,2.076624747806266,1.8761231843803647,0.6547956803312163,1.977607235798568,1.676334166954088,1.25986970670806,0.9471584941807509
49,1.6913696989508669,1.202490948928832,1.115197431978277,0.45209786071925273,0.4110031067258084,0.7496973995945898,2.990336337605487,3.2286416811537544,1.4742775204375413,1.4907887158416153,0.6619902821573977,1.6886013771254287,1.2051761739055686,1.0932084928706038,0.947215061489645
50,1.591191850852729,1.3988584669816437,1.0047107271281925,0.30752023096499176,0.29047697416785356,0.7082890622917029,2.988783368958216,2.0832575966895215,1.5989550730230213,1.8672439048869833,0.6425374456860184,1.5753585987812377,1.3756127812438566,1.2038311512341204,0.9559560486725025
51,1.4582025450980791,1.1964936473264216,0.6805533377722344,0.6078532001225598,0.5442261810156381,0.5772641441257529,3.14432376298655,3.0441105519844305,1.542282408072644,1.3817733122037947,0.6333676938231112,1.4260983554596853,1.2361821113983358,0.9438931621628949,0.9385945620623559
52,1.5518325896604381,1.0961125902077244,-0.06076891120374883,0.8426588073944344,0.8224679286049307,0.7035016928536554,2.995621268518525,2.4354669878347806,1.2260631195271012,1.0726625460756172,0.6097226960127671,1.43017658893674,1.063569009518465,0.8261790630782143,0.9071894830261582
53,1.535957610023846,1.073269348494871,-0.21056538949696213,0.7843241026731761,0.7710630956664801,0.6593649224590161,2.8976493978319326,2.6424570318868765,1.1051601826947546,0.9443951830826799,0.6097226960127671,1.3850063021352592,0.9330308954177081,0.7118265391617964,0.9233894520552128
54,1.9502317796288184,1.5647171261865753,0.6992664408214724,0.5965542170943267,0.5841444143464543,0.5666414526784306,2.1437968077461966,2.084734685445966,1.8634768041633758,1.721920099222,0.6008849035917525,1.9088927160429414,1.6714313315166496,1.3125282108802816,0.9480902646655777
55,1.5783936254544328,0.9317527189196269,-0.04555032174275375,0.882335125871594,0.8591896936308121,0.5868873908668482,3.0903733280240906,2.415503993732392,0.8252893881381084,0.4373043035135801,0.6097226960127671,1.5335577020987823,0.7258614788305549,0.4200435633209603,0.9332815615476797
56,1.8833617907637465,1.2384375106299454,0.3983766029805831,1.0409615972553086,1.009269574106941,0.7389064967266533,3.978699567123965,3.1253210072083344,1.6008372378225073,1.2587721755011199,0.6008849035917525,1.8587543380523335,1.4175740615639527,1.0994952909329878,0.9391418776650762
57,1.8175252937613873,1.6661418694860506,1.2851044804264542,0.7223281694287569,0.705819889768261,0.6856833785639045,3.915135839107415,3.6566865541337465,1.80821363574082,1.9014851246623934,0.6468212168108125,1.8123704231321793,1.6714841922109853,1.8012175244548512,0.9485759711140738
58,1.1679381469575845,0.7808533951443111,0.591070369990631,0.7167305242607372,0.7150771151986224,0.6270361764726953,2.4442867769165924,2.040164531227809,0.8054078348045501,0.7257132894475579,0.6566669596287297,1.110010333620479,0.6509613154552583,0.5068900078599228,0.9365851257525507
59,1.4319779972602782,1.0623164004749697,0.4782999586894894,0.39247448031489623,0.39405212770410625,0.5201898088532847,2.451306819180992,2.0651610959414395,1.1533119958214815,0.9968766226378679,0.6528756675646988,1.4009343378594057,1.026962057211815,0.6908827438142526,0.9365428205267926
60,1.2509204129271396,0.6115256713031263,0.28672418298002733,0.5330707507985202,0.43497908038142435,0.6913737454727961,2.8592358140742733,2.8277672590079246,0.8098054414641116,0.9289001628610597,0.6468212168108125,1.1599204773965142,0.6435742480499618,0.5745325627144283,0.9081272812920562
61,1.8296732463537841,1.687830497786305,-0.25449437258384444,0.8076374851206267,0.7770214285546506,0.8445004102246714,4.092959904612386,4.177228616710719,2.2304026102408563,3.3656912086425104,0.6727386042041725,1.809109107563168,1.7966554398402617,2.131919478928453,0.9218328452304463
62,1.6493631177287786,1.3797347002227316,0.4627691813599917,0.7930440144143651,0.7907845556618165,0.6785614537167403,3.6715878653884086,3.5308875580434362,1.4034029331794056,1.4966897014935818,0.6284777104787076,1.6167982668403929,1.2426563884210502,1.16225921592575,0.8935154132825279
63,1.7902005402680894,1.6510856418738156,0.5245108461996542,0.7615187266334621,0.7132028377700854,0.7580474551027285,3.792169389072766,4.0732827800766405,1.9631185719679811,2.231694163695397,0.6357360191111145,1.7612949284242354,1.659085272654694,1.6863989535702288,0.9415510167941985
64,1.4480114346538067,0.8199002959842014,-0.07607319662333589,0.5964874721012073,0.558240255494774,0.6830455251207626,2.6107480725865595,1.9024947143900781,0.8630102102755656,0.6340464306650828,0.6153451465759925,1.3256383672465444,0.7065803755054083,0.490182111463628,0.9239051390224247
65,1.4827497207700384,0.840661316673265,0.5168112240075171,0.5577848638143531,0.5175766769153565,0.5609724992402348,1.715521195042549,1.820995049004117,0.958003534759077,0.9873056828814323,0.5915533975974677,1.4279500363887232,0.7989093460771869,0.7190250853605133,0.940995356261485
66,2.0046896859535432,1.337505229013817,-1.5494906066743193,0.1405401224257846,0.12126247880076882,0.8267325031701386,1.282240897510759,1.5307405209384517,1.57994049126066,4.202821428847392,0.6333676938231112,2.000507140258532,1.3178821302163084,2.409003069820494,0.8945259168863473
67,2.069561310793412,3.251467260610528,-4.552972468300491,0.2666022250207319,0.2515040857962057,0.8421388572451898,1.3518466800826276,1.5452441975625284,3.526832860681589,2.7539123574225015,0.6528756675646988,2.0689193171832954,3.1101346285379234,2.1854597357566328,0.8883740989135643
68,2.091029052513964,1.8844087215820098,1.644897803152792,1.2250184444030623,1.2172206110843904,0.8472047912370245,1.3810448290715636,1.7607025515740973,2.021057492415474,1.9364851779585641,0.6357360191111145,2.089536771919302,1.8825901575785495,1.6333196444374878,0.901964680589966
69,2.011310727168688,1.757507143208974,0.11872760704942653,1.6944639985613565,1.662817923614973,0.8813621241729913,1.2714798378924297,1.6639414246610837,1.9073773172375958,2.6884899116020415,0.6357360191111145,2.0108280013891258,1.7441912552293557,2.0615587121830643,0.9060216077131206
70,2.1136541826218576,1.3522676961477855,1.5218648519122815,1.4129535436641965,1.3709101016854248,0.9011418750086052,1.2730252755866707,1.619773426496129,1.5597524024572627,1.7916862249451,0.5783247308855777,2.1131592022185517,1.3552469291370537,1.4839602546166746,0.8746801928732917
71,2.2403597239484196,2.226730952139485,-0.9998614391205534,1.5558209095915152,1.5205020503820545,0.8605963673987572,1.4299303498590312,1.95554210169188,2.43833402005659,2.9092671313145644,0.5883313578629602,2.239923331869335,2.2120490090467704,1.3910722010736039,0.8870353407756995
72,2.2650512592246894,1.81668973393176,1.0241084734453958,1.5738330698081116,1.566273836805326,0.8808350919417982,1.3297744166906098,1.7024655900363292,1.9119344508439327,1.4380377832194013,0.62595550513784,2.2634712231551455,1.8215832921598623,0.9981514716160831,0.8636685011298721
73,1.8026679317838936,1.6574598938098912,1.300365244941506,1.473965570750941,1.4804058597415892,0.9033776530727426,1.4700014432325712,1.7901830174026547,1.875582207221946,1.964289659681773,0.6233814453054027,1.801742467281457,1.648295079800172,1.27792821638639,0.8585667326407723
74,1.976121126550832,1.5516393497285361,1.767859979297803,1.703013744046591,1.6955401789596631,0.8338510314619165,1.4491621475657124,2.0552061604183125,1.7243251200021945,3.3637666668005513,0.6528756675646988,1.975361845921732,1.5536689072503083,2.2545166899530233,0.8840723031280169
75,0.7487685722431082,0.5034201094880099,0.4796041344291819,0.25717791297430465,0.2579355062921356,0.24537788375743033,1.7064632746154158,1.5591675688908186,0.7492707139852529,0.7286697719624141,0.6380535849069913,0.747978891508867,0.5088088321251191,0.48307529980556707,0.9533740077052753
76,2.0606283076251906,2.53901196466778,-3.968410459964827,0.2963033698481708,0.2935760235759535,0.5165488506800577,2.4663751848769793,2.331793149862391,2.9130494944505543,2.7357514540489785,0.6153451465759925,2.0565065703973398,2.446307608953224,2.7150960279354126,0.9360799530541378
77,2.428410414377916,3.2483316943488556,-5.6576243453492365,0.3152761263520504,0.29124844551370477,0.872837827258666,2.9632836034934713,4.578325090667192,3.2665100116909116,5.700410090978312,0.6180765742263259,2.427266870341586,3.2731878142219406,5.707110264748875,0.882266356902399
78,1.2550485498233603,0.8322100282058444,0.6604793677143013,0.42800651774626236,0.4039281148637419,0.699810974037594,2.8298778936878026,2.611880570603278,0.9019162697398704,0.7822003593323488,0.6684167106117298,1.251142060654328,0.8289218969083145,0.6630954206531354,0.9387679808584795
79,1.7113849690380827,1.5286233466875736,1.7383403154627373,0.5154584230751311,0.5050850336486142,0.6060541411723049,2.9763998087183046,3.423514779436741,1.756064399330691,2.6847213052337384,0.5978297680564633,1.7063771962858936,1.5349714844343658,1.7692866133759966,0.9527117114933458
80,1.8434997905002426,1.9053274658693762,1.3646219571953915,0.48435250733408647,0.4657953123524098,0.6495536878568611,2.7149994937883,3.3548138704095485,2.0175839043379735,1.4952585781454248,0.6468212168108125,1.8410897792499963,1.888611669384195,1.4068750688199112,0.9468338052778807
81,2.189877670574856,1.878686571119041,-3.9346253577613224,0.417067036919283,0.4105579558728556,0.5039975285169961,2.1381167931209126,2.860035475774583,2.0471288357557795,4.961568723954063,0.6357360191111145,2.1882648359647474,1.8440443353379006,4.484884020113589,0.9297493214843136
82,1.8680862751551635,1.2682155101447767,1.3150815473525581,0.42794257989935913,0.41647796793658953,0.6404452702699255,1.5885768749254996,1.6479988384877235,1.3879775702482386,1.3988873902840055,0.6309483474627791,1.8656213178265104,1.265548926622585,1.3381102208463471,0.9313539000487805
83,1.5371148104861598,1.1631919510877706,1.1405786652342704,0.5173097086878473,0.5031604667270124,0.3907578392640454,1.9955808102224037,2.001894964442388,1.2716854795907193,1.3344193879926252,0.6284777104787076,1.5331972953501263,1.1614432188421662,1.121567388421559,0.933967158254859
84,1.7548335873131053,1.507220394571335,1.3915185334263684,0.6362866177995562,0.6224322289362028,0.8172006964908066,1.9638686595228052,1.668616791534738,1.6496949266223944,1.5520318650959655,0.6333676938231112,1.7515136406595284,1.4810667757097857,1.3759286708842917,0.947672139508586
85,1.2028104000444098,0.7512983534906967,0.6205744170878926,0.2285328140111255,0.18985892986406355,0.4595415020153856,2.02958220106607,1.8396050819567233,1.0414045885703802,0.9195010451444978,0.680118107274185,1.1452497715194663,0.8470766948438936,0.6626570138021581,0.9679367433977139
86,1.5478938968088205,1.011688469550568,-0.03108429264315493,0.9313880784048798,0.9294883841587813,0.6451553790968718,3.2358309024560654,2.604612372737013,1.0937717443050994,0.7361522236381881,0.6097226960127671,1.4695793563687067,0.9137338643307115,0.6308093446329216,0.878134877986953
87,1.9688333753666476,1.8066371152155574,-1.6630589394926738,1.3096300982586515,1.2705613316621622,0.9146990545323813,3.955423959971168,3.205255134313569,1.738483455808545,1.1086205641082822,0.6403206450210053,1.95130243913267,1.547875350889689,0.9451971734198054,0.8333531023607553
88,1.5163060170367137,1.2520377359974064,-0.441458767664888,1.109337312598305,1.0643240534729597,0.685711802713948,3.676815376228176,3.553087004480766,1.2142660152691833,0.9976770884061223,0.62595550513784,1.4311987513637014,0.9503093060800131,0.6236013779228734,0.9135326747228609
89,1.284856101610869,0.716016027193211,0.5880094199568826,0.21369248331122298,0.2121158788413538,0.4287923614814248,2.732460660045505,2.327441240784494,1.046864538240185,0.8657222508279323,0.6333676938231112,1.2224008212764101,0.8279566802502567,0.6237744813720824,0.9239102491772142
90,1.469602137450064,1.2230755697168643,1.1242094167901984,0.24119922981745537,0.2332664011653964,0.5343495396098981,3.0016360242467433,2.9879333891450846,1.4639527563041583,1.231052746286579,0.6509067234006624,1.4549539548167216,1.248274556006275,1.1900817856729955,0.9427392705135673
91,1.6371995040001983,1.3717797011223634,1.01110637895039,0.6043626777997214,0.5792746335822683,0.5858062610471907,3.8600719222694084,4.898717495457266,1.6649479275459134,2.371415856433356,0.6008849035917525,1.6180302768523054,1.436980302985506,1.3377400181990458,0.9404902545537589
92,1.3885497200753427,0.957508467202568,0.42967362273769005,0.8348115214380157,0.8088332918285,0.7644018779907689,3.1778620522166046,2.456674695007346,0.9926090329103009,0.7811580115936404,0.6684167106117298,1.339962241924307,0.8255698886794227,0.5838610340328629,0.9009957918437224
93,1.3398451630556145,1.0843930904862094,0.8267920337056593,1.1806802274250365,1.1685833923505258,0.7444309003751615,3.1441888290668873,2.4577235371282193,1.1959865929950215,1.0608243666357262,0.6380535849069913,1.3245931948024798,1.0212474068625232,0.8187048786581504,0.936830994782419
94,0.9056112211651642,0.49299786933578094,0.36686445157205516,0.9486348828426052,0.9198634306408453,0.5864508095299787,2.307272541596056,1.9947010830789496,0.49288611425030127,0.4181624509405939,0.6425374456860184,0.8700700034454529,0.41877505328794756,0.2995382890961301,0.9459000314067436
95,0.7679277068445429,0.4091335556451041,0.18352247215126005,0.3799694817904329,0.335599649575116,0.49007209279214897,2.0080195950350372,2.1794573369674297,0.464871773460104,0.6135931359971473,0.62595550513784,0.7151655942319495,0.32297894766907065,0.29952898155367413,0.9422346561861691
96,1.1801016858550026,0.7867019677803484,0.5371243058251645,0.5892415678000577,0.5752245314313006,0.6132563970023598,3.28008891381901,2.9041258995968735,0.868079950079092,0.799847336453825,0.6333676938231112,1.1633286033878008,0.7308327994583352,0.6927041472513623,0.9312761518588712
97,1.206236151235579,0.8250809468705393,0.3779951050274719,0.7812965076137433,0.7783765763219279,0.5751994471540078,2.615460361451293,2.1873171525803317,0.7945902511410022,0.7627644482222952,0.6509067234006624,1.144342140374284,0.659152585072192,0.5273755367596616,0.9488667733469869
98,1.3552322581958238,0.9589162619503422,0.7168367092969641,0.7861277957948244,0.7693955813111198,0.7387535928382024,3.195163722661164,2.613650752195834,1.0702094006619494,1.2873368966899275,0.6207552362147116,1.329578020288459,0.8786063972841023,0.8416521149746303,0.9473779345796021
99,1.5105852218560876,1.1819543486744846,0.9700068652621621,0.9504476666033469,0.946840547625851,0.6554150219507675,3.5691597690950054,4.371235486542959,1.4063063757576275,1.4317506669436884,0.6447042257417027,1.5016802721765525,1.1637894813905392,1.1209000329354657,0.9471176305269249
100,1.5422167018255588,0.9550033197899288,1.0252620736083462,0.8094507880353833,0.7953244772709149,0.6541776960451654,3.720554683652593,2.740677449675033,1.1228066634476952,1.3285898592671053,0.6153451465759925,1.5409488715521789,0.9460933903662432,1.0213692040508828,0.9501822026131131
101,1.2269292550484283,0.792011663657262,0.6408551740157167,0.863881684903361,0.8422105240509307,0.6640834966916974,3.0907235682183174,2.683428899028883,0.9334177204487784,0.8500253658721987,0.6468212168108125,1.2136864965135752,0.7677011580242075,0.6172104130033477,0.8903505627823844
102,1.4662007728200757,1.3292010236278853,1.1513806959870045,0.8592913025529277,0.8521623255280018,0.6909504304380574,3.923169471976352,4.259473325379156,1.5342643718906568,1.7188099099162906,0.6619902821573977,1.4652894695690137,1.3246941142958826,1.1159469075640924,0.9481119366393119
103,1.6829385263914192,1.6332367758226296,1.8132310494182518,0.8518216344599692,0.8236494962570595,0.6825655591362473,3.649089940690891,3.83383283923021,1.848273530736619,1.8767935594035523,0.6153451465759925,1.6801584659807742,1.6220989678264774,1.7167461099595205,0.9492563179666935
104,1.5495838275316063,1.335881765897286,1.0575948742329966,0.7892520919622416,0.7746264369904768,0.7958105971633417,3.460270987222513,3.984687964039465,1.4737271033555897,1.2661016884618113,0.6309483474627791,1.5469327070827033,1.3293389264346798,1.0296588579116057,0.9480577333075665
105,1.0543417824508143,0.6675407033595806,0.5418465490130675,0.8543997810571744,0.8324650493835641,0.5943430306868537,2.44351902319014,1.8823572921823262,0.7776087692166606,0.5929848800082476,0.6547956803312163,1.0396517958446003,0.6353325529103744,0.5015556373884121,0.9245580567204379
106,1.3762374685811527,1.0379256872274314,0.9749861752425111,0.6967410765089151,0.6934975890429299,0.4451124604235621,2.8556594734842053,2.1974295527091847,1.1430090339416739,1.182055392641631,0.62595550513784,1.3706397585465575,1.019077930905113,0.9900444114904199,0.9359889866699255
107,1.1186422031822634,0.6545073130038508,0.23207262506865223,0.5899369390239695,0.5869850055448418,0.6128779480582075,2.71767698627151,2.6338562837005313,0.7589969575663106,0.9199565785719709,0.6380535849069913,1.0601931787641647,0.5973851089978703,0.4032814150536676,0.9319124044266743
108,1.7949725195158241,1.7229768451704484,1.0869782275570743,0.5364010896646383,0.5247920399386374,0.6638190974473941,3.3278827134380324,3.8134751703596677,1.9597258183199366,1.505382916811067,0.6180765742263259,1.7763455431757011,1.7436353744764213,1.3953441966398086,0.9498667792652451
109,1.444342757546085,0.9077525612785908,0.6083209495401869,0.5745259853231786,0.5547571245145755,0.8247692891142521,2.935824302171336,2.1575327003012736,1.0348144931981067,0.8386835606570008,0.6333676938231112,1.422958345491482,0.909513381252763,0.6775848740978992,0.93500606908073
110,1.3941888614466582,1.0419805240291753,0.7544869703144546,0.8591503802365265,0.8558672128654194,0.6962319483765401,3.071731403173841,3.736715577642474,1.1726331101436587,0.9037524933041299,0.6153451465759925,1.3865166080371294,1.023406262751761,0.7423332667379146,0.9545298337566156
111,1.506622322447397,1.10762781227848,0.9822071469277436,0.6429138149860049,0.642546720994625,0.5588662264362322,2.542519070359836,2.5395466150460084,1.407857176468096,1.59436948899302,0.6038851895711802,1.5003344104974397,1.0863835054372453,0.9730844959041088,0.9578852294165112
112,1.1020373407175088,0.5762059552768577,0.35177401602783354,0.48470092593693,0.45987134729542406,0.7462272060402041,3.070442016474417,1.6775238029328357,0.6616714660439187,0.4650285218899837,0.6403206450210053,1.0949523278366227,0.5607040583990921,0.32815179554487717,0.9226171481248171
113,1.4895122884910905,1.050572272936889,0.6890453520327617,0.6380753353428817,0.6305433242032098,0.6516634798090457,3.051284985700515,3.294566942672368,1.1477374581884663,0.8742694865033872,0.6357360191111145,1.4808492706570668,1.0122239684639938,0.7445890628321961,0.9511186209777363
114,1.513219618454327,1.0517974653484614,0.6744852289722942,0.748516257200882,0.7421284608628729,0.6657634736482791,3.1758300647727387,2.428799505955478,1.2538371427686568,0.655450271354423,0.6333676938231112,1.5069314657591806,1.0009026886725243,0.5996990831011221,0.9342484571772277
115,1.3534393430627585,0.8429533249407042,0.6662537911914885,0.7070773369570752,0.702313083827856,0.7030083897699525,3.0763075603954455,1.8188013458180392,0.9896182301663948,0.6679778841610019,0.6380535849069913,1.3474583373346924,0.7922523338009202,0.5498449473304331,0.923884669110107
116,1.2520029853370023,0.7492783579827056,0.48501307913128855,0.8781291025692851,0.8598060632367751,0.699903655986089,2.841541106379053,1.6309304483153095,0.79717319341601,0.4591252357962245,0.6233814453054027,1.2361134551905968,0.6796986627074372,0.3806804610968545,0.9513208959494123
117,1.5460960429011736,1.334795282286854,0.8753255629316818,0.8014167027188297,0.7807844028698997,0.6481039391087947,3.251311228474614,2.6491974630805046,1.4952104797045105,1.237188190291329,0.6125606311107803,1.5348974941161615,1.2738942767875805,0.9687974713808709,0.9374043795294906
118,0.8942978555522031,0.5302073160939406,0.34570015422251865,0.9163172222893976,0.8925220425958373,0.6560045892547928,2.086511330008612,1.4409248694842631,0.49733225954147436,0.3802707426181293,0.62595550513784,0.8414409714213508,0.4189062404323252,0.26833030179083084,0.9226058311585563
119,1.3413519399747065,0.8552924967869902,0.44513940694009557,0.7743629755364793,0.7625079102703824,0.7568109936440957,2.9373669578864474,2.088388130634008,0.8530846696976175,0.5988606968594226,0.6309483474627791,1.295073338615786,0.7114482378985637,0.4697557465755962,0.9098096641109136
120,1.752666427993721,1.2713173721910866,0.10735451046166355,1.2269673556579879,1.1962195744212594,0.7776969671893055,3.3538953111048033,2.2418104260090472,1.4251579381939679,1.1192279255445086,0.6309483474627791,1.6796815658227044,1.2339588190128146,1.0084329564461285,0.9478331392802087
121,1.8015656557966986,1.2854834704344997,-0.436686668823588,1.2637204960724215,1.2413463429732217,0.7818091870717003,3.868416677571424,3.450303416171644,1.6347602013559428,1.4896964372075387,0.6713451011121618,1.7654421609106816,1.4576090353679998,1.086138114442934,0.9058266843308949
122,1.9226127828157618,1.6930395016222752,-0.23608485819623226,1.1966854014471082,1.191872622313064,0.7625486353150606,4.196489594606812,3.769415670004819,1.8805850300932343,1.8205009884197474,0.6125606311107803,1.9000873461136834,1.6472925457265535,1.6140782919906027,0.8827677674787779
123,1.8285729825211043,1.4649249122124979,-0.6043604417067434,1.2674044223342957,1.2260110172015974,0.8284424086940982,3.78934143670087,3.0169596720170744,1.2906801282820866,0.9420833012179117,0.6333676938231112,1.7657019349087653,1.1153137280633743,0.6760561054691219,0.9292072191156117
124,1.5872443943852235,1.3332401664102027,-0.1878002123984528,1.3605830541031871,1.3579686424537414,0.7862069103751188,3.605761901929972,2.4941338181089296,1.1036844313980236,0.715128920188372,0.6309483474627791,1.5110516605136106,0.9612678737689183,0.5747060336590126,0.9221025795356289
125,1.4655843011132097,0.8848200854200674,0.5805621835889236,1.0471791883563324,1.0016129175241,0.7272689355021373,3.0700459663921227,3.011381874683816,1.0259261674273472,1.1962475151401266,0.6153451465759925,1.3722599721560875,0.8040841276007766,0.8303367805396836,0.9388143513842507
126,1.425876901778458,1.0960449533355943,0.7982366543051169,0.6779174268885954,0.6623253424008707,0.600602329101661,2.5438814990195895,2.333904719449341,1.2841146488702073,1.2839725711533672,0.6068309995095971,1.395985614425434,1.0434379207601545,0.9203120566689724,0.9365371451167124
127,2.020968282091111,1.4790317739082606,0.9518982850930433,0.3341134579420869,0.33337345079623465,0.5430656782847808,2.4469369816918545,2.4382460688730045,1.8245061244087775,1.6022167696494092,0.6207552362147116,2.0168215263648954,1.4423581378356072,1.2305805900882083,0.9436429868141785
128,1.9733310763185556,1.4535171223282146,2.2464755299806956,0.04466961139416602,0.042792392046602346,0.4812083198710118,2.610987028011641,4.859266769351079,1.649455154931934,2.078197834752546,0.6233814453054027,1.9728018445236293,1.4564521349210513,2.277867396477035,0.9514926323987483
129,1.7261517914903481,1.985031190194582,0.8842115545853511,0.16921395908888537,0.15716932341771725,0.626061529234953,3.109684295263772,2.89452802852659,2.1009185738923715,1.8152856716062833,0.6447042257417027,1.7254100886865211,1.9732952595787066,0.9165151735763654,0.9313067590900885
130,2.607563137170041,3.0408410709024474,-5.648404208072488,0.1740656785227582,0.1575743612003905,0.7922686260776429,3.9542209380264093,5.450139384026445,3.087229766260809,,0.6180765742263259,2.6065471157716886,3.0872850280313444,inf,0.9169574948814659
131,2.4824559903571837,2.0176979345706965,1.0248796911797093,0.10696905971831198,0.08767343507347937,0.8045559377202122,3.140922393761394,3.1122685355681683,2.1391205635569404,1.1172299228818356,0.6153451465759925,2.4818446757521806,2.00702505453975,1.2522685309080392,0.9435841665128046
132,2.155051198456661,1.7843343859261713,1.7530559076221692,0.22276994791098317,0.21943275402702533,0.7740866594313653,3.1048217860120926,4.965395255589483,2.155237358971325,1.3904775095067199,0.62595550513784,2.154739965730064,1.7883151489458107,1.7607273599803266,0.9564850749433318
133,2.4817689927357383,3.2186745806549486,-5.700443573390687,0.06236667603779547,0.04789835841494524,0.9301231333213398,3.608582852356274,9.131899445940418,3.2187318144992054,,0.5915533975974677,2.481711758891481,3.2254096170302344,inf,0.940456629953849
134,1.973514320067806,1.946392071190753,1.660154517731434,0.15181554680464496,0.14591616424230047,0.5836725439422255,3.1610110647732363,5.997712801162529,2.0065082051909773,1.7480506667123976,0.6468212168108125,1.9732014129950022,1.95111912024355,1.8030718070567826,0.9618494414874552
135,1.9964158185791576,1.5394982474226881,0.9307706378397853,0.20641275499881248,0.1978402632414198,0.4781958314886853,3.129375034214142,1.9875000838258527,1.6541695765440851,1.0073779861993826,0.6207552362147116,1.9956724522654858,1.551321711508252,1.1141586569652904,0.9609917292762463
136,2.4285497766777304,1.871930760321903,-4.3004805369996335,0.06698765724152846,0.048449665348409374,0.9051300464943592,3.458950387934447,6.507828437306839,1.8868373664463705,,0.6468212168108125,2.4281483159693913,1.8760945708168983,inf,0.941756889302569
137,2.380347022155184,1.7392338678016603,0.8745516416118848,0.1850520094593628,0.1672146966044245,0.8636068333172642,2.8174696427459045,3.507695597762684,2.222245149792381,1.0986235494855325,0.6357360191111145,2.379586134930195,1.743844008187002,0.9023187887891067,0.9477638386380978
138,2.3960978998495275,3.0632510020420485,-5.459348901891576,1.4777749273598944,1.445882608293583,0.9119188514309077,3.0143196126622764,3.8238380585188763,7.906355409865144,,0.6619902821573977,2.395919448248119,3.0127089391175996,inf,0.9173624023964575
139,2.3087874812619447,2.667099665679147,-4.9758871469410915,1.284687584355704,1.2983330034643845,0.6977546571199242,3.106980227185322,7.160405787590343,,,0.6566669596287297,2.30759763481759,2.6638169461253844,inf,0.9348852600262503
140,2.4822919355777824,2.1195393491447954,-4.601831284722578,1.0836516184281082,1.0344999740325187,0.8893182778575122,3.1178717988550706,3.291604901340722,2.164039514924894,,0.6468212168108125,2.482243532368517,2.1262655548850895,inf,0.9120257176690056
141,2.0758145591718025,1.424937802736829,-3.5007523619086314,1.171817169467782,1.1700438485252251,0.9000671076117744,3.061762693892489,4.783510662761159,1.4295407106185698,,0.6468212168108125,2.07553805907962,1.4317608534650808,inf,0.9419766793110725
142,1.7395966469460753,1.4806209694320105,1.5894243471304486,0.13766330170126678,0.1318370617351075,0.5710746776325545,2.785618536060462,2.865377320184444,1.699872291364739,1.5916611283568145,0.6153451465759925,1.7379027964373441,1.4746044619799805,1.6199818502954568,0.94626804462746
143,2.036961996106009,1.5389676956742928,0.4741299290052803,0.1824414118534046,0.1681670969980487,0.47018377466586875,2.7152108646149413,2.759560153388979,1.716836103237652,0.9593326499984051,0.6425374456860184,2.0334064921068244,1.5678691679385446,0.6485538050171266,0.9356585040915978
144,2.111179850122954,2.623292011635023,-4.643535039370705,0.08929447972312814,0.0643458128592272,0.9035167222787216,2.6303620419640676,2.327566485341798,2.6255317486706065,4.86722407478379,0.6180765742263259,2.1096716803283577,2.6283951791261653,4.723587940802566,0.913648632587058
145,0.7916464540031508,0.33098601086849844,0.2014508951324654,0.18592973281183492,0.18321447517153222,0.44543321052106877,1.582588714287817,1.4281761767597396,0.42273676861023624,0.44776085179537656,0.6309483474627791,0.7313568494352307,0.34100306808881325,0.24631733284867802,0.9503801115087354
146,1.6667862604829273,1.0442475162563363,0.8912407751488627,0.14516110362951756,0.1403714067174561,0.5590430013881842,1.58851723680155,1.764253971382708,1.4391176333358044,1.7142081418572248,0.6038851895711802,1.646447738068001,1.0821453642655383,1.06219603828049,0.9112320814780989
147,2.0973423008052974,1.5241063241919233,-3.6214486249972206,1.4261136911141514,1.4080205364525613,0.932108650054622,1.7570751918103582,2.1973920960119537,1.5241314305994282,,0.62595550513784,2.09728874872362,1.5308092331304575,inf,0.9018062498490772
148,2.3025850929940455,1.4519483313413284,1.9425600621700307,1.3511743866488213,1.3436697757727427,0.9304777323891079,1.6817734293789577,2.0957286642501805,1.4519483313413277,,0.6547956803312163,2.3025850929940455,1.4586261338723567,1.9492602359405953,0.8986374764657077
149,2.3034891343720636,1.2001237848785786,1.0948682785866524,1.4968562433549386,1.4604690123573643,0.9271063724425109,1.8667326286857753,2.172090658170874,1.358053566913345,2.03556554241313,0.6125606311107803,2.30347437717893,1.2067940995375874,1.1015906974223706,0.9019731585884403
150,2.4304774099882493,2.4100222995739156,0.8449637906922325,0.8983432234870167,0.8649739450973996,0.9510148329291204,1.5589164930585098,1.843545953203211,2.558776669223353,0.7046745205486468,0.6309483474627791,2.4302922098481226,2.396633602179331,0.86690633177558,0.9036038990119448
151,2.474709264368147,2.0520745231930957,1.0364853553014157,1.532944917153498,1.5092091187320276,0.8892913863939138,1.6399656582369377,2.128107243952016,2.411614098174987,,0.6447042257417027,2.474560357733856,2.050567120580699,1.2091142038263547,0.9075499920232337
152,2.003651735275085,2.054082114535908,1.2378866057661781,1.2277103484515544,1.1880188221783448,0.9174420620011022,1.7618019800929976,1.9081389588098439,2.418190839506522,2.2450572825859054,0.6180765742263259,2.003551032206041,2.0541402123680244,1.7258561985509984,0.8978109632260116
153,2.2962188824704883,1.7955330779888206,-4.091751960459309,1.2005614449999047,1.1746453584831138,0.8296889249954165,1.7544443893205104,2.0768109145936586,2.0231276290326834,,0.6309483474627791,2.2960509316431144,1.8023016519765251,inf,0.9087254500158218
154,2.152176379619631,2.4332983993113735,-4.585474778931005,1.3236786251960455,1.294952579694744,0.8830482336488984,1.6164760852033353,1.985785022781626,2.8208174281654217,,0.6233814453054027,2.151964445931355,2.4377699319268973,inf,0.9097630460297602
155,2.4418441116897385,2.5532476457798876,-4.995091757469626,0.9442891227206539,0.9292202634982144,0.8346296420705086,1.5234825248562545,1.5705399110578948,2.607431779908981,,0.62595550513784,2.4408259705528255,2.5582101877000785,inf,0.9213474221871671
156,2.2277019141331498,2.5504185480277592,-4.778120462160909,1.2310926461647131,1.2310084072740741,0.9069840838507802,1.3287828985153933,1.5392274101077312,3.2174690799654235,,0.6357360191111145,2.2275806973511187,2.5374974505940275,inf,0.9024039967673813
157,2.441034225941121,1.8199852188276404,-2.42571416052541,1.2580281777667077,1.2331059785643734,0.8799456361735338,1.2323500745368838,1.38901180585824,2.106216878066226,,0.6547956803312163,2.440315766460125,1.8165477252597506,2.58635326612469,0.8952404882873302
158,1.5460574495497956,0.7367739219445786,0.40716156484706323,0.022340379843483554,0.0214986900654914,0.48678919557421335,1.8083384502719513,1.9623737359771347,0.867748725244427,0.8858129981925943,0.6447042257417027,1.545941600874973,0.7429597650331505,0.4118422600116484,0.9687217782676382
159,1.8362653175742782,1.5793655134270652,1.1687798430449146,0.04466961139416602,0.03672777116905664,0.9109283268426254,2.225582139085185,2.3451839467982563,1.8726443902219108,1.3035971484188045,0.6309483474627791,1.8361294169639955,1.584590631187024,1.1956234384351971,0.9011948053012316
160,1.9369890010279778,1.698775415657046,1.9896245511004742,0.12463234025682715,0.11269626124050516,0.362618532143562,1.6322895898239103,1.8391748022797965,2.1453460136505256,4.828920138714175,0.6207552362147116,1.935014170858108,1.6993770979717586,2.0528619038751237,0.9062858956062477
161,2.749391159401296,2.8050046802928135,-5.554395839694109,1.343250381060968,1.315865950548348,0.9090902840166835,1.2717000720728275,1.814215886837694,2.952265581197697,,0.5915533975974677,2.748177992192989,2.7677427452936416,inf,0.9110155548134685
162,2.481098395343165,3.096434303120915,-5.57753269846408,0.7326045296544466,0.6859371791827438,0.8881539046377935,1.6407227399055715,2.3843939666586875,3.213526043780691,,0.6425374456860184,2.480250838251806,3.0495783292809566,inf,0.8958483625518912
163,2.3557430833758097,3.344700490014877,-5.662208046635617,0.9945702717433386,0.9498679078605964,0.9212821374329804,1.484169879439456,1.9031593523352448,3.37274938169889,,0.6038851895711802,2.3548144979109904,3.3523068780107255,5.0072963928307415,0.8882490724925973
164,2.5614862579741113,2.9564745530979617,-5.517960811072073,1.0166876643035834,1.0109308377830877,0.5533124994695993,1.382421521934998,1.8259166849096433,3.746212809762694,,0.6038851895711802,2.5609241362119164,3.123055711148105,inf,0.9209297325739665
165,2.4070959609725016,2.60020043185824,0.6897970936746631,0.6069328473018115,0.6009371613979776,0.37484872827025695,2.6226655181344456,4.660484774619742,3.165106414803321,5.1290982632796975,0.6425374456860184,2.406835114367845,2.6071390809939254,0.6964972674452273,0.9261013089124369
166,2.3949641580505516,1.920226521106763,1.343667280593019,0.14893872608012715,0.1184042995055102,0.7890884750472179,2.5152916225022355,3.2226452163941812,1.9264038999928543,1.4000030589805337,0.6357360191111145,2.394456746865928,1.926370267935897,1.3963784801865167,0.8829448225211406
167,2.421321316678612,-0.036319546365417565,0.27236733916415856,0.9404021798717209,0.9173406594147623,0.9212484448010627,2.39564658643215,2.949237908068157,3.3481015991067498,0.700835744241481,0.5883313578629602,2.4179959445053734,3.351214335473283,0.703880736203054,0.8758345167985766
168,2.3630938070076777,2.455056890176869,-3.441671734002033,1.4282483792633311,1.4031909642124991,0.8935744924574837,2.2522153215158824,2.456761848564019,2.644371359716803,,0.6602640781246099,2.362925033113938,2.433943871480705,2.334029925701704,0.9086114424984694
169,2.317840791248102,2.6880995309869604,-5.0059403222350625,1.4184348786205558,1.414247234216168,0.7293120094429498,2.131455046576924,2.238069032670975,2.68792681786183,,0.62595550513784,2.3176987308040937,2.694604620392859,inf,0.9084928928686445
170,2.105512058335483,1.251417520799098,1.3983492311023928,0.5470361242882236,0.5370455027180049,0.8817975689950125,2.1138931012625894,3.0107325332283428,1.38244618943038,1.7046510238975952,0.6097226960127671,2.104554242494911,1.2497595532683938,1.4120689838085059,0.9356122511007644
171,2.437942612222189,2.280479486903185,-4.699304335747839,0.32231207040614246,0.30576974441729465,0.8940019977050365,2.3998890193683646,2.8481081386045455,2.6280642519527175,6.328354077727495,0.6180765742263259,2.4377686433305965,2.296498338214152,6.673297967767653,0.9156769236602718
172,2.827874430246682,-2.8088094015731344,-0.019065028673547448,0.30660317783589275,0.281660457746594,0.9167692166652549,2.2670056754497523,2.4913873915165516,,,0.6068309995095971,2.8273969587347763,8.580167990577626,inf,0.9156678024032899
173,2.4679163450261354,2.539380047804606,-5.0072963928307415,0.7242112689099663,0.6990045697632115,0.9355577491820394,2.2583207290895033,2.3206562566115907,3.226055056998598,,0.5978297680564633,2.4677218250338995,2.546252370327871,inf,0.895082353481706
174,2.920153013984969,2.7140243849448926,-5.158559311741691,0.6375254416394615,0.6212721639858122,0.909860330224141,2.2629463088188566,2.7088056985843707,2.703846116592059,,0.6528756675646988,2.9193887069666573,2.692118491580373,2.5379612127438897,0.8703031935323563
175,2.613212788616016,2.3940836042147255,0.6897970936746631,0.5073217777929984,0.4799260980560944,0.9102366278458496,2.539002783276163,3.2153787624815022,2.39410172274121,0.6897970936746634,0.6602640781246099,2.613194670089531,2.400779525272239,0.6964972674452273,0.8806061603761486
176,2.6022386923043084,2.405057700526433,-5.0072963928307415,1.265099246449092,1.2497718064142602,0.9123325207543627,2.328043732934883,2.3055376284183104,3.0984036767878,,0.6425374456860184,2.6020398966028866,2.411934298758884,inf,0.9128851130473192
177,2.813410716760036,2.1938856760707055,0.6897970936746631,1.2399369649692173,1.2329508021025022,0.8815223192376369,2.69585714703763,3.883384646566357,2.1955593166287346,2.4933966415114117,0.5883313578629602,2.8134107167600364,2.200563478601734,0.6964972674452273,0.899819400363487
178,2.0959442111528643,1.9849432732029983,-3.8513597835356133,0.13766330170126678,0.09957468502730364,0.9122845568889613,2.465886316334559,2.328458821029468,2.5934854897984145,4.7591300722303025,0.6509067234006624,2.0956612619267783,1.98939325338823,4.187016218068244,0.9001444748140686
179,2.098829625885613,2.006021685588186,0.473652565790311,0.12463234025682715,0.12251192232052967,0.4061951860919488,3.1287567259154114,2.275707554546076,2.0382099899066177,0.6766908318440167,0.5978297680564633,2.0986470139752256,2.005747884100377,0.51984485063284,0.926302461302384
180,2.3515239383394113,1.7856425923032302,0.16104252715466227,0.12463234025682715,0.10364590741034359,0.7367486346638621,2.792317782932694,2.2623781455234933,1.9782060327387208,0.3111176272788446,0.6447042257417027,2.3502592135052813,1.802420925729783,0.2545503498021078,0.9255261750158311
181,2.690937001212914,-2.6360601331874554,-0.054876868025458575,0.06698765724152846,0.0448610620679805,0.7532426501477364,2.4199420744219173,2.4790848219550905,8.020798728329453,,0.6180765742263259,2.686941237891975,7.3343293503005365,inf,0.8776954455493748
182,1.705498875125349,1.784756981678425,1.0292371841753214,0.17383494029261834,0.1641449559458943,0.3921257048839824,2.113466170064661,2.0410141012745497,1.8192044887818537,1.2135911976734421,0.6403206450210053,1.7046647623771212,1.777381207148355,1.1399313347789963,0.966609734476498
183,2.319063408575292,2.3621803345556462,0.3084924984056743,0.11826719857387902,0.09405046210652553,0.8722263687696595,3.1569813486012195,6.076287181993106,2.605918839312886,6.471809468438005,0.6468212168108125,2.3164586652599177,2.392838229937072,1.1337476467927197,0.926694457246035
184,2.520460621478557,1.3582505381853647,-1.0110466530336848,0.5996195987698806,0.5977689607675251,0.682685538261236,2.519947302630679,3.341178588536267,7.274019392853712,,0.6425374456860184,2.5174298414935605,2.963209081848431,0.916290731874155,0.9208841949493323
185,1.8980566281650355,1.8435460576074405,1.8110018469212306,0.08467349851939517,0.08069606634039071,0.3121900245999562,2.233450084264385,2.4745369131206068,1.872301928009299,1.9474926048516132,0.6180765742263259,1.8976386378816148,1.8746224251713726,1.9415717474567151,0.95187179820109
186,2.5788097385555866,-1.399096178790828,-1.1797135597647586,0.06698765724152846,0.047772057587870106,0.832547767987429,2.1506600866226186,3.098697288287788,7.725837543812945,,0.6380535849069913,2.576437314300318,4.687992908620552,inf,0.9517781808600608
187,2.6111227376579684,-2.4014074222489463,-0.2097153154090219,1.2390908203772057,1.2144291289042313,0.8979613532891699,1.869025859107958,2.369116546858288,8.789812404802548,,0.675384900321601,2.611074741978824,6.398594934535208,inf,0.9171416508329191
188,2.805691993636993,-2.805691993636993,0.0,1.5648985009825591,1.5182744754606807,0.9454610018062931,2.0049347043180434,2.3282147059024565,,,0.6380535849069913,2.805479290878202,inf,,0.9203470498203453
189,2.5242096383736654,-0.3507963695892564,-2.173413268784409,1.6298399288334338,1.6178833474282088,0.7480041435315884,1.9488372714265105,2.1107650362961623,,,0.6447042257417027,2.5225392912615554,4.148827209656352,inf,0.9124929137112096
190,2.465604276334528,-0.40658117959140405,-2.059023096743124,1.62822594148971,1.5976681521570986,0.9005621784546823,1.7386511331367938,2.2903545735424324,4.618164283254527,,0.6584896970785714,2.465234749990536,4.260198972197647,inf,0.9056303716358748
191,2.3762097098605817,3.324233863530105,-5.700443573390687,1.4308333321131887,1.404291356345987,0.9203971372597614,1.6538539257098857,2.1607345182937445,3.3245706846268086,,0.6284777104787076,2.375872888763878,3.3312484871578376,inf,0.9027914718567829
192,1.7153899717342604,1.880264544999078,1.3887787807484901,0.11826719857387902,0.1091132533669929,0.28277891925817195,2.1624500915196814,2.374442554960783,2.5643423163116212,0.9660839835563306,0.6468212168108125,1.71529237722521,1.8770655098981044,1.4232899487964856,0.9231651381803633
193,2.416189880383902,-2.416189880383902,0.0,0.10234807851457901,0.08478586085550952,0.9344158918773793,3.3720045847256643,3.8108389264295157,,,0.6180765742263259,2.415131861855183,inf,,0.9392436617873635
194,2.487694871747433,2.5196015210833083,-5.0072963928307415,1.4786737063027593,1.4588935199878421,0.9413995445481321,3.0378438154413487,2.2654474668518922,2.725179826258786,,0.6713451011121618,2.487443197439997,2.5265309979217734,inf,0.9181289767678322
195,2.089475368921399,2.6154172810728187,0.9516393125059146,0.04466961139416602,0.0430664909689336,0.38277875554440477,2.492853859128892,2.7388671216266975,2.859840020078799,1.1321428016248747,0.6380535849069913,2.0889981722653483,2.606826381990874,1.0180082562534802,0.9458500593043576
196,2.658293938638047,3.04214963475264,-5.700443573390687,1.5714215780272323,1.554013133848453,0.8680957227120871,2.473316469388805,2.721291364563258,3.0674681287027696,,0.6468212168108125,2.653246409061536,3.0538749668601795,inf,0.9014592716946117
197,2.7072225413214777,-2.7072225413214777,0.0,1.6675780093195152,1.6331465412918171,0.9502055656335194,2.507924886457595,2.8372728799942886,,,0.6357360191111145,2.7040581798326726,inf,,0.8816694084234461
198,2.7236467836033187,-2.7236467836033187,0.0,1.6082199554395193,1.570939679729463,0.916720278396012,2.3632101188638663,2.348055115386638,,,0.6125606311107803,2.7231638389122583,inf,,0.8994953797868027
199,2.8070175309679213,-2.8070175309679213,0.0,1.5543815661359237,1.5310055246349268,0.9028992367412517,2.334811528786542,2.106322402381269,,,0.6528756675646988,2.8056630299692107,inf,,0.8900912171386415
200,2.3935873632740994,-2.2851896978188617,-0.08927990207770274,0.04466961139416602,0.0375658364502508,0.6983160296728707,2.1400301522745333,2.277298224583768,6.928327790941268,2.072741367909272,0.6153451465759925,2.3931178141602687,6.8172225578159145,2.1972245773362196,0.9155281541045952
201,1.5623997499536082,1.0298798271969112,0.705457369875607,0.13417498074283646,0.1267200487380654,0.3546770291725298,1.9835571797757068,1.7655309595466415,1.1989500191630098,1.1749107288108502,0.6180765742263259,1.5581112852687597,1.0278687866126768,0.7531819188612662,0.9528221533321543
202,2.470633408012138,1.7770029084756693,-1.1957721678328257,0.13591914122205162,0.1196847056482706,0.6657476428882938,1.9715350259987228,2.594035357851874,1.9739302495053537,2.091935815165419,0.6068309995095971,2.468508503978364,1.8186120729415503,2.0266941715857256,0.8919488258758578
203,1.403572149413043,1.127008116218532,0.839057299308112,0.22490934442804394,0.21119690998871418,0.4873436714362821,2.064258944473663,1.9138643100911716,1.43098972199127,1.4644722210942647,0.6403206450210053,1.3904808901937336,1.1163987404046745,0.9210040163262533,0.9606205510017463
204,1.384435984239882,0.7228854612152511,0.3374566026243766,0.3191775376366958,0.3123147574576784,0.521928564839706,2.3996439628582404,1.513676648714608,0.8022377001548437,0.49823532736752874,0.6333676938231112,1.3672327490484302,0.6932780049719671,0.41616321084112656,0.9073875045079919
205,2.6530002991176005,-2.5348104769695503,-0.07995429539298024,0.08929447972312814,0.06991960446092411,0.7989098086794967,2.5320822609558573,2.2493044390160337,6.264153086987441,1.785059295457491,0.6468212168108125,2.651827410005932,6.04768733820426,2.0149030205422647,0.8852568688419191
206,2.319363299952832,2.0143094046550956,0.01814056850874657,1.6710115862180233,1.6537713375480882,0.8881744564539324,2.3035874046048215,2.5065435057632186,2.887315507535239,4.241795068278795,0.5748741956352443,2.3191662481414617,2.0058501318156403,1.0615252200057737,0.9041251750518056
207,2.869616490369319,-2.678966203633845,-0.19065028673547446,1.5881486931849154,1.5483464950730617,0.9089697054515642,2.3470390381860695,2.2338733912125854,,,0.6447042257417027,2.869589218713636,6.23539063760472,inf,0.8713406080591679
208,2.0711084316887924,1.078064952739782,0.551450823312619,0.14228428290499975,0.11418432356880868,0.48281283809165676,2.1355427627390067,2.062295371097972,1.5323006614366261,1.4339806133465427,0.581717464821069,2.0700634317195403,1.0871425661155674,0.6311255352504888,0.9348613998511305
209,0.6535743485623046,0.11368115763058806,0.054464776560391615,0.38232514250356064,0.36919617255946824,0.4414973134442592,1.2436162578041754,1.057390316345853,0.28311980294744243,0.29983524655042126,0.6380535849069913,0.48873802730198596,0.20465362758381678,0.15617544494544422,0.934251667345393
210,0.8767920279146083,0.27414881916793143,-0.008327230422850995,0.5441992595149779,0.5225893251392901,0.4616940891590912,1.882209629447029,2.162934995441243,0.3149200570460243,0.26285192523600076,0.62595550513784,0.7247066494677112,0.2608746172383525,0.1532976151906011,0.9488338834856009
211,2.17154887780657,1.5159009225707711,-0.2841694808076287,0.5840366181955322,0.563888934718994,0.6941161948504038,1.6978255849860937,2.118429667332618,2.56143500220838,4.463795108890926,0.6447042257417027,2.066371768917457,2.0279727933046434,1.5929086104828898,0.8627616169193424
212,2.1029965718831107,1.8480104765224885,-3.9510070484055992,1.6008647076973446,1.5845449845872466,0.8060905192388597,1.5450583225264547,2.536818975750551,1.980133860745587,,0.6357360191111145,2.101550827267937,1.8501374345526405,inf,0.869978487733685
213,1.7192432893911438,1.3827265701922886,-0.24769157468842184,1.0602978282253432,1.030635472134166,0.8591149477134014,4.14298360508194,4.20992463136728,1.2477925966965198,0.5499295208440335,0.6509067234006624,1.6840417339965505,1.1657640621529526,0.5960403371815343,0.8978766185715713
214,1.8697173880839848,1.5933140495074827,-1.9816998429778028,1.1087110275033545,1.0913835177159086,0.833005055678399,3.385610012690407,1.4829744815852153,1.0891261376237993,0.45407208137119665,0.6584896970785714,1.772610650389294,0.9895438097061168,0.3880248334865551,0.9297331125289908
215,1.7246451917668557,1.5389529913799687,-0.6407130268771564,1.0970996598542049,1.0851255469298478,0.7265571512787655,3.6713924740267236,3.269994148292656,1.6511796868357334,1.2504296138911444,0.6403206450210053,1.6747471008297812,1.3718107402557123,0.9380358571774879,0.9221488547758582
216,1.6703057916573743,1.435185599712585,-0.7191685158084287,0.9757463845335386,0.9617566083219733,0.5843500352707559,3.1115223289539538,3.5329240252905265,1.8604334537367886,2.4465451941109717,0.6125606311107803,1.581876789230686,1.595643849955601,1.942185749964331,0.9406401055239577
217,1.4399556858346259,1.1349056481239344,0.686832482204836,0.7160474442949155,0.6901284873832756,0.6229193972037842,2.7212174730085055,2.959171938678674,1.3860711683655411,1.576264261996365,0.6008849035917525,1.419736248342523,1.110028307087304,0.9077510889064399,0.9452166199029989
218,1.4540992528549395,1.7610975094557144,-0.38695863108673656,1.0378312570011567,1.0252109955390631,0.5221267784408162,2.452623405303167,2.7297786618179534,1.9055207772178837,2.0133903141932157,0.6068309995095971,1.4279037025534316,1.5923489761972531,1.4896073274330819,0.9420116081401486
219,1.5606182734514804,0.9877727914305727,0.08252486273679693,0.6493955637591656,0.6276769620531373,0.7807006862337628,3.5754674794861305,3.219875410437953,1.073996127858731,1.345450452145785,0.6584896970785714,1.490371749720162,0.9114199933573316,0.6741869626041549,0.9027820083724498
220,1.853463013075066,1.4818876158612202,-0.9757611829595834,1.2337020809378534,1.227138240044818,0.8202667097874167,4.0668025456309,3.695709625239311,1.4923651594866751,1.4912600834533754,0.6333676938231112,1.794496544937941,1.320019264606017,1.139997504830964,0.9262693605513697
221,1.7744860332756223,1.4397815188217393,-1.2178847202909961,1.3972449388157562,1.3957610289430407,0.6808274496110586,3.728185028593676,3.232800761960884,1.4222334058020643,1.127165552825017,0.6207552362147116,1.6391528379733638,1.249220917260128,0.9073487944984937,0.9425633011062183
222,1.7972322840596286,1.5367876318748979,0.45041945993801935,1.0921023480488186,1.0901119197399547,0.7930347945961929,4.150571087407576,4.122386997263153,1.6898191218186376,1.6919926907053817,0.6403206450210053,1.7740505354472818,1.5034553738723238,1.2323540968641609,0.9307996517404049
223,1.758721965553951,1.1388084168935242,-1.2880584617553197,1.09103757811177,1.0882828396640865,0.710013894458701,3.115739088166057,2.457100814167645,1.1572610638803846,0.8398971611939464,0.6380535849069913,1.5940021043042611,1.002357657445253,0.6518304507874619,0.9357313641439808
224,1.5962487098228675,1.4431912239008928,-0.5172819568594265,1.1701750773710502,1.1584082556477915,0.785419707171862,3.355869791959031,2.854592275745743,1.232729077476482,1.2529856944782671,0.6584896970785714,1.5282164126295998,1.076826038398381,0.8956070096058344,0.938208008241817
225,1.6604221717759202,1.4952006012023755,0.7067531645644856,1.3545696277379804,1.3504736178624688,0.7905321709771597,4.184673831639936,4.066757284121297,1.6049593121321093,1.7119036057481585,0.6403206450210053,1.6492187824459448,1.4374111979830475,1.4426085005920848,0.935605551707254
226,1.6488469574923101,1.328381099930286,-1.0596977372909626,1.13280357270976,1.1231958495973688,0.7885579274048405,3.2225803454759694,2.805266872048321,1.27146168064023,1.261709685506463,0.6602640781246099,1.5214779114564414,1.0636174655869912,0.8496587881475656,0.947601683127035
227,1.8039005191156519,1.610447477237257,-1.2000954056630073,1.14755176848473,1.1475291790540962,0.7462090795009106,3.3792762960862746,2.943546396189965,1.6634990987866478,1.1146288062837455,0.663668482632973,1.7367032634799766,1.4355010420790775,0.9181482353935092,0.9411911136565336
228,1.6531594529184164,1.435572100810434,0.392528193620195,0.8793918314280402,0.8219352379835685,0.801645976074303,3.7133376580735895,2.911570087283795,1.5704525089670607,1.3135103304656528,0.6008849035917525,1.609493469532923,1.3558173750277356,1.106620122824542,0.8501439435273105
229,2.094268714831613,2.192118969173631,-2.2924400325826246,1.0329085745426445,1.021023764156041,0.8098428063400313,4.1270807642502305,3.514728865965976,2.2909079378586044,1.9348450622000481,0.6425374456860184,2.0685675451279577,2.0459797244116626,1.4436928998259229,0.9487213521630551
230,2.1767457319308368,1.9280398834838572,-2.9811442716392156,0.9923654888204705,0.9853186314429248,0.7129230909612914,3.944332164756527,3.484190406842723,2.379907264875755,2.607916020685549,0.6468212168108125,2.1436838104081897,2.1466756357398684,1.839090843933827,0.9494567652516246
231,1.8601934335908974,1.8118694503402557,-0.9227392335951428,1.1191434846345192,1.1088169155249283,0.7376871071508173,3.9719339785814554,3.2823014987208037,1.9496089382632384,2.5641868557621894,0.6008849035917525,1.8369660620661343,1.7084866755835195,2.115909021122595,0.9473609098222167
232,1.931006670285575,1.813473674838367,-1.301696905024548,1.3731522476635198,1.3531755806134225,0.7852893658764325,3.792659111711016,3.3268212210415937,1.75608592910293,1.5363972034840565,0.6790044388599258,1.865334250220118,1.54861070426454,1.2855359109746747,0.9379981528138117
233,1.6785993693428627,1.5069011755580406,-0.21401491040294296,1.3216111552250434,1.3057996986727007,0.7759854315728681,3.5657384005004276,2.736818074554295,1.5231231783701729,1.1220057345593504,0.6584896970785714,1.640813920349745,1.348715409079638,1.0241573297752629,0.9397278824959986
234,2.191995200600529,2.8012259388113017,-4.366986942453581,0.9771237407894225,0.9709962452535461,0.7038433300285525,4.062532329287182,4.480826555349909,2.9066108018118872,3.67501079086476,0.6153451465759925,2.1735080507189033,2.749421662958247,2.929287174145838,0.9364734588966708
235,1.7125186219356525,1.7474187337475091,0.6787737091415322,0.7648498145005885,0.7239802906478436,0.6982386557831379,3.5185151834468105,3.8864053766690763,1.948564437825374,3.751912618358048,0.663668482632973,1.704725870263113,1.7338272979428113,2.232439483627286,0.9407966907629298
236,1.82913713741417,1.525724907792378,1.287732839046717,0.5576275463387252,0.5400420967533328,0.5818695443688867,2.946697573215111,3.39438912915312,1.8602538899530314,2.0894119826565913,0.6509067234006624,1.7746401774206666,1.749478417753996,1.9172996150140476,0.9526515439244181
237,1.5580451959395127,1.2649878577326399,0.962870163729578,0.3463819059520174,0.3404930787598976,0.6659226063085436,2.6193727569582643,2.721176159961703,1.4787503224783893,1.3478454890347462,0.6425374456860184,1.5323225622165764,1.2356545874659823,1.2884295731991497,0.9618819862702176
238,1.4812779315225173,1.0422471812411427,1.207050074169941,0.5437398845864523,0.5337437018277484,0.6225475083991779,2.953877923087946,3.337950096301217,1.2785426238475694,2.0621976698518996,0.6153451465759925,1.4645202017778203,1.1015965034357234,1.437777954086485,0.9316388821936142
239,1.1206196349221735,0.8150789480380376,0.6564533185188846,0.32249825263515713,0.31561100400323033,0.393414727968543,2.427540593280428,2.504258056159837,1.0236316695134222,1.086764941491715,0.6068309995095971,1.103189414411223,0.7726765641138316,0.7725012204159817,0.9401056465774229
240,1.2791182648276216,0.9171424727076762,0.8775604518882498,0.3872068124832223,0.3722305231445985,0.6986870482078129,3.635703437064921,1.739465317898854,1.2490631729020405,1.612877242515976,0.6403206450210053,1.278776174908265,0.9210517882980694,0.8780789185366725,0.9081604151313394
241,1.1923140033184365,0.8592645367119245,0.7743607205252498,0.41626450052603586,0.39582439419164095,0.5943705894868406,3.2383772107781823,2.411562149014768,1.0477849445748155,1.1834390360668392,0.6153451465759925,1.1915319945998037,0.8622851194416866,0.7735798446932859,0.9512581103354735
242,1.7500261570067224,1.4865214447820856,1.2771406271436865,0.29766251682367373,0.280626923870087,0.5833101402975058,2.4074957565448027,2.701463267965406,1.6014220613425463,1.5191014661972926,0.62595550513784,1.74716858590018,1.4990213402147354,1.3261904370501851,0.935355877301622
243,1.0653898392447294,0.696006468054823,0.6134562227222506,0.38027704187282635,0.3681671422876779,0.38952802852184687,2.4932068051564924,2.3252577366016163,0.8118697362055581,0.8534944851891492,0.5915533975974677,1.059423627310533,0.6739411555404403,0.5845595797230307,0.94363455183802
244,1.1072922107905678,0.6515148205786709,0.44377947522640593,0.3973227336513004,0.3811878697265466,0.5046160598782857,2.430320399637493,1.8422105890810179,0.7064239409047024,0.6057090905383474,0.6380535849069913,1.0981124136264586,0.6066745682570478,0.4426955035578988,0.9430434913896767
245,1.4283706112812415,1.1037185367546132,0.025457944504731156,0.8731521128508649,0.8478795063534246,0.7144580553433149,3.3064691000065016,3.5254970448979743,0.9970796742899107,0.7713358300407595,0.6403206450210053,1.3746293295893877,0.8731519713639841,0.5661851257403876,0.8840389379618568
246,1.8335399172914268,0.5264505017083985,-0.05175442797971286,0.8533779102364896,0.8340719707148985,0.6613383915066683,2.291062499532312,1.7592078148779664,1.1470582315415563,0.908006190198888,0.6357360191111145,1.6098268769598834,1.034622742732732,0.7934117463411314,0.9461066566894775
247,1.1906160255803755,0.740497231099924,-0.05514710953394175,0.518007825447052,0.5030974006892386,0.6389812181298336,2.519848503660372,1.4519036295080352,0.6838388905644529,0.4786434660660004,0.6284777104787076,1.1375610388066846,0.5823119716212609,0.31957888303573195,0.9311495600164116
248,1.942460016455296,1.0875831914043632,-0.9215269374794386,1.3750457148839028,1.3633346995020106,0.820358258411804,3.663478501542735,2.7429926333072574,1.5034895518470819,0.967975213666784,0.6566669596287297,1.7495304650103447,1.3400242067551862,0.9040399873564265,0.8862669895955767
249,2.177387378970579,1.6567997069183393,-1.9787600723514551,1.3598683156342684,1.3643144266347806,0.8202400757196764,3.895614830485604,3.2814746833204,1.9216320962599152,1.605691950560968,0.5883313578629602,2.043817030706907,1.7145315987848622,1.2341193606490375,0.9106382269306365
250,2.1206221805397116,-0.07411881956850896,0.0451552346501658,1.0859264605485313,1.0943688168844268,0.6290748367323576,2.6238204745239755,2.1470085879925414,1.2232582440998225,1.0397735749655763,0.6207552362147116,1.6552491845780128,1.1198315289834173,0.9195932742608425,0.9509949112044518
251,1.1867900762766697,0.7766304705195788,0.5789673855854356,0.47242149798091204,0.4357570231931389,0.6663706618297084,2.891377509016354,2.502325478628547,0.8409302833687444,0.8542227922667281,0.6233814453054027,1.1697145261612583,0.6911806819016588,0.6398698576595411,0.9508063631760645
252,1.4384552617472603,1.0233136876319489,0.8171865692259046,0.5051424253124837,0.4812111664576136,0.6725550316292878,2.3689207880712053,2.412591098710899,1.3405067450161237,1.7376383857388698,0.6380535849069913,1.3690658501203972,1.131699215602061,1.158339859690247,0.9402204564422588
253,1.7409189888283647,1.1023766775458257,0.6608024092353437,0.3376017789005173,0.3178095040430193,0.7441362541180493,2.5539153060224513,2.5355434031864648,1.3512617284683828,1.1808762361124587,0.6619902821573977,1.708215206851125,1.2035844984586601,0.9222339812566666,0.9564817576955158
254,1.4377786498330636,1.0632880032472452,0.5916565584392637,0.4910868134668234,0.47031926453752226,0.7017212084329014,3.1274083036049234,2.585776085091187,1.1748685270564672,0.8283275940248253,0.6713451011121618,1.4289235431758498,1.0142015725971956,0.6015640025074767,0.9394099871930705
255,1.3587682573947748,0.825685524815047,0.3650029799340433,0.6837181535682938,0.6600291582687674,0.5243615474979861,2.916332395151312,2.3334407540657054,0.9129796594077889,0.7972372756408695,0.6309483474627791,1.3053494964098526,0.788596731472865,0.6493857873641322,0.9497367048624875
256,1.530942448707436,0.9627887042383734,0.16156936468538463,0.7632313472933263,0.739925523489175,0.6505485506440751,3.3899286096763044,3.040781426618022,1.2513710985028526,1.2677119825259668,0.6357360191111145,1.461736556286749,0.9608841074169738,0.732237609041034,0.9157844016721938
257,1.379124641423324,0.5741633915601851,0.1764126961988326,0.6608785941156509,0.6416321664517608,0.5292291915787248,2.967023810770433,2.0543560481627403,0.8989442780711632,0.8686576435011414,0.6425374456860184,1.2129761762788374,0.7391868144422414,0.6185920761929591,0.9120440043472459
258,1.1826757942923123,0.9371738873690887,0.6327500552400953,0.2564937331828253,0.24659469863375333,0.5571595456288456,2.794891256393779,2.1058245091210446,1.0778589847476445,0.9170645532991326,0.6468212168108125,1.1673551913998537,0.8964755027658345,0.7166110043582802,0.947134783065635
259,1.1620536101535435,0.8232484669643259,0.5505424677123107,0.18508749434778257,0.18156903987375944,0.5806081768640228,3.492977609174309,4.971360741472228,1.0198842008767737,0.8512731187039985,0.6380535849069913,1.1599204773965142,0.8234838760863795,0.5419077109401454,0.9465068571844105
260,1.4735534566961137,1.2287718915554078,0.8620630072773161,0.1070503374570581,0.10403588174939352,0.5870721655758369,3.045399431191429,4.221409289227449,1.517965934696516,1.319401319047596,0.6602640781246099,1.4717554253141494,1.2275002281065654,0.8664233669070642,0.9231544703276671
261,1.0780286776830463,0.6368553492177256,0.3833743840903012,0.5397175481639176,0.5239661294698083,0.658099641101109,2.6662399628513898,1.8791863486647653,0.6176078238025363,0.4593376625951262,0.6207552362147116,1.050520781200856,0.5477574109742452,0.38674245388529405,0.9235899954932015
262,1.5990881873045615,1.0301041988244324,0.1086977266233764,0.7395318359296206,0.7364774736414231,0.7517982592842047,3.5353234990236304,3.040238460276373,1.2464169213360765,0.9482039874044617,0.6333676938231112,1.5244842065539368,1.079506324623495,0.7512779185963238,0.8888111268454327
263,1.6272330790735752,1.2760604706456458,0.013427855027296598,1.065709601889131,1.051932390545308,0.7774656573277371,3.556759239001308,3.196619844762737,1.3130162079570469,1.0430660832457672,0.6619902821573977,1.548133782973194,1.1389706536135538,0.8362605790496154,0.8812125104406396
264,1.6092670842106527,1.3948418003407426,0.6040481664468493,1.063836769488889,1.0444301514543806,0.7502357032417183,3.550025356010907,2.9469782020640047,1.3906592867223777,1.1402819275822829,0.6403206450210053,1.5681893422435182,1.2108199477991857,0.9391845517400076,0.8622952639180919
265,1.9055535201013913,1.7539861937901933,1.197107469460831,0.5804355637942294,0.5448786726823384,0.8252159624321587,4.155112049312898,2.9019458161099854,1.928375432369426,1.9562075516533204,0.6566669596287297,1.8928328913214911,1.7256916563334341,1.9085074152567765,0.8977078700951406
266,1.6999575659841604,1.1240198703539264,0.5887606853033303,0.4145118936557107,0.382646755862331,0.7714001667843124,3.232471660322585,2.5813324481931645,1.3702904562962337,1.3109703876510266,0.6684167106117298,1.655889147365657,1.1630926144438347,0.9722996259225256,0.9513388577717181
267,1.8417558861571581,1.8619012648752726,-2.3521940266061723,0.37655798268425617,0.3645442667324932,0.5982148969322606,3.608667240501304,5.926681660986526,2.211277575807874,4.366537954870238,0.6068309995095971,1.8206391687787056,1.9820312997220768,3.1740776819683063,0.9505498639757
268,1.9040544950761986,1.4767495921014175,0.33398917527129823,0.6368072658345865,0.6064263923988925,0.7497413495637046,3.6780643099560573,2.813857883891986,1.8910950896289436,1.6765108333234777,0.6309483474627791,1.875938497470661,1.5874889607276286,1.3902040870883015,0.9333313352398481
269,1.6024108318366452,1.2657748066117924,0.4867530644930622,0.772551223621583,0.7637822526635274,0.6637995262901553,3.1350304357686296,4.142633745691123,1.4909517627817614,1.987156471134503,0.6447042257417027,1.5108502810637028,1.234209745672408,1.2194265482277762,0.9142542710831257
270,1.6142943023044174,1.1707370484269812,0.4119912801018857,0.6628861482017611,0.6385366703065418,0.7185392206189558,3.554843406210422,3.210850240955994,1.4248027734857132,1.6357484827290032,0.6790044388599258,1.558269625859701,1.2155643157885123,1.069492532493698,0.9287538279534003
271,1.7012915586964656,1.3351529091772367,0.827192044682759,0.9476013384755834,0.9311116367682593,0.769198755157001,3.882090753968095,4.369899920308928,1.82230506522923,3.284496312677263,0.62595550513784,1.6429946959629431,1.5051120580170503,1.9350992329510976,0.9079466733165701
272,1.9375917632891726,1.4696769033617163,-1.0651191967293263,1.351654922552809,1.3261721294254527,0.8395439638242201,4.246034502918201,3.80740392312663,1.4996313821953522,1.278007140401086,0.6357360191111145,1.851509473633829,1.3204297557142628,0.9576871470186488,0.8250630466433461
273,1.9069810808523202,2.0795931830222765,-1.9563532773695789,1.4157778908554808,1.4137299932414487,0.7717225119818251,3.919464182223198,3.448761615693305,2.1836733982534984,2.4582893383484006,0.6153451465759925,1.8770269132077584,1.8981369095031901,1.8363433758360814,0.8011546398936172
274,2.0434067868934167,2.086051254855708,-1.297700494170562,1.363426502791738,1.3345500503440568,0.7909253184800339,4.1226637382967795,4.337940812209303,2.256718272528514,2.442404987101451,0.6309483474627791,2.0037158311517005,2.013667689934272,2.0968766035019373,0.8889546052984226
275,2.0635902558049404,2.0651199256140833,-2.4805109609177185,1.292037043758476,1.2654315342910265,0.832217553556344,3.8529051722723473,3.546715607249938,2.191530300824969,2.0690581224929754,0.6038851895711802,1.9978001126426026,1.9327263643501031,1.6809807215543244,0.922634509446582
276,2.0992514917384706,1.3094496557821884,-2.213410771211918,1.402949368544395,1.3768011723579843,0.7313028607695008,3.32146308646338,2.7608461766473456,1.956391105856762,1.6307568129733945,0.6180765742263259,1.9044057207792862,1.7312489720973525,1.2646325440507518,0.9231135939020102
277,2.130391061350861,1.2463986610237954,-0.8196907950121912,1.1929353882557072,1.1877059137852117,0.6762232999943283,3.2568185163854233,2.6712705210638337,1.814183597141484,1.6689459880234032,0.6447042257417027,1.98680159043139,1.5142161265129763,1.1791155075171804,0.9277200825486064
278,2.149966160256325,2.0978491105742916,-3.6419020092006402,1.2028236886658594,1.1927468465279956,0.7091711808665203,4.301923130550862,4.233188846981335,2.303308405943327,3.484109366581279,0.6008849035917525,2.141033297686477,2.017316594511536,2.8183982582710754,0.9226311460055455
279,1.8492880015941386,1.7230073897415847,-1.524431780143232,1.459231627291065,1.424707632095238,0.7324214803203486,3.4786818965136574,2.9000036241350275,1.793605749521032,1.6271340695866376,0.6468212168108125,1.770911636715217,1.55332470381081,1.2820455743147547,0.9110984104331561
280,1.900743054940894,1.8980494490040738,-1.8427051076946297,1.218117362748048,1.1973990382060102,0.7334348686074736,4.256109446470808,4.374399561484255,2.0640147769555712,3.2548867691906866,0.6468212168108125,1.8856306848381257,1.8343954982726476,2.738778875823461,0.8887498391375499
281,2.254287136317803,0.6731359228141471,-1.4095338883958346,1.0561791916896164,1.0100508395336196,0.6072906695135051,3.353664192497156,3.493088420781081,1.9414584077006742,1.4643098007222555,0.6284777104787076,1.9316347513592547,1.7361357395444466,1.2177016602385486,0.9218460520155117
282,2.4908439963027194,-0.1825492386521974,-2.200358184477404,0.4577960310165963,0.44146113761020195,0.5944328882624231,3.0266273981737273,5.2724102838363045,4.130791186324826,,0.5915533975974677,2.499411335990882,3.4657359027997265,inf,0.9234963381777715
283,1.857337496352687,1.5440555318522844,0.6627147662290511,0.44739515950296965,0.4252072471141632,0.5670448332746407,3.0720565274694938,4.006393743913605,1.8008919998239352,1.420068295277101,0.6447042257417027,1.8188566371124222,1.674456033457539,1.085540207100757,0.9506140537413742
284,1.83972692763236,1.4889494937153347,0.3251705337145778,1.1988550020116036,1.1815605972850856,0.7697363586991587,3.93798481071664,2.9841823975073636,1.5496680227910018,1.500797700320542,0.6357360191111145,1.820158943749753,1.3800041721862937,1.2125518475432846,0.9271583646851413
285,2.1988568289333146,2.0449271660056794,-1.3327307656365046,1.311722005854292,1.2909058480636095,0.6884220760411678,4.271195005266796,3.9387741333668647,2.2084229112871268,1.9039640362230745,0.6233814453054027,2.175854551600027,1.984629813126619,1.54663701119507,0.9444712092903557
286,2.007388253647977,1.9738201791940475,-2.580202709179093,1.3241140476275717,1.2986856083731158,0.769083804141444,4.198843390420336,3.259165049510454,2.1179792510452544,2.3991844890612852,0.6333676938231112,1.9643683471682172,1.8914843867928743,2.0104486701928845,0.9206151070724429
287,1.999313868766905,1.9998953536582422,-2.778129117876537,1.4751789145683096,1.4614747999637616,0.8548654423341151,3.848240626066762,3.4649418312099245,2.3566321177006486,3.190270815709587,0.6380535849069913,1.9760830286926827,2.0848267574431807,2.3227746423302627,0.8923985916299593
288,1.886866423041863,1.6086419801552474,-0.47744915601687277,1.1636089340559197,1.1351958369134456,0.8518077861789094,4.4183611004068695,4.639200756501038,1.9385899252880137,2.520027970870775,0.6284777104787076,1.8603952616181931,1.7295442446408396,2.068232457145116,0.8979430732425959
289,2.028982423681949,1.4899301063422175,-0.19950909346713663,0.8336223229695765,0.8259925265606336,0.6448454197117527,3.9130337492678198,4.313891952078753,2.0915010154793277,2.241569967341283,0.6097226960127671,2.00487018484189,1.8420936017019554,1.9658897831667175,0.9288339127383286
290,2.04102175369391,1.4279551968928086,-0.9799279084628774,1.2966778392593183,1.2455491874079285,0.767154822335189,3.6610508439167364,3.617525291157968,2.099431986230968,2.0050891960984214,0.6528756675646988,2.026975601776534,1.8571080349623705,1.8745070744122916,0.9369149564253204
291,1.9846980458590406,1.427945922471409,-0.09514368173448329,1.1402635080948182,1.1148222482879409,0.8460540413717389,3.848625244901723,3.7501430945810266,1.6903936109299713,1.4778270890829208,0.6509067234006624,1.9568699892916552,1.5023096749088471,1.2501172309964868,0.9085706694217727
292,2.0803665864860097,1.9966641848803874,-3.5487113885460233,1.1135547762872575,1.1108079525762122,0.6765885580623919,3.9584643131199626,4.704773974494575,2.661382350854318,3.845947429241579,0.6547956803312163,2.0536438488586954,2.332837136164567,3.5870967598039942,0.9317611712490013
293,1.6256455470714188,1.3041611033235667,0.9249891953095486,0.6788238444042054,0.6453178463926642,0.6180122255353913,2.967019195038466,3.5227902236243627,1.948675888507514,2.017574986600564,0.6468212168108125,1.5586391847689567,1.563412455463704,1.4154598972816157,0.9375135987015273
294,2.022377114345515,1.7766786274114001,0.07912081050845288,0.6761805631196255,0.654433362040754,0.8078719715149647,4.1727282796642235,4.403012295498723,2.1529166457314854,2.7920148530614375,0.6425374456860184,2.0066042177275696,1.7748779735124518,1.2804463972437847,0.9530958108875163
295,2.049822576682065,1.9681895272909906,-0.87609498867588,1.1318041370083287,1.1140801849378632,0.7942771200748701,4.385834460473168,4.121981806503429,2.226010566242517,2.159393484970482,0.6038851895711802,2.032049179377235,1.9767294945152185,1.6367348926397713,0.9434679470164323
296,1.942516043505287,1.2836738977599478,-0.5449481313166173,0.6697773582241815,0.6460251969019682,0.6882295663069198,3.7685091943375104,4.364355794986224,2.040113982489502,2.0975479471075507,0.6333676938231112,1.8905490283919046,1.7925692752869602,1.7608673020150911,0.9510774377933319
297,1.7828544120239902,1.8173202124143437,1.3334130654401646,0.5769413295874166,0.5630661093476087,0.7507666646041522,4.014991913379875,4.979710110313457,2.0108546201202047,2.3515244252384884,0.6180765742263259,1.7639497685887877,1.8280046486884238,1.6480940411468494,0.943092314427294
298,1.8255949566161394,1.5223498497059227,-0.25393644915886426,1.21269416617324,1.1966790443231488,0.7198399180268649,3.9130750916359633,4.303180000584654,1.4823367615842773,1.4615391212004143,0.6403206450210053,1.755749031705022,1.2910426454624444,1.4234591909212544,0.9115431400252519
299,1.8678827963593707,1.4418547315809498,-1.3975566864089775,1.4160734653633995,1.377526560555861,0.7388401010342942,4.034447646876385,3.5187770361248853,1.8420484913037032,1.719174697928759,0.6333676938231112,1.809516190817314,1.6095057757573934,1.3292490630540574,0.9186725675527513
300,1.9351408826243999,1.9893824615189342,-2.21039284653987,1.3237350737923235,1.3186646687792605,0.7877265812993591,3.8811454203653106,4.454637329253188,2.2537871399053913,3.186857843113347,0.6468212168108125,1.9281902992569215,1.9656654022157756,2.888736434555434,0.9471675701803468
301,1.4971475028791477,1.0068414745048884,0.24446192277863066,0.8573622859361434,0.8190395352606135,0.8207100130642091,3.29980818486315,2.853816216912843,0.9515754986216581,0.9001174262779804,0.6584896970785714,1.4127296023169986,0.7877001059681691,0.6157626514367455,0.9456930815225985
302,1.8579443213276985,1.550754323664309,0.05264987376173025,1.3094802207943828,1.3064608288650486,0.8254369411402297,3.961052558393059,3.0536539417115285,1.5592472106590571,1.3911779673820948,0.6619902821573977,1.8223561432055224,1.3734544087316822,1.0462609223143515,0.9331758591657977
303,1.9954503572026674,1.8902467179869062,-0.6266424997822893,1.378923649878281,1.3498753997989974,0.7919631690156936,4.339309016902316,3.4717201977762757,2.065678363291179,1.6642854436430623,0.6357360191111145,1.9840505570595002,1.8211130565870837,1.3857952345809534,0.8713900188055345
304,2.0440808084554134,1.7400410131405377,-0.3229368112537041,1.2691154657933392,1.2297422836159637,0.820327861691312,4.142960545029833,4.266851830080982,1.8998388533895787,1.973445984993984,0.62595550513784,2.03196440847056,1.6954249004052522,1.6423047205144525,0.9211319171017118
305,2.0921368704450183,1.869228086324617,-0.8056914990950959,0.9742751107281276,0.96773870529256,0.8262871070490148,4.403726259206175,4.538971452444067,2.0083145795232915,2.870355808149829,0.6309483474627791,2.084699786494375,1.8157240830904193,2.0734190761733684,0.9256134300995716
306,2.011481395774776,1.635560709881036,-1.3096855091768922,0.975222317017909,0.9457203237332757,0.8666916015106508,4.267897341181225,6.150411889892407,1.9087043473734515,3.920633592894674,0.5947193981915972,2.00950097125327,1.624048900808405,2.597865344676898,0.9391828760878201
307,2.1101698852957624,1.5421369975903483,0.4302406749417149,1.2757830918716113,1.267656372707398,0.8145201482311739,4.063305415727147,4.515589251545182,1.6532920355248943,1.7072422731006833,0.6566669596287297,2.109396866970699,1.5254153658729612,1.333402345368643,0.9363274114820129
308,1.7507952836804084,1.5294815623029103,0.4560204754275068,1.2730789745783155,1.280641612192155,0.7159460516925292,3.790021603308683,3.374965448842215,1.7854648818770362,1.829336851104901,0.6403206450210053,1.7486999797676082,1.4969191700761038,1.3485011999577947,0.9394379969813565
309,1.6349977952973802,1.552276001489509,0.6128139911301194,0.7697904009954412,0.7556027029555412,0.7344066728893237,3.890223299073717,3.776728937663031,1.706220744419213,1.899719351845661,0.6425374456860184,1.5999827536633453,1.5137825868022385,1.4705134864911313,0.8882823207457337
310,2.0725341151033567,1.6507808832716395,-3.1544340915493514,0.7594961714208708,0.7350736446188526,0.6160420884781441,4.0488588246283275,4.625998797145792,2.519432529264631,4.069777386623112,0.6509067234006624,2.0323883348832843,2.412933150162911,3.4965075614664802,0.939084377530178
311,1.8062687298963276,1.1369863671368448,-0.5478966715007441,0.7706027807471842,0.748635315596208,0.780474697141907,3.3295320163970015,2.8163632635181344,1.0970288063596336,0.7119836527449218,0.62595550513784,1.7559419763626614,0.9567858142906597,0.4918069169442219,0.949288128400978
312,2.1115514368325066,1.6021522783170132,-2.5100209178672124,0.8833318335043843,0.8652186552217849,0.7476486800905953,3.573575074083394,4.546656716327661,2.062516378371015,3.8106576051165035,0.6038851895711802,2.087025785038144,1.8520258927779214,3.049672663699739,0.9456666850880229
313,1.9533787672180674,2.2562638138432316,-3.657978630502614,0.4543980502806884,0.44040281623058336,0.7193173332300977,3.1087722574062395,4.912033880854432,2.384329863640483,3.5213396123653173,0.6380535849069913,1.9331694355155946,2.1739226995290086,3.1733384292227074,0.9492328746815276
314,2.259730986466571,2.432455844303636,-4.673069067392672,0.33729058044174914,0.33075894231824426,0.7111517839807504,3.6429950699563194,8.244001839319392,2.8329321518218795,6.3032181044559525,0.6403206450210053,2.2580367167329767,2.5162097992990486,6.633318433280377,0.9485679634730104
315,2.580533945619631,-1.9049848775798308,-0.6205217751573965,0.217642280729933,0.20218005263068387,0.6777158607122056,3.2836520986749798,3.939059201846345,5.3575443389047255,2.7658885484692175,0.6309483474627791,2.577606905076921,4.567278167194166,2.8763855159214247,0.8831056929062482
316,2.177274662239738,2.5760762877959977,-3.4456386910182495,0.1740656785227582,0.14296839715545867,0.7414639590483737,3.2703903079213794,3.716714284717676,3.0380401768433885,2.211272035759904,0.6309483474627791,2.1745828468553947,2.511556401666364,2.3906923605043127,0.9282064613212299
317,1.896015503067412,2.128209659792108,-3.6596369754260927,0.2126938811736031,0.19407724695489562,0.5156141156961306,2.7702357061345415,2.9314986064991424,2.457875808546879,3.547781711831001,0.6333676938231112,1.8920218911664493,2.0818765179797842,3.244011798139743,0.9507286282090825
318,1.7912859614908416,2.4086233722775967,-3.8627675847234135,0.30880291498392726,0.2925104038432176,0.4300044501080866,2.9051753744809483,3.7781649406290225,2.451035053331235,4.667685081239001,0.62595550513784,1.7905601886525728,2.3886163090862254,4.183866013850181,0.947322535255011
319,1.7280331543823801,1.7458864793308835,1.072647248985728,0.3845904629941659,0.3726055854431311,0.7190252293211907,2.9693606118949387,2.2955141196226196,2.2625893152941012,2.7037713360206563,0.6468212168108125,1.7273459559036348,1.7314805385951568,1.1710918611784937,0.941397235756079
320,1.6148283053448083,1.4444779120022249,1.083673538718248,0.5777460992410907,0.5509661965252208,0.7300527675391072,3.240614094682348,3.9373600397004744,1.7516263941763581,1.3724996719428355,0.6284777104787076,1.6133343827132236,1.4229884306672453,1.066726189471778,0.9500056184883477
321,1.7572532432079238,1.5561286325722385,0.7425141812336933,0.6735145406302638,0.6537675512933996,0.6535414626066605,3.4826259835381213,2.5162681347513485,1.6165498600263841,0.8951901798177748,0.6207552362147116,1.7555561242678421,1.5406808217578267,0.773089853221144,0.9475455872712196
322,1.8252156235680377,2.014163181545201,0.6702609667643107,0.543505046562112,0.5328037612324341,0.6457043511819635,2.9861880965705607,3.146095386774882,2.1654385819716886,1.3592949828783982,0.6233814453054027,1.822081229114444,1.9253694010240296,0.8314022475322442,0.9482042360482051
323,1.8159037627110721,1.7651509838246047,1.92211005013443,0.5389923519785661,0.5073253388865959,0.7008803468427266,3.1956735761993813,3.2073828085899567,2.009111894057459,1.844085911244967,0.6602640781246099,1.8141414201211854,1.7515376002065934,1.878306585366177,0.9539302107357477
324,1.716059501724491,1.2097216109058853,0.7686856535203273,0.668028503711051,0.6530308584567681,0.665479550534183,2.9709098618364367,3.2981659617184333,1.5892471778602604,1.412827653066359,0.6207552362147116,1.6634835289994878,1.2966671235045932,1.0031656473116153,0.9547237893959568
325,1.9287345818250659,1.18311427729962,0.4661701186607128,0.8538191164764593,0.8417144440699998,0.7151408657327699,3.0608460086771565,2.7254340565260753,1.786671657008143,2.2954698953536523,0.6447042257417027,1.8272484871583585,1.5019383585275248,1.4812324017398675,0.9528489907933639
326,1.2722730264631505,0.36840559083128555,0.10119009907769994,0.6330285230949059,0.6171434429837948,0.5754555485436315,2.2880055560766435,1.90213119916281,0.6622439755084749,0.4888755200316227,0.62595550513784,1.0686652123001577,0.5606353292301944,0.39725342175277434,0.9113062651520392
327,0.8657752854062936,0.6057676927518035,0.519375463021327,0.2126938811736031,0.20148891236557634,0.3978155789019274,2.1106100415755122,2.002195805667426,0.7747457773251326,0.7466833265594752,0.6380535849069913,0.8630659706368573,0.6093674208049552,0.5221769258326898,0.947609991543629
328,1.06761807048457,0.7554981653547512,0.5732028511647402,0.2534458577792781,0.2459982551661446,0.4463395967171154,2.439102863632892,2.4712780230344316,1.0000043227161568,0.9583588884502474,0.6038851895711802,1.0551378150828303,0.7370217341665644,0.6129505770120535,0.9594033147231644
329,1.4217516266168213,1.0906835510915196,0.7614513710508954,0.2767218184769723,0.26955032262668205,0.347724814422506,1.8589495100008588,1.5970068336558425,1.309461084419225,1.266648891690707,0.6668815377411301,1.398097073239042,1.050670529933085,0.9061825273247085,0.9585846188448066
330,0.9140749981981805,0.654713505935668,0.48177615030566523,0.15643652800837793,0.1544282867896016,0.4113936641196279,1.8328432738775797,1.6666951226178128,0.8653030717212565,0.8240533311124139,0.6602640781246099,0.9035116225118973,0.6451970984099707,0.5029447330951325,0.9614665478840693
331,0.5291947748586933,0.34174761875766624,0.24938421071042305,0.22339592217896861,0.22073374721822525,0.2564534309181033,1.5523308314455315,1.3825438228988287,0.42431496092584947,0.4787593179916736,0.6668815377411301,0.47939873648628656,0.27534020008029964,0.23185504877963067,0.9480868193588023
332,1.729458752299267,1.2181572252231152,0.9436263863880194,0.106969059718312,0.09841817327480325,0.5353537701014156,1.2753229614246964,1.4635477970819537,1.3985786386343506,1.0587461278008183,0.6699045166045591,1.722357792424496,1.2832003752807861,0.9748626481985044,0.9476883656294403
333,1.2544019540046172,0.8740245081243438,0.8395348421554485,0.122888179777612,0.12201883919758233,0.3271790682650464,1.55328690565934,1.6622859701871513,0.9831818937267731,0.9778259411224884,0.6547956803312163,1.2320674937187888,0.9132289907570714,0.8961307483402604,0.9633374614995343
334,1.4142468333331366,0.7597633845384615,0.7096532378541731,0.20269369581024232,0.20022191472889778,0.5455958427892053,1.2230876253924676,1.4880579702799313,1.056625106620199,1.3357302157725501,0.6468212168108125,1.3674944149897401,0.8240463458781817,0.7626231301160225,0.9460198537602067
335,1.5366519973477777,1.038499240156355,0.9699673399633877,0.2026936958102423,0.19954237380302975,0.5036039552429634,1.3543058184070336,1.4398708469993309,1.3672948399612883,1.631420779533874,0.6425374456860184,1.5120087671025544,1.1238758231994703,1.0561108244901691,0.9459797965570435
336,0.700396669374669,0.4289851812346508,0.35214585227334294,0.34039752627284187,0.32916136012756286,0.3582376706973028,1.5855414145161184,1.4683838159095934,0.5351605890047517,0.5559411118053352,0.6380535849069913,0.6568152513125551,0.38057651469192955,0.3368861932369451,0.942313136415859
337,1.1771962917501462,0.6591274432200551,0.5556839419225721,0.32567673742732667,0.31093297468935793,0.4615398453016513,1.9298722965791195,1.9235261436657778,0.806701959614319,0.929093326331285,0.5978297680564633,1.1603813150657416,0.6196472312866148,0.569298809193821,0.955365109329473
338,1.5506530802644507,0.9736053733874255,0.7225511863993686,0.31630071691217804,0.30438973188998203,0.4627461869624934,1.6103290931648861,1.6900934136659753,1.2321149042206008,1.1717292162531483,0.62595550513784,1.5490224628194427,0.9641464966865292,0.6996143513630716,0.9438066968797765
339,1.1400666661379495,0.7260750299734469,0.5122003604645782,0.467490983466791,0.46141788659995103,0.44368105602501984,2.2973432679908807,2.290899387027265,0.8179073562422398,0.7117000668051161,0.6602640781246099,1.1358296764849258,0.7259946671914161,0.5018090719937828,0.9443040945198954
340,0.9981829886985358,0.48288448177416843,0.36732763623936937,0.5322205836097939,0.5180663116153745,0.4772632966696938,1.3326175436157912,1.0737408405326807,0.5694742366500769,0.5526807258284572,0.6425374456860184,0.9169854175568336,0.4303446735449163,0.3677770266052227,0.9492886879989462
341,1.8696121014059792,1.0728013802312169,0.5983360474691848,0.06236667603779547,0.05464726383930663,0.8307959404523483,2.0657449107847463,1.6248876425400347,1.3294464391602703,1.121640655058675,0.6008849035917525,1.8681366808258202,1.0701656108278945,0.6572892280366646,0.9557713689186866
342,1.568668767116118,0.9277494766818624,0.43530362710630444,0.6736646093681874,0.6331637939278674,0.8150684264635332,3.121901509075821,2.2735161073971524,1.0299792553708185,0.9906488832083198,0.6547956803312163,1.514531854680133,0.9248916805054553,0.715174219126016,0.9136316146489138
343,1.7845372622742297,1.3400910346931485,0.5786038466353856,0.8152089028220113,0.8138807033326815,0.6812136469400796,4.030607770397969,3.689776981864397,1.6110508497947147,1.6290984083546047,0.6180765742263259,1.75877611674604,1.3984298810890676,1.3228010451989778,0.9424241212348262
344,1.7730975569378797,1.0823086968034183,0.3824166069990169,0.7760397420762846,0.7549395334861807,0.8811147968921359,3.975036112771934,2.23358171576233,1.1246207879516843,0.7116311159968158,0.6547956803312163,1.7618770947461855,0.9730305605259073,0.5294305436728655,0.9207403170781959
345,2.075985640202267,1.5535468358924938,0.2844987916726165,1.0281401159453174,0.9901380258082957,0.8335708836831968,3.9469682702605713,2.699911706484298,1.6838670573878751,1.2672888690086614,0.6380535849069913,2.0697112570372598,1.4116121691041805,0.8538196226335909,0.863891638447888
346,1.4751084787359077,0.8749087906332422,0.11404293245619979,0.6541112137126027,0.6343778422622343,0.783390533903593,3.0113645192421603,2.405398021452786,0.8211850227603474,0.7568383085142507,0.6380535849069913,1.3777972308659443,0.7007558167527764,0.5886751589632342,0.9100555849967772
347,1.4248612356763974,0.8617565992037668,0.18721538319417652,0.6007576762426947,0.5913869233065535,0.5720816463394311,3.2413225687727594,3.112221990300105,0.8904206153445212,0.8305579350697869,0.6097226960127671,1.3569081735596535,0.7680887697796852,0.6181624348764394,0.9251754225543429
348,1.479746361007688,1.081642763081265,0.7465942916781567,0.8585248480287323,0.8561328564004339,0.8225242000530129,4.049575485431019,3.3478349064450077,1.2590062541098552,1.2601267473439985,0.6403206450210053,1.476267696137007,1.0770605597696528,0.7827057998490824,0.9378252809371811
349,1.4055841228688335,1.0166612233970178,0.8498191982685377,0.5944201129244713,0.5687251222731436,0.747629439770491,4.061803852671902,3.8645947408344608,1.2242804032729249,1.3598551943920758,0.663668482632973,1.4015208084511819,1.0108791505500703,0.8615775726501832,0.8761782298093234
350,1.4289015354648913,1.0581795390360713,0.7680261369364709,0.6590727315164859,0.6551245560240004,0.6136894099874116,2.9469473846751066,2.232011216885115,1.1688827658578949,1.0692817601279665,0.6403206450210053,1.4114526376704521,0.9687337013471451,0.793609901077707,0.9315546837944273
351,1.668145441733865,1.2941762857033239,1.1992649727401483,0.6762710029331133,0.6559340691244064,0.6674048431778166,3.2867582985210193,4.300159910031821,1.511295687528341,1.9699565136882413,0.6038851895711802,1.6648918972857976,1.286079482739297,1.2887843849708638,0.9409698274538749
352,1.5572617160469493,1.3986224861216923,1.1981050880551956,0.43907677415822716,0.42717938121771476,0.6758559464254097,3.5909969793500127,3.285606693166058,1.5704617333825175,1.6188857250715185,0.6547956803312163,1.5532676409670458,1.4120432035936126,1.2698295276268985,0.9471615608617423
353,1.6970815982117626,1.906596844094449,-3.053405513482176,0.5413516625611724,0.5180160687681921,0.8123005194744678,3.803781201004852,5.484827211695919,2.152604740385207,5.46714489015002,0.6380535849069913,1.6949958007957469,1.8969586164814647,4.126731077921254,0.9391260631824625
354,1.8965635925770485,1.8230334555322345,0.949812580823564,0.874174033676642,0.8495717885949727,0.6827445606316852,4.187948242597904,4.407374525499759,1.962208099934601,1.003709079375637,0.6509067234006624,1.8959355014782215,1.8136002775613755,0.9422602482885497,0.943880814158139
355,1.6429746651233428,1.6743401352573075,0.5672983473028412,1.080477516046181,1.0625614473930265,0.7197391159827918,3.9736449802304805,5.212540275887119,1.980016117667117,2.6733185134757598,0.6584896970785714,1.6409859140437335,1.6442077918621156,1.5958763838357628,0.9174248955055023
356,1.7667378575747148,1.2165698387682964,0.8528666342693114,0.9708398634843234,0.9386431626262658,0.8419244582001283,3.957948078720372,3.7022581568503807,1.3724981696360365,1.0033543458471776,0.6652988471865258,1.7655720394744072,1.2081813273608084,0.7999580227954182,0.9391672819598778
357,2.0138170270266786,1.5004274435166023,1.3004750658418804,0.8074626521167538,0.7894858545894923,0.6593851442438,3.8887386290089143,4.960888682777,1.6589599572155347,2.066163839262127,0.6602640781246099,2.013071365713295,1.4791454143360292,1.3614147652372672,0.9458404535847801
358,1.749688506238834,1.5103469254627766,1.048830843240098,1.0941116158584014,1.0657501831299472,0.8002781381656426,3.8362064569240335,3.4399271352806564,1.6231571250452217,1.5219679496878333,0.6357360191111145,1.7492748576218997,1.5115810394871838,1.0295035490389743,0.9050167824364308
359,1.4997336765894786,1.00914742935844,0.6965972290204303,0.8413125596073823,0.8385162261232498,0.831925108389105,3.9636423775622633,3.645653563471393,1.15624418911942,0.9088745960985435,0.6207552362147116,1.4990401052590059,1.0049814083886766,0.6703059349594493,0.8770251304278681
360,1.2130907155520017,0.70054310501603,0.5950261562472967,0.7780626928574792,0.7514746564190125,0.6385571147356511,2.9014079108067223,3.349853870221124,0.863771683863832,0.9500046844708403,0.6207552362147116,1.2103262782981115,0.6923647516372254,0.562412992556484,0.904079690628997
361,1.8904026160803202,1.9035774174427733,-1.3968899549915696,0.8635538471314692,0.8440475512762395,0.779284023465305,3.88912730059659,4.025696282374412,2.1097689351423607,2.7794105738011914,0.6566669596287297,1.8898869472259971,1.892570853847505,2.3469924890083824,0.9400919319971884
362,1.8959621415946573,1.8779184300612668,0.562442220925377,1.083348830102227,1.0781207300580273,0.8118201914208094,4.3484810046207425,7.581782466533947,2.0672435396527136,3.228753887501158,0.6357360191111145,1.893496926465971,1.872983773671517,1.9609116401578468,0.8923210043234582
363,1.9320192282857565,2.123650320647029,-3.771229095519963,1.1795212726241358,1.1569084236660827,0.7434261682213174,4.223101291637286,8.076917742067838,2.378746774091328,5.476435629770014,0.6125606311107803,1.9295666567153662,2.0786002092656823,4.626809361091572,0.9295394642253322
364,1.6974566116588528,1.4048749445006647,0.7133554311731074,0.44239863425092557,0.42031973548885054,0.8357971012676403,3.466635713316918,4.082354495433037,1.5430713134910803,1.0539205779703393,0.6403206450210053,1.686498958570562,1.391649206802521,0.8822484243392786,0.8890948967232759
365,1.455429921249267,0.9016578492745395,0.6087640164436521,0.45148381505581386,0.444655356339523,0.6283334432608483,2.602467972147049,2.2346346280590432,1.140852945899735,1.0372828782557868,0.6425374456860184,1.416707750639367,0.9315723016168083,0.7010874371304474,0.945750617460019
366,1.8713077814648795,1.5662422676357373,1.0865110749392866,0.5561986755447408,0.544286776233758,0.6825010595283987,2.4580738709005114,3.128516918600149,1.7582578180532218,1.477772841237265,0.6403206450210053,1.870297753558538,1.5630785264678526,1.0785059715381438,0.939661984351059
367,1.5292121903732683,1.3194861620413818,1.0214061593916721,0.26706521919150794,0.24890364722613362,0.5196338554183958,2.9130210893148596,2.2791912805734995,1.4251574785668126,1.3600772335303077,0.6207552362147116,1.5272436748081135,1.3107254042950027,1.0163092646088667,0.9489155531504053
368,2.0019999898933656,1.9280790955199176,-1.4905030881232277,0.20726765807716444,0.19863330031372184,0.5863616177185712,2.68433935912177,3.190255413428703,2.4685069455964213,3.8812252800785214,0.6547956803312163,1.9999323096124433,1.9198988782635147,2.4443086445171978,0.9425856348488901
369,1.838932550713495,1.1419711358708717,1.0694759028506429,0.1645458301705412,0.15343953483278036,0.572670040569072,2.1793031039499846,1.8254192264302147,1.3366270640070619,1.6048773490010477,0.6284777104787076,1.836617374869882,1.1340971357088212,1.1025210884331624,0.9472293661981861
370,1.7646456749780162,1.3277920277353659,1.171773932400611,0.19804851594381867,0.19870669518845815,0.5097147409182049,2.2713139574876364,2.536919422373938,1.578682619696379,1.2406991598437604,0.6528756675646988,1.7635608148693762,1.325749805644181,1.2629414854590932,0.9423415718527237
371,1.3283158133698838,0.8545246696340518,0.6476462382038504,0.3221235692921641,0.2961542383662142,0.5575306898894825,2.2612339091389027,1.9836277555152249,0.9679300061664619,0.8633884569523804,0.6509067234006624,1.326977783963471,0.853586352479641,0.6361854815824389,0.9483039407506224
372,2.067987597641611,1.4815010372295636,1.2871199221019118,0.2767218184769723,0.26635328368288,0.7141831909677313,1.746399018483624,1.8813818488082097,1.612697315186097,2.4094787744617685,0.6180765742263259,2.0637431859617386,1.4335980562533193,1.4014545701256627,0.9274394956385432
373,1.2623459506004964,0.6897020137553136,0.41584437109012273,0.20726765807716444,0.20258234293170607,0.39787627880159454,2.1239296731493438,2.1146156637429327,0.8592766503187774,0.6322472210594432,0.6509067234006624,1.261837349771076,0.6929902193290469,0.4188955517272624,0.9546876847809653
374,1.5369844971780762,1.3684436501731858,0.8798283743851916,0.20466859451959732,0.19207727396430596,0.6000331232780779,3.4232649805402695,2.6685862033575134,1.5850451268779164,1.4013983088138942,0.6333676938231112,1.5366522427084526,1.3735141425158914,0.8835798792794292,0.9281358398136282
375,1.7705902144446228,1.2762176943584942,0.520223248423624,0.9932198275668728,0.9743626703954567,0.7873375914093631,4.257626063122963,4.521073007842254,1.2616207705541675,1.123024199099502,0.6584896970785714,1.7483169113852182,1.147268413563834,1.0103451664799366,0.9060307378025035
376,1.923397005188843,1.6553630874202871,-0.7937560849654761,1.0660001155930883,1.0353976289483047,0.8499883739945989,4.578498113661405,3.913134022141521,1.9268842285197347,1.1976156248993282,0.6584896970785714,1.9014999332412539,1.5838039577179013,0.8967227437147266,0.9256953543281627
377,1.9487407078400794,1.7021827645661913,-1.0628281445723946,0.8358049757025752,0.8250910059993225,0.8408035981690447,4.300528551876672,5.330775136759513,1.828406597166318,2.50528172084047,0.6284777104787076,1.9425048425872655,1.6665370530999304,1.9124190221750506,0.9076025234228446
378,1.9483949846721142,1.5303590871098323,0.19080488568095255,0.9807305303265285,0.9512189123931535,0.8633208430949717,4.355896913269833,4.316060796267018,1.6530926511809227,2.4961955138535097,0.6727386042041725,1.9366311105751715,1.517967047814099,1.8002340962190273,0.9199375629061156
379,1.8777554657336146,1.6238789216799614,-0.46585615197486385,1.0009465021054866,0.983410922401588,0.7737826031178554,3.81424840198413,3.7724854409967854,1.7128770974496315,1.8342365314335751,0.6713451011121618,1.830916184429249,1.5063678714892537,1.4290987236533081,0.9080421358919086
380,1.7471267151062022,1.3434545314940596,-0.192545955081183,0.9906096948200244,0.9777853054055354,0.7838414587893128,3.887181569282188,3.5994567253677654,1.3291952305405292,1.4012637496548255,0.6125606311107803,1.6543190601068172,1.1524471139345507,0.9402133135677782,0.8856499349727135
381,1.5903498795501108,1.0190737727094095,0.31695295595915374,0.7705711298933766,0.7571547899611711,0.7710281591297743,3.45837091421522,2.7392045949831547,0.9879447726130327,0.9101353687953563,0.6447042257417027,1.5113034418680136,0.8262182210069283,0.6559908539407361,0.9240999845547834
382,1.0229293159307615,0.6434095181054975,0.3607323573536745,0.9869820289500182,0.9843909448564112,0.6830110123407882,2.03238081090612,1.5713199274278806,0.4018450135833369,0.27844457467536465,0.6528756675646988,0.9019222327220866,0.327710318384427,0.213632006273248,0.9490239630477438
383,1.9649843294702392,1.2967217058271754,0.5408375427848067,0.6639613318159587,0.6547226312576145,0.640848620998752,1.1806569311986486,1.5179232442357218,2.074454356626714,1.8318210613655304,0.6447042257417027,1.8460044840804508,1.8939343736469607,1.5085307030930575,0.9023553367438619
384,1.4950898026163137,1.3201212267772042,0.899997736883392,0.18043082020570633,0.17302997615927224,0.31567190643919557,1.3021187628944217,1.581100002972704,1.478167525558873,1.1166757062025225,0.6309483474627791,1.4934837085654042,1.3219661228135013,0.8922727105365108,0.9451725417604958
385,1.948207451056074,1.4200011727702762,1.5545211171226323,0.1963043554646035,0.17466567238679903,0.8349911568298869,1.2236347709381996,1.4493513118109118,1.566276112250187,1.7865563017250843,0.6547956803312163,1.9432802768692974,1.4040604320021473,1.7376590005136734,0.8815673718649004
386,2.0948477615826255,2.1823100320300424,-1.6197886841353148,1.2313256983868035,1.2387030389112061,0.8464779154257374,1.2598282695729348,1.575722411012178,2.5696131454499844,5.120828871797191,0.6602640781246099,2.094307043329533,2.1633410698507602,2.2154429030014167,0.9262715283469087
387,1.0217876164854458,0.5920457661521925,0.5081342017220198,0.2444673364541365,0.20644455519654661,0.209088484571613,1.6601099147721146,1.6564143670185774,0.8417728979607985,1.164683188456426,0.6468212168108125,0.9779002135058463,0.6400179996941874,0.5875401690632893,0.9292759590617528
388,1.4789703679766086,0.7796210017456315,0.7531704097101453,0.2257515828920963,0.20636906509410377,0.4382868609836285,1.2581965453335886,1.4582270473402716,1.2726095561425903,1.4482781491661372,0.62595550513784,1.4269311875996205,0.8721046558832839,0.8790179868650414,0.8972415163153642
389,2.0286184694458864,1.2188293049368801,0.6555235997130899,0.22976106386191675,0.1894598797764282,0.7193335901257291,1.5657383776076392,1.6966239506910563,1.452654031042573,1.3297034177358615,0.6153451465759925,1.991756317702018,1.3737522215516305,0.7710478717777618,0.8925239526432437
390,2.089808814619599,1.4304153771957435,0.6921546675906458,0.2590431355547462,0.23371553201355,0.7570037094021539,1.7765738437679335,1.7912519616910765,1.6276050139360456,1.0870177780974066,0.6233814453054027,2.058158529213222,1.4815349297028584,0.9681483831114489,0.9143707822955796
391,1.8365910549098612,1.2458711389295554,1.0183783751088389,0.122888179777612,0.10774996518453356,0.8534761791683707,1.6870042893519182,1.7523229641973674,1.3567599942515185,1.1703226132859752,0.6038851895711802,1.835363106710187,1.2512668737188053,1.02316668635203,0.9107829234568676
392,2.125914133778714,1.8691947094848205,1.4343359559563806,1.6314607912337251,1.6070496471049462,0.7702350570973236,1.5235601926142952,1.8650583601064443,1.9810476363832226,2.0354036974716276,0.6233814453054027,2.1254622111093284,1.8669276285897785,1.7662008714520887,0.9041943061112282
393,2.2016373981799253,1.4442064117635218,1.0337884663639048,1.2669771696996723,1.2479401096585658,0.8635163433096862,1.5263410760857845,1.6864093112429541,1.646267535800191,1.7474937773693293,0.5883313578629602,2.2013330053807625,1.4487531773474607,1.0181421392270051,0.8862429135879211
394,1.6668183127854428,1.1963315662500846,0.8433586397652988,1.312208675478281,1.2877229353628012,0.8398702937658952,1.444146895223874,1.5406832712481726,1.398859342626527,0.9917943904026154,0.6309483474627791,1.666596326274049,1.2012314671872213,0.848537058328269,0.8939891798547015
395,2.006730961218328,1.5689613029488494,1.9997166503224126,1.3040614347627912,1.2992182870581277,0.8761545704920798,1.3874051867275323,1.84238835781525,1.7062407102911856,3.853113786290285,0.6509067234006624,2.006191079940243,1.5677736457110552,2.146624867321284,0.886998394994925
396,1.9916291482539537,1.3435386622699732,1.5120150644316026,1.279351502109673,1.2378004692354891,0.8362442519481058,1.452380594631623,1.5971311132269301,1.7607166934680079,5.339454522191633,0.6097226960127671,1.9914306643571225,1.3355873191307812,1.6005024038978453,0.8892390376375039
397,1.4837836493859349,0.7726975735667578,0.4781902958088211,0.08467349851939517,0.08086038328831074,0.5394389337964649,1.5964352758567482,1.672539614079375,0.9867547656363911,0.8477481408115923,0.6333676938231112,1.4809958373329528,0.7671010703770232,0.49679018344420794,0.9499311737690767
398,1.8260755441391954,0.9799284315462318,0.640350628524518,0.10696905971831198,0.09625585028877513,0.5867335403205853,2.072558760849338,1.6415154093630142,1.117448207994023,0.7826472245850302,0.6309483474627791,1.8236630182410631,0.9746766542086077,0.6711365499657788,0.9232921022237327
399,1.8309851601680445,1.3289199384853794,0.9650590484583197,0.1645458301705412,0.15777860018303444,0.5708529853257535,2.7164117367189373,2.4834768276671984,1.4063765920112192,1.1123356638550725,0.6447042257417027,1.8305696000151463,1.3263752671225641,0.968546424081227,0.9170923223894217
400,3.1608756500276174,-3.1227455926805225,-0.038130057347094896,0.102348078514579,0.08726855091501692,0.917490959958217,3.2916086734961056,7.094447913885432,8.243942279643662,,0.5947193981915972,3.1569448671377103,7.557472901614746,inf,0.8780506679402039
401,2.348651635537634,1.6234486622924598,0.6263809000072009,1.295452919721916,1.2699971523894573,0.947547181979685,2.713574535823218,2.7521947544320358,2.611427914598451,0.7371528803569524,0.581717464821069,2.348512691550001,1.626568449845282,0.6367780327436051,0.920015298993811
402,2.521944776515798,3.178498796874889,-5.700443573390687,1.5688851987296468,1.553421611889949,0.9328522896317585,3.244215352035267,2.8772652593334005,3.179011242253236,,0.5915533975974677,2.5214323311374502,3.1856890447842656,inf,0.9161998791742904
403,2.2380465718564744,2.0761026404143217,0.689797093674664,1.5491573844307036,1.5389687303014372,0.9478581800450924,3.1311055214585073,2.7258212076784183,2.178124254806633,1.4096716425866047,0.6425374456860184,2.2380465718564744,2.0827804429453507,0.6964972674452273,0.8887481700043381
404,2.6270061594259193,2.380290233404822,-5.0072963928307415,0.8521024775927258,0.8185210594935091,0.9526038152983215,2.828064861107692,1.946419996893404,2.3805189118572674,,0.6468212168108125,2.6267774809734736,2.387196714388297,inf,0.9195232296858294
405,2.614755888642064,1.4762497723145214,0.5074755368807091,0.5910699172308086,0.5618522377786791,0.8983772661433471,2.860799574437828,2.6669554184112916,1.476294000284877,0.8495563131615312,0.6038851895711802,2.614711660671709,1.4829718028159062,0.5141757106512727,0.9188326578920062
406,2.512121312801504,1.8020278994692922,1.3829442742346085,1.1801121263821375,1.1540176683040628,0.9442852512838196,2.655471855617739,2.320845214633884,1.802213890094876,,0.6566669596287297,2.5119353221759195,1.8088916926259053,1.3896444480051726,0.907805835153113
407,2.407703157690733,-2.407703157690733,0.0,1.0196759020798911,0.9918175878251703,0.9557817341671385,2.7574358571160973,3.5266954110080344,,,0.6403206450210053,2.4076987255497664,inf,,0.9070912279371757
408,2.127496634297472,1.9628992555661569,1.6066975966417756,0.9696781779034547,0.9562767198163498,0.9326209915606255,2.734651168617548,3.448989307636722,2.186730509178539,,0.6566669596287297,2.1274187030922564,1.969596087685723,1.6134566720290182,0.9257004836695409
409,2.6138406226529303,3.0819665147473887,-5.695807137400319,0.8697718351110091,0.8512493827734551,0.9651949406150445,3.1223439057401863,4.647692011528554,3.331764841224569,,0.6068309995095971,2.6138011901991023,3.0866534943644237,inf,0.9127504540150797
410,2.6571304679310974,-2.6571304679310974,0.0,0.6136447909448653,0.5781275750828941,0.9364106213897275,3.2307085028374063,2.7558327403970275,,,0.5883313578629602,2.6570402801944653,inf,,0.8966807566414072
411,2.3765482091843504,-2.3765482091843504,0.0,0.24493905704025942,0.21718089699258766,0.9416347171241236,3.037339139008445,3.047151250960714,,,0.5490601803369085,2.376470867613246,inf,,0.9054705496725168
412,2.5257286443082556,-2.5257286443082556,0.0,0.5352756796139456,0.5041461473410344,0.91650492848941,3.1615138965354306,3.9712131753232236,,,0.6403206450210053,2.5257286443082556,inf,,0.8914388509172146
413,2.40759889114443,2.594541780983866,-5.002140672128296,0.11826719857387902,0.09882797084830637,0.4921743107053126,2.915892527245503,5.877849503121826,2.613312706497725,,0.5947193981915972,2.407451903383883,2.618297028522421,inf,0.9327742710078909
414,2.344395292176944,3.296534977197916,-5.621812505997325,0.106969059718312,0.08218138633851725,0.8748147277148952,3.145070541238894,7.37699104708674,6.659816241162479,2.3911950990278066,0.6468212168108125,2.3431756328205235,3.370657177689179,5.6937321388027,0.9321095088141733
415,2.1078493627581043,2.5275804060240192,0.4307775262646283,0.7315086963060669,0.7301597421230317,0.37638570164687984,2.953237855594219,2.7475122882634477,3.1951547306379564,,0.6180765742263259,2.1076581339771763,2.5233998229630425,1.1967771663859608,0.8688748694853413
416,2.4950767043892643,2.6178191467957745,-0.6011036940867998,0.6573378265164698,0.64423819728245,0.8918153528599989,3.2517361382937144,2.6445466893376515,2.6356088086849447,,0.6380535849069913,2.4924013315502607,2.6347677788019466,0.8165640339345848,0.9174384741021184
417,2.327682411915182,2.2393445020368556,0.37440432198448903,0.06698765724152846,0.047956200119205025,0.7161126595476789,3.1429198572339674,4.477315838396604,2.314505002469,0.7158435973907263,0.6207552362147116,2.325967453228945,2.281427427781258,0.42685027872518705,0.9447631764293337
418,2.3539726214531242,2.8126501490782347,-5.147505007153824,0.07830835683644703,0.06756603753390472,0.8622399296476698,3.817589185033445,7.262807146803186,3.4719948912994165,5.569248929375752,0.62595550513784,2.35294315233564,3.4525029760970614,5.602118820879701,0.9088278797239546
419,1.924755523700936,1.6825860513022335,0.9703488680764334,0.17293301827745555,0.1492310152222029,0.58462380241418,3.366140887151967,2.7140094575112177,1.8082760096031083,1.3185582967629574,0.5915533975974677,1.9217163058161473,1.6885573699487826,1.1151826760976637,0.9591811283380702
420,2.4166838164282067,2.5835815003923326,-4.926120260560601,0.20269369581024232,0.17790674702825543,0.8609367492899659,2.469631678904061,2.613825715272104,3.2661893132010795,5.713611602836847,0.6097226960127671,2.414386056972882,2.621567045107664,4.762173934797756,0.8961171537319456
421,2.3681858035659076,1.5404983005967234,1.095262201782829,1.486507419804689,1.461204847625985,0.9217639025358952,2.3818343030772873,2.6338335711853773,1.5405525748477116,1.0952622017828277,0.6008849035917525,2.36813152931492,1.5472303773787408,1.1019623755533916,0.8881069921504596
422,2.617547089580157,3.0828964838105297,-5.700443573390687,1.3544388227299662,1.3301339681196176,0.9053687978219768,2.4662404299492344,3.4430948064276716,,,0.585052858160615,2.617448056419929,3.0896733195017867,inf,0.8801824465379597
423,3.0378179251610313,-3.0378179251610313,0.0,1.410020277597417,1.3827184318489805,0.9139479044020555,2.6984846097326862,3.216542536469159,,,0.6233814453054027,3.0372489537569245,inf,,0.866787749501121
424,2.427124360592391,2.1371831755495188,-4.56430753614191,1.4960136177423569,1.467890415477751,0.9254311303373131,2.3654528613096435,2.3047943125090073,2.175193543058552,,0.6357360191111145,2.4266377416640244,2.1393117311707854,inf,0.8875163609135799
