,bvp+acc_XAp0,bvp+acc_XAp1,bvp+acc_XAp2,bvp+acc_XCond1,bvp+acc_XCond2,bvp+acc_XDist,bvp+acc_XFuzz1,bvp+acc_XFuzz2,bvp+acc_XK2_1,bvp+acc_XK2_2,bvp+acc_XPermEn,bvp+acc_XSamp0,bvp+acc_XSamp1,bvp+acc_XSamp2,bvp+acc_XSpec
0,1.9437508037045883,0.614907523127632,-0.5452400678040317,0.7147360361605968,0.6933018912123018,0.6540562670260868,2.478315421199573,2.7762120665639367,1.471141714238219,1.3716984650281143,0.6068309995095971,1.5957541853481783,1.178079756300035,0.9293698397538765,0.9547184888436989
1,1.8205634054489008,0.5011148050340173,-0.344022712935975,0.9339241560805124,0.9207916088949524,0.7316338243700663,2.8241427781930577,2.145303578385583,0.8230358810854367,0.5638913341034437,0.6652988471865258,1.560489030702237,0.7138325970189494,0.4328955870771319,0.9225673454362758
2,1.7061980696729235,1.022761319545301,0.6210076905214121,0.809699772530248,0.7861104993138169,0.731705364868132,4.115879159920805,2.74984267607197,1.2961376528049797,1.330050966328152,0.6447042257417027,1.627545310776519,1.1684257716981614,1.0832621001304747,0.8916652024018654
3,1.8549474316366976,1.3496659766074286,0.8468086137208375,0.24570447365205822,0.23168788722182004,0.8501856529571964,5.075263185599075,9.771569647407478,1.5837922071962602,1.2708989458000473,0.6447042257417027,1.8536348729461425,1.3500787041823807,0.8482102692096253,0.9484190044202573
4,1.619952756531434,1.4276998385388286,1.5728820625435915,0.7510481658144855,0.7301217427957021,0.8134245555533853,4.036712497616683,10.322101920932228,1.6858001971155816,2.1753955219693553,0.6068309995095971,1.6194882482876019,1.4273034288798645,1.5001096006966492,0.9336663788441952
5,1.8364221909675689,1.9153119328716206,1.793333577964579,0.45752032016377375,0.4479343218419933,0.7570283710309991,4.544060665616376,6.070861232746519,2.265030051898577,1.5405245541619639,0.6309483474627791,1.836059728124635,1.917061994717655,1.7221980390221014,0.9469290212040861
6,1.205234857528286,0.7635344386081944,0.6092662052880458,0.7824087366062542,0.7675372848147675,0.767177329991046,3.030847733710078,3.0222623902521777,0.9772909385530917,1.0112094388330215,0.6380535849069913,1.1996488328458814,0.7562779825960861,0.6021241683840359,0.9423731049962953
7,1.27167280183391,1.270911423331563,1.3475217293560502,0.6371858729497666,0.6252999213598307,0.6355538012156785,3.4303392827344505,3.4259827821528326,1.502524411302716,1.7456737901479435,0.5947193981915972,1.2676623032688243,1.2752972779677931,1.3261103686623192,0.9321454377633316
8,0.7481907218247893,0.23169830088433696,0.10899091502100033,0.6501742520562495,0.5937486712152108,0.5888994272612573,2.5584810158561297,2.53366760456559,0.2846283517932793,0.20561802119291805,0.6403206450210053,0.742174039406019,0.21957906654489348,0.08965758123290318,0.9343807420961303
9,1.3965373999656523,0.8669045799664377,0.09258683127375589,0.7412632346742807,0.7334951534102262,0.6875499430358919,2.782188392927847,2.0179404075718588,0.8835661634074289,0.757772985226859,0.62595550513784,1.3326061590367342,0.7053949127515076,0.4910664737855284,0.9058190141409406
10,2.5055056981712807,2.897502586248867,-5.383890521042613,0.6719650084494592,0.639129544182239,0.8500074928156718,3.8602777850719123,6.881351857793888,3.117751666860024,,0.5947193981915972,2.50239196412902,2.9943763411428552,5.910796644040527,0.8250355694810493
11,2.7547354427622746,2.2163409671812944,-4.971076409943569,1.5141043392585718,1.4920457863372416,0.9443881913326005,3.0987852854466196,23.67903202730654,2.2526785559121962,,0.6403206450210053,2.754617836918545,2.215195462657456,inf,0.9046306461558784
12,2.555647783104309,2.4516486097264325,-5.0072963928307415,1.5069795588861654,1.4708241314797559,0.929269136857427,3.023077891936807,10.11208835775454,2.503722696083191,,0.6425374456860184,2.5550430319770308,2.4589311633847397,inf,0.8806724577582699
13,2.5265798365966314,2.4836029984326227,-5.010182835029254,1.4577529443776618,1.438267817389916,0.9392863185745619,3.1597425422630265,8.180259651994326,2.482407708331938,,0.6528756675646988,2.5265623250568328,2.4874118703049373,inf,0.8809442188873532
14,2.6661358647341165,2.341160528096625,-5.0072963928307415,1.2341794215792747,1.2389194169479056,0.9061843749095063,2.662180092341568,5.614560714244606,2.3423056811889778,,0.6447042257417027,2.6649907116417633,2.348983483720007,inf,0.8989419983525339
15,2.429577590006296,2.5559416329595392,-4.947283696210765,0.06236667603779547,0.057023492697086405,0.7114035130299271,3.1071430718350737,8.82827500842974,2.583463726882218,6.385216939622038,0.6180765742263259,2.4255063065065525,2.580141446078664,5.70877001616724,0.9548118826080816
16,2.685638951951992,-2.6096995793986975,-0.047869479335919826,0.06236667603779547,0.05037221226887512,0.615441196331136,2.888102460912215,4.353558639087302,6.517373860124456,,0.6652988471865258,2.6862887093206975,6.524051662655485,2.1972245773362196,0.911456182486736
17,2.572190210078275,-2.5064211566907053,-0.05719508602064235,0.07830835683644703,0.06685682590859271,0.6066344515654519,3.041881361228112,4.490110126385883,7.727589369078476,,0.6309483474627791,2.5746854890347866,7.734267171609506,inf,0.8956525063994675
18,3.0254180413767067,-3.0254180413767067,0.0,1.6340975020292028,1.6322846649429699,0.9336131862902394,2.864806916856563,9.728844826331192,,,0.5978297680564633,3.0195696963678467,inf,,0.8370796972438616
19,2.5303141866871184,-2.034623441174885,-0.49569074551223363,1.6679828826633738,1.6463830782130997,0.8946020691816776,3.2627905004519997,3.4772186484356875,,,0.6619902821573977,2.5253120644230393,5.624156346867881,inf,0.8358910978332064
20,2.4190356774414217,-2.4190356774414217,0.0,1.604109731475248,1.583128735449532,0.9171840567621979,3.1643038193892674,10.747840561449086,,,0.6547956803312163,2.417497253558746,inf,,0.8721837999010025
21,2.4908513172190196,-2.4908513172190196,0.0,1.486073137196945,1.4396640328066133,0.8961275378642806,3.040971586786667,7.742309644418882,,,0.6233814453054027,2.4902542561145955,inf,,0.8844937812442101
22,2.608473922268159,-2.0104581456073647,-0.5406624865281899,0.12463234025682715,0.10479572215140133,0.6763554231149594,2.774342018109307,7.960621452448924,5.7060043462212775,3.084342279587752,0.663668482632973,2.6038403472017797,4.760673334276072,2.9444389791664407,0.9266373901432652
23,2.585027577441525,3.06109991583211,-5.5528646736361615,0.12463234025682715,0.10697284003239287,0.7564153334195655,2.9006556382292783,6.686937067250131,3.0528089858483245,4.659878640346171,0.6357360191111145,2.582887058148204,3.034717720266945,3.9982007016691985,0.8909216952722772
24,2.4268981336720135,0.08968565123625005,-2.5165837849082635,1.5136209508546554,1.4823932170343688,0.9121726810572734,3.228434757049168,3.2539241102314507,4.879904842895248,,0.6652988471865258,2.4266377416640244,4.0981252850620065,inf,0.9036099237062486
25,2.6872452891037697,-2.6872452891037697,0.0,1.684349717216672,1.6564738982791354,0.8879209663007825,3.562287620904813,13.708476507874689,,,0.6509067234006624,2.685147807884906,inf,,0.901039006085703
26,1.9426130217412485,1.3511689323322527,-1.2725230138316275,0.8249675347735446,0.8055353333093898,0.6730976148007046,3.286618009780123,3.6699857790169768,1.9388731640197938,2.843754976720158,0.6207552362147116,1.8666267039076068,1.6788260337420469,2.301430580647221,0.9353311039007243
27,1.6292286595394323,1.5588885999679714,1.9370490673447187,0.8153970719865925,0.7778491608508807,0.6889035016498393,2.7218308433949736,2.8216244200102656,1.719341604615521,2.929193097430904,0.6468212168108125,1.6276584585476286,1.5397851926883015,2.0705105655850162,0.9464201062492109
28,1.3929382203257274,0.6342837595075252,0.36310789502469376,1.0616445219382302,1.0481714360220202,0.8003277574859156,3.1012070470619078,2.142823775384531,0.6939633518263241,0.4998572854469013,0.6425374456860184,1.374365790254617,0.5443940641794313,0.3585907673814563,0.934390684747263
29,1.4950765845803,1.3230705069073079,0.8965931521433443,1.0185026610575674,1.017595190417775,0.7126556666611411,2.3085503554575926,2.2576845378578696,1.490115820651906,1.2990707223909324,0.6207552362147116,1.4685172213777231,1.2570182940655064,1.0116009116784799,0.9264577223702287
30,1.0748830482417748,0.7059050593377427,0.5096941273252154,0.5018383431842707,0.48019228428886407,0.5070564586163855,2.7341847892378732,2.3753293994088005,0.8640658540229215,0.6696192248611033,0.6309483474627791,1.071451180605737,0.7031889968149294,0.49644624851400815,0.9296685984049579
31,1.357216680482253,0.7189108046364403,0.5043525232863861,0.6756795800508836,0.6598409771023201,0.8111054225526408,2.8314760720782157,2.7578715415310566,0.8696218660704335,0.9611870009062647,0.6180765742263259,1.3489129452749256,0.6993745192869231,0.4996299850355558,0.9393792981470557
32,1.471619356661096,1.24987612712933,1.093426676446453,0.9506152465655489,0.9382665641742348,0.712017926271218,3.566544121914725,3.8395421925813222,1.360660902196387,1.2878760333374566,0.6468212168108125,1.464952842092224,1.2205208048310812,1.1053154936907243,0.9425783394958068
33,1.5638183173392362,1.2359397334646327,1.3423662441265232,1.0794998683305463,1.0623643030691972,0.7464610592255772,2.825446051930814,2.9181399516510855,1.5371285269645305,1.7279831489040023,0.6668815377411301,1.5567927544482685,1.2111843952342902,1.3847029895525051,0.9409325140290722
34,1.9813113242656846,2.1473533536335685,-0.443162800376494,1.2297775440056478,1.218132896607698,0.7695157234371288,3.92598685556776,4.465094110377796,2.3756687776377428,1.8751611301546778,0.6425374456860184,1.9785710912948744,2.027152279273698,1.1177074176730277,0.9412864925919373
35,1.5131491125267407,1.1930785981671517,1.1612977560159696,1.2317332058549995,1.2524117802798282,0.7753846952594476,3.425862458957358,3.494567397352491,1.3693182066188998,1.6498378567994696,0.5915533975974677,1.480360870158958,1.133895451656891,1.2526870988394003,0.9386735390125436
36,1.656144296328469,1.5082288830675565,1.0232610424275457,0.8896868669799423,0.8678811550312944,0.6784161180910177,3.3846088553813116,3.5745964701196553,1.7379004871830495,1.9579266602242293,0.6380535849069913,1.6322517354997823,1.484268082730891,1.5133985374466123,0.934094123345062
37,1.89389867530803,1.3549108022909757,0.10149125626442324,0.7855507746556587,0.7642937334156169,0.7520062856725002,3.326077624512793,2.817722509111164,1.405580709372772,1.0537461644354067,0.6584896970785714,1.8658366726243707,1.1936640482797654,0.8175842331627294,0.9434019484906291
38,1.7342496419433038,1.4761937663918687,-0.10963978743271996,1.2648177266024068,1.2298268178341771,0.634346244539123,3.5196495917506305,2.8828524674620564,1.5517397950892444,1.1623469477013986,0.6403206450210053,1.6972374787512234,1.2870054947550118,0.8721351085100173,0.8982981333759955
39,1.91735823698693,-0.022930464221813773,-0.48742796553423395,1.1719672865662873,1.1624614125203647,0.6123474430178543,1.9159583908081925,1.5236882279682773,0.6266212717227263,0.4800327233787919,0.6425374456860184,1.1716131815525999,0.5133867511039214,0.3489160270676741,0.9092299911422799
40,1.4296308794595278,0.8861867014010052,-0.2502299466082323,1.0787533519125485,1.052936088057371,0.7765706395557155,2.773402751285313,1.937988537222978,0.750188354995373,0.47863687698339946,0.6684167106117298,1.2824149417438626,0.6226625461814175,0.380759747767543,0.9099385245379097
41,1.2709837718558887,1.0546393214851144,0.20932188872234692,1.136443585928397,1.135961395876794,0.5983426739221799,2.992070568596097,1.931397631638199,0.9311775137629489,0.6617915751400638,0.6357360191111145,1.2109601218345538,0.7790876977095348,0.44327891027073263,0.9411974927064589
42,1.1211328015399198,0.8790616823099027,0.27663018612167356,1.1322664991114908,1.1333220682566238,0.6890359934633626,2.597829083187722,2.2306707852597523,0.6679645620456358,0.5420110413386582,0.6425374456860184,1.0268499224412189,0.5263126820255465,0.34255096248123135,0.9327839122939231
43,1.1210296261323291,0.9716067283863148,0.3921688364427869,1.0769444242361614,1.0643606113065505,0.5994267529631507,2.8602672298150194,3.052508867565016,0.9426225444632814,0.891024623981056,0.6284777104787076,1.087507508936004,0.7659146206841579,0.622458708960526,0.9411459745280794
44,1.4393417364084835,1.1387123351368336,0.5694019530285472,0.6563619732266126,0.6379502851704579,0.7268897208081696,2.911493361552557,2.4492255105291267,1.2798880123246585,1.2215266706920278,0.6652988471865258,1.4084036467079917,1.0920905264217224,0.9555114450274363,0.9475211740144075
45,0.9449324796360761,0.5317892993657445,0.11719040315948859,0.49668828613180455,0.48337622962477994,0.5658175440076769,1.4688578279793014,0.9223922423699968,0.4110410132190076,0.2322657519460608,0.6447042257417027,0.8510493328131563,0.33246746294539736,0.17347769631647486,0.9568776879540615
46,0.9935765657581425,0.7142239702283576,0.6170231316796644,0.6447478068659608,0.624244541942673,0.5750878728418958,2.181561681408034,1.9979578154162794,0.7860797589923517,0.6433393323281745,0.6547956803312163,0.9658895562544718,0.6671013406151407,0.5789413093388813,0.9476858861479611
47,1.1883722908086614,0.7891683613008336,0.6000005419502787,0.6346248069402669,0.6098384007892395,0.6727513692718875,2.815085054097938,2.4042203441592966,0.9009702680301198,0.8865115904401282,0.6153451465759925,1.1781245814809274,0.7559667963249239,0.5949761677679188,0.9513934467202008
48,0.9925592477020942,0.5152859674363047,0.24224800801689872,0.5894567475930799,0.5767771896312479,0.5709363837550823,2.352588843248541,1.8425291837997824,0.5580370586685386,0.2079611463666402,0.6233814453054027,0.9759227908885085,0.46724767098424413,0.16443579573237774,0.9492276343513134
49,1.502573656715557,0.9975233544658852,0.6783926582049298,0.43351149446569087,0.4141179786119995,0.6492744512957119,2.828419020625445,2.6579251535635424,1.2318157851799427,1.0298754338627631,0.648888643467878,1.4986421942863346,0.9832024814658459,0.684017113830403,0.9521305253260719
50,1.4134929909367804,1.584759652747561,1.4550305821612524,0.4190840209075174,0.3974225676607441,0.6661644685214744,2.631527598710762,3.4144283418465564,1.903285360063617,1.970394292002991,0.6180765742263259,1.4090399814415224,1.5675434732737077,1.5936486799115808,0.9550963772512401
51,1.316030393662797,1.1889270941537546,0.9031388886637846,0.38186303697948404,0.36329674776459486,0.45198413985184616,2.960663594303615,2.678838922391956,1.4464918162296025,1.3015796156435293,0.5978297680564633,1.3137463352086147,1.1821538560542515,0.951690229969,0.9506891778758143
52,1.5814061741742667,1.3002032442462774,-0.39964889789306923,0.8959917519761158,0.8628895407674942,0.7608802974138047,3.4458099964271267,3.2294001954842635,1.228751826641257,1.1039791463418744,0.6357360191111145,1.5003344104974397,1.0249776539255995,0.7416458420309132,0.8849731332786628
53,1.6516846880160452,0.5460193745487254,-0.226880670907877,1.0882397353891275,1.0983498297637404,0.7387664557167721,2.9384661869246833,2.8294068136024286,1.009122590384769,0.7363292978856577,0.6528756675646988,1.4553348527882841,0.838731075997491,0.4844067366129811,0.9410459950321923
54,1.1508703618057303,0.915360616635337,0.04046007034880006,0.7642189906731022,0.7639710854899381,0.6020549560064794,2.63995314626595,2.67126312653631,0.8409081911974113,0.8748230096697462,0.585052858160615,1.0958494421791818,0.6734964322119732,0.6165000618875471,0.9473936976466414
55,1.7913637606896085,1.5053066541050197,1.4035666874592079,0.9107667185399819,0.9015136037417405,0.8408507379812427,3.5207306597034074,2.900328949936272,1.6418880445384891,2.052952254035299,0.6038851895711802,1.7858436687987507,1.484910416838115,1.6598385007858534,0.9325357132920079
56,1.7690098787382604,1.6621455849975488,1.2868567218659965,0.6758666048374649,0.6588710656315978,0.6560714257634824,3.6456536386694274,4.996230375482881,1.8843998678988894,2.4764867851379098,0.6180765742263259,1.7654421609106816,1.6367557210850572,1.8784978832024783,0.9434694274160783
57,1.6059616770193497,1.2466548110461289,0.13323670030300816,0.7764208338992555,0.7645399645236474,0.44158738071645415,3.0320873357102642,2.8509204263476504,1.4977745373386326,1.5867144375769986,0.6180765742263259,1.572731040093322,1.2475551102361548,0.9611960409105446,0.9353100601419282
58,2.134672136930936,2.491120149466271,-4.090494911826229,0.6026093089959831,0.5894880576268536,0.7735842524490849,3.274950244479027,4.184262621015311,2.6882492170779115,3.801350241274604,0.6333676938231112,2.131998792418512,2.5070729452452607,3.4362887014734254,0.9413492042158739
59,1.2847194823631545,1.0001275852378193,1.0603552473490376,0.6549088324575473,0.6484700246208515,0.5627852368410855,3.679757951610878,4.837092805552297,1.1733405752071453,1.6938834147916213,0.6528756675646988,1.2827354674086924,0.9804152600436938,1.16953732130114,0.9483678729982066
60,1.5590966481692607,1.8034287393868866,0.9726662083415607,0.7208745015343143,0.7059243000999602,0.5482701432785148,3.8050159140069755,5.1850173122905865,2.0234886302422628,1.9126369265060146,0.6207552362147116,1.55816406268004,1.738973649057337,1.7968791912979296,0.949752030734773
61,1.9997331774967446,1.6525689400188346,-0.1991625759510689,0.9856575312383655,0.9643763015532415,0.8098621746580924,3.48052111783832,3.6539089970798586,1.7980784770999734,2.1539438802029176,0.6778444222523095,1.995427244041608,1.5833031776827047,1.6122284265032245,0.939466155114827
62,2.111940059550233,2.023514973435546,-0.6464951796441927,0.930094088119349,0.8892686485050617,0.8106452016803706,3.4161654840979696,3.8259319637377867,2.2918079907120754,2.0547228624065936,0.6008849035917525,2.1060136972828354,2.0249948493108567,1.8649103508636702,0.9453255490939154
63,1.9974416073379013,2.31006999053114,0.8594462939417138,0.5078299102772684,0.4934077476291437,0.5415787698393333,3.634112384707917,3.6438825716894203,2.4500579702902745,1.4046678249014428,0.6333676938231112,1.9942837333395291,2.268874035651734,1.5203896741338006,0.9463975064371434
64,1.9714084053212044,2.2195829962130276,-3.349809812922696,0.7813117293073603,0.7734864108187038,0.5558092225354708,3.4814187902846814,5.853600097426639,2.2414010463251417,4.140959447219259,0.6468212168108125,1.967304041742986,2.13238812680571,3.5236831468454453,0.9506540586976626
65,1.6568068446599131,1.5036793489602505,0.5009037635427731,0.7923592104714541,0.7936783042466399,0.6162434068811183,3.2332350610499025,3.0184154284531552,1.8548536707339387,1.3201994699310975,0.6740851607140061,1.6524614025425317,1.5021363517690727,1.0525423020558407,0.936416606131552
66,1.7311984563810734,2.1033465967960536,-0.6768779272652554,1.0383149495127209,1.0253231734257602,0.5610114322078611,3.6058327599554145,4.360769761650798,2.254157826489034,3.1469984283810484,0.6309483474627791,1.7303508410994115,2.0506439019223306,2.0281482472922856,0.93695518660017
67,2.368268351680899,2.6307653355366902,-4.80785605344224,0.8150829486863729,0.8171118463746294,0.8138272487342619,3.1923651006348517,5.668137039335975,2.884990590190521,4.761863559125963,0.6509067234006624,2.3610384625744345,2.608774837001566,4.135166556742356,0.9248796822004061
68,1.6010207475464064,1.2492760410966521,0.7243644179161777,0.7893602134944495,0.7892975907868288,0.7612227948518077,3.8075551061079,4.699266474093427,1.3424644222187525,1.3542975525724608,0.6233814453054027,1.5982232546665034,1.2183405760849415,0.7641590204026639,0.9520169621427075
69,1.7303162003087111,3.058176788854607,-4.1547710150785395,0.9320251578368631,0.9149000295661346,0.5953416924677918,3.813154498131139,5.432087643519859,2.952953885205924,4.519907689714425,0.5978297680564633,1.72410082075424,2.5422190062076706,3.4035755040671227,0.9314906823880231
70,2.0735417174200497,2.6582466144435464,-3.931168267257331,0.6785766540442344,0.6530870754456863,0.6576506014416974,3.8279761489273376,5.153283956051505,2.736404128392924,4.798686058888032,0.5978297680564633,2.067337316501797,2.5333982724184283,3.045629244698614,0.9502175008663845
71,1.7190186736184925,1.7088296040435156,1.2427631753872426,0.5736722489237016,0.5638017734800058,0.709665620395538,3.6043614071111785,4.616108306897608,1.855029496079246,1.8035411393212906,0.6309483474627791,1.7170231231140378,1.680846468455443,1.3363973899752675,0.9447634713667771
72,1.5934159981472036,1.205384625469956,0.5616661267146941,0.5867416637254028,0.5831701405788446,0.63444778543144,2.802071268934963,2.268637237696262,1.3942692329662536,1.1720094927731022,0.648888643467878,1.578693190157064,1.1829336118485385,0.8698226702080576,0.9347450749517592
73,2.072214068978461,2.732453147791505,-4.563114284612615,0.40085792549041294,0.38379420675779113,0.697943644457412,3.4995450995720145,3.7267942873803857,2.770327497862241,4.355690486386458,0.6125606311107803,2.0709444114258897,2.677326618202875,3.886705197443856,0.9477418016393034
74,1.5423249248093653,1.2200930530908276,0.6648592599211627,0.7101553465439315,0.6918042080759954,0.7341122200402852,3.427161326416218,2.916195283446685,1.3393863629988372,0.8657024811845391,0.6284777104787076,1.5413120833865,1.2190845980879192,0.6889410755156711,0.9459142162017178
75,1.675788195578632,1.3715545224476242,0.5125885056297861,0.9464506727680545,0.9446402671580214,0.8385472763227724,3.569108686664719,4.304099639607512,1.5576074139282876,1.216055658805479,0.6584896970785714,1.6745099091778153,1.327016898084512,0.6341278856143113,0.954254377119976
76,1.7575321526912486,1.206686484281738,1.1897253878032443,0.7332352457293067,0.7131844118425917,0.7764776481465117,4.104764287403213,5.003970796877498,1.4952815612978636,2.509266693335738,0.6357360191111145,1.754849115207958,1.1942116390368864,1.2454725352326887,0.9416518694164027
77,1.749351858010647,1.1197185501450198,-0.4379054522426733,0.7066739019946802,0.6971836605180247,0.63468994612419,2.973994944888898,2.928154766880049,1.2937716916092132,1.015779745861873,0.6699045166045591,1.6247207692986179,1.120166321855566,0.6599836958742804,0.9292883591566932
78,1.7850359820351032,1.68252949309881,0.4945810476233241,0.6335792578640232,0.6236202218942678,0.6338062697210252,3.735085342244544,4.412387271921489,1.864736451691617,1.2850482414377578,0.5978297680564633,1.7612949284242354,1.7236464466708807,1.2556667817880796,0.9283120185370526
79,2.178783390159139,1.8263909069475792,-3.4058866910688295,0.6611662835427686,0.6569893705362341,0.530073900098209,3.1495019918967895,3.0337212473176565,3.3338319974573034,2.8459312561427534,0.6125606311107803,2.169901281687329,2.942397666185427,2.4451183997295876,0.9496513520704872
80,1.9288358087038857,3.268769129910658,-4.339093837056562,0.6909770300804193,0.6684565098310555,0.6774550496562888,3.673795092926313,4.890551779552906,3.3827614311487793,2.1143177947550127,0.6380535849069913,1.9268158335548955,2.882240087142991,2.076720451565475,0.945546187306554
81,1.5981488212665813,1.6055651235391546,0.9156984871466372,0.8963759443226196,0.8899626845743627,0.8211197836372451,3.524315259320772,4.51183275789518,2.0219751240263593,1.5874260387343058,0.6425374456860184,1.596521687167554,1.6041868337451979,0.9365435423206254,0.9350383678020571
82,1.9746472721420134,3.0682302338312613,-4.686617993550715,0.6634384942703736,0.6551813817483638,0.7519713033388887,3.864664773622792,8.52592302790775,2.8898213767565712,4.929211574129755,0.6602640781246099,1.965716109690382,2.6394540762977092,3.711352309965995,0.9348636148991276
83,1.8158898078270538,1.5439913471605131,0.23577945169444758,0.6628602583130218,0.6383075589503583,0.7067534767468392,3.341998503196655,2.6374060954278127,1.7109153514861113,1.0649744591657373,0.6509067234006624,1.812574608941975,1.5281550259530907,0.806312716327484,0.9521555873738711
84,1.9144079688648161,1.8797251194356872,0.3520593658769329,0.7247567145800444,0.7141037970524146,0.6067049652732063,2.892981305007985,3.9908378541691683,2.1116087807848407,1.4548566718498734,0.676637947632344,1.9115194577686596,1.8549612423688284,1.2643573012762872,0.9455576324803561
85,1.615765305045281,1.7728158866684633,-1.3468139157582524,0.8438841132417917,0.8221941906791921,0.6886633592714093,4.114343175356231,5.044564668590902,1.9037867090404093,2.693831194917619,0.6125606311107803,1.6147855187606956,1.7584724942122183,2.2321885609624252,0.9485264025845384
86,1.7103968917905596,1.2578200172677325,1.0341682874238463,1.0144840965404573,1.0045633353978727,0.782984701381906,3.7077874634559613,4.483152222190608,1.4007925092977838,1.4455521551411243,0.6309483474627791,1.707295779283214,1.2475078387723395,1.1382084989327683,0.9466967049976954
87,1.9443684741724527,2.194236140386263,-0.4185195284154264,0.774582965567567,0.7594429305605707,0.8491081942981299,4.37087828449831,3.1864122958966483,2.3957139504380454,1.556800643476511,0.6357360191111145,1.9404141685515255,2.1007056324332773,1.14585497822786,0.9478706530008956
88,1.6167524541866274,1.4208863455146226,0.835167305379565,0.7186802960167331,0.7138879895134514,0.7026938152862829,2.8079596498788923,2.574953698627304,1.7731754756114497,1.942766971759404,0.62595550513784,1.5891996501931092,1.4471231631873598,1.1760548157532245,0.9546822402002625
89,1.6957442239466152,1.6410027146299753,0.6257837320032893,0.8573627942939336,0.8301477358135702,0.6405182630731228,3.040769541332152,4.132640478704087,2.035489476602142,2.9051974897041264,0.6357360191111145,1.6660082639224947,1.7605069257239507,1.9624565451697222,0.946809909449419
90,1.6008558613903787,1.100833947183319,-0.1300897236886116,0.9748150143802266,0.9496986345130275,0.6440648527389274,2.689202615852139,1.662941641024096,0.7770474260433492,0.36123276622228273,0.6403206450210053,1.453384282460756,0.7150584934500114,0.3428078492168349,0.8828931022145361
91,2.3646839275385516,0.27370820672726026,-0.7915030217469965,1.3593856143504264,1.3376086687855695,0.7581800808600249,3.51971214247759,3.6167878544451657,1.8664258365298831,1.7528521807870507,0.6207552362147116,2.054597179086463,1.646354856261742,1.42434616706819,0.9119683747592299
92,2.1692360521266596,0.9651990943887001,-1.1183263415939058,1.3483296688791682,1.3283039502966687,0.6516448804557361,3.296806363501638,2.64452468437535,1.331890807385023,1.3319188234795334,0.6357360191111145,1.7920928581292928,1.1382679079832354,0.909341577735992,0.8977937929026227
93,1.8144399840782284,1.6754021751295398,-0.8195930581991591,0.9795562371187703,0.9608028582781313,0.6329130887758654,3.098596061976195,3.105810602416901,1.957564234741812,2.7792602854351065,0.6357360191111145,1.7898280023783077,1.7369326022591933,2.2353574470316633,0.9294492791104125
94,1.3857334530537637,1.2294741314485595,0.926140920460754,1.19671009383547,1.1801233679572558,0.7224622133989764,3.471082387122182,3.4908784695185617,1.3337768123668794,1.3026082393027747,0.6357360191111145,1.3763000268344476,1.1627108819467533,1.0079832549925365,0.9420450037143272
95,1.1090929598928168,0.9966487540460105,1.047098677081984,1.154909037573003,1.1573915496960225,0.4795135857844513,3.3505835663487558,3.0115401058034443,1.1407313112225883,1.5242779998711635,0.6447042257417027,1.097745997340152,0.9453850446586674,0.9435313762156318,0.941472869168562
96,1.7008675977549996,1.2203626690351996,0.6918836667079287,0.841204726781114,0.8084988320562132,0.6802786571537139,3.456282398538985,3.278368781739542,1.5213053517475779,1.646132691472348,0.6309483474627791,1.6643048360971628,1.2964893860955475,1.2905940896390764,0.9402709970642975
97,1.9924081994579248,1.715530384646306,-1.223590796704812,1.0972558629981939,1.0736226761467702,0.723528801861671,3.6472765093300814,3.2899017850958368,2.146091645225321,2.1648566568170775,0.6233814453054027,1.9415751144657505,1.9038282036209997,1.8617180578349655,0.9495835415192537
98,2.0286510729029734,1.746330768826923,-2.420930368674371,1.3084559612813393,1.3042088212524308,0.8017707523845866,3.255250378217818,2.7413780960985314,1.761794338710331,1.3595123332557142,0.6584896970785714,1.8910642836386655,1.5097998202333696,0.982941890701924,0.927300498305716
99,1.7510039173843885,1.4785847567519033,0.03801717584573128,1.2419887500624374,1.2266701856009792,0.7259084932383785,3.387357585599992,2.4198704016180153,1.5787299284591418,1.0712628425974011,0.6333676938231112,1.6897445438213252,1.3869567922663328,0.9932758696861481,0.9018624624226407
100,1.7455754889546846,1.362889639734944,0.21887521271012123,0.9847375228537293,0.9616791937340088,0.6872262069829286,3.3886740885247675,3.5857291772506596,1.496668140228403,2.214769630067535,0.6447042257417027,1.6617258533653445,1.3007865823085025,1.6316079141276594,0.9249847060533841
101,1.484636607405865,1.0370826630902699,0.09537583347791312,0.6706339895285555,0.6616813875098259,0.3255381130623604,2.7932003158598464,3.1104972193513434,1.4749950117597725,1.5383869933222167,0.5641709578113449,1.3455363686477229,1.201529413048664,1.0049544897003524,0.948933277701655
102,1.2549022478574272,1.0563359013076818,0.34269482353256553,0.38394618228014166,0.36633749700811374,0.4631338741579917,2.523370117264251,3.284401595185162,1.3238722468901583,0.9848128368294007,0.6425374456860184,1.246764329691968,1.0384175264033935,0.3514783489201758,0.9413678268176596
103,2.0710736079932883,2.5064402862090636,-4.077053631548928,0.657806210200018,0.6471457349496609,0.7020843769196818,3.003828242843044,5.9372978909603775,2.5120910185377223,3.5955314736177,0.6468212168108125,2.0676886559871854,2.4381390866686425,3.0099169085459474,0.9402115478213225
104,1.3764863138216175,1.5497644271922129,0.6921859744421348,0.4006151881192853,0.37802025951770546,0.6448566342507152,3.1512295026097945,3.438450192176314,1.7889092962629158,1.1852670532408571,0.6528756675646988,1.3742340466275242,1.524774904664304,0.7775028540134464,0.9445729403174933
105,1.4468075260717062,0.990750364272657,0.5867962585497515,0.592476778489942,0.5752665858219101,0.7836672778268536,3.693633868193214,4.92488003923984,1.1783601314477474,0.8702159869609303,0.6425374456860184,1.4431234174392766,0.9870425536912636,0.557598132774274,0.9373737142509275
106,1.3359010819232031,0.8492948370947402,-0.07145084882942321,0.852614290683846,0.8333134617020886,0.7203035105802669,3.6435560896980954,2.5629688219872118,0.7441163401870728,0.30773905695314185,0.6425374456860184,1.2934518700210367,0.634280064063612,0.24851423686637886,0.9209731101503246
107,1.383495615465047,0.9692728896822211,-0.04440744008484554,1.123759902288331,1.0810809980315832,0.7587971110368094,3.7882066411368265,3.029582849051479,0.8031632357990077,0.6803544392272112,0.6547956803312163,1.3569513318859803,0.6674129724457977,0.42684970448975273,0.9528629311690111
108,1.0517104212899597,0.747894633417022,0.09824856627422363,0.8034818658086309,0.7875522305187571,0.6508740326365974,2.7420116841512687,1.9066745188325158,0.6870773177400226,0.5496825828510546,0.6008849035917525,1.006093881023581,0.5160965711796198,0.365419342681688,0.9306957075376978
109,0.7233143610567254,0.5214520675678234,-0.0014650479510114334,0.535678559933308,0.5185634028319692,0.5278955266324532,1.8135561385737846,1.2913557910942735,0.2964670349977594,0.23992822666804642,0.6403206450210053,0.5919553417743387,0.2589899029802262,0.16467484411772687,0.9119762118823282
110,1.1151741276564724,0.7291321122333985,0.357037252803176,0.7329538509533895,0.723646029486653,0.7436302519816195,3.073824064711651,3.434988229590749,0.7515651940062645,0.8028668586767588,0.6403206450210053,1.081656848018696,0.6181921532759368,0.400339613529992,0.9452372437953394
111,1.727744518747225,1.1297486094541227,0.11599596380503518,0.6218794166421406,0.6153764699789028,0.7747606684688976,3.707894031412343,3.5905001519509834,1.084441551207182,0.6061403754021566,0.6180765742263259,1.6972374787512234,0.9972386023238686,0.5383859857678485,0.9164729274915169
112,2.280198658269123,-1.980517226744296,-0.23326317087896248,0.44206124218273724,0.42700049888267966,0.5711111906304382,3.917926340785459,5.375129155943601,5.066662436176579,4.0537428367758555,0.6333676938231112,2.2737817000583744,4.702966450410714,2.128231705849268,0.9376800526040434
113,2.038496595198315,2.7058008566934575,-1.4643807638745194,0.6017165953053434,0.5823604166551258,0.7011039389235069,4.442603260537029,11.012488655727909,2.7223859172141847,3.7441102380738625,0.6153451465759925,2.0373190598265967,2.683137281619291,1.5166246128283627,0.919000205099933
114,2.097983125948292,2.1640474039697253,1.1222007507962246,0.5178552193796057,0.4837687478676327,0.5954774899320079,3.3938470748891634,3.2992431629473615,2.461114500947896,1.23493095435596,0.6447042257417027,2.096022696827252,2.137583932728356,1.5179665089369412,0.9488549687138625
115,1.699436958326568,2.5523311424021315,-4.080289527905528,0.40550066947838453,0.3963133570094594,0.6045585486707035,2.9906409921496917,3.317569897855824,2.6630448536758125,3.8965891516888274,0.6380535849069913,1.6990587517170193,2.4947378894767414,3.524888854004705,0.9468887044059981
116,1.8873825688061918,2.2607925033703005,0.9941622259641028,0.5709392477830585,0.5314957147439989,0.750511594970128,3.6555003466798994,6.361508431771174,2.5043121279580176,4.440465763074279,0.6668815377411301,1.8844597245169754,2.247240624248894,1.6059836775660128,0.9497775930018804
117,1.748179066955328,2.2104349150748215,-1.0722280361686463,0.8491260306661546,0.8502704617037994,0.7714181243649136,4.173439191055749,5.1516939492804585,2.493011557485654,2.3013387699059455,0.648888643467878,1.7478063816995921,2.1455039147963997,1.611621319415044,0.9456943107620448
118,1.5571898370537962,2.098523637491402,1.3329839459200317,0.8929470220532634,0.8797856555316003,0.6906922711662979,3.4458123656287616,6.112139753090195,2.311980628041696,2.1379218062615677,0.6727386042041725,1.5552128088910444,2.0653851378064862,1.3702347201025453,0.925169763709082
119,2.2476562086290492,1.4797008217745429,-3.6317682135159175,0.8539192170413581,0.8290094820103198,0.7040719653650727,4.191879800149475,14.27023570743053,4.111152244835416,,0.5915533975974677,2.246309785026711,3.6438022678209836,3.9080149840306073,0.9347144609792066
120,1.4453791277476074,0.8783469229011314,0.36257670178172763,0.6523529705892901,0.6364129281239974,0.6339859607181447,3.461037510420173,3.8858861103932307,1.0282621536038283,0.8599509766776698,0.6309483474627791,1.4413373669550882,0.847016143792233,0.41338332829829666,0.931758839476434
121,1.5842641963212052,1.0741976456663664,0.22292286192593336,0.5748270221404859,0.5617220236208862,0.753802779244782,3.4099791889077773,2.956837320296569,1.1777763578402796,0.8191334479483398,0.6153451465759925,1.5096931355619099,1.0026532299848723,0.6079418279510211,0.9337588469380085
122,1.8903923567418888,0.8728754505898397,-0.07387180906075264,0.980783236013471,0.9471917196709334,0.7679912025900835,3.718333899233745,3.525299816134688,1.3971804780878372,1.2076354175909185,0.6619902821573977,1.7401162360762166,1.2021805946848676,0.8653661593428192,0.8963762124018227
123,1.9451191127120537,1.0082194426103517,0.9968394239795026,0.927745457875462,0.9043707248134236,0.641941595044804,3.6057335109884336,4.201665511139023,1.9533668574591887,1.9973632317336487,0.648888643467878,1.7297240783086023,1.7347681537258668,1.7713721198670178,0.9207984491558608
124,2.2345952713797312,0.30445770241043757,-2.1720143109088257,0.3821751187299277,0.36125108249447574,0.7742140087076139,3.252334160922221,3.939023651543081,3.968990468057473,3.000081935970012,0.6333676938231112,2.2278899916471047,3.6267153727436803,2.2207550747464135,0.9335662177192128
125,2.322408885934866,2.1358292989797842,-4.439120421537115,0.44840832455981483,0.4424309553438236,0.7452472214000814,3.975013089104451,9.193431706766239,2.4773263201198956,,0.6008849035917525,2.3182629057132753,2.1588072776475,6.930494765951626,0.9383240940508819
126,2.1750664711482215,2.152260311570736,-4.308209019341422,1.0909412532864482,1.0926634411090161,0.7142518531572988,4.200421958724954,9.221259964701067,2.2369690339514183,,0.6528756675646988,2.1745828468553947,2.154640522899337,7.078341579557671,0.9065923948438259
127,1.5663853729042772,1.090413835597119,0.2550532716687717,0.6139559645764893,0.5931929674673084,0.7502794066209871,3.4144671372581246,2.1460462361443153,1.1267430277068173,0.4563092772099909,0.6547956803312163,1.5584279915263555,1.0424134030604106,0.4412839185369353,0.9406867001281375
128,1.9422390944555423,2.81855282580151,-3.489101160581071,0.7084639293900246,0.685089845515467,0.6586465817770085,3.605104705546505,4.596477942225068,2.8916430614709094,2.7617131770587364,0.5713653840954815,1.934168244710843,2.5838053962470933,2.1360011172481013,0.9489381626551674
129,2.989916652430702,-2.6695646605764773,-0.22708917221675134,0.47535240909767135,0.44430648983789883,0.7107295377942365,3.487361940119623,5.010767771097511,4.435343003166103,4.018651516964585,0.6284777104787076,2.9401924528801207,4.204692619390966,2.4709204078132605,0.8766385949179187
130,2.2540028682739934,-1.999028515622208,-0.1785032991416458,0.34276676327835637,0.32188330238494134,0.5031548106568452,3.2268212056775663,3.5893531595394097,5.219068871182172,3.2319782783938167,0.648888643467878,2.2499926428748753,4.840084192901217,2.9311937524164198,0.9507435039703531
131,2.112009843145264,3.414289131348141,-5.436722773274281,0.2589220734535198,0.21048649486851054,0.4997258854948813,3.183242225474538,5.411995382872487,3.4296960379318477,4.244648137261201,0.6284777104787076,2.1104048853836592,3.3596238588463168,3.8580946634025906,0.9408992406336971
132,2.5944176111879496,-2.5213125003725456,-0.05631334468807013,0.34204870861265124,0.32671488366907425,0.858642292999145,2.81323145292664,4.6353816906327605,6.243000395318131,,0.6284777104787076,2.5929373940017055,5.679133339381547,2.4423470353692043,0.8294288842739906
133,2.5508561930143308,0.6139385667945461,-3.164794759808877,1.4162236786332163,1.365063734015041,0.9345218309035241,2.923352222115402,6.650914708355168,7.4639735925081006,,0.648888643467878,2.550619193153382,3.744957967802477,inf,0.8571292439402081
134,2.995302016746407,-2.995302016746407,0.0,1.496304443814208,1.4671889570259709,0.9486703853136111,2.934879564267286,4.556005336495773,,,0.648888643467878,2.9952879278457245,inf,,0.8616321231183571
135,2.7824828258188647,-2.7824828258188647,0.0,0.8061444096890663,0.7884101367649298,0.7971249360958254,2.847760179065319,6.68089867817558,,,0.6380535849069913,2.7815173529840824,inf,,0.9011588500816639
136,2.5701585791858226,-2.5701585791858226,0.0,1.0414369424667573,1.0221454536499741,0.9281071321004052,3.190842662582509,8.31024175279976,,,0.6309483474627791,2.569593457955194,inf,,0.8723518929112047
137,2.787679910357892,-2.787679910357892,0.0,1.4280532800015266,1.408354158368058,0.9128953561921644,3.05051638264137,10.181450293966172,,,0.6357360191111145,2.785471348070795,inf,,0.8892081250704686
138,3.1466015290136,-3.1466015290136,0.0,1.6068009709312885,1.5651566830145327,0.9585609763659856,3.2238232146467123,10.220750766238885,,,0.6602640781246099,3.1434591855834464,inf,,0.8543445228357548
139,2.720752968094752,-2.720752968094752,0.0,1.675857090980689,1.6394211431469827,0.916368858786143,3.504449259663747,6.87335691724866,,,0.6602640781246099,2.720291487524564,inf,,0.8949606374467833
140,2.594662971185746,-2.594662971185746,0.0,1.5670862123914997,1.5162517871756593,0.9425291232701504,2.9674574785100543,8.475936639577025,,,0.6284777104787076,2.594423941027351,inf,,0.8865032118510284
141,2.3055846663433814,2.64315369844028,-4.895071693069406,0.37904119396407693,0.3647227062073584,0.760876664224527,2.808653808929122,3.294050430830678,3.360061699207438,5.036724943148683,0.6790044388599258,2.304253150094743,2.6496868003249676,4.844187086458591,0.9296055008795455
142,2.6084214638429457,-2.6084214638429457,0.0,1.0120300440655547,1.0105007220196827,0.9046694484402464,3.019592255981133,4.914798165987483,,,0.6180765742263259,2.6080540479435346,inf,,0.8728764013878779
143,2.6757639862691867,-2.6757639862691867,0.0,1.2478708287312283,1.222072859193056,0.9641891954968568,3.266317654719314,8.904173470579465,,,0.6447042257417027,2.6749378496520078,inf,,0.8688557581779713
144,2.6067338888486735,-2.6067338888486735,0.0,1.4533338612034221,1.4115125182371775,0.9417775867341183,3.0672613086403078,3.821492677889586,,,0.5978297680564633,2.6065471157716886,inf,,0.900455435770544
145,2.490349582390701,3.2100939909999857,-5.700443573390687,1.4515646986051562,1.4207657671691218,0.887751112170592,3.2374880401730017,6.479055837334086,3.210189317276091,,0.6309483474627791,2.4902542561145955,3.2168671198071204,inf,0.8825548026447334
146,2.5462031412981334,3.1268646788377747,-5.673067820135908,0.04466961139416602,0.035205929112105704,0.8378899427868373,2.5819506987614282,2.4301856785194733,3.151173320499397,,0.6403206450210053,2.545931351625775,3.1512065803117575,inf,0.9236263362845996
147,2.921751509629102,2.6429186450515685,-5.5455523913031355,0.06236667603779547,0.049745843562130417,0.8775603066924563,2.3879171031945505,3.574511218116727,7.094586222635627,1.3795941873493267,0.6207552362147116,2.9200065630258556,2.8073857772694795,5.680172609017068,0.8980664722807778
148,1.854249101769456,1.8660795882711156,-3.662975399907967,0.19047823255580146,0.186163982748759,0.49017109447291424,2.576490395569864,3.134192229841704,2.2207670758228355,7.320423118488729,0.6309483474627791,1.8529967786992445,1.870244102932003,6.585711779013045,0.9426067052592136
149,2.421724302459373,2.294016912300281,-4.715741214759654,1.6850414767219073,1.637791045907304,0.8772550896094174,2.3523178088462604,3.2885610175447173,2.5369783513291617,,0.6403206450210053,2.4213686289840126,2.285465210780579,inf,0.9058306648616887
150,2.50348718528878,-2.50348718528878,0.0,1.6066857880367387,1.558113103551297,0.9035363384879126,2.3227793146366147,4.845085887263453,,,0.6180765742263259,2.5026633713772592,inf,,0.8910845176182757
151,2.5472868971170732,-2.5472868971170732,0.0,1.6115543642851327,1.580806571579466,0.9154015109726298,2.262890648048097,3.5300502773352385,,,0.6447042257417027,2.546498405794641,inf,,0.9020416023016196
152,2.7021645136362227,-2.7021645136362227,0.0,1.2891208350333034,1.271802393866339,0.9207224170195242,2.254288898514742,2.5650338437090237,,,0.6547956803312163,2.7004127739729986,inf,,0.8917186871693823
153,2.692648631008921,-2.692648631008921,0.0,1.440386304693557,1.4108893925847996,0.9199842777119835,2.2008446924284146,3.313695874324557,,,0.663668482632973,2.692012823404586,inf,,0.8757085472488408
154,2.728313381869786,-1.3556313173743697,-1.3726820644954163,1.6431788191687295,1.5928377863414218,0.6912917673621495,2.393177324028143,2.602202501379492,6.275588944364977,,0.6233814453054027,2.727402929618025,4.403495900678322,inf,0.8837804494549738
155,2.625749168521782,2.235833143232818,-4.8615823117546,1.476251138432279,1.4430860893516897,0.8119561630275631,2.13127068928079,3.2557244396032567,5.310369312062447,,0.6380535849069913,2.6247819319192,3.241519472234776,inf,0.8772673444772696
156,2.9855997928061653,-2.9855997928061653,0.0,1.4191787983497373,1.3671093252266284,0.923042330309814,1.9652602180770622,2.892367509736828,,,0.6684167106117298,2.9842429735062352,inf,,0.883500323853649
157,2.3813446008034007,2.0867481953880813,-1.504839472673571,1.4449186949469355,1.444625079889742,0.454470874077222,1.965319637847195,2.7041246362881717,2.254007128722416,4.45920794488402,0.6125606311107803,2.3783868064103277,2.0860557200826464,1.8996973059001816,0.9118647690047963
158,2.8017053985744185,2.8034130314485313,-5.60511843002295,1.4305753088557547,1.3877052411948165,0.885787922222247,2.122425702961023,2.460688438338807,2.9192689890625423,,0.6284777104787076,2.8014455487017633,2.9225396332719575,inf,0.8917854816833113
159,2.8281915293431727,-2.8281915293431727,0.0,1.3810698594286874,1.3534513479049928,0.9196577120091716,2.150012121525953,2.616845614302819,,,0.6566669596287297,2.8227131094223497,inf,,0.8851198080670949
160,1.9770320780073067,2.2335225509394405,1.3902933308283796,0.11826719857387902,0.10460023978950984,0.600730232129944,2.510827815546987,2.917873379524667,2.64292076329684,1.0595973254271742,0.6509067234006624,1.974641182880573,2.178745919975311,1.4611642380723744,0.946460999510651
161,1.999585455775475,2.572799608772746,-4.019663643886615,0.41890213662930376,0.39132315288437086,0.4502040811990493,2.9395194030359826,3.191673729380987,2.7433307510333447,2.7826739651612313,0.648888643467878,1.9969812459083423,2.4426745016021756,2.5490685940052864,0.9461031343648131
162,2.5669164792856587,1.3404047325567063,0.43792917586843005,0.29733189336949206,0.2781988499210546,0.7571079753441284,2.193953559184069,2.3890472010481436,1.6415485775341696,1.1787192226596244,0.6357360191111145,2.562651998412853,1.4504198436805111,0.879780416346508,0.9029134053754558
163,2.446993293739828,1.4677885213523667,1.0891644908532654,1.3451247433260027,1.3378033686954984,0.9092732088720065,1.8284674323456296,1.974565284968246,1.6467160215690262,1.06413255079047,0.6068309995095971,2.446968810447608,1.4739828257248393,1.0963726460746048,0.9254974631776101
164,2.636749834541854,3.063693738848833,-5.700443573390687,1.3729950640754354,1.3652118219638103,0.8551514798852399,2.263297340983012,2.2768644883557885,3.239394542523651,,0.6547956803312163,2.636039665125938,3.0710817107957777,inf,0.9215163651851759
165,2.4225385354719062,2.5847578573588352,-5.0072963928307415,1.1947711776009953,1.1481650476200664,0.8484999916833912,2.1773052902567107,1.8737420542901853,2.584926261509639,,0.648888643467878,2.4223701313211023,2.591604064040668,inf,0.9169266671682845
166,2.4548791147945006,1.619300045992929,1.2158648069327729,1.2371022929936808,1.2183437546858764,0.855658990132292,2.020115885954256,2.344720236321409,1.8689469842279607,,0.6153451465759925,2.4544421089841806,1.6090499897551553,1.184977462081133,0.8950086103803676
167,2.4072182557684547,1.9069309565023413,1.3829442742346085,1.1300481370791167,1.098481403238617,0.8267594191965795,1.8895080575250816,2.1651885155897252,1.9960860216752982,1.293802322705958,0.6153451465759925,2.4072051421241483,1.9136218726776768,1.3896444480051726,0.888249014176802
168,2.6127400212978853,3.0877035520928016,-5.700443573390687,0.8650350675447313,0.8591442169641388,0.8370900827465206,1.9924006279542112,2.3136952905847363,3.087703552092801,,0.648888643467878,2.6127400212978853,3.0943813546238306,inf,0.9047454224720112
169,2.3234889574065947,2.510920330312453,-4.7189763498593305,0.1581806884875931,0.15106972087812712,0.6478375380846544,2.2992281068096085,2.1470165193422956,2.727395532667409,4.266487680869166,0.6380535849069913,2.3208622177943976,2.4008417844496455,3.6901286735143684,0.9352120701453218
170,2.588772905027604,1.8796446975504328,-1.3217106639850447,0.16280166969132603,0.14403497663888887,0.7958450177488539,1.5967544935057207,1.8028162022784078,2.530235729314223,4.082073343402081,0.6008849035917525,2.5846533229582853,1.889488600623402,1.2669963376182827,0.8764346179742086
171,2.4573960146183627,1.857391940916032,-0.3498280818628552,1.5780219178024013,1.5490288169843458,0.8855472939816884,1.3845977071506126,1.5154819613578185,1.9027026724423333,1.196981042858307,0.6153451465759925,2.456772810544229,1.784526164634535,1.1141768052092214,0.9134229488011592
172,2.5068286735258605,1.52250098572868,-0.12260894912295983,1.603266539171717,1.5783426901831799,0.9268712037732362,1.4783934216027856,1.573883813034748,1.7972560869514163,3.403622115668592,0.6547956803312163,2.5044293162768643,1.5031261158728455,1.1754510878873325,0.9137971500623928
173,2.5108947803932606,1.8320110098091167,-1.2916695477101903,1.7529982607585206,1.7269664592039067,0.8582683117617259,1.3876104208119224,1.4929727275944997,2.129568438175671,5.656260306365382,0.6403206450210053,2.509745939801646,1.798617265957664,1.7101300137365913,0.9211132708519266
174,2.246988689371858,1.0272372610883553,1.0505017560229994,0.11826719857387902,0.10325191551916052,0.69118609538819,1.1256210874223904,1.2192135827396835,1.1237914388496013,1.1504278868773594,0.6468212168108125,2.244735560007271,1.0289485013559245,1.0785680446094548,0.930648453945318
175,2.6060461888138726,2.389481038741556,-4.906916402418358,1.0485632137715648,1.03236900541739,0.8145756177235287,1.779323025171144,1.611522156750772,2.3916674140319625,4.454269663243437,0.663668482632973,2.6023397466800957,2.3934069349224094,4.332376726030061,0.9273866908272527
176,2.3164295063814397,1.6162926678641751,1.0231616724621921,1.2485260944811218,1.1801798486549413,0.8624725418347833,0.9625417387356212,0.9991573594512991,1.8104253721360288,1.0407569515966157,0.62595550513784,2.3125232016996824,1.6006115325811543,0.9376518588735231,0.8949917640521196
177,2.5237275760193474,2.697807019767805,-5.221534595787152,1.2491998661927046,1.2344968845910427,0.8707492849820602,1.2017648267794725,1.4916292109746532,2.718559994179772,,0.6357360191111145,2.5232317641096684,2.6577965159152686,inf,0.8640321959492612
178,2.3652342898404752,1.1858931122662737,1.0870765085300835,1.4331471316089477,1.3923821651847317,0.9259990573077931,1.1462419535142965,1.350641005352247,1.3476315095286762,2.110059130916467,0.6447042257417027,2.3643423003879014,1.1876779710088377,1.0733526219088718,0.86931744548168
179,1.2424160925932641,0.6330370577779096,0.45101953440224185,0.11076939664562824,0.10576274342617402,0.6186134138019876,1.5994160626617613,1.5588753067242165,0.755693036500506,0.7494753891190727,0.6207552362147116,1.2416746715099476,0.6338287911510683,0.4374687232195169,0.9428653211195063
180,1.011981390819901,0.6136931016612683,0.5038854582377255,0.2602946548662997,0.2175743571533897,0.32862324854137753,1.3947011532171536,1.5988002724761046,0.772431342551633,0.7916894517227064,0.6447042257417027,1.008923942404579,0.6174340890805278,0.5048915569275799,0.9491198981284181
181,1.7110311147024841,1.579654329187456,0.6959631533865043,0.2554429354324269,0.2290322717902053,0.6688230674605433,1.2683306680391984,1.5855769348561919,1.835937445209663,4.493109496559701,0.6652988471865258,1.6978442012549706,1.5523503068706574,2.395319058406597,0.9122464197465894
182,1.9360319898183818,1.1958606306126573,0.9642764531271042,0.1963043554646035,0.17862801877806184,0.767915997173657,1.1798544014370385,1.360158013659886,1.47928137129801,1.3802705485519793,0.62595550513784,1.929337132212618,1.1747230182270012,1.0686063785579512,0.8615830134019592
183,2.5551308644464013,0.8138331112947172,-3.2565833927261103,0.16284881740593724,0.14356479575844006,0.8633113352565126,1.6501684645772041,1.798908522423625,3.186167709869586,5.656260306365382,0.6038851895711802,2.5517589567758407,2.874391781282081,4.035504062199167,0.8634290694443834
184,2.364673971545923,1.3389673243675628,1.2157261384305524,0.10060391803536387,0.08884434230917865,0.801788978137292,1.5097506283949569,1.3743796538170505,1.4207726496268114,1.4846817399919465,0.6068309995095971,2.361863399277866,1.3283502778492067,1.222085716248321,0.8869658007802395
185,1.5402643897065127,1.0032940164259168,0.9044298291833117,0.3964150707444861,0.374404117289146,0.5984036951855247,1.8728921451424858,1.8037279719839474,1.207621817219245,1.0587959378422764,0.6425374456860184,1.5394455406140655,1.0054942392894146,0.892230262217493,0.9490697341304464
186,1.638781367892142,1.165866791895115,0.776558966549501,0.4866792659639251,0.4673784747134703,0.6448204243454018,2.347291686335958,2.112347500761355,1.3262683516681755,1.6722724687386579,0.6333676938231112,1.6375516481762447,1.161700516352436,0.8040614012556088,0.9474871007613364
187,2.2173354418787516,1.6856450083940815,0.690670692115424,0.2920994119318466,0.26515938423331326,0.8088877547080123,1.80913926421392,1.9014755836104411,1.9412725390099832,1.4197016409317127,0.6403206450210053,2.2161016331059087,1.6931474454395123,0.812454923698622,0.9045687851856705
188,2.4620279004485863,2.1398033842739914,-4.601831284722578,1.0074392369807434,0.9731553847222145,0.8944952292658369,1.8050095580089187,1.873486286024429,2.1399899078655724,,0.6357360191111145,2.4618413768570044,2.146667710396602,inf,0.9081759283007813
189,1.0554580200965975,0.54827785651379,0.37309547384068664,0.5177489597748051,0.45849479398156534,0.5556759037643083,2.308766440879859,2.190765599064501,0.6493798554992852,0.43015230705461527,0.6425374456860184,1.0450083325833182,0.5337387325299856,0.3488321272572862,0.9331098700506206
190,1.7753176240709692,2.068070506746503,-2.3733458223705552,0.6480609406112486,0.6380746227207996,0.6610701698956912,3.196738396903136,2.3244260334028786,2.2642932467290375,2.5388310978338713,0.6038851895711802,1.7707810628428633,1.9823406599994267,2.1171089594515755,0.9445962313607323
191,2.319505065980566,2.430125181949889,-4.463714633059653,0.4184275477353152,0.40126318871932076,0.7464019094943507,2.538676387200633,3.1737548080361253,2.6431202882063842,4.249700247785908,0.6584896970785714,2.304141859682297,2.509009629880327,3.375537634881578,0.9084527394627778
192,2.6777431517994734,2.329553241031268,-5.0072963928307415,1.2687357892074962,1.254922025110759,0.9027647707202867,2.2145962630212477,3.9251543597039924,2.334579324466864,,0.6309483474627791,2.6760671552491595,2.337907040112611,inf,0.8495419344953479
193,2.730328231839475,2.970115341551212,-5.700443573390687,1.5355522727594975,1.5034532779826206,0.8868863516563954,2.398140390679657,3.3992928529405955,2.9706588801424703,,0.6425374456860184,2.729784693248216,2.9773366826734993,inf,0.885647758929625
194,2.432355596360153,-2.1463801662569413,-0.2859754301032117,1.5656456538448758,1.5339141268904477,0.9280901073775403,2.5650338443437986,3.5343681497873156,,,0.6357360191111145,2.4321877054557715,6.26732704275442,inf,0.8744993485028257
195,2.443956827987089,3.2374217167300503,-5.681378544717139,1.4199108205342013,1.4068631328965204,0.9199592608024671,2.9751680169455383,5.570203595907666,3.2600289538191434,,0.6619902821573977,2.4437647064568253,3.2667067563501724,inf,0.8816393100937723
196,2.676050715651083,-2.676050715651083,0.0,1.6791671140566287,1.659690672921583,0.9431205950656598,2.8417572034194127,5.7866414726761946,,,0.6333676938231112,2.6757443663502944,inf,,0.8830469579945984
197,2.4094643729965997,-2.4094643729965997,0.0,1.4090429225474592,1.4029301582492464,0.9312972600887788,3.0758612874923625,8.863890200976455,,,0.6333676938231112,2.409428188612095,inf,,0.8652995252783211
198,2.7778010678316476,-2.7778010678316476,0.0,1.3852580271593617,1.3555124689798899,0.9289648100753553,3.0801288895026735,7.227113559763115,,,0.6528756675646988,2.7772216599635087,inf,,0.8915994805050854
199,2.1963743078133797,2.8386783432911455,-5.035052651104525,0.22028836322431097,0.17936319372914822,0.35943376453592674,3.1934229987771827,7.989136792038188,3.614274310297994,,0.6447042257417027,2.1956258559725224,2.907490290917899,inf,0.9414560391806128
200,2.228146114414898,1.8724783462978336,1.4771104510270598,0.18683165482699773,0.16046385790924403,0.8296005598501368,2.7059686731112724,3.082456828629051,1.9953178476673161,2.375291696827892,0.6468212168108125,2.2277868829188594,1.8772816426662169,1.6189166563886441,0.896284546858748
201,1.8952438591697016,3.0381149554100695,-4.72022763480076,0.2286284036166141,0.21433088637125183,0.5277684194362826,2.8808805405175955,4.200323378615954,3.1857358594041747,4.2346265788001825,0.6097226960127671,1.8943829931266158,2.9507378624920664,3.5179216559702966,0.9593679238362441
202,2.3758589236074803,2.3059805262601865,0.9387829831275978,0.06698765724152846,0.05078307728829083,0.8619185286218174,2.4161270481961417,2.2853675839232177,2.6360878870968882,0.7380935956515482,0.6153451465759925,2.374558592619135,2.299604464855908,1.0498221244986778,0.9118268340210874
203,1.790136711468389,1.9810292294874006,-3.7711659409557896,0.4069803298022334,0.37664479155907254,0.6123058023552834,2.56375358361757,4.732169833564631,2.2740556904552127,,0.6233814453054027,1.7898945426185426,1.9823665204344447,inf,0.9450715318385579
204,2.5182153448027695,2.6233387235751295,-5.141554068377899,0.2678618456678791,0.2576646096798932,0.7072683099142373,2.4602751188237626,4.217721678985905,4.741286301694074,,0.6233814453054027,2.5164661186957664,3.231616614857015,inf,0.9202798311990382
205,2.006482558435189,2.5653707842289055,-3.453209292390339,0.2424924377447815,0.2275304653071982,0.4938366148849835,2.5052136925108144,4.137618820791479,2.705669570707199,4.892382634419945,0.6180765742263259,2.0043752986556105,2.4746518324921265,2.7854030917731327,0.9486573401550173
206,1.8208475673717217,1.761863719939675,1.1499854434883066,0.507298657249826,0.5009314061699156,0.5509684395920794,2.985554833852524,3.1076278915665725,1.941153576702178,3.443768256898374,0.6284777104787076,1.8196103973838313,1.737071887118719,1.4211631867707146,0.9444017966026382
207,1.8446532456869356,1.4230123176301253,-1.4299803599786367,0.34409218747714665,0.32293538095161245,0.4733342945468823,1.920841049841408,2.164119570644944,1.5174002609519144,3.0158223331509957,0.6153451465759925,1.8436845420929744,1.4145675635840835,2.368569327843015,0.9501057339140206
208,2.6302466687427506,1.7297743213387635,-0.7989552219836926,0.04466961139416602,0.03632670005918459,0.6714518610478322,1.306391811241643,1.628951078780712,1.8237000966312393,1.9166949529171144,0.648888643467878,2.616839321048826,1.7894800061941003,1.7385554331645905,0.889338657508829
209,2.323946164886282,1.3302884195014326,1.507879534571424,1.4712729572454155,1.4627422670644563,0.8998363161867438,1.4196101315775043,1.7013057539632008,1.6273392730634044,2.2504225451467246,0.6619902821573977,2.3234683039104698,1.3296150979315493,1.4853852637641216,0.9116858583486843
210,1.450328792781924,0.7960540228709903,0.81414545402514,0.10234807851457901,0.10239085980114364,0.3745034478483148,1.784400192470173,1.9497827872136955,1.089379843816715,0.9053472702657247,0.6652988471865258,1.4500154386777435,0.7997663893971519,0.8106667601987868,0.9580540394659708
211,2.3196214072002515,-2.1127579001131647,-0.1053865527285762,0.338272603789854,0.33407730809921227,0.4769504204297016,2.8654095124843164,3.908941326509753,4.338470201757486,1.8024510381693601,0.6180765742263259,2.3088267539175216,4.0947918894494215,1.4485982444560455,0.9517996550065844
212,2.6241070595760068,-2.4504417652034065,-0.1377557648677317,0.2767218184769723,0.2228544913419055,0.8125753667601132,3.1480745537946144,5.91062618345839,5.522598648179365,2.1527840755828085,0.6068309995095971,2.620191960580526,5.290865427265396,2.3978952727983707,0.9374104065361704
213,3.030935688347892,-3.030935688347892,0.0,1.5235750568446726,1.5056398788201513,0.9261420846522876,3.3263243359454084,4.855168820879191,,,0.6333676938231112,3.03032371832361,inf,,0.897468532704968
214,1.9386860911156119,1.9590845484624235,-0.9035629321208849,0.15383759322861115,0.14337415830116984,0.5977476904243335,2.744560098093081,3.029167459382322,2.269150094833488,3.4779113366270713,0.6547956803312163,1.9335534748459418,1.963033722452365,2.2227107213195603,0.9540434592785336
215,1.860204544136838,1.1510308787772907,0.2942812972755524,0.6482035070907353,0.6338550789751026,0.7204335258419721,3.571373556244988,3.2182003490426188,1.2985779057522586,1.104328071515174,0.6097226960127671,1.8571872745505102,1.0897548348340487,0.6799019538099246,0.9406335492360036
216,1.7580238926008538,1.4832906249108184,-0.20618019349172645,1.1609527329103184,1.154410773053176,0.6991065842217847,3.6365098617195204,2.644461729124211,1.537115479480939,1.465498518283488,0.6403206450210053,1.7425884252216055,1.303969415863888,1.1225102673325438,0.9478975280255212
217,1.9463012459937359,1.8353500340807913,-1.2198658465784602,1.2451785244079738,1.2143085153286204,0.7799956566842482,4.138014952805922,5.702101453957627,2.0738447368604365,2.849646430694617,0.6468212168108125,1.9380963123024995,1.7633056668103273,2.2381028290644442,0.9501470591098553
218,1.5862935243025345,1.3573272429346253,0.6647224699578094,0.9219243004504595,0.9209344092700714,0.7884258292102008,3.8701555763689757,3.369511404241226,1.5079788907035157,1.3166803619387575,0.6425374456860184,1.560118787659899,1.2678417101148687,1.0746623831414635,0.943720594823787
219,1.4620278271568459,1.320932612694768,1.0965731106690368,0.7496959485502549,0.7292872930925396,0.7233687308351631,3.387729438136458,2.5698244896914733,1.519607207439316,1.5644617268187475,0.6357360191111145,1.4557635364977235,1.314871539796108,1.174714933250382,0.9484212816654826
220,2.000188019563228,2.458667936732037,-4.034859248367412,0.6789386314091806,0.6666001943835517,0.6897525979937374,3.5209798715294833,5.837841776940664,2.504044765270822,3.847491922836001,0.6068309995095971,1.9981278471805626,2.4054629654091597,3.569986932237534,0.9428803448050411
221,1.5608710742134644,2.4278832970204136,-2.5500294317618044,0.4582495351536492,0.42431607421635154,0.534446442521242,3.3267636048215055,4.368100907014005,2.6497888628855333,2.4857536816528194,0.62595550513784,1.55816406268004,2.2794732313897104,2.068669444697925,0.949576018869508
222,1.913686621359531,2.163363602870416,-3.437026208276925,0.6529368552294944,0.6403412926616324,0.8011998888067159,4.273287161582845,6.985247549036493,2.2448398571718524,4.145055295664876,0.6584896970785714,1.9132493668157649,2.1573786687890197,3.4249139082794713,0.9386240218499414
223,1.790221623933778,1.5405522772574238,0.7462457615506382,0.5858219616097613,0.5675313942461758,0.6832008547342265,3.946593584570258,4.781430230041847,1.7144006048279403,1.233497958319909,0.6584896970785714,1.7895618856845676,1.532208362346266,1.0709803500060238,0.9314509959962786
224,1.8616414832439387,1.9968420662215278,0.4163270052558632,0.6332036449944952,0.5950467061097182,0.7711424335400496,4.407393501690151,6.375497999405487,2.332935113962568,3.3739986863432505,0.6403206450210053,1.8586117762158956,1.9702963225017438,1.528923395362805,0.9409129300955743
225,1.6960270686058048,2.0866692341861537,-2.504791352797982,0.8619536163382967,0.8427867881912553,0.688155373553777,3.865514049160063,5.077098081150526,2.239609010803263,3.4716868465827213,0.62595550513784,1.6939070690605504,2.0133626768317345,2.7304819038441166,0.9447865008795855
226,1.8761650896111917,1.6122802963128473,1.1290306176003746,0.7261181160119009,0.7066689605263424,0.7061792716464442,4.039746477302578,4.775871434223493,1.7141982035846735,2.3485177415746366,0.6509067234006624,1.87188551370734,1.610883521648627,1.4934648320229564,0.951173626051227
227,2.2106109292210294,2.229116553790653,-1.8658074187950722,0.9479288746346329,0.9343288448817526,0.8380751484457237,4.163361681054777,6.435507007107649,2.826030057007524,2.9257830694757274,0.6097226960127671,2.208386642042411,2.1970223528663695,2.0749022692464165,0.9521000202940065
228,2.2999306495915053,-1.6055357401194947,-0.6943949094720107,1.1570170214228357,1.116639160110737,0.6821794598684263,3.6961777699623206,16.97075830739888,4.043013595942798,,0.6509067234006624,2.2952785178116075,3.799080452459007,inf,0.9469909530259244
229,1.8362089279739713,1.8716975972286292,0.3963687708693455,0.29474661112781414,0.28079244791098174,0.6482484430164329,3.769171336304742,2.202384793696117,1.957915289162434,1.5286297665098145,0.6509067234006624,1.8345973832381552,1.8587364212251614,0.8155166105190976,0.9544800193042043
230,2.6705863112833983,-2.4984290984191997,-0.1721572128641988,0.21302129952620003,0.20379277612724478,0.3515740002154634,4.23673252749566,7.8542791276486295,5.742715183377224,,0.62595550513784,2.662439689850158,5.567071429114299,inf,0.955821981196135
231,1.7849453656859728,1.9077128936522454,0.35870098251002336,0.9654273626680261,0.9506607013283696,0.6545408452445078,3.5965051886724586,4.831238560586824,2.1033900876992986,1.5048638889906305,0.6380535849069913,1.7600670224955652,1.8938743802570905,1.6577989841275216,0.922469963371772
232,2.0813243090529245,1.8989867735205714,-1.2035327841577717,1.0392974733383054,1.0123961420093752,0.8250930798347883,3.74028447709926,3.2267242569141836,2.4148730583684492,2.6244985692321734,0.6125606311107803,2.064355904261795,2.038693098590452,1.840684141434545,0.934890642946001
233,1.3525291423237877,1.1330031682809258,1.0318287817632474,0.8754265657709607,0.8626304188720103,0.7243648984815951,3.5049397934433415,2.759218096545493,1.3834803851448498,1.3584834271922837,0.6468212168108125,1.3497267369463495,1.1237784901172083,1.0078181990778823,0.9490847071206869
234,2.0678740503360826,1.7827570043134333,0.7448223358477764,0.7667470482988863,0.7370945351626713,0.7815018667134322,3.9372749921682013,3.6902888848306015,1.878287690017487,1.462724508436823,0.6403206450210053,2.066722769272061,1.7750488976118266,1.3353118348500326,0.9329770425903482
235,2.027223762357814,1.7393631479133407,0.787083479143484,0.8229583968131036,0.8219550575523527,0.7994845423596267,3.740194877478508,5.9773339617762105,1.9463413812033903,2.2970746873590704,0.6357360191111145,2.026806925045089,1.7372751171901122,1.6176169332518864,0.941808135709098
236,1.5661194859543244,1.4436087902017118,0.31704424025374855,0.759487510044846,0.7329910495679055,0.582385780645148,3.5004999323687525,3.7422311339902437,1.8121338581583804,2.2636953303027494,0.6509067234006624,1.543806239005271,1.3631014875309932,1.087893205349575,0.9146071972936437
237,2.066099387318468,1.2268602373015478,-1.8965832477244815,0.6512598951792246,0.6010314887114746,0.7242534891883274,1.660388848110895,1.392344748484365,1.7363763885681354,1.1379471644705572,0.6509067234006624,1.8997902134417601,1.5565675793976708,0.9851829693668583,0.9498141734899247
238,1.9868073749138886,0.8154385919365352,-0.2688644709705894,0.6816970588741335,0.6370842636652659,0.755541126808029,1.7708823776127651,1.6281307506758322,1.6502864616316455,1.6392381408830632,0.6068309995095971,1.816803810334316,1.3934977675637503,1.3567168421256488,0.9270421202377296
239,0.9315135203984397,-0.11096209276145197,-0.24634571684025441,0.5947936647754537,0.5698301489857807,0.3299306682735962,1.6819054704771519,1.1900374033131635,0.25418112917771823,0.18178607848213885,0.6425374456860184,0.5934225165207485,0.19096314447346796,0.10710406308052917,0.8987003782769304
240,1.7409775649717683,0.9901449468062753,-0.2583377558682831,0.774699977965418,0.7614689080638309,0.778006900580493,3.8681401221608054,3.152660773081736,1.0842936286443352,0.7903065993007037,0.6584896970785714,1.7088286285364134,0.9233413622304786,0.5384449104840554,0.9364139890142403
241,1.9370125985623008,1.4167157933119379,-0.9275413868469924,1.2961395366730366,1.2737223727263882,0.8558393409435715,3.9985001741735204,3.976033487394197,1.5739609651040274,1.3289754292436762,0.675384900321601,1.831956658979468,1.3630398920987896,1.0556120336185082,0.9098264730813741
242,2.0384021885959034,1.183849285789126,-1.5366417207980447,1.3441625886109525,1.3160068298612266,0.7929994070620144,3.7409796792737997,3.426529509982264,1.7685639339324437,1.4002134745520625,0.6333676938231112,1.848682616627676,1.518113338317147,1.0250565738803499,0.9180346207029035
243,1.9764322639617566,1.7164106605965126,-1.1019702306692283,1.2315650693854694,1.2161650542936182,0.8144972944632306,3.7282757427129694,3.727540830405048,1.8357723211800707,1.9930346252985294,0.6333676938231112,1.934168244710843,1.6232931594259772,1.4317386092393702,0.9448138831297361
244,1.6973040306298242,1.6559516926177051,0.45621184474507315,1.139849252412187,1.1172998809539565,0.7025292929186135,4.191617343524394,4.5419926950228975,1.7562194658175556,2.000115389802419,0.6713451011121618,1.6742727737723881,1.5365797683269435,1.505870129794507,0.9516224458074073
245,1.727274261100946,1.5955297832407236,0.12000393348770944,1.2283338565563324,1.211810118892362,0.7821824803040862,3.6962434396227444,2.91001783562469,1.6332687301675815,1.2219652431457435,0.6509067234006624,1.7102409280557995,1.4598447326429693,1.0650547114887883,0.8834164784524292
246,1.7657694631694747,1.4833341289718558,-0.1325739837526494,1.0142395306152352,1.0049268372367448,0.7782383530189523,3.6715534832571484,2.9947118432048865,1.496938701026043,1.2930437035788986,0.6403206450210053,1.7105482138032317,1.2584339446748443,0.9575906279648012,0.9032183407001142
247,1.6160684084239065,1.191156158994564,0.4024350214457213,0.7577538413858471,0.7173876625192026,0.6350255520914152,2.941111460558041,3.289314251323031,1.3995102520922162,2.181878526847434,0.6284777104787076,1.4938300803247246,1.2281500263109835,1.656497278527032,0.9284059342962379
248,0.9630647946261782,0.6473860701495241,0.7082914606429047,0.6671464995154313,0.655689581976125,0.6413258001911409,2.908348604848766,2.9805066055407936,0.7923853654949606,1.0183576541525776,0.6333676938231112,0.944033129222784,0.6235699684333683,0.6682583632949853,0.9477837173482008
249,1.1567255472570994,0.9329495644533767,1.4821470633474232,0.4597552250469859,0.4578037941214317,0.45497658249611,2.698621896657129,2.8311978155633706,1.1464833848146827,2.0298876898971057,0.663668482632973,1.142007034320634,0.9482483220183429,1.4711107774759997,0.9277252168498049
250,1.2243493714500804,0.9157453597047829,0.806304946324429,0.22068435247514884,0.21672910567292958,0.5969368244008283,3.1613262914654707,3.2398418274071434,1.1163913483568848,1.1444403415968156,0.6153451465759925,1.2183722772087144,0.945224119147521,0.8191099727427253,0.9626704255153196
251,1.5728644109415821,1.5227976395390268,1.7564782929543323,1.0453436616919471,1.009214857629162,0.7895521753391269,3.936982442163832,5.36582784328713,1.7076688147430434,2.043745340305774,0.6357360191111145,1.572035089959501,1.5258529633651743,1.6962926776081673,0.9130396332073202
252,1.3815272441202557,0.8550241907254406,0.8410130344197517,1.1747358927628724,1.1374736781580186,0.8114042159281739,3.698935155681464,3.924761505292462,1.0317388697755945,0.8829239535012129,0.6547956803312163,1.3805774007906615,0.8570525911805967,0.827809694007553,0.9223195915285822
253,1.5823055461497246,1.5777168984723737,1.0642111669119774,0.9690351611245163,0.9525349966345548,0.6573459245602084,3.2746557631479987,2.6025829127212776,1.8060316964197272,1.6004248349395795,0.6380535849069913,1.5808504555821878,1.563639657927617,1.233987271652935,0.9495364833629748
254,1.4917266429583844,0.9021624010427411,0.5993550474999347,0.5287962687985234,0.5061477953875572,0.7669859385063442,3.4335803071168134,3.0612975447034314,1.067622931382238,0.889373468608466,0.6233814453054027,1.4863357153001169,0.8607819516107195,0.6205671940879984,0.9283269956988295
255,1.2868579207632047,0.7213183548582864,0.3863033132677711,0.5016184146540817,0.5008116275116224,0.8129991279832045,3.364088670171631,2.6519151481204792,0.7758851245956144,0.9289625811771105,0.6584896970785714,1.275508588817,0.6333091787529818,0.4684908716200007,0.9439194298880482
256,1.4408202676439612,1.1097549443704517,0.6786732561270625,0.48363046002306564,0.46481547252274286,0.6956393647608327,3.1732888198270657,2.665161771646986,1.2565530404174587,1.1231411701633842,0.6619902821573977,1.431245238126604,1.0669493059883315,0.9160880770958751,0.9486894676629253
257,1.5924262797379336,1.185409426483407,1.2539512148053316,0.43720098729504736,0.41520314454492613,0.8281025972867497,3.5890173135120316,5.445364831741264,1.3077643467981446,1.5449136021796646,0.6380535849069913,1.591652569032227,1.1869989392535296,1.2486576526001856,0.9406781883895703
258,1.222344053664907,0.6487345990282771,0.5099908522998633,0.9417089248290558,0.924360815648994,0.8557485767810479,3.3082085435728086,2.865349136227733,0.7354927572951925,0.7198637707136167,0.6125606311107803,1.2193496841509297,0.6393333704427001,0.48183469256906586,0.9008956354127723
259,1.5383682560053507,1.3449260797946272,1.0277787237358122,0.7858106240647071,0.773992709881833,0.7319747332910733,3.7354549390436174,3.865623868732258,1.460651771220835,1.2928796123207686,0.6468212168108125,1.529959466490378,1.3030872247865173,1.108290701820026,0.8645104872384531
260,1.2792290469768879,0.6665018279343586,0.44978972165495557,1.082957244896713,1.046077567193143,0.7758701519242515,2.9026479233699147,2.362141865740731,0.7328858343293957,0.5649796427999301,0.663668482632973,1.26944015175085,0.6046869479126338,0.3788216264450971,0.8500580442128156
261,1.1812424425195336,0.8399754256614353,0.6248153235559379,0.5884252869321219,0.5729596290847072,0.6192912105977064,2.7624852661004446,2.372037665744471,0.8884114508652533,0.946415165055709,0.6038851895711802,1.1404417349419498,0.7255385333173605,0.5497735228403736,0.9016647508951827
262,1.1611499901090228,0.8164416035034525,0.7889013024482312,0.5425774078450943,0.5222076989082679,0.723894908909548,3.0027438891279927,2.6539877502946974,0.9772423233833861,1.0568144458597701,0.6380535849069913,1.130619084803196,0.8047028730687297,0.7412295761709132,0.9460681299801328
263,1.2984863414844539,1.2151647132756722,1.1319853836392961,0.5917590678902017,0.5858601711128542,0.5475739954764747,2.8899981479921166,2.9111860227244906,1.3624901863818057,1.6953501097633483,0.6097226960127671,1.2622298606682925,1.193635920335294,1.4084258216033698,0.9396567558093902
264,1.5601038842382384,1.0109982211144803,0.48684121890525,0.6989384024474348,0.6815475518804658,0.8508586194041492,3.8797295717164095,2.7791701753991433,1.0613630668046754,0.8738470460618482,0.5677978065141052,1.5516932507179375,0.9415144241094494,0.6438321794299448,0.9251264599366247
265,1.8079189807551905,1.4453384167611991,0.6448354964979957,0.7029484888850338,0.6760636098436354,0.7242510141338809,3.557445839083945,2.7618234777045596,1.6274527224934425,1.7416599799229355,0.6425374456860184,1.775099028334948,1.409107021498196,1.2573347123731455,0.948824610272174
266,1.8456201418527174,1.084179376821763,-0.9719365957613788,1.2164785274795686,1.1854707164997809,0.6861715954141893,2.946027632953521,2.4153341007852274,0.9358551654034165,0.5639457448178009,0.6097226960127671,1.5275507529619163,0.7777045685880083,0.4375588719886254,0.9059358076118731
267,1.9520992882813941,1.4896339235466083,-1.7309435892450156,1.2331565600772543,1.224832843798394,0.6087243475244614,3.483938818257796,2.6310039646513292,1.5650926921313315,0.782298971789134,0.6468212168108125,1.8448789915587165,1.4279251753350402,0.8050110933771337,0.9392564470410473
268,1.810747135699756,0.6321611755653085,-0.5430994081004865,0.8925679781194167,0.8702249815255347,0.6538329641239519,2.7274660661957184,2.622608009188676,1.1197838093532972,1.1007473269860737,0.6284777104787076,1.5046275480817553,0.9321240598191979,0.6941642159895886,0.9467854048587441
269,1.7308987670046652,0.8241600423144766,-0.46605769243616857,0.9363878715425447,0.9209646961592297,0.8239793531205414,2.750833628817348,2.1448603734579432,1.1266248480180454,0.8700375992866408,0.6153451465759925,1.5246883506803985,0.9890293809617215,0.6632700005238281,0.9500616293713302
270,1.6168141139831493,1.2547369104456036,0.053425967855628365,0.8946111634134687,0.8766893915610653,0.7625524295906027,3.347662947256105,3.6501161440012213,1.3021843991715585,1.2661524214440065,0.6509067234006624,1.5709653423179057,1.11011841055449,0.9012359050082321,0.9440696462179292
271,1.3723804182989163,1.0918606787503837,0.4985413413370172,0.6187756827793304,0.6077590428874544,0.67272091618828,2.835773057974597,2.2029817710182797,1.1387738741176454,1.2628429457794395,0.6547956803312163,1.3338705948454248,0.9741738175960384,0.957166260021105,0.9427632939746651
272,0.8851832982967592,0.7246668216583582,0.43027925539069556,0.32049460282828734,0.32029817922338655,0.20570465794074752,2.1560202473345274,2.305647720134284,0.9828049526913759,1.0560844333743757,0.6403206450210053,0.8099057411701409,0.7036665901679345,0.6795606280948904,0.964526219481427
273,1.1007275815283828,0.7295495347711254,0.5021088614972495,0.41994385764380077,0.4066216652491737,0.6544086035757886,2.670586411161785,2.2032877514257683,0.8121691352186619,0.7448478497377452,0.6509067234006624,1.0676628680241746,0.6319429130333358,0.5034356816002739,0.9516122147034203
274,0.85547800039779,0.578880082922494,0.4219239199046412,0.4761405571694822,0.46620014447042196,0.46897409677349033,2.29408981021079,2.4046727447575686,0.7152444982638364,0.9816079772450179,0.6284777104787076,0.8141102672229596,0.5024507558822557,0.4927516053704288,0.959818825495695
275,1.0596977086982193,0.6682723443053709,0.4555739450093437,0.39864333229594834,0.38057026842329844,0.5593051831187472,2.2336776474490128,2.147883411001362,0.906939562983537,0.9495450008370787,0.6153451465759925,0.9736256318751053,0.7149757452503235,0.6739696527987836,0.9559088733134425
276,1.3313888542811085,0.9839617727862269,0.5105566912232935,0.46002714879416506,0.45117389470226504,0.5699759507509609,2.927079432410761,2.8063852087563217,1.134109160061681,1.0916567522812448,0.663668482632973,1.3009324919687542,0.9001997101984821,0.7090341830571077,0.9470598495974373
277,0.88450114004617,0.5281927122034829,0.44092738245094587,0.6098106667892242,0.587870288356681,0.6138819062925445,2.7697437968073437,2.470336397211605,0.6025924667623713,0.5386293109902845,0.6699045166045591,0.8700169586756547,0.49099959525996734,0.3975660705978757,0.9290245805013158
278,0.9580021698922908,0.5434799182047093,0.41159193489197965,0.4030301509696444,0.386128405494188,0.621697485578904,2.5101409853229266,2.1227702061632816,0.6416991936473091,0.5395780537015189,0.6125606311107803,0.9342567135037109,0.46744461665569675,0.36004636500067605,0.9473166818634653
279,1.8586438977965758,1.3601073470253355,0.2632450618979565,1.1934095117852288,1.1793398315985986,0.8215191288638711,4.11379285207359,2.4355189809695093,1.4629857912137025,1.0783900895655716,0.6008849035917525,1.8570449359266843,1.308026860198092,0.8684912938374652,0.9269895454631026
280,1.7312172690647443,1.4516396489189698,0.15440928221126082,1.448625350064694,1.444606397608056,0.8217537797502534,3.6450715449688085,3.2461795089588006,1.53874103144136,1.5647793862922408,0.6180765742263259,1.6826659299811213,1.3188608772812058,1.1582455602822288,0.8560219575503673
281,1.8130451374001724,1.7961876785914637,-0.36140774067338644,1.0575005980953218,1.0426133534791835,0.763585976850201,4.070020117539604,3.217498307599188,1.9229633938604316,2.319565442888552,0.6180765742263259,1.7717607827213657,1.6540708798991504,1.7126370029856244,0.9072952151446402
282,1.8679748765767343,1.8702850707669778,-0.4818675038617237,0.9816992655006879,0.9604028197412964,0.7807008298451663,3.9214338880413386,3.232166222360497,2.2485669222889237,2.9076864603294745,0.6333676938231112,1.855906955718529,1.8654956901009674,1.709811394194972,0.9405530303670285
283,1.5610340300879637,0.9767058356817777,0.38417078060097953,0.8574342581596122,0.839637411103795,0.8224240796418988,3.6730897919469543,3.2416443657831184,1.0355097864959715,0.7363964879834727,0.6357360191111145,1.5507498049747048,0.8922474417360859,0.5793071824461996,0.9479066063332608
284,1.0800715290224046,0.45880979877900874,0.32087293543602025,1.1191014242037614,1.127738080342639,0.7041090277688178,3.2378687727504967,2.557633445250936,0.5618304764857832,0.3922647403930986,0.6207552362147116,1.0701868144844058,0.40118140788216355,0.23549877984352302,0.9439867604441773
285,1.0357529307718985,0.6080116740142061,0.2873686083637097,0.6653611872578943,0.6518739080911541,0.6739543054947186,2.7176482763252117,2.478194491247671,0.5897126392916926,0.5756471631398403,0.6233814453054027,0.9966274642501997,0.46166427737694116,0.331270144057427,0.947482534139868
286,0.8704723724516615,0.283222929745916,0.12841631100797501,0.335546419962534,0.3128752009506362,0.6298407229971972,2.186953125475479,1.6762352605268296,0.286983194286596,0.29158036142712246,0.6566669596287297,0.8368892553864248,0.21853583805514892,0.15404427081218616,0.9441486950069433
287,2.165295589465393,2.4747685213622996,-3.327406644152461,0.58621983382243,0.5656037002215782,0.9016869431825801,4.287547502977764,5.480892654578408,2.814064159621685,5.725021669574878,0.6097226960127671,2.1619539632543003,2.4543895233319164,2.396772308053747,0.9294998829789164
288,1.4401030667441503,0.7418650776789395,0.4887584616576177,0.8378566369462915,0.818799959592233,0.7871906893117544,3.1850746459758796,2.1591706593724536,0.8015523515263395,0.8306749739693947,0.581717464821069,1.4339917892095864,0.7092181998203948,0.5625095967339466,0.9326716822707599
289,1.7437038513891776,1.7746197958988443,-0.44620762421382265,0.8467726884016457,0.8416812880263551,0.6683928739952931,4.178134204993628,6.519736336849557,2.0078761169429318,4.059949588618326,0.6380535849069913,1.7428423289934407,1.7685420117034703,2.6386852365877096,0.951735778453558
290,1.4347160755370918,0.7561097203681622,0.5398854109886555,0.9333004714262861,0.9028625733353046,0.862014344338019,3.6764656759733314,2.4454609627498343,0.9012378847402698,0.6689278090749298,0.6357360191111145,1.4335257408253295,0.7578161733527345,0.5272638008636628,0.8988557242374516
291,1.6586649194212102,0.9046429845507356,-0.1706278098997447,0.620850928891102,0.6045689220069872,0.7609399081936641,3.171275219986159,1.6318768355783893,0.7499244457994709,0.3950964875648476,0.62595550513784,1.5948230100830192,0.6862180533463107,0.3089298496072791,0.9167974468727748
292,1.7839641464921434,1.3118654445789515,0.5278123491693782,0.9216908101967789,0.9153456057821562,0.7242059633229648,4.209931776998165,3.8521573556338664,1.7551943846908453,1.6546471454017666,0.5748741956352443,1.7637552728184576,1.4060658726030115,1.1181081658732968,0.9389837593919622
293,1.7958712948749496,1.0058878679678152,-0.775676676765936,1.239426253174899,1.2256882232123252,0.6486724831786267,3.1521479820659306,2.6251475873167247,1.169038176265228,0.8725909734123221,0.62595550513784,1.6281111776997217,1.0079284874262162,0.6447115634603503,0.8882465558995986
294,1.81503876256866,0.9515102916236231,-0.7782568936470531,1.3744975271948565,1.3469480671115777,0.7558234963042423,3.038980064415236,2.32750986884327,1.2108981184790821,0.9725043835141605,0.6153451465759925,1.6088825111424003,0.9883719718120442,0.7119716201689007,0.8356877468231076
295,1.6031196520429194,1.1330788453876257,-0.6005852232952256,0.9971031694364323,0.9850099394162768,0.5722033343677665,2.9642515891012224,2.2119088599649985,1.031442086053871,0.5387024491807461,0.6528756675646988,1.4595343340256024,0.9165777033702893,0.42496761302151104,0.9337397825223609
296,1.9841776272339815,1.228979842720889,-0.6013405731644541,1.2425034184565413,1.2302113557871877,0.6568743015522017,3.404727228299573,3.111115829174613,1.6144310260370691,1.2618511636965497,0.6333676938231112,1.8573296334375042,1.4213551737492591,0.9626141679920005,0.9441226592569565
297,1.854531139269242,1.7209890501562888,-1.6772200262115518,1.1055689777326323,1.1071137007249747,0.8147773332470845,3.1649028439918077,2.694190176538408,1.4057930257790354,0.9433389448969774,0.6125606311107803,1.7452576355766352,1.2800178847843309,0.8263843353400893,0.9034029227784356
298,1.6221435496390333,1.4656536701889142,-0.9669251774086467,1.2238890017092077,1.2272527902097858,0.6545874930855226,2.8388613104868803,1.977388592646721,0.8872917689496483,0.44155975632816186,0.5783247308855777,1.4437822409925185,0.78050525589339,0.40464349976370234,0.919179437135535
299,1.4726843939002958,0.7939988341684774,-0.3527666295729701,1.3244460423999425,1.2911303534041714,0.6847488133021276,2.4846365364808944,1.4734655053052097,0.739798349404591,0.4396110046484456,0.6547956803312163,1.1899238071187008,0.6301665518774161,0.3694637120358828,0.9214179429281869
300,1.908459707403847,1.9463560874553163,-1.914709915034878,1.560439153528715,1.5350801289930747,0.7949484990080052,3.4074393460545607,2.830347031905865,1.5165359157657217,1.077368703329851,0.6425374456860184,1.8323731521133522,1.3326986440114243,0.8659850268614057,0.8897490543830434
301,2.4152321316042507,-0.2423497946686055,-0.4421729342009726,1.4074839613298347,1.3998021342371678,0.7323488389193313,3.2863635571447354,3.663618953245727,1.8945342596762818,1.1063677099318772,0.6740851607140061,1.9302555464819802,1.5190822105081103,0.6510248775575734,0.931219745870886
302,1.6537043847137425,1.528382697171946,1.319852771823144,0.7528865327652566,0.7275375148926916,0.8280517966492575,3.6148331540681333,4.9514549772713945,1.814815231510355,3.2510434438308087,0.6468212168108125,1.6369804154405014,1.4626319886008816,2.309015983324336,0.9368958907049811
303,1.6261748324228553,1.2353768046901021,0.32340863133449194,0.6841276476679486,0.6523149232545067,0.7811390393990799,3.9936975737946443,4.212330010077266,1.335883663422779,1.0603492482465608,0.6309483474627791,1.6077726331150393,1.1471944877749225,0.9058649206688185,0.9482507616984136
304,1.6757367134144368,1.9472295592526703,1.3121485771538084,0.4761850217957084,0.44867861391961156,0.6603241811772208,3.968427071584864,4.686526612582259,2.1163088494973015,1.8834148138303168,0.6233814453054027,1.6643635267096162,1.9155618762363633,1.7708555331377978,0.9504093174607168
305,1.3850458222789983,1.2890127718664093,0.818908768809238,0.3947302236290787,0.37285273093850685,0.5359466274280739,2.9168828938943068,3.070132115813083,1.6988455169308536,1.9241579507471676,0.6153451465759925,1.3544512228204617,1.2942300464749152,1.0504730127596578,0.9482212789532655
306,1.7762289824064632,1.1985542352864995,1.5156375915506413,0.4521485848621416,0.44227355037012744,0.790314854665382,3.5848173740666676,5.071814387724247,1.4757766060611146,2.190812214763498,0.6284777104787076,1.7717607827213657,1.1946284615987146,1.6081439722061208,0.9330324237899363
307,1.336722676760825,0.7923236086450316,0.35658352295656437,0.3818495584206404,0.3671073592352014,0.7056195855335167,3.701353232175384,3.595143753986302,0.8336996150116004,0.7881954925985079,0.6284777104787076,1.3137876703331426,0.7084757046154146,0.5307793706064129,0.9311375474320897
308,1.7336789062364164,1.687181059063315,0.4745585457589785,0.7195160757277509,0.6907628525104863,0.6718172124092562,3.6289138423365235,4.74627091682127,2.1542924673097485,2.1294014014747633,0.6602640781246099,1.703321332766178,1.6859474780307036,1.4672158034721159,0.9366242890050149
309,1.6844952588479407,1.3209061837670857,0.5236070812757792,0.9147357064593464,0.8822123345145059,0.7514871945731604,3.73787423907463,4.417455424444693,1.3924697512784405,2.104819362490081,0.6097226960127671,1.6624871335239157,1.2280846443749158,1.365507707508835,0.9132967717333664
310,1.1086860610695657,0.5862848756791768,0.2877600745176765,0.5864709342554599,0.575968578660416,0.6869388133500961,2.9936964661282612,2.6387365872784114,0.5992928240731051,0.4742759342835237,0.6008849035917525,1.056926667181003,0.5080160053665462,0.3249442746784481,0.9308505408160549
311,1.5311380103943644,0.9961856155216222,0.5689763194088435,0.5658552073166611,0.5521366720718236,0.6914749607117514,3.561314214198055,3.1010311621877227,1.1624599911390086,1.0362940961897031,0.6547956803312163,1.510648942159313,0.9403072682591399,0.8354254968151211,0.9276743121037694
312,1.5197897267033378,1.0261199374136063,-0.25085223315790284,0.8931455407303823,0.8806584332203521,0.8031977392993732,3.4082261262367344,3.032660305030471,0.8942775284681186,0.6190210425487475,0.6447042257417027,1.4569075922998842,0.798793914795311,0.5015389381977866,0.9195144042979718
313,1.8377688003793324,1.4750605943303443,-1.0488050258438508,1.1973836102710558,1.192269146903905,0.7823117238592472,3.5033528030301864,2.894711623233178,1.2320162088070927,0.8151068083653895,0.6153451465759925,1.730288147139954,1.1206706083993758,0.7401892100812715,0.8982194431559379
314,1.9550657715034765,1.648226262111001,-1.917703355383133,1.413817815757024,1.4075140917860396,0.7013141447048965,3.864823206263368,3.6359983785130296,1.8646550009754157,1.2474715763618862,0.6447042257417027,1.87188551370734,1.6704914814175948,1.1036151853834117,0.9479212301444997
315,1.8325469615033796,1.5454166152989643,-0.19616795254792851,0.9134990751675977,0.901484214194481,0.6789958907361566,4.111558732221432,3.8032492888144915,1.5958350141535724,1.5617147593169591,0.6207552362147116,1.803697106801098,1.362428152681574,1.2906249213871461,0.952497358770833
316,1.7874521734539845,1.6032075439057234,-1.0177224160871168,0.8597986654128905,0.814553628290286,0.8150341856091202,4.114091132694056,2.952629443201383,1.5731085921711416,1.3166580472344822,0.6447042257417027,1.732484777765583,1.3870486037703547,0.9701553691499691,0.9353118117687435
317,1.5269008213459332,1.246281988385017,0.6406132435646601,0.8368707304703561,0.808029617707135,0.6464667677924182,3.216853393982601,3.0224820510146992,1.348607080275579,1.1677256736302053,0.6668815377411301,1.4975984306785648,1.1913029515848843,0.8681703861778125,0.9468405183614947
318,1.5458705939645263,1.1853413560271724,0.8166333883232633,0.6282952859384764,0.6249580999856477,0.8045615584802439,3.233930486820688,4.4287764090043575,1.3959042437775966,1.179191470373935,0.6097226960127671,1.5390830059750893,1.18103977636139,0.8134637873714217,0.9467028013056321
319,1.8101069111860533,1.7616509723519382,1.0935516845678381,0.4599680702920079,0.41075924194478125,0.736270582198123,3.3284272647670625,3.535339575757654,1.9805292475825869,1.4326235258071824,0.6333676938231112,1.8030900855704395,1.7206516488498096,1.1107428392366174,0.9518282507764819
320,2.0167919123858384,2.0423985770931816,0.5361652531697931,0.38385507398998214,0.36158683418334014,0.6021349664965483,3.777791649542152,5.239685528737393,2.174463290660946,1.8089054328303247,0.6509067234006624,2.0126555480017854,2.0102990181336424,1.875222046548997,0.9550410830485476
321,1.3242631632438058,0.9698338672252595,0.7506274689716341,0.45752032016377375,0.4341570818814487,0.684575366017897,3.1350244041111415,2.8470109284621623,1.1594605613639821,1.1590070924764184,0.6566669596287297,1.316105168473505,0.9559507194857177,0.7578078487555409,0.9505016161369686
322,1.5334759426582327,0.8365020773359249,0.5432688259025564,0.8594587148071283,0.8448735915770575,0.7043667804158914,3.5157083262579483,3.0764036154433256,0.9628628616990834,0.5773551435186969,0.6309483474627791,1.531088946023124,0.8247797247526933,0.49759273310025026,0.9505977856426613
323,1.1222229224955869,0.5316456976535502,-0.02372806525170912,0.8182406552639154,0.799766889943086,0.7560385217631326,2.2989332351502534,1.7203377128466188,0.4632146325510498,0.2406265083585843,0.6180765742263259,1.0224540388184964,0.4046160215969936,0.1850380805744893,0.9483671984536333
324,1.9722667292824023,1.211172851340236,-0.44898860470669355,1.203683874644589,1.1624389641219761,0.7251856604621928,3.747994514869988,4.206687262684831,1.6856208731663875,1.5735811543720808,0.6357360191111145,1.8773173575897015,1.5212169066529702,1.0942997923511681,0.910374857875106
325,1.959846245578219,1.4983234572483608,-1.789210896086543,1.4268290417208487,1.4146191354999123,0.8673512022801884,3.4579457608950745,2.909383482262999,1.1363646772918885,0.9043946395160266,0.6038851895711802,1.8085665875444363,0.9722335339224376,0.6556790743399215,0.8798068305122143
326,1.663833887817437,1.1651426569009657,0.15711444586271384,0.9181828287474545,0.8819420029326508,0.7678464380282636,3.599250583417474,2.8715230586266522,1.168412520180817,1.3279080428290473,0.6468212168108125,1.6021313372516623,0.9981113445496698,0.9784877399229809,0.8803941437957316
327,1.0416175998708521,0.770699319018282,0.7987580441049844,1.1240619751413812,1.1015996102161842,0.5608593194894007,2.6913437019383593,2.0718034477892786,0.8431873752034442,1.0144770277700799,0.6380535849069913,1.0066106062132727,0.675935778041466,0.6923704814917732,0.8773819066564781
328,1.211526506337481,1.079353953106836,0.6381510535102857,0.8710811937744521,0.8510178154223466,0.6869678193956821,2.7161798568960003,2.2609516939084062,1.166120082975491,1.0000800519351298,0.6447042257417027,1.1766459048072102,0.9615553320795482,0.76829990293929,0.9402238023153741
329,1.3149674444404647,1.2577446196957216,0.7704262260151831,0.7008024227397823,0.6833842687835767,0.6349393465008908,2.552341448513527,2.090173312739862,1.245547964769577,1.7551668436074963,0.6380535849069913,1.2396383630548926,1.0370624157831234,1.1938466809589325,0.947432785559704
330,0.8630732490013152,0.4125797976341282,0.291393284435314,0.8415407764741736,0.8334228981673056,0.6469913557741436,2.522175481860848,2.1039508632041337,0.4375728997418924,0.4668535717828465,0.6008849035917525,0.8276441185384728,0.3150593916426037,0.24519213230578793,0.922916634634887
331,1.422414636159127,1.2327724360104293,-0.1754508217486186,0.971397136959018,0.9405489282299329,0.767666955434136,2.709242008099574,2.2002034530505683,1.1724853431309545,1.1514302213338052,0.6097226960127671,1.358722428916903,0.9086027760988055,0.6753930332526654,0.9491969935832356
332,1.8426809959326753,1.6030122336252413,-0.769277358718297,0.9029275058499899,0.8736154315567064,0.6561139398148013,2.3474490391967535,2.02189527796126,1.7373938359113104,1.6380445524956815,0.62595550513784,1.7804239595643094,1.506552278007823,1.2422622434489448,0.9451452960247442
333,1.18393475160707,0.6916586577644797,0.5452245650569789,0.8587338939390927,0.8396775339532895,0.7134640805790776,3.452650007577293,3.0718257287905253,0.7769258455503628,0.6488798875278796,0.6180765742263259,1.1811609113032688,0.6842450980930846,0.5125014680653119,0.8818985434376652
334,1.093212128408988,0.8724723500856688,0.7198892943938335,0.7741597849889669,0.7529490301556055,0.6902717901055778,2.579088731347136,2.808385070462512,0.9925101459064769,1.1706197527193496,0.6357360191111145,1.065693441911,0.828467960935136,0.8538431137631065,0.9232043976239642
335,1.656224093843958,1.1295855353168258,0.6808314023030242,0.7007559310875723,0.6800176016225863,0.8482547351087786,3.914482561251335,1.8178552069709353,1.3876093668122378,0.910880048933463,0.6180765742263259,1.6543771675474912,1.1269608293245512,0.6475732233576289,0.9497249230740477
336,1.9199844162180713,1.1945706875545576,1.1665358715051886,0.9166249610671048,0.9213961754449496,0.7617743389109844,3.836334226688012,2.17312472271943,1.560745203252587,1.4709282187740123,0.6180765742263259,1.9167937315986312,1.1720289650213718,1.217890343748349,0.9406532306253647
337,1.7021165106259666,1.2426988624949318,0.7284993883432476,1.1166265591840583,1.0777201888647576,0.7169701364664017,4.04083223450746,4.239328547273255,1.3897080787430363,1.2590556150072898,0.6284777104787076,1.7005181621311123,1.2129175353636044,0.9529767966813774,0.874440394559468
338,1.8153317904799087,1.5929702660002638,1.3420888235225394,1.2272458625516838,1.2144311264567336,0.7484236524479432,4.106946907326197,4.867014807477001,1.758686382630071,2.4878219347168784,0.6713451011121618,1.8149598623984906,1.5932621342006292,1.569623474674145,0.8760710613227004
339,1.7961451148296617,2.051004644699165,-3.295060618830515,0.7460087674971617,0.7391149753276339,0.7784679954163518,4.325350620193029,8.453063420939106,2.350160209306759,5.3036869168648035,0.6357360191111145,1.794429697783934,2.030906057252007,4.181031812614306,0.9387147887957528
340,1.4656225880470537,0.9026601548356881,0.7486333623150996,1.0063272634492733,0.994844100397761,0.6557670118256932,3.5595243418263176,3.586626225207866,1.099212152786164,1.038096970397439,0.6713451011121618,1.463703502638001,0.891579379356494,0.7399014705311563,0.9486695454599379
341,1.3872760786426572,1.000540281063914,0.7026366576314009,1.0856760829480412,1.0865407693259457,0.6007150443411516,2.8218395475500393,1.969337079988522,1.0970871109600309,1.0915181814672001,0.6652988471865258,1.3660560988788994,0.8663812342130646,0.676098395431872,0.8912485641059286
342,1.830678010318646,1.906246255479169,-2.570511619188524,0.8514401243872951,0.8344405504988371,0.7868669764954513,4.387299489890718,5.379642637899052,2.303083694433459,4.132977929753058,0.6008849035917525,1.8226311328951421,1.9089238843883722,3.281560777356449,0.9394754458144046
343,1.9035314656947415,1.7908737679285336,-0.7219716938051364,1.223742849965255,1.2191098702655991,0.708865288499349,4.307400788204516,4.023839436566796,1.8533520288463128,1.8639251170354387,0.6447042257417027,1.886949656231804,1.597267081150444,1.388106940916496,0.9455954609290497
344,1.9179699265631855,1.6429940736021265,-0.4703708200714396,1.3247391674716116,1.2943287809218675,0.7734024672661359,3.7240308312522825,3.071886195687377,1.7004789620883076,1.5510425957674638,0.6668815377411301,1.881173730833995,1.4601836504721433,1.2505675779319323,0.9150448429102866
345,1.8084786213622996,1.4958553999497954,-0.04133193427953419,1.2661767233568157,1.2476592740561392,0.795759331321709,3.8747919693053916,3.39251667117753,1.448703111278748,1.5649557735070145,0.62595550513784,1.7752301672768445,1.2710938923932067,1.2327449439623146,0.9245763428046382
346,1.6728858065841925,1.0085149220846226,-0.5431262412209521,0.8665984992735566,0.8532726409942155,0.5182137273513305,2.7950035291338056,2.300585203868617,1.2595115362062832,1.195983744091866,0.6357360191111145,1.4956133183641447,1.0578577232927397,0.826291059285206,0.9497309068498481
347,0.7150335160167818,0.37932398640333487,0.2124235138816808,0.2921531319750468,0.27915183999009674,0.5862207135660732,1.68784348292429,0.9847479809026529,0.45678531111233445,0.32410778038707394,0.6528756675646988,0.7057147110720188,0.3632093338942661,0.2036052181519691,0.9486142967813084
348,0.7269624283230846,0.22315654261633155,0.1259567689407547,0.10696905971831198,0.09474358889699248,0.6312958968665581,2.1717138970932814,1.5803396904834668,0.26049405344023285,0.1693878685133671,0.6699045166045591,0.7204955387451206,0.21596955617705463,0.11615458989546155,0.9483273853609814
349,1.392822975480864,0.9561715831987294,1.1725077792389595,0.43315569796103637,0.41265098111189735,0.7490610070548089,3.02356547318122,4.114054367421865,1.190941627099998,1.379890176695871,0.5883313578629602,1.3914632524071398,0.959262215914841,1.1802010200149589,0.9527736501772024
350,1.6054710788280866,1.1758988619108626,0.30274170007048884,0.6502878512538144,0.6335471824641676,0.7518848429991483,3.968886927220143,3.584069345883605,1.211672129068257,1.2902459296455218,0.6380535849069913,1.5924715475388693,1.033077432051597,0.8178602508809985,0.8911466940088616
351,1.9281325835492014,1.5969164228687525,-0.5374750707702591,1.2055807849496598,1.193885877179095,0.7642706196454533,3.960851528373836,3.9828979331029397,1.862378648924733,2.6616847709392144,0.6125606311107803,1.9003102535708607,1.5382429146350636,1.378710732909792,0.9543393434133434
352,1.6835729982679415,1.3751721219234554,-1.152781079125296,1.0091695055793155,0.981865792924197,0.6864018950907937,3.4641380852109966,3.0996512379981978,1.2312106627184949,1.0453920992626529,0.6125606311107803,1.5267320873410803,1.0663538619606088,0.7351708079587513,0.9466865483929054
353,1.8851373125283994,1.5942539955310644,0.670654261346554,0.8746520875812964,0.8360290487475642,0.8063703638137321,3.656961764174844,4.098181888571876,1.883680241440937,1.3614031639474886,0.648888643467878,1.881903019081021,1.566735437181271,1.0816304215526817,0.9420331258276962
354,1.9234440622683027,1.7316691361018124,1.2593295538767206,0.48824874459888057,0.46992402293356694,0.8171889507219393,4.431121801916704,5.035597865882993,1.992405679066343,3.766341072665083,0.6652988471865258,1.9218681545750753,1.733791461658717,1.4828090493723483,0.9498315042180564
355,1.513448700211965,0.610114871530288,0.385552567828332,0.4398281185556718,0.4293942093874545,0.8382094267159234,3.5892910927057673,2.4503287470133515,0.6942129195184158,0.6132830543413751,0.6153451465759925,1.5123616163639717,0.6077167517955941,0.3769008628627039,0.9432218022261215
356,0.8626804842655817,0.4671283895622147,0.30051174662136115,0.3939221365603574,0.3829739919671958,0.6480202278703671,2.1256690521269728,1.6477757199028988,0.49503189557921634,0.4358557033723262,0.6425374456860184,0.8273645226797536,0.4032565089087217,0.28118616324974005,0.9559785730205282
357,1.136647413859938,0.7779527167667908,0.6120921301850599,0.31437268908350524,0.31072625836332285,0.43903627036894766,2.1605584654456615,1.7466678937540143,0.9795939705529505,0.8999159004088234,0.6097226960127671,1.0874086181607845,0.8084528996677899,0.7485881018640409,0.9432736661856828
358,0.8598433189839402,0.38689179688360953,0.30650012682076877,0.3250211604125676,0.3047195785925686,0.6264778082746137,2.46380767065972,1.4760161686149682,0.4264005381298353,0.3900503673751788,0.6125606311107803,0.8289159949818053,0.38566846993872517,0.30227426622047676,0.9301548058460716
359,1.2484974355064549,0.9932803191804296,0.03126097165948183,0.6872354564421319,0.6739872031537671,0.6686840252899133,2.291673537838878,1.5667067385958853,0.9854597803584184,0.8042056382140698,0.6207552362147116,1.1809799191035386,0.8126509661631864,0.6078095807772267,0.9564667850637968
360,1.8406103282795478,1.428023016550501,-0.2651010344821114,0.9704932765646095,0.9690566188978806,0.7491283608858925,3.46549156163151,1.9700677773031794,1.4286932967679922,1.0572656415474437,0.6528756675646988,1.8148234088266066,1.2432571934956673,0.7914893884593224,0.9420907424184916
361,1.5333139412384957,1.2826812259107245,0.1161886775605363,1.1839917354861809,1.141168903381148,0.7290209702333325,3.299962680565511,2.1021780975661546,1.127506876508996,0.8206524810032976,0.6509067234006624,1.4510580928006378,0.9944996469234513,0.7140015079876922,0.9297992852475531
362,1.8927738635654756,1.4270114038547481,-0.3312133354837572,0.8027287876400501,0.7791585360146925,0.6685421891506392,3.7086147681930766,3.6566737453805955,1.5472351292237876,1.025859718056397,0.6357360191111145,1.8712356707298516,1.3738130284423724,0.8075143290349217,0.9323406554871928
363,2.042733175133846,2.1858274857327094,-2.9859060413267855,0.24067806980606524,0.21302867964847064,0.7067261532653838,4.578350368273652,6.78830681377761,2.2156802582724806,,0.6447042257417027,2.0415892858047706,2.1813465107903167,3.0102418828216777,0.9331266058674307
364,1.4499943672143516,1.1310941137081807,1.1725719798829126,0.471244009910986,0.450400096829928,0.7750182972887057,4.335826769661974,4.145808006267557,1.2998143327546396,1.2512362027295694,0.6309483474627791,1.449873342762762,1.1366969608017383,1.1765538841913359,0.9507157752232066
365,2.301144189825764,-2.301144189825764,0.0,0.2920994119318466,0.2616510000943257,0.7325399863149827,7.277198964715416,148.09690766661876,,,0.6125606311107803,2.300143631344061,inf,,0.915863321632899
366,1.616698713876447,1.2626761424364854,0.847447977368113,0.5708065771690076,0.5339553042382432,0.7372126273889449,3.8306725145237985,5.517251491904949,1.6907092369131538,1.804512796468741,0.6468212168108125,1.601855619694979,1.2045427044250072,0.9873479403837874,0.9270978751605919
367,1.5869335266931373,1.68127196364093,1.3095325457179814,0.5844951175134533,0.5637669992901599,0.6950205096939678,3.6664728054071327,5.499704221008345,2.0015120781555287,2.264786172185438,0.6403206450210053,1.5749291377482253,1.6789983251788942,1.6644325550599655,0.9060557419200588
368,2.2898431447279197,0.9159191751353126,-3.1484090297306278,0.38061325165219256,0.3597515232183732,0.7174060127494913,4.52282683528745,6.167836900799526,4.807701461536447,,0.6566669596287297,2.2891205920407565,3.947960362233494,4.071871706370042,0.949461363565473
369,2.0204615346833443,-1.8477999345998755,-0.134426073328399,0.2602724759225059,0.24581698223242637,0.5112685680343407,4.189260260042862,10.53726612075945,5.854946012071836,,0.6619902821573977,2.0195806100933757,5.581321849448707,3.1135153092103742,0.939817218592249
370,1.0394600715688906,0.8175993381053115,0.7690587790543679,0.31575842760921596,0.31504016468978085,0.4356499656875495,2.8831004758765464,4.43394094582165,1.1753516026570037,1.100346643403146,0.6547956803312163,1.0391805348986978,0.8235738084869819,0.747262117445165,0.9405375406700945
371,1.1418088239862392,0.867909725603367,0.8369648487032921,0.5571976590962398,0.5437483064597377,0.5551621358872953,2.921578182041009,4.070275814486094,1.1872446659414053,1.6289096308417583,0.6125606311107803,1.141415410993419,0.8655194398996688,0.8800426739350613,0.931949476810498
372,2.418376156896108,1.6168313524581057,-4.035207509354214,0.48467967977494175,0.47717017759908364,0.7530623616229898,2.9503203877157205,5.590363905126325,3.6636153574242964,,0.62595550513784,2.4142618102186684,3.4718422212314874,inf,0.8880180496647119
373,1.2727407866545675,0.9474562697101123,0.7020489523346445,0.22565599328660768,0.15550757012106917,0.41049354858072346,3.2426555100991172,5.340241519785231,1.2631523319754685,1.3972032762649145,0.62595550513784,1.2693215301338983,0.9364393782246074,0.7986758058256316,0.9378921134977483
374,1.072807555781488,0.49190498316260833,0.24337529351483433,0.4223018364046809,0.40691190082977646,0.5415153805051193,2.7120968641882364,1.5728793855040566,0.5563420508723553,0.4268318969815624,0.6380535849069913,1.0691182134404071,0.4432938201259246,0.2810822729554399,0.9257779643025995
375,0.9886557640265875,0.47878770561023776,0.43523968321302986,0.6379804219768713,0.6132466239076685,0.5143309755139218,2.8287507854689973,1.9385120213708507,0.6456939253596388,0.6222737353685052,0.6528756675646988,0.9876972280969545,0.4756701804315327,0.40902383072515835,0.95112735958744
376,1.0606937195041433,0.5353058660933903,0.4368996467991946,0.6640860631035568,0.6468553127065232,0.7200472049642056,3.0999108257191748,2.658759808849851,0.6916718689692047,0.7388627708634824,0.6652988471865258,1.058750755242979,0.5307211445502436,0.4215221042523268,0.9390451807127331
377,0.8173715210747554,0.4752729932249473,0.2058302410692301,0.6427084837615736,0.6273656992542045,0.46268778380050807,2.415807389247429,1.9683251894422473,0.5945252883545872,0.5495495240348628,0.6713451011121618,0.786603524225271,0.3545335968578398,0.1843339451466895,0.952946937534826
378,1.5373599822979027,1.17384164999603,0.15330665655162212,0.8077939946778341,0.8027270457226383,0.7037522095667027,4.024532204835717,2.489887565598205,1.1680496028378808,0.8091989457559264,0.6602640781246099,1.516301811398997,1.0041629337897173,0.44786855417716226,0.9113653723664885
379,1.8167946060057039,1.3001340193708273,0.23623923704823424,1.3842927323238785,1.3745391853731257,0.8269267668714202,4.0329181357964945,3.728481944815724,1.489473702034719,1.5376672099185502,0.6333676938231112,1.7781195835240202,1.2806708259971078,1.1840541610194166,0.9459375359090654
380,1.7456030531500482,1.519746151923907,0.31256021076405993,1.2857658479472172,1.260840253018809,0.8035950656791108,3.9931343396385346,3.4371502002514447,1.695305947933246,1.5020464921893937,0.6684167106117298,1.733805075967499,1.4073384003603495,1.1315306214186693,0.9184647153961926
381,1.5177343671022376,1.207646629291412,0.2126115916732041,1.2239022104915551,1.2361761037629428,0.6297911669288535,3.3917035820194594,3.0135468469351876,1.25691325831708,1.0984706472089019,0.6528756675646988,1.4761218207629425,1.0981261910501383,0.873342409418785,0.934980526193661
382,1.704929508687234,1.2582227814119018,0.7297656176812555,0.6654191941900222,0.6635783776636641,0.7951863618389949,3.79607684487126,2.8181596144929677,1.383986645462302,1.3315699694753511,0.6357360191111145,1.6819488698966174,1.1600137487918598,1.0829205024692736,0.9512252407993221
383,1.7725317032344716,1.7534134784652091,-0.12004013857658702,0.8390235369932427,0.8190873390722975,0.7448183929350131,3.935164071111868,4.373451479163143,1.8433972957878224,2.3222297420203515,0.6528756675646988,1.7647281301770246,1.7004745814610431,2.0959234626166103,0.9363301309693004
384,1.1759445259146069,0.8040321274908722,0.3023546551727645,0.7508605547029011,0.7454171308356946,0.6881111650645221,3.156339073103933,2.6666924157182397,0.7636280864137561,0.5639140809496793,0.6528756675646988,1.1415893815232503,0.6384391648291061,0.39690332771610065,0.9367834365459686
385,1.6862607135822643,1.5108731438489684,-0.12524325995606533,1.02078262947052,1.0112140098521494,0.7277004271866777,3.69008985143066,2.69688348518298,1.4569606843126355,1.0142743120402993,0.6233814453054027,1.6652442994978316,1.326938724545018,0.9159586346773242,0.9425599122347018
386,1.7452529016415672,1.6154175282496077,-0.7677951039097075,0.993292460474882,0.974577906612921,0.8117243846302725,4.391953545339093,6.2907650188181075,1.8274354782988895,2.551554927544043,0.6180765742263259,1.7370819079373592,1.5591550380883095,2.2252239718365776,0.9406524873520119
387,1.4109054767418088,0.8290511787502717,-0.17463834665201716,0.7174374684993767,0.7038705880021492,0.6567735407564195,2.873390464118568,1.6166658540079633,0.7915574942040506,0.6476454005034553,0.6380535849069913,1.3536335788803424,0.6277540756574403,0.41319090242635353,0.9487070955103581
388,1.7161756981380047,1.285347063192343,0.8240773137774768,0.7117210941893051,0.7004748078021356,0.8181962139460567,4.0660991847989205,4.047141935313152,1.4057047252202417,1.5435026834964038,0.6380535849069913,1.7056429369369897,1.2466042246772624,1.171182981502945,0.9384626665016653
389,1.3089505671205546,0.9953617668095063,0.595971861114633,0.5734130495161732,0.5537881378270706,0.5616154685328447,3.1999442001670655,2.8727927494906282,1.0366935423538848,1.092812610230796,0.6233814453054027,1.2717362731080222,0.8453840599865358,0.7388499980842743,0.9588236250849037
390,1.6246522998983923,0.9852392790155682,0.9090194959608033,0.4091140984306872,0.3799042639455322,0.7538175484883504,3.6151537769931714,4.356872869478233,1.2017923859057633,1.680032725369641,0.62595550513784,1.6066085854239407,1.0025016678233658,1.0444020570293386,0.9403195909631337
391,1.8915446772469162,1.6708176270363515,1.2341535814772544,0.4113730790213578,0.3910538326295426,0.7929518728035803,3.823815023443796,3.898351614091417,1.838905980853787,2.332064575800984,0.6097226960127671,1.8808821643912268,1.6797018027823873,2.1736577149672955,0.9225891561919384
392,1.6309048990795545,1.2490487014541318,0.8597332623713045,1.0678144617804155,1.0451517823388288,0.6933892110048953,3.954286125524997,5.054409232733663,1.5028817059425932,1.5100176595943504,0.6447042257417027,1.6290172313321232,1.2393973592119993,0.8961467232075618,0.948595206624146
393,2.06377432943383,2.3925660789987395,0.337566204828291,0.4326354124258137,0.42178808789294864,0.567316125665289,4.162782307930866,5.074103347134378,3.026895620702723,3.414662877486186,0.6447042257417027,2.062256716925735,2.3605919122684016,1.4513268313907453,0.9387087561814124
394,1.7245884038506354,1.4249683912961557,0.798785746360605,0.5218592790427005,0.5059673183566471,0.6461200211213338,4.068458905899461,4.010370629818526,1.5772865119856117,0.9193586455397983,0.6380535849069913,1.7243500729988008,1.4294665329850993,0.7961390536128959,0.9437284487100059
395,1.9716750705854664,3.4720227494018916,-5.424580056609823,0.527158310703313,0.49492956357738005,0.7322995645552666,3.786096224312042,3.2392541823376835,4.41232237124644,,0.6652988471865258,1.9712849387200084,3.363235476491989,6.073044534100405,0.936301880105708
396,1.7720537528587996,2.1607601133709613,0.674567107756153,0.5156585559123327,0.49430734663493436,0.5967051939383062,4.838108525793329,12.439210274964939,2.458449261169995,5.77866228787806,0.6566669596287297,1.7707810628428633,2.1631467779733327,1.988840175005551,0.922952283636403
397,2.407802005872812,2.5878995226897707,-4.9957015285625825,0.4088923103143578,0.3969795825529805,0.7522185540429726,5.097847860160237,54.30960630482234,2.60680268529458,,0.6284777104787076,2.4072051421241483,2.5869008500208968,inf,0.9471283896311002
398,1.93586977629903,2.323160073668186,-4.1060877429469365,0.4595230826036698,0.4359307508678852,0.7974747908130985,4.81177189377323,6.726618133561926,2.6967640954849865,6.761793037878065,0.663668482632973,1.935629839647757,2.313421112335325,5.079072455649484,0.9477197112289252
399,1.9913710295914158,1.3985332916614575,-1.3085060801884043,0.3942500464363372,0.38196839907869795,0.719439790031807,4.380108221937408,6.993602164292634,1.5813715000642032,3.9727826136695703,0.6333676938231112,1.9898852575669768,1.3997129882518267,3.0006868666786746,0.9312978029856798
400,1.7518003721083615,0.8528356957585925,1.021358197665593,0.5633699915928035,0.5246823215327634,0.7374520193150653,3.646713060885686,5.838094545128245,1.1718331027448141,1.3075397567871865,0.6357360191111145,1.7516417226321659,0.8558092799139284,1.0048790177641354,0.9335153931768961
401,2.1352683379479367,1.1054914106370313,0.4929717742097868,0.5129914425125581,0.5091366022557304,0.866369137687124,4.572422397676441,5.631530149987919,1.6743651323923405,0.6600707576387641,0.6509067234006624,2.1341558858692364,1.0939288780842742,0.4778278227166662,0.9493071880066991
402,1.8704956079162047,1.2235392656652502,1.0006999729690076,0.6689171292670439,0.6644581650451831,0.7319010401837894,4.031127900402923,7.1699552293699655,1.3337456828664094,1.400190517974428,0.5883313578629602,1.870153536656067,1.2242947098370818,1.0317310392489705,0.9460394410281795
403,1.8453213524273846,1.0915051912974747,0.7974418502879699,0.5514436362333252,0.5304068562837961,0.6411177894563964,4.3774335435992215,4.171639400789562,1.1877579065042998,1.1718387930994663,0.6309483474627791,1.844668102661235,1.0861090698699685,0.8654400593775775,0.9264818362536832
404,1.7376533327395194,1.0018545560978667,0.5916685204391041,0.3619817503593091,0.34458386076206204,0.6725306464653232,4.33216925361658,5.31191764735211,1.215294384023221,1.0536721616232663,0.6357360191111145,1.736892567787215,0.9842428728636506,0.7006048422426192,0.9457848833917925
405,2.0212437756124366,1.8565407575319242,0.6487913998557229,0.48230805076428535,0.46975800436833864,0.6350201086188975,4.259703844100717,6.657092465905523,2.4265333204742343,0.802798402974327,0.6403206450210053,2.020669615436602,1.856415338630264,1.3218899691489079,0.9538915213803333
406,2.2168032498095225,2.105479265405491,0.32117470314770813,0.5330513635563129,0.5078787046690995,0.8393615247012299,4.158033961492697,2.7810610458340532,2.2017189301634192,0.8871177022515325,0.6468212168108125,2.2163054651490115,2.1095508980578157,0.8240409982229363,0.9399111428640183
407,1.9034159009543596,1.2561488025803926,-0.1379358365006711,1.0186310998846881,1.0112390895062577,0.7324177836995989,4.045151585647098,3.8542645908282243,1.669077041610733,2.373202022318152,0.6403206450210053,1.7912262780663963,1.4760231310860203,1.6094379124341003,0.9368952643958767
408,2.44379898005371,2.0602350401917247,-4.351091913225155,0.6300654731441513,0.6297354061139416,0.6524936516423815,3.656715280244185,6.048293405434965,2.7311828121506063,5.210045539083661,0.6357360191111145,2.354346333108432,2.409428883056298,4.564348191467836,0.919310859684193
409,2.3645037251067467,-2.0523832508285342,-0.25476718414560784,0.8679250334854087,0.8501932713002398,0.7717189947996598,4.226623268956949,7.032831016078465,6.553055463879435,2.4782064760174363,0.6309483474627791,2.362925033113938,5.8665860858505186,2.0794415416798357,0.9268988489029867
410,2.1264248643911,2.860928731076611,-4.949118068712641,0.7665425317288284,0.7426565757285699,0.8144888528645023,3.634986671685366,8.02099574141409,3.9778040082846666,,0.62595550513784,2.1148154410955016,3.53384773433962,5.065754593317335,0.9026000777996547
411,2.314086025156106,3.2362378284587257,-5.3017929297068775,0.6059760326570413,0.5900868291240638,0.7509624529362517,3.1867069895150015,4.818899146124297,3.2361614653072164,4.23606439356981,0.6447042257417027,2.3125232016996824,3.144399195024993,3.38569319512619,0.941921556364667
412,2.079323185119321,1.9023179687906775,-2.920476088471018,0.4870299398814949,0.43187850249883797,0.699246682769241,3.2364604753161657,2.501356909950466,2.1964197228122413,2.789457294841913,0.6153451465759925,2.0775766150703237,1.8569192462098811,2.5102244577722903,0.9495118983447737
413,1.554133443901025,1.6672746924458735,1.8642923268909222,0.7261433677334834,0.7061194036396677,0.6967081748651653,3.642394164391198,4.930167926420643,2.067318699517751,2.5217472843007247,0.6068309995095971,1.5528475611457033,1.6429629907915013,1.8181636434245658,0.9512842416065094
414,1.7086996206174112,1.6378856231542025,0.8526056602335794,0.5311908578654096,0.5213248163179028,0.3702428248674229,2.82882042895215,4.172321744982439,2.1254353714665,1.8435740095189177,0.648888643467878,1.6983298444381936,1.5895388519169584,1.3084518743559568,0.9436827619417003
415,2.2487155401590124,3.05793062307444,-5.292180394356319,0.17293301827745555,0.14204052977697976,0.5212211485486313,3.122281452554385,4.690701223487595,3.543739230764096,5.602771621414395,0.6547956803312163,2.2476761208323177,3.416885640670602,4.356708826689592,0.9292884520752059
416,2.846442425318834,-2.1982314504182208,-0.6482109749006132,0.12463234025682715,0.0956800917568425,0.800797519912782,3.293600747115058,4.9702496773131815,6.070582104739939,,0.5947193981915972,2.8453983922534336,5.035806032442808,inf,0.849966569953379
417,2.6899526523036674,-2.6899526523036674,0.0,0.1405401224257846,0.11951907974294253,0.8427437528088259,3.5275445943040533,7.498377506438476,,,0.5567373465730988,2.6889013822634493,inf,,0.8317362857300225
418,2.8107073556965223,-2.8107073556965223,0.0,0.7812296943479945,0.7582184477492078,0.911535263313368,3.3534954839672166,25.86818200153652,,,0.6125606311107803,2.8106367898773112,inf,,0.8615533202253053
419,3.0130101870947246,-3.0130101870947246,0.0,1.2830612080691877,1.2694288625494314,0.8458164875778348,3.05853753051716,17.906816382170092,,,0.6284777104787076,3.0125393918703725,inf,,0.8761262978416167
420,2.75934349548976,-2.75934349548976,0.0,1.2304155244883241,1.201262286509145,0.9101964261763357,3.6416537239121594,21.873554510821844,,,0.6619902821573977,2.7593434954897607,inf,,0.858278874618967
421,2.4851787964181358,-2.4851787964181358,0.0,1.203844753447851,1.1815729287234609,0.9229346722579355,3.6499265558824647,20.12612406353637,,,0.6038851895711802,2.485173352016545,inf,,0.8631550140723058
422,2.75934349548976,-2.75934349548976,0.0,1.0873049713974792,1.0421739558957364,0.9162868002617315,3.6674005770584825,17.63370865133688,,,0.6468212168108125,2.7593434954897607,inf,,0.8324293447605958
423,2.2631640160454003,-2.1972530028716917,-0.03136210483698828,0.11826719857387902,0.11303999157826461,0.5270348592972407,3.1682406056811216,8.530167573417476,5.425018505997131,3.706871892933744,0.6233814453054027,2.2622965740799343,5.253448077121841,2.505525936990736,0.9576948824766714
424,2.5656104436928966,-2.516726082253485,-0.04888436143941157,0.11826719857387902,0.09861247890192944,0.8054069275645024,3.4994207204527625,4.31838122064817,7.227210735277142,,0.581717464821069,2.564238499070131,6.897416301186958,inf,0.9465652208130143
425,2.785163237083381,-2.7507074683271497,-0.03445576875623165,0.1469052641087327,0.11561660371707551,0.7720713509986326,3.7619393747706873,3.8036040283922103,7.51986024172219,,0.6468212168108125,2.7824146163910726,7.238855971801439,inf,0.9517666088833836
426,2.4794353758561845,-2.3910648864739987,-0.08837048938218593,0.12463234025682715,0.1019676536798995,0.767832514305506,3.7587653901998226,4.254518220865386,6.9765824315532825,,0.6566669596287297,2.4783945661727773,6.731945805803406,inf,0.9489294339923505
427,2.5421374260598024,-2.5040073687127076,-0.038130057347094896,0.11826719857387902,0.09767636613230242,0.7634665611807109,3.6208332657938676,8.482504144538904,8.859903850772968,,0.6668815377411301,2.5409832960084056,8.17343447274405,inf,0.9556807010881124
428,2.793595315383877,-2.793595315383877,0.0,1.3445676768795392,1.3112695312988774,0.9266737381862874,3.6051970376150853,6.4843639475738355,,,0.648888643467878,2.793245047165442,inf,,0.8738261988200137
429,2.7424167083418687,-2.7424167083418687,0.0,1.2884474020675873,1.2761487910084521,0.9034004969355768,4.445370381485653,21.78942461450419,,,0.6180765742263259,2.742124181435962,inf,,0.8887870286904496
430,2.0871134961114053,1.6551556348817593,-3.4592216829253366,0.22226326193366597,0.2068692780691555,0.6056684861587455,2.962221184592086,3.0703702449002432,1.9396795137275495,3.291644530538729,0.6284777104787076,2.0853254848388105,1.6504126665948105,3.0083877037667137,0.9512347743214961
