,bvp+acc_XAp0,bvp+acc_XAp1,bvp+acc_XAp2,bvp+acc_XCond1,bvp+acc_XCond2,bvp+acc_XDist,bvp+acc_XFuzz1,bvp+acc_XFuzz2,bvp+acc_XK2_1,bvp+acc_XK2_2,bvp+acc_XPermEn,bvp+acc_XSamp0,bvp+acc_XSamp1,bvp+acc_XSamp2,bvp+acc_XSpec
0,1.9445092331765006,1.8539259938779915,1.048977034320579,0.4312107568233771,0.4136228130089395,0.772965788802078,3.2122749164925346,2.8645782336104166,2.1635304101853188,1.6790251522901907,0.6447042257417027,1.9348603128687285,1.842243374660047,1.695567066164039,0.9339000383157964
1,1.2262310110805796,0.8714354392024644,0.5118880780022059,0.6664162955653387,0.6450654983036982,0.6489803051671997,2.3455057950468507,2.078533820267579,0.8791694837390509,0.8072248993887222,0.585052858160615,1.2053070273390727,0.7485792913974176,0.5858285675465049,0.9267503479005855
2,1.306795781001914,0.6468469690438181,-0.020232125619462193,0.8020092623992197,0.7717969789384526,0.5853655445243745,2.6749877551677517,2.7832085466663754,0.5906082313912765,0.28899489867810146,0.6097226960127671,1.1486081794337992,0.5215828352922209,0.26914081896917047,0.9325184893031153
3,1.8506262601212018,1.529721465480853,-0.7487805806534347,1.1130582528725335,1.0799471813412316,0.7463672752083006,3.3628448684073993,2.9573464585250298,1.6281660124111799,1.3624546774726307,0.6509067234006624,1.7636904493004626,1.4669206317861592,0.982517017125446,0.9478532807086192
4,1.8668943293989904,1.6452833136943086,-1.6677868930650874,1.4274385766549287,1.4435765231433435,0.6711626318515148,2.7394463543119416,2.623394908245483,1.7858375246317273,1.5895920094510336,0.6233814453054027,1.734623277857246,1.5473106829780918,1.2370585289117015,0.9441534999160757
5,1.90412950215429,1.140408376519966,-0.8384073985724685,0.9791519643468689,0.9541967712491749,0.6941820735480044,2.309245835872226,1.8695139318399434,1.2330870663624929,1.070939807604301,0.6403206450210053,1.7287846700666667,1.0432708610114558,0.7569752220939179,0.9476159927853963
6,1.486462666622582,1.2114675352563777,0.018785498173594206,0.8660763520136624,0.8446627625591958,0.6965115104783134,2.3098713809240414,1.7332779551750193,1.1358684449439669,1.000257006328959,0.6380535849069913,1.3761240324658133,0.9415746983382807,0.6887575061128728,0.9495965431331015
7,1.478817179615234,0.8761280238964915,0.029018360442183866,0.9380882343325747,0.9127990957499946,0.6829787082978154,2.560737190405103,2.5622992638803166,1.085234293567261,0.8757532180695025,0.6380535849069913,1.3554418976371259,0.8988822717396663,0.5876384493116849,0.944127414910721
8,1.6625867080856473,0.963029490458224,0.1362638427184426,0.5908393059134552,0.5849333782028312,0.4358462624317447,2.00489526583931,2.1351245340185923,1.5799214107097856,1.210085570260067,0.62595550513784,1.4869744888766117,1.3212644394810307,0.8303699764164276,0.9491232029867057
9,1.1547302857820672,0.7001625645248597,0.47120619428211286,0.29997797586387004,0.2743091396037047,0.6901868842396878,2.171372543218191,1.9612224513045873,0.8308487953703851,0.978073437001448,0.675384900321601,1.1339976993389054,0.6451088237658342,0.5750058097686244,0.9428352944613231
10,2.071427074792898,1.8566431004128257,0.09954648301870961,0.933697314480267,0.9244373788052788,0.8451835668555847,3.3959101933793123,3.3580242764341466,2.1695703322423596,1.935341498506829,0.6357360191111145,2.0689193171832954,1.8184110756544791,1.538820345220147,0.9294877043053089
11,2.4020207009464345,2.4288544891780512,-3.6636720533430043,0.7275081635002647,0.6965895702364101,0.7595200694256145,3.721606928700994,4.311870626233963,2.8075472465215654,2.3830814642536366,0.648888643467878,2.396895772465287,2.488576378676963,2.152644945703131,0.9308353253602446
12,2.1806337692296704,1.7962394116729357,-1.3409478320529895,0.9115065615180369,0.896058915655465,0.7578390656105258,3.8515121890163067,4.1425345459593546,2.058994492227431,2.5369069102092006,0.648888643467878,2.1733127572899065,1.8908259628751283,2.4089522960166754,0.9339398299288166
13,2.412019683992894,2.058608148994885,-3.2223016481957556,1.4087656195392453,1.394093289261459,0.837166904843977,3.4609972867500653,3.5993242709380806,2.5032802575078716,2.8974649062579365,0.6097226960127671,2.4099228707888907,2.2488825310318323,2.35431039281924,0.9362886269441351
14,2.035243158064373,1.8472496747975642,-0.5376978640952337,1.1736048052637862,1.1397932763900276,0.8181178554703683,3.2341968007282946,2.4741333581498437,2.2263837297659284,2.011335190758017,0.6153451465759925,2.020669615436602,2.009136425647928,1.6907835518880527,0.9358018736359538
15,2.039107818520064,2.083438208909141,-3.294240505946993,1.2117173815009246,1.1893679678854354,0.8448447548037594,3.366524392122848,3.047125282031951,2.3923141928642986,3.9795022298318337,0.6425374456860184,2.0266382767606856,2.1381287497579606,3.131924058620444,0.9396321395375963
16,2.225841603499413,2.068293664029924,-2.7389594926147027,0.7485830328186172,0.7190525446734181,0.7058790499796955,3.726713861108624,3.250730241984581,2.5227542678703756,2.710284356065412,0.6566669596287297,2.209904630493594,2.291907042507344,2.3310422978080814,0.943381901192483
17,1.9529226725759619,1.6379621546700591,-1.7931907440919832,1.101138335397219,1.0986210761171102,0.7345010256815014,3.4271400405829544,3.9415638663039196,2.199034652432903,2.8427957552536327,0.6357360191111145,1.8980092690707653,1.9273264859651755,2.8548413755641207,0.942173984192264
18,2.0242920911810542,0.5942483324722025,0.1977211307643394,1.1225381505368566,1.085585759186942,0.7525071619696796,3.0637847476910514,2.610615354094008,1.7034404598819899,1.6848659528280943,0.6068309995095971,1.8341799628898097,1.5214069075202934,1.223266007260615,0.9390608293676856
19,1.5907116921207516,0.9740948552617672,0.31001130852910563,0.6833514987973128,0.6498026450677973,0.8055509855485333,3.291618527144015,2.814751868683123,1.3006300286038581,1.2373115994042412,0.6447042257417027,1.494869916025361,1.0909626523526,0.7952354419890288,0.9288385931858562
20,1.8442460425440765,1.672867628059261,-2.435739771002599,0.686432054917993,0.6698524596656624,0.6773396310993693,3.5758212142061048,4.683406984668423,1.8210391623961448,4.479339915835944,0.6447042257417027,1.8357113567572378,1.692940680258032,3.768039048123821,0.9561022300257966
21,2.2912843181527474,1.8497436667825524,-1.3026360664756247,0.687488709121989,0.679583533625926,0.6299757899427542,3.0287911728513923,3.6248679599816476,2.290573944487654,3.43798231983133,0.6068309995095971,2.2644333270296695,2.1528751217888518,1.8965062996871185,0.9526371486536682
22,2.146448288675568,1.9609068688339026,-2.243118335511854,0.5221677116043844,0.5097046239762613,0.6178876334130539,3.455556671364593,5.627944332706527,2.24784470964188,4.111433250415551,0.6153451465759925,2.144537255057213,1.9504741961525915,2.6875806848183266,0.9423613372248892
23,1.3917818654715568,1.0579653567922505,0.2712297473011791,0.7206110509050797,0.7047964668121702,0.5733941550961117,3.0208052663748384,2.823604766233607,1.0939502624550554,1.1525367367139807,0.6528756675646988,1.3711649456565325,0.9633695826442935,0.7192977787483746,0.9127814625538978
24,1.7834013087798841,1.1246594551606275,0.11457174971326989,0.8238841730032975,0.8004930009856671,0.6319600955956539,3.030422028961517,3.5648656692826224,1.4039717492048622,1.1548126340308784,0.6447042257417027,1.7271584500435275,1.179545962473535,1.0701534542493716,0.9108392665220638
25,1.912851870331073,1.3002629191354498,0.7431906598585383,0.7984376687144621,0.7736549554368404,0.7182021600215646,3.395403448324842,3.2740754531754943,1.7269233806643944,1.587446321319395,0.6509067234006624,1.8375940055718543,1.54445455725154,1.6169875954295094,0.9430094620242552
26,1.6819035024866442,1.4102669616858357,0.7535292809753305,0.9496886914196679,0.9512706096247928,0.781525645772147,3.751398080424763,3.8161834527965364,1.5091481132377216,2.761089818919312,0.6284777104787076,1.6643635267096162,1.2876708915786552,1.7020926124263507,0.945670932432769
27,1.7082633263326068,1.4551893672594076,-0.2909459976388158,0.9776790407632271,0.9676881076932459,0.7072959337736304,2.9060420339691517,3.017777231976263,1.4819382627093933,1.3316492541068667,0.6425374456860184,1.6530415499162323,1.2671710499909536,1.0584251546029442,0.943275122796142
28,1.3358146889565587,0.9447368446213027,0.3451695242590693,0.6103436097550443,0.5824449126901731,0.5143250462676331,2.460041476911207,2.3461775150976365,1.1967560769994694,1.2541141654293793,0.6425374456860184,1.2193120739058945,0.9881648798946763,0.8323233175875231,0.954364609709137
29,1.118370622772725,0.7043586553570393,0.38911965417930583,0.4704040095413415,0.46268929936811004,0.5328700126514445,2.574959011133823,2.058100617121372,0.8813065318398291,0.8076993076782355,0.5978297680564633,1.0641786563502207,0.7360835253695837,0.5282106822263691,0.940159677642452
30,1.4307344244859936,0.8233179602624863,0.5722532994988185,0.548261400132912,0.5111999858403922,0.805932084778022,3.30761763192826,2.8127434031690997,0.8987896963752762,0.717870435885998,0.6602640781246099,1.4167535686045991,0.7899154675596199,0.5394292325755208,0.94054054256162
31,1.3245505498320926,1.0031068023883254,0.5857262403683339,0.7778441298405533,0.7526564477279142,0.6942491433970078,3.1220540965273402,2.542063588765282,1.133721300911884,0.8215097226470108,0.6547956803312163,1.3118467641055387,0.9192448827422579,0.6148805237516836,0.952079523714871
32,1.4701119749832936,1.2304733723747765,-0.10021586754772338,0.9206530280546473,0.9034357456388664,0.6795729783243766,2.751042097982307,2.0725905497010784,1.1757897869666387,0.9856863700138575,0.6425374456860184,1.4325477456373528,0.9692439974401411,0.7278529480627643,0.9454821155915872
33,1.6517599345973433,1.4802783766730383,0.5636148104629464,0.5165887282464021,0.47209422070056667,0.5991749119757187,2.535060482664085,2.3712292726771604,1.868903086548776,1.8963921611242376,0.6566669596287297,1.6151765692949938,1.6078746269836877,1.3010511666206281,0.9416493885012706
34,1.408316833210869,1.088727446095208,0.5965752478646893,0.7884625938909751,0.7659576728253132,0.668413100327387,2.532046359133645,2.3836085944821286,1.2167311994079697,1.001488671057384,0.62595550513784,1.3919100999055263,1.0197460881428813,0.760283041299684,0.9320924466669629
35,1.3662218665262416,1.1507380035354802,0.3770263710115547,0.8861537375853662,0.8769343531237468,0.46289297700740956,2.213513792868118,2.074548765073523,1.2709103542622622,1.4382040972912236,0.680118107274185,1.3397076810404545,1.048919561825912,0.944911490321974,0.9395124576754684
36,1.6316640767805903,1.325805648143375,0.9042512475334257,0.7241394671296071,0.6852730566991755,0.7557729305587739,3.025528790298678,3.0683807753253816,1.5442105542390816,1.580057441598092,0.6425374456860184,1.6274321758063792,1.3010569042029136,1.1894653478519417,0.9514877710097687
37,1.6552524473652273,1.1622001375663487,0.7510021198619463,1.245216193376639,1.2304864767086843,0.8180438371692095,3.3148552002820595,2.386370989441717,1.240469427178703,1.0368559091494673,0.6447042257417027,1.6432245281864324,1.0187375687230227,0.8150369981689822,0.941030943971399
38,1.6857191165318408,1.6592247224067398,-0.507059973355592,0.9785380029679097,0.9638266538186064,0.7189896503979728,3.2871621177836947,2.8882034683272666,1.7836338598710828,1.8518225116171734,0.6584896970785714,1.6517077137802985,1.5034111452851515,1.18939792685878,0.9426229323777134
39,1.6749078006031348,1.3249643355925314,0.5275408753367539,1.0144596990602939,0.9792844868266033,0.7206874784757612,3.0917017917488656,2.3934878347594637,1.4558815883947747,1.2917537604034068,0.6425374456860184,1.6462171639373968,1.2542049298122693,1.028408029994861,0.940969863241626
40,1.9394384377789122,1.7821809634800045,-0.5702961275879024,0.9684188509559755,0.9396331243761076,0.8155935347597905,4.2080665192846425,3.706788220785138,1.9404378013526948,1.9054843405767132,0.6153451465759925,1.9134752279121514,1.741754558097959,1.6102977577149353,0.920634018977346
41,1.966907028355032,1.8810473050520038,-0.4568805595398473,1.083425049954024,1.0528140497220402,0.7650180474816757,3.9362870114673867,3.715901854271235,2.1495593111874722,2.219948353133541,0.6284777104787076,1.9495054934559684,1.9011088838435342,1.7221398349502945,0.930736898975405
42,1.622369517885022,1.0732832869243452,-0.7463901731646247,1.2366506415240144,1.1851330856082598,0.6758706453460261,2.7388426348018373,2.1326262460045937,1.079340834662537,0.7537180914492161,0.6468212168108125,1.4152884339622147,0.8934265194073678,0.49071980953447997,0.9393847420269327
43,1.534940901257609,0.9318055875280311,0.45231799323454736,0.5484164495470952,0.5410025871468285,0.6666102987441309,3.1863524136280152,2.193688492262994,1.034136203320462,0.7833533561265286,0.6566669596287297,1.5279091300296197,0.8948368234067735,0.5406266973442617,0.9498174387259875
44,1.426302520397345,0.8006930440984164,0.2891657953978015,0.3980149483417199,0.3644637750874474,0.5860995911506877,2.768500566240383,1.6586014010699346,0.8189258624871528,0.657391012747223,0.6528756675646988,1.412547078930683,0.6823917048647863,0.5456085442051547,0.9475608723710508
45,1.4503589437028221,1.0645719285549418,0.7349503457801605,0.5451381781014873,0.5317033028800876,0.6928019727257825,3.258423598771526,3.0914160296713296,1.2131979236911732,1.0001970978730437,0.6309483474627791,1.4462331070918362,1.0221442407449537,0.7625148295271572,0.9458134285848286
46,1.7203993287259436,1.2324469530486233,0.9513466368888501,0.5186850287571864,0.48985013698154295,0.7600097436847655,3.5111875687081406,2.93741647010204,1.6524641173113175,2.514321051731944,0.6468212168108125,1.7180134673395706,1.2021991325676153,1.0727794680546272,0.9421273337360975
47,1.6453660872399534,1.0077659821018756,0.7214959566452062,0.8668334491313524,0.8582170664260061,0.5625690559278915,3.3405968504380463,2.8834100103833578,1.154706688442274,1.2501046888918057,0.6468212168108125,1.6420758949335648,0.9670343583137417,0.9279068515573837,0.9568110437447555
48,2.202766198144695,1.8817461868445946,-1.3739770454963884,0.4512505291207135,0.4445994211475019,0.7240835540010361,3.971182423030368,3.6838947621223777,2.2078180144427755,2.181449931132249,0.6528756675646988,2.1927346720633674,1.8707574266759686,1.5359303605926222,0.9367383188504772
49,1.8407639038521801,1.639874045358125,0.22038998068365734,0.925302477204338,0.903445562220163,0.684077890740662,3.6224489894639076,3.184605735081282,1.8131228427420742,2.2857496973294387,0.648888643467878,1.8230437592678215,1.591914537644371,1.8292918483655685,0.9518329027783023
50,1.8060040554736148,1.7359035695116072,-0.04196602944535188,1.124653183151924,1.122989238680957,0.7513996236523889,3.4233047985220173,3.122744295364897,1.8229491567531928,1.7474563206786236,0.62595550513784,1.7835267843015787,1.5985217785218158,1.3895698308023614,0.9332703903996654
51,1.613928040843946,1.2696183464656063,-0.4498823914544099,1.0027821255673646,0.9917282114009364,0.6940217546841937,2.6914767313154733,2.257795455623339,1.185664671605797,0.7636628574567647,0.6547956803312163,1.4954150236976214,1.0330952635725108,0.6281735173416209,0.9474673898970539
52,1.547677325709736,1.0471439921117482,0.446367256839594,1.002858694977887,0.9926545646695641,0.7038071563491872,3.079813335260149,2.6297747921335692,1.1702531828425133,1.1083614456383495,0.6380535849069913,1.4899772723974924,1.027314837534663,0.8588875087547122,0.95067419630014
53,1.558104900411568,1.18712867699157,0.26298792521310155,1.0984639412206973,1.077968582422497,0.7242592313427076,3.3619440980021613,3.242258116524821,1.2956574540948098,1.2343811955311712,0.6097226960127671,1.542298609596472,1.0665097568560893,0.9541239383951606,0.9527770745086671
54,1.7934658826187748,1.3123090210960546,-0.29127470316930726,0.9839303171045166,0.9886099204744098,0.704485536714972,2.7737374530278944,2.522254484674382,1.47019030718116,1.3865665942496326,0.6233814453054027,1.703321332766178,1.2669598083582885,0.9681999232667009,0.9447562758318544
55,1.5804446341266463,1.2850215869711836,1.0306742012959211,1.0490089125631663,1.040302450061116,0.699255944172153,2.946991484627661,2.9028573040986236,1.548744090598962,2.3063689845321744,0.6068309995095971,1.5278067234755108,1.3300978442831526,1.625047985505179,0.9477581254052223
56,1.4363641428644742,1.1858654969512976,0.583250949849337,0.9269826539472943,0.9076343914270514,0.7483750076983108,2.7411203158111057,2.475535366148602,1.195763066543623,1.248715707113443,0.6468212168108125,1.3813289315172208,1.0240274395127706,0.9451478963166461,0.9249829121905728
57,1.4983260793499569,1.240996232339092,0.7550363367916044,0.7870734329232507,0.7764233760572917,0.7641697914497053,3.099387587459752,2.8896831146320503,1.3415390132590275,1.179247428227993,0.6207552362147116,1.4776789229217433,1.1514060738821723,1.0439211081537307,0.9441508819250943
58,1.6449967251763404,1.4136129520224354,-0.008526132665076513,0.8448725149218542,0.8373628433788052,0.5430476050697715,3.3211688459747464,2.883442806226187,1.6865495811041558,1.2031203106314017,0.6284777104787076,1.5907797306155669,1.3818872700074278,0.9415806998272623,0.9450303687736414
59,1.622448642287675,1.0398178756333194,-0.006066340161124284,1.1560671749643263,1.1468267116337327,0.6137001269854924,3.2227895044450046,2.915183291556255,1.2696701447848606,1.409780326350664,0.6584896970785714,1.5098439916706112,1.089949890661747,0.9974183832557544,0.9479806372488921
60,1.8381459940694904,1.2625560879047002,-0.8091378211256748,1.2416558605501546,1.2332298236199275,0.7173671577695052,3.001527402188322,2.879309852171765,1.400944244625977,1.260026060606168,0.6509067234006624,1.6356678171638712,1.1937970058287721,0.9346172192425581,0.9398982546611663
61,1.885045073836974,1.1131186675215285,0.43485284068692964,0.9458568948134836,0.9348990554690437,0.6287048114680293,3.5196408994862494,3.810371636730628,1.8666315336611334,2.7633342686641207,0.6668815377411301,1.7737885839068186,1.6452333826678889,2.053648787118107,0.950489688132067
62,2.100990668323944,1.9429921070970249,-3.5911690700286814,0.3548293644475058,0.3429982000964089,0.7248928880115619,4.148429421992618,5.83542881541732,2.265367187374041,5.246445474130752,0.648888643467878,2.090614842277961,1.9722310528847686,4.048882188145344,0.928994886453643
63,2.414380111124066,0.44474811143930015,-2.7826571690532265,0.4806108513284874,0.46793333011124555,0.6317801650983244,4.443095328250007,4.575541026394973,2.8830832683232557,6.113597245180387,0.6380535849069913,2.397506459507167,2.5611690956583777,5.062595033026967,0.9344791539349374
64,2.1940324510781792,1.591105749209376,0.7369775165633401,0.8813083908451093,0.8491253005457212,0.7343857701637008,4.0600651005175505,2.9909201506899503,1.7013579639015877,2.09831252217706,0.6447042257417027,2.1918391050598816,1.5823561945729367,2.1119087318173375,0.9378864016393731
65,2.3176148642405368,1.4259312759848508,-0.017520194764263586,0.9008226930399761,0.8916121034415302,0.7742877234128243,4.375966639490487,4.491835139580537,1.615787765125594,3.5917529882536736,0.6790044388599258,2.3154452087236503,1.3936369527078054,1.8549383708495866,0.9506773383322952
66,2.23751232706302,1.6910684062874948,0.05348649685833751,0.535678559933308,0.520440612255954,0.7290899152745969,3.6465132817623633,4.455838953260056,1.9833353173720858,1.7744931594196092,0.6309483474627791,2.2336811143468345,1.7065127680480079,1.1358692170238687,0.9481931060953139
67,2.1843090272743724,1.904952534309325,-4.034234268701294,0.7296700988155365,0.710937140729623,0.725398046159964,3.99960770698259,5.710732941463791,2.1423481516172194,6.375961509647878,0.6468212168108125,2.182730131185767,1.882703087541914,5.955837369464831,0.9321231400436548
68,1.8245638957479127,1.2590969980544817,0.24561605968932998,0.7904665194800286,0.7604357070928262,0.7837922449628912,3.4985694246294003,3.4614320808103227,1.2498591437514168,1.2255810118192942,0.6425374456860184,1.818719650810838,1.1183245152837573,1.0129114935022006,0.9413402202579865
69,2.464458345172002,2.031014612082895,-0.008756984532944045,0.46595012102647226,0.4488153927231256,0.7464061556728819,4.241709666083718,4.893520608073686,2.1411446325366006,1.552835845641414,0.6790044388599258,2.458459479773152,2.0353681188795654,1.3685599061801221,0.9216935278789061
70,2.036386152005486,1.5098625391426879,0.8180960181844892,0.642137471481433,0.6176918689150445,0.7793408076502297,3.325811957879968,2.7651804922773633,1.688650539651784,1.612918298595654,0.6309483474627791,2.0288329260757627,1.5005766867333152,1.677646162460634,0.9466336748998158
71,1.8679316625812445,1.7169013399145707,0.7992580255335757,0.8735027916865663,0.8658121436057289,0.8425968333234263,3.46967829232482,3.724710420462856,2.027478545650648,1.4867257499142423,0.6153451465759925,1.8662675214031166,1.7037430670282012,1.1705975684518777,0.9332437553020273
72,1.8991695332817986,2.0124122871294636,-1.52062781232177,0.7629340928152505,0.7358788157010725,0.7866519945561145,3.8003586960967546,4.83196960897263,2.4800082071570486,4.37800145135262,0.62595550513784,1.8971199848858813,1.9241486572738007,1.4042114004360886,0.9281033768237429
73,2.215946191762595,2.369671481267999,-4.186470639352562,0.6100940945832815,0.6031029963285875,0.7844646365496114,3.2483977857340807,4.65850109447023,2.7429306299390714,5.052725284495124,0.62595550513784,2.212236697456723,2.3601436657083776,3.7441421327889857,0.948776409078204
74,1.9653489825098485,2.1169877448950194,-3.7023074571043706,0.7776334824636675,0.7516021080022353,0.7518134900620962,3.383422721153455,4.340522914915695,2.7388390164113585,4.613358624711278,0.5883313578629602,1.9625477902083366,2.0912948287044344,4.309199892676208,0.9385795550094724
75,2.0598732107351223,2.527894826484874,-3.507359513701311,0.9637558874001254,0.9346117496946654,0.7925450920285277,3.589923626182191,3.116978584789047,2.683220581850166,3.2539571851125917,0.6284777104787076,2.055811824385896,2.358738001993546,2.882141258759649,0.9388536733545548
76,1.747059369902837,1.5065747251280142,-0.6188922727950303,1.1055383611461012,1.0881303295415206,0.7512371365649405,2.9528788639843677,2.5654698133111604,1.5497281885924803,1.3064793461222213,0.6447042257417027,1.7038706994822685,1.3644322669065578,1.0822592758315028,0.9618621504708037
77,2.093748854393769,1.8560891243033542,-1.1892751644625412,0.9527093692565795,0.9260500784604455,0.7687134648969444,3.19531913484107,3.144833527273654,2.258597793250722,2.251724023437712,0.6468212168108125,2.0555514190200737,2.0720052774081403,1.937674000919377,0.9416361944664158
78,1.8345450007719748,1.7500589056597384,-0.8312664673846188,1.2221876703726902,1.2159217115501408,0.7375052654026163,2.997516664237099,2.3434663350408567,1.5843193516758671,0.8979501282807868,0.6425374456860184,1.7995900483432437,1.4223460098215512,0.6990155780076526,0.9374488347525309
79,1.9625948072679054,1.840657836071952,-0.9105129623771782,1.0445264725520937,1.036791291705843,0.8153836223943663,3.2032560165821318,3.395013785239201,2.0922753972809716,2.6228302498731164,0.6566669596287297,1.9516935071443804,1.811430680611456,2.107106494538029,0.944589978407802
80,1.8279572435580804,1.3363688262287474,0.7028121023634735,1.078503361093163,1.072866994451552,0.6605545421029404,3.1073354810023237,3.271129519255145,1.4772550281527774,2.004185880870336,0.5978297680564633,1.8057231762454413,1.2767780794357637,1.6000300514643544,0.9423704761843071
81,1.8499659418140422,1.5586374385410562,0.35415989188169883,0.986133216725042,0.9707802132880504,0.7743318580956969,3.4585845774983963,2.9402329721699005,1.7920392947367474,1.5427720793710993,0.6309483474627791,1.8210509738634544,1.5708563608916084,1.2357357070850872,0.9501771980330357
82,2.0352045425262952,1.2183262039835023,-2.104348846642436,0.7845358761113485,0.768528990281564,0.5633921381261771,2.7704910137337886,2.647722809658993,2.141184502401367,1.9362042621712563,0.648888643467878,1.8445275347667107,1.912392863108795,1.596205205167526,0.9403212549093685
83,2.1960956649238543,1.9160570691220595,-3.766443291502476,0.6826470891652694,0.6760512374135882,0.6354560715570684,2.902113731370895,2.9172986907277947,2.94379152657812,3.1426111877117275,0.6684167106117298,2.0889084338527604,2.718786016246805,2.962284339486451,0.9530960648425222
84,2.1703417351543166,1.2991414124731486,-2.6461074869423182,1.259380810529115,1.257301524255728,0.7789556187906792,2.915660149907108,2.30740463846562,2.6775880671213117,1.7252830790754636,0.6425374456860184,2.0860410483756042,2.3735868323218288,1.5497743670972162,0.9381191442829531
85,2.091442451207162,1.0164727791528279,-0.6494831405011081,1.3024361298015137,1.3010495945670577,0.7202876031721108,2.612412845532946,2.284909259039685,1.5986271235609426,1.4224684551799884,0.6233814453054027,1.8778258383328696,1.4026299256331571,1.1304276971698368,0.9490491576176706
86,1.9414268112627762,1.3444442646679289,-0.39384269435110353,1.1075703737378886,1.0849311315205925,0.7532458388807314,2.8795055815936577,2.5026766527592086,1.764238561557575,1.4056321093658812,0.6699045166045591,1.8010693385538328,1.543117788391543,1.1829937401810213,0.9450762027492514
87,1.9907819510945721,1.8848971316628549,-1.7762032774089542,1.1720102889939892,1.164182927606649,0.6740729201989422,3.0427519415427238,2.7771371310517887,1.8580702369026154,1.5776146536863849,0.663668482632973,1.9796163175206867,1.6468101219466997,1.2102555475054313,0.9416110046241363
88,1.8849603142192184,1.3921691887804422,0.41230677649756675,0.8206233792668345,0.8029038094853623,0.6219235971038487,3.1962081269973766,3.5165426120185916,1.6088772277252201,1.6896827123861011,0.6125606311107803,1.8770269132077584,1.3893482426469514,1.201935847416184,0.9356046865784797
89,1.8797244180327595,1.3240795734803577,0.6875529865845413,0.7309462631154321,0.6869663472391462,0.6841982924284464,3.178699289916626,2.907194019093914,1.4208366638977479,1.471471352669866,0.6207552362147116,1.873837580263662,1.2849366353523275,1.34604799653782,0.9436278349677267
90,2.069596472645961,1.8941977861292143,-2.530812841252279,0.5415657236169762,0.5160703531443795,0.766067501776461,2.608816077625872,2.565988090089127,2.122654805322133,3.3909448062872234,0.6652988471865258,2.030439759691394,1.999991476787054,2.9344824563436376,0.9322795312115616
91,1.950718067227349,1.585216377075991,0.7185241660963548,0.16280166969132606,0.1411736078299448,0.7012511586941848,2.9465159331537443,3.21852762991444,1.7942553297253827,1.1165812975843303,0.6403206450210053,1.9408783851942915,1.584371645137843,0.9479177090517097,0.9298690620664526
92,2.2174594157678316,1.8870105171666882,-1.7767547953756626,0.4802848429880512,0.43566999631717374,0.7554752924898234,3.327648894792834,4.329368581871973,2.172633444846031,4.524105596928665,0.6333676938231112,2.2125412814481127,1.8606943175637527,2.5140477846955,0.9460963354065418
93,1.9069084842639479,1.692740790287093,0.024058537215116527,0.7782235028965729,0.7510812842848924,0.7445523971083488,3.4240951523969625,3.380529465196633,1.8128267643063172,1.4102514884197526,0.6509067234006624,1.8982317137385718,1.5939850663107522,1.1286312186579972,0.9397318647563662
94,1.639798407200119,1.1987536633641651,0.3828825070757609,0.40668157077240014,0.38258320878153035,0.5809081409663099,2.6914069094747397,2.28050700090528,1.3763696207309473,1.1700005518689824,0.6233814453054027,1.6187029226175773,1.147859549552301,0.9267713322934382,0.9320589330699834
95,1.4358333193099728,0.9761402138703752,0.15025920521908098,0.6173073703203008,0.5900112690207576,0.7118455686617302,2.2583749811922114,1.6523761548192857,0.9590081238494582,0.9956923377572545,0.6713451011121618,1.3490842148107756,0.8019249387284808,0.6308670082036094,0.9443648790775722
96,1.990773836036834,0.9824753020367589,-0.34051170408438436,0.9986491939104449,0.9737359686485598,0.767763051750418,2.789099265259582,2.481294945384585,1.543633015337802,2.0703800917235924,0.6566669596287297,1.8639718033419796,1.3191615727492647,1.4698274737331956,0.9508767442624413
97,2.2590838818362866,0.9191436314557482,-1.7041747863879417,1.1348179938467713,1.1102460596430097,0.6732590845694402,3.2429279179753667,2.9910361594668875,2.316430398850024,3.0090232462619917,0.6309483474627791,2.117489609317366,2.0755709258438926,2.639793435647761,0.934407146115471
98,2.1017253485072267,1.5554608324453763,-2.6271529558159186,0.7414275218944949,0.7270081327970489,0.7115197632554171,3.5641286595989774,2.82890424310783,2.2899725549432017,4.430051360592564,0.6180765742263259,2.035105727859784,2.0219430496186197,3.3431829866015272,0.9382111260864374
99,1.7576430025713121,1.7633684692393305,-0.8026766604981406,1.244212857963134,1.221436640225313,0.7366097305176041,3.0947319917209,3.0122059552575533,1.952209724064298,2.466293694501194,0.6309483474627791,1.7286594822848307,1.7175352653080607,1.969905654611529,0.9333655445868924
100,2.123882533842502,2.1094118209824737,-2.441522009823076,1.2195389786970021,1.2298829703767091,0.7387383142775028,3.266693520641532,3.0474596992373053,2.4751956173014285,2.57043770023347,0.6380535849069913,2.114447150878651,2.1614192879668397,1.808688531328503,0.9467642473084745
101,2.0165359088809867,1.710479819978247,-1.3972611919653821,1.2541273139372573,1.2149277385132575,0.7186046516687308,3.432172713738286,3.2003514641169266,2.017482647004567,1.7630803887387159,0.6652988471865258,1.9932230715503763,1.8408106150160757,1.5214420938215336,0.9370174887539108
102,2.1260598852213417,1.1107676404962534,-1.2452416212475195,1.1234663082681329,1.1079416119922318,0.7032204922301669,2.6786657101348164,1.9759618585298284,1.9635250390933285,1.8491295421777019,0.6713451011121618,1.9942837333395291,1.6906036995048697,1.1816475172781,0.936653985102046
103,1.789754307114922,1.4484115581366626,-0.7340645354556896,0.9898523411967848,0.9841001557107105,0.686751893965459,3.2549745448912626,3.137147412692901,1.2890559320880899,0.9510724617833826,0.6038851895711802,1.6964492894237302,1.138676994246456,0.7317322138928165,0.9494561620343667
104,1.98114917713983,1.282462541236639,-1.0209121093241538,1.127624288110683,1.0901579477653838,0.79572145186337,3.2100184647257453,3.2257786857200053,1.7098645004438788,1.512096714492978,0.6068309995095971,1.867776955651971,1.4811442814448135,1.0393470585005733,0.9462379322452502
105,2.2380795722671922,1.1216061585523485,-0.22784338668681547,0.874901916598909,0.858043071919027,0.6340599286939349,3.2422790009375313,2.7920946354026754,2.2430608906624334,1.2145510663556447,0.6380535849069913,2.0786418615092717,2.1232879113927665,1.3139909645845929,0.9428038583647818
106,1.206125689760737,0.7447450965998461,0.6188940669278005,0.2554429354324269,0.2525035325670912,0.4786178025472063,1.9133513395927373,1.881477874375986,0.959889277858166,1.2642815533349474,0.663668482632973,1.1282814303301574,0.7312573613191871,0.7285086170581693,0.9276605730010057
107,2.0129466327140877,1.0820116503839161,0.28892024734098465,0.6397180586627809,0.6249486578416076,0.635325331849275,1.7697625608050178,2.1307176597765505,1.9747949992062803,2.1755011018670407,0.6097226960127671,1.801473161415694,1.6601821892835753,1.628744911865849,0.9562283099815717
108,1.841548299494729,1.2882821107646678,-0.985593072492922,0.9297229412848149,0.9007525239457599,0.7266769365475363,2.8280973887391996,2.36988818786357,1.4260288830931482,0.9772928484274532,0.663668482632973,1.6783117433876098,1.218681890817442,0.7034680249813703,0.9443602426125242
109,2.024840447788528,1.7551991419880637,-2.049054699348514,1.0092899761204108,1.0127843228893083,0.7496294198710248,3.1466227623666696,2.6635118703890486,1.8741174858050482,1.3831592535138229,0.6097226960127671,1.9425048425872655,1.6628507904780188,1.1390766202563145,0.9341141101587863
110,1.7480955910475708,1.3558124775720197,-0.29111385406359025,1.0952210199232104,1.0932329718157998,0.7127804449003597,3.1601290292170523,2.639248563387431,1.5884610143317182,1.427559949163741,0.6602640781246099,1.6823670924568581,1.414045308853854,1.1167156969013554,0.948790687560868
111,1.9849453343245151,1.2586084846885328,-1.2481300947593543,0.9623328542110755,0.9351915123934442,0.7101733492953738,3.2849071591483296,3.2334774087481866,1.6255010712562497,1.3224357735093781,0.6284777104787076,1.89231672421937,1.4556558962054875,1.123249593053495,0.9416524433449817
112,2.3031672615915757,1.6056163443462244,-2.8780252397110635,1.248432939350672,1.2328981628436828,0.7179943453670211,3.1140193184705125,3.222023733477736,2.3890292855867883,2.7517808809585382,0.6547956803312163,2.192933795919063,2.125387998365825,2.2140458318263625,0.9309442653694356
113,2.165130046807822,1.6900904236834116,-2.4923538699404357,1.057318824947315,1.0414230453786448,0.7804935333403082,3.3545675064816045,3.575534866046895,2.30489958503637,2.8983777315152963,0.62595550513784,2.096565094237042,2.11431328424101,2.5145553437101302,0.9352415898120084
114,2.125655993877085,2.178436209247365,-2.7675856129420664,0.39808175141331453,0.3869725360315418,0.5773503797435576,3.066492416336744,3.664345570837366,2.7695806485977146,4.723633155171534,0.6233814453054027,2.1092137000135063,2.459946048451552,2.4563785661734623,0.9271773332564959
115,2.034942087066703,2.572559381720371,0.7255896208235786,0.25718709591164207,0.20337592793710665,0.7176063440943896,3.110967226552709,2.931156109405746,2.783452977375382,0.8545061166627718,0.6180765742263259,2.032642777020275,2.535445734063285,1.0134763308483923,0.9411673546617836
116,2.917856335616804,-2.917856335616804,0.0,1.5028264824914972,1.4826110555610281,0.9017239198708188,4.222003123624273,70.09852837380704,,,0.663668482632973,2.917537425968934,inf,,0.864279443236852
117,2.564413834765826,-2.564413834765826,0.0,1.4814614477092345,1.4755005767131428,0.8724379895153949,4.127911786122345,53.35003818899207,,,0.6284777104787076,2.564094167685021,inf,,0.8911320876147487
118,2.055802574525941,1.5544288080866728,1.0302180834092458,0.122888179777612,0.11597214691438429,0.48599710347386604,2.5674593865967275,3.297149918241488,1.6269973342671167,1.5721007692016467,0.6380535849069913,2.0552043173157903,1.5546585964799216,1.0847458348396202,0.9680765880764607
119,2.4789209840441337,-2.2307833413665854,-0.11896529353520632,0.1740656785227582,0.152061707591327,0.7778168547729292,2.9943611220472226,1.6563007094258295,5.929141890609501,2.989032099783427,0.663668482632973,2.4760129826178807,5.376203905205108,1.3581234841531944,0.9112440910390454
120,2.4928686441298087,3.1039390613119116,-5.55857217868665,0.1914526360307307,0.18100330504912582,0.5908546157435899,3.905284104115918,7.9168944402597425,3.21826068826302,,0.6068309995095971,2.492267004194293,3.214854371727423,5.0072963928307415,0.9464866676938876
121,2.1937806663684483,-2.068636190234847,-0.10602671275606644,0.08467349851939517,0.07010459315470272,0.7388274021618307,3.6020498428089187,2.669097589350569,7.5980174552497495,,0.6125606311107803,2.1934317790975233,6.729226520426879,2.4849066497880004,0.9165722891147912
122,2.137774344875018,-2.1187093162014707,-0.019065028673547448,0.06236667603779548,0.05803474488747729,0.6456018207409694,3.6418123889822733,10.23701783839757,,,0.6403206450210053,2.1373531802988293,9.270211769013573,inf,0.9399658239046849
123,2.7665247620831526,-2.7665247620831526,0.0,0.08467349851939517,0.061504224285149275,0.8607056274885295,5.332837349061844,82.12097360255397,,,0.6233814453054027,2.765855883198597,inf,,0.9190156752904156
124,2.4203999168862116,-2.4203999168862116,0.0,1.5292363727416214,1.5003910790833033,0.8948252344738898,4.447365047386738,109.46243806737068,,,0.6528756675646988,2.420243136462278,inf,,0.8984095357307256
125,2.4900405981926923,-2.4900405981926923,0.0,1.3368672422051822,1.3168124494466715,0.8772146625541871,4.671404158218351,730.1144198146235,,,0.6207552362147116,2.4897182067852226,inf,,0.9005383303434367
126,2.4103861611638915,-2.4103861611638915,0.0,1.485702625364493,1.4579794088772042,0.9191941467232548,5.741343580532816,193.98063556848638,,,0.6207552362147116,2.4102940430789546,inf,,0.8931619783104604
127,2.70805020110221,-2.70805020110221,0.0,1.633574590233315,1.5951313666579123,0.9344501495776509,5.064911884242793,inf,,,0.6008849035917525,2.70805020110221,inf,,0.8393605555037369
128,2.5726580234380942,-2.5726580234380942,0.0,1.6929444665585152,1.644933261265295,0.9204845374076773,5.026889766915228,inf,,,0.6380535849069913,2.5717725828096625,inf,,0.8456721986480988
129,2.914825104525982,-2.914825104525982,0.0,1.6435572367023639,1.6077535463352943,0.8525140479243021,4.7694095480334235,inf,,,0.6207552362147116,2.9144595534252544,inf,,0.8625760394590292
130,2.873003988248936,-2.873003988248936,0.0,0.06698765724152846,0.051522828988650834,0.8059994612460072,5.780004110022757,50.14333448641623,,,0.62595550513784,2.872531839767834,inf,,0.9628609705171147
131,2.6339839169781256,1.9186633437819842,0.9723863553474796,0.16454583017054122,0.14640441072453222,0.6878399990191009,3.9098894761269687,2.835005794182146,1.9955449328353263,1.1022749019330922,0.6233814453054027,2.6334066581064444,1.9965116975708412,1.1112199055226846,0.9393710791236305
132,2.5075778463502805,-2.5075778463502805,0.0,0.14516110362951756,0.12045954404048134,0.8358414223609985,5.304066033356258,252.84085632920667,,,0.6602640781246099,2.506743344397175,inf,,0.8943062433632698
133,2.3694345801852332,-2.3694345801852332,0.0,0.06236667603779547,0.048825449648533754,0.8727222200865374,4.773372559822702,322.0456036203157,,,0.6068309995095971,2.369318613974738,inf,,0.9013459061544199
134,2.659260036932778,-2.659260036932778,0.0,1.4324307539074579,1.3765692308648227,0.8942856241952479,4.585981838330224,inf,,,0.6547956803312163,2.659260036932778,inf,,0.8659770217642883
135,2.7544018312337513,-2.7544018312337513,0.0,1.4823262586653578,1.459330239492987,0.9292066749910236,4.091724694073919,97.49977055459162,,,0.6425374456860184,2.754268674903824,inf,,0.8904820656717505
136,2.5295094288509663,-2.460203968142328,-0.031069933953568676,0.10696905971831198,0.09418619112235832,0.7093764123685814,3.934671156861542,4.4151018471940215,7.262242325662692,,0.6008849035917525,2.5292069086845803,6.932447891572509,1.252762968495368,0.9056467855179643
137,2.507251605269937,-2.373796404555105,-0.13345520071483213,0.21741154249979316,0.19755372149743866,0.7230762958240807,4.620502336230577,10.71944580550466,7.284705889950097,,0.6068309995095971,2.506743344397175,6.954911455859914,inf,0.9161982776920655
138,2.6986301797827705,-2.622370065088581,-0.07626011469418979,0.13417498074283646,0.1177563257621398,0.831085663208606,4.2466435202611486,12.998086621573517,7.3176473642913775,,0.6425374456860184,2.696945421370104,7.324325166822407,inf,0.8992019740875233
139,2.473547087820725,-2.473547087820725,0.0,1.4597748159523598,1.4259764923557798,0.8705544214263485,3.9716817516791116,91.61947247626023,,,0.5915533975974677,2.4733734139743273,inf,,0.857762368543583
140,2.61816735645529,-2.61816735645529,0.0,1.4280501768385179,1.3838194153688,0.8754418682403957,5.161945019523737,272.2393465326519,,,0.680118107274185,2.6180571625755054,inf,,0.8911260798661363
141,2.526086095642508,-2.526086095642508,0.0,1.3178525354825819,1.2613968909429947,0.8738222159809412,4.405210422060805,74.27668922791442,,,0.6447042257417027,2.5253120644230393,inf,,0.9193741106893177
142,2.2993084417571965,3.3058099882657532,-5.60511843002295,0.1405401224257846,0.11953497660783345,0.6514309264748612,6.214836049313021,36.7423173865671,3.4217894056017473,,0.6097226960127671,2.2989251321625583,3.4250600498111616,inf,0.9251199369056348
143,2.199222875860135,2.7511469489369387,-4.9121342980420035,0.1963043554646035,0.1840662187956077,0.46147133786444516,4.232947529487975,6.608165228457252,2.8175829302530726,5.687031965032136,0.6509067234006624,2.196424897165655,2.810882606837926,5.707110264748875,0.949464178386381
144,2.4567148943711823,2.153252813925471,-4.6099677082966535,1.5476107031245825,1.521563790051678,0.9444704043418288,3.9105333402929805,9.682556836227239,2.4240116120078388,,0.6097226960127671,2.4562544072148382,2.1589661146267547,inf,0.8998342149238012
145,2.4093339962906164,-2.4093339962906164,0.0,1.484803170377282,1.4445447606594246,0.8345273031808846,4.3255693147559855,170.86201946740832,,,0.6403206450210053,2.4093045562944493,inf,,0.8500275729094303
146,2.823586078514999,2.8768574948756878,-5.700443573390687,0.8811618397556822,0.8781810871368196,0.6708193648450389,3.8422429756185696,10.199753118987292,2.8773565623001183,,0.6380535849069913,2.823087011090568,2.8840343648311473,inf,0.9103623898807136
147,2.3039072759629917,-2.2382761038452164,-0.06563117211777526,0.08929447972312814,0.07652486505613797,0.6954249409151253,3.9353511279903293,7.372687957342849,7.3054308557065815,,0.6425374456860184,2.303696821846736,6.80128303447162,inf,0.9720613427699915
148,2.6733318312218017,-2.587673483030975,-0.08565834819082699,0.08929447972312814,0.06627831018329651,0.7144733269008591,4.036346047949086,30.363070657619005,6.530818624077563,,0.6547956803312163,2.6728439453675907,6.432135910950766,inf,0.9355195472365905
149,2.4996025678152924,3.2008410055753944,-5.700443573390687,1.6484886325312496,1.596660287872115,0.8545056604111367,4.533904297471917,8.38855946716993,3.252501572629285,,0.6509067234006624,2.499411335990882,3.207710039930834,inf,0.8911675562842621
150,2.724464055306226,-2.724464055306226,0.0,1.6291337061103446,1.5888551113792653,0.9130532859628919,4.112558135427774,611.0595670194936,,,0.648888643467878,2.7241795830320936,inf,,0.8706038818358703
151,2.7208735246990976,-2.7208735246990976,0.0,1.3809513524420232,1.3614275796000632,0.9039291173157448,5.307364139936744,455.962407269403,,,0.6566669596287297,2.72062898330907,inf,,0.8618862531091982
152,2.3394224644733517,-2.1378510089333287,-0.18245369216248825,0.20905883749319043,0.19013411681718526,0.59609275543022,4.12132965360915,8.359199925632902,5.56582183186203,3.489807387695916,0.6333676938231112,2.338557753452863,5.284817561941278,3.784189633918261,0.9491032137029308
153,2.2303963332151797,2.771046978901645,-4.869944965724281,0.3860828112199126,0.37163937046869955,0.6513301218656115,4.965689984828117,7.346629812464496,2.8238581637544704,4.733000905175134,0.6068309995095971,2.2278899916471047,2.802948009766671,4.297285406218791,0.9396770195320328
154,1.9857217247992163,1.6681396447312362,-0.030955460307238614,0.8315302976979817,0.8174638423083705,0.7957880120636438,3.832042946050252,1.7699553435535145,1.7087345892495507,0.964238969841391,0.62595550513784,1.974801285346493,1.588522945824098,1.0231332458853466,0.951348349820742
155,2.563954765425,2.5797839646686422,-4.759908301084965,0.7567470920062951,0.7418313726019763,0.7226581178452746,3.787548582819093,4.286639354105798,3.0116828055553198,3.0584415511555947,0.6509067234006624,2.551473894060113,2.905448502664562,2.5833467226012528,0.9356703041377172
156,2.393017263400053,2.0680451527662123,0.4596905489867371,0.5104357308958524,0.48106013815794474,0.7761433338630992,2.8722144341666698,2.960554370125053,2.146368829031568,1.3579326905681472,0.6125606311107803,2.3886272428663666,2.074850498216508,1.3719331760517628,0.885411485193479
157,2.4445664682341106,2.5563434948144086,-4.945882670166116,0.08929447972312814,0.07121644939060742,0.6971397810910896,2.868779438625667,3.127096940321316,5.778684659117594,2.072741367909272,0.5915533975974677,2.4441486573158326,2.5548875009370713,5.022234429939608,0.9469696879834113
158,2.39034813406663,1.8069513783485265,1.4220768397017904,0.06698765724152846,0.057065242610896114,0.79232484002696,2.8183367880373162,2.6710354138098276,2.157991583611619,6.153451738855569,0.6447042257417027,2.3895964699836756,1.822781159150018,1.474875543571297,0.896749989215296
159,2.475362942920702,-2.475362942920702,0.0,1.2698261484602436,1.251357558489605,0.9498909832732768,3.0938838474856136,2.4370784699878434,,,0.6652988471865258,2.4752203801985795,inf,,0.8898862754611349
160,2.1629281816034136,0.6777610907551566,-2.84068927235857,1.542987064451773,1.5081436230800496,0.9369827041785211,3.6772620141522636,12.169894895475977,,,0.6284777104787076,2.162823150618887,4.240795492748056,inf,0.8750880741945831
161,2.6740597200641725,-2.6740597200641725,0.0,1.5656954646923686,1.542033472430109,0.9256681896186228,3.786954305332103,4.519327464234653,,,0.6425374456860184,2.673809817947509,inf,,0.86154739088502
162,2.3519955384155473,-2.3519955384155473,0.0,1.565111249677404,1.5427670685981705,0.9286474917648915,3.9321737436076076,3.6462781451414856,,,0.6403206450210053,2.3517753371848173,inf,,0.869467214982538
163,2.5249825460093254,3.167150302800131,-5.6921328488094565,0.08005251731566218,0.07088012230884877,0.8673153030516477,3.5053749944278483,2.271806122946904,3.1692974571246735,,0.6284777104787076,2.5244794249078235,3.1693527188952095,inf,0.8742789603993879
164,2.4301735317677506,1.8948731410664363,0.16007984450261858,0.13591914122205162,0.11656454030949681,0.8091284296784665,4.176502636390964,5.535847891210402,1.8972353141087643,0.7078427737544208,0.6233814453054027,2.429535016475246,1.896321346731581,0.32013581730151947,0.9448899171698223
165,2.522949436377225,-2.4884936676209937,-0.03445576875623165,0.06698765724152846,0.051999470294778735,0.8236698440087715,4.480131601007846,5.338369960389075,7.779735566851707,,0.6068309995095971,2.5225392912615554,7.4987312969309565,inf,0.9178333890433208
166,2.7571207860662996,-2.7571207860662996,0.0,0.9508409375021923,0.9281641560561551,0.897165594456114,4.786522985760106,315.1502578407078,,,0.6380535849069913,2.7570653905879396,inf,,0.912873294789095
167,2.694037262405147,3.0064063109855397,-5.700443573390687,1.5051438139739743,1.476010378766154,0.8703366252792356,4.036360755206984,418.5908889469577,,,0.5713653840954815,2.6936543208184776,3.013467055103238,inf,0.9120854716778104
168,2.972283277540673,-2.972283277540673,0.0,1.5863316384981623,1.5548265212997727,0.9155711306686625,5.172242123700545,144.93157174618213,,,0.6125606311107803,2.9717987565918937,inf,,0.8989742796526304
169,2.385518894746499,-2.385518894746499,0.0,1.5696981945874606,1.5427832008017976,0.8820829106110889,4.71472532318247,79.46524639133504,,,0.5883313578629602,2.385363019451739,inf,,0.8895256377894509
170,2.410956210591224,2.180290011042765,0.24322191563214268,0.1645458301705412,0.1493158824131574,0.6892612750081515,3.758066119567734,6.777151322279073,2.5698366903627603,5.7217749134760085,0.6125606311107803,2.409428188612095,2.2102917783907277,1.2505107152910429,0.926874862766081
171,2.536441980131398,-2.2246738821597334,-0.2926503345941298,0.18043082020570633,0.16665603148514177,0.5995453637952883,4.190703493191631,7.68268569805575,6.157618975349791,2.701350027331646,0.6566669596287297,2.535217970329371,5.694293148635086,3.1780538303479458,0.9127296423030564
172,2.588115990391376,-2.296780158582803,-0.2339825416759684,0.10234807851457901,0.07870492445252385,0.814764578812803,3.542756931744771,3.5075368299527026,5.481817086508671,3.3255043364046397,0.6425374456860184,2.586865550097498,5.131819945100967,2.5902671654458267,0.9181245735940415
173,2.177540538095362,1.3838693985664778,0.8611099288879123,0.04466961139416602,0.03842310286169914,0.5170373257901589,3.0008998026655354,3.21085608943422,1.7517291777067203,2.567392104523647,0.6207552362147116,2.17722589082953,1.3775112462011276,0.8114161484869334,0.9550027467020311
174,2.1813837689351345,1.9142739900449435,0.874705014710714,0.06698765724152846,0.05396630393020147,0.7685853232457363,3.135148432391388,5.374015929096986,1.916661099369937,0.916347340566471,0.6403206450210053,2.181055996174636,1.917966155598576,0.9250361626551846,0.9244661272293838
175,2.5682882587270512,-2.5682882587270512,0.0,1.153534797846339,1.1349012346754372,0.9172001641951263,3.693805238906972,7.553615234494275,,,0.6652988471865258,2.5682882587270512,inf,,0.885455642555295
176,2.5257286443082556,3.1747149290824312,-5.700443573390687,1.5005855709121425,1.5062436760093838,0.9240573051415906,2.8493098283791447,3.4072688691510535,3.1747149290824312,,0.6403206450210053,2.5257286443082556,3.1813927316134603,inf,0.8816132552586783
177,1.7582594487958552,0.9276259652582854,0.2791403763766742,0.106969059718312,0.10428452865411855,0.5702541313758654,3.2334076345469684,5.4047487538602645,1.0178909365957178,0.3439423404438788,0.6403206450210053,1.7574868752859587,0.917450974366049,0.35033767070895844,0.9490476686110119
178,2.3199181997019522,1.3290671535645342,0.5179588754203599,0.38368854097900307,0.36016232719577285,0.8493530776885098,3.4871298817286354,7.836960270119212,1.3623805415198698,0.772127711593306,0.6097226960127671,2.3184886648292586,1.351460001625239,0.7650100315561511,0.932462602054359
179,2.3085949966631953,1.6336027690229393,1.4428744129124458,0.20817067060929573,0.19386340365415994,0.7986344289637997,3.2354341046154147,5.432102734664279,1.802326388205232,3.987755842671704,0.6468212168108125,2.308267876129544,1.6233911038154611,1.7458061863938226,0.924734512104946
180,2.1158211701327274,1.55601231374881,1.988499637326775,0.04466961139416602,0.039126062587755306,0.6721832771539661,2.904699906903839,3.530000530162958,1.6296424455041842,1.9660572253209374,0.5883313578629602,2.114907534847006,1.550689514644711,2.015120152233488,0.9704291803169028
181,2.5607210635524225,1.7726138877857074,1.2681697182795997,0.06698765724152846,0.04241289806176811,0.8120848453109238,2.205564335143886,2.5129093794035353,3.026407770001448,4.421135996934612,0.62595550513784,2.560348844954859,1.7756427401460113,1.3914007551944647,0.8985403615231764
182,2.524503984472648,2.0773273002499297,-4.601831284722578,1.5315286861001345,1.496934673387507,0.9590913586519587,2.5267970124393795,2.015837598889049,2.4861670548081998,,0.6380535849069913,2.5244794249078235,2.0840296623457824,inf,0.8831607261206258
183,2.3873376986760864,1.9224702449881388,-4.214219126776551,1.1464667073380128,1.1374734028702684,0.9120834258867285,2.182187532487086,1.6637671956060887,1.9228159452592137,,0.663668482632973,2.3863290864270064,1.929493747790243,5.4823042026610525,0.9003826329221607
184,2.2495960492520317,2.49597871861257,-4.745574767864602,0.06698765724152846,0.04976446816202433,0.8680226571677302,2.3392325313424664,1.9233309753629069,2.823484673870268,,0.6403206450210053,2.24946568918191,2.4835378683160663,inf,0.914735983838369
185,1.7335816406348192,1.1465748209963016,1.0291441117549542,0.08929447972312814,0.0866756790525309,0.6133971118753596,2.6060161051012445,3.045777273152696,1.4648064986524723,1.2648582623448419,0.5947193981915972,1.7330504064140415,1.1477671386773114,1.0491431610234605,0.9654210842885833
186,2.312461628866581,1.5073605762533586,1.1235397829806932,0.11076939664562824,0.08807782527560863,0.8497308316325467,2.674144105249446,2.9816663049537873,1.6187007560747642,1.7697918233267027,0.62595550513784,2.3119622548066427,1.5251594424483856,1.1954184322292774,0.9431494320252772
187,2.078334029435203,2.357647977681609,1.2388168829686323,0.14228428290499973,0.13300106697568054,0.5630690601179397,3.3853470912374584,3.696490830304016,2.5930427464341546,1.481376881659269,0.6380535849069913,2.078020329857743,2.347609942298271,1.2485934002586432,0.9492033843603536
188,2.1520667089079475,1.303089101129296,0.3492791020922037,1.6351244100948459,1.5716291494519405,0.9447971028013971,2.482985249511487,2.506565879117617,1.7265224694628931,,0.6602640781246099,2.151964445931355,1.3061560831304215,2.6561395955261333,0.9350996377725445
189,2.2728184914479317,1.8160368039894865,0.8693677066264422,0.10234807851457901,0.09490012610267204,0.7239461101827058,3.1963615475843064,2.88717604449225,1.8331280118065665,1.6679553769749162,0.6284777104787076,2.272702718512176,1.820975399166764,0.937159883734835,0.9501040631973325
190,2.430050096519537,1.8920159171363151,0.24254222572708262,0.102348078514579,0.08468987576985718,0.9153100505473586,3.336090343631812,2.171597766444596,1.9063407684226503,0.7019511933253466,0.6153451465759925,2.429787350566921,1.8960690126399062,0.30406199247045834,0.9337811514357535
191,2.7108192185391213,2.29647717429162,-5.0072963928307415,1.2352801349833287,1.1899059119749125,0.9470193823928903,3.6553952829325302,5.0830274576259455,2.296575963172652,,0.6207552362147116,2.710720429658089,2.3032537657036816,inf,0.9272731359317863
192,1.8160612261697902,1.4052838097756715,1.092251130478488,0.19519589388199152,0.18907376087587657,0.663856507255252,2.9332074292009844,2.6050618304857016,1.5442708876566489,1.2406026880170058,0.6284777104787076,1.8158472647571449,1.4116769610650968,1.0983321373845853,0.948491164362854
193,2.429222326960136,2.5218988337957726,-4.8601843383686365,0.14228428290499973,0.12296252986426247,0.793785587812024,3.671372467083419,5.760295133582801,2.532044211077231,6.434246366862356,0.6284777104787076,2.4278963950712207,2.5057778578889067,4.527980547296962,0.9447752179379848
194,1.69134155974779,1.4093329557771008,0.6752444196165364,0.24621149693335168,0.24289930107745258,0.7548453529306871,3.5841135301521216,5.231705306690785,1.5911129721158788,1.5100762806434513,0.6584896970785714,1.6876997993032767,1.3926225425513337,0.7839692607523457,0.942082779084459
195,2.0301039216513193,2.785608911506884,-4.6650967233881255,0.11826719857387902,0.1093682188184952,0.674186594131456,3.4311442793444074,5.968575794647792,3.605674891133269,4.663008533355098,0.6333676938231112,2.026891259854332,2.983744034241924,4.199705077879927,0.9383938685843208
196,1.6566427998453161,1.3018326852007582,1.1662591495060797,0.5882003519338885,0.5820487411572008,0.675951088099864,3.07891418711267,2.9626397989302933,1.5634766848170323,1.571592876036489,0.6125606311107803,1.6565295199679508,1.306843130812704,1.1683276979852146,0.941812212964182
197,1.6704016032033806,1.4195305285674187,0.7536791404690217,0.6520210012577597,0.6078636122178349,0.7653925214363968,3.775360573091647,4.424546033542699,1.7875730495436728,1.7458118081840728,0.6097226960127671,1.6502020382584104,1.4966115563534788,1.1443572106070479,0.9321477163132237
198,1.7889794057768265,1.3194618439031787,-0.2727449685735239,1.0220184112770656,0.9985009362576741,0.7213872997257919,3.195259751697026,3.026455996671097,1.644432806303639,1.8543651070189724,0.6403206450210053,1.6867990335915684,1.3689191768925892,1.3209892627121238,0.9464524129830195
199,1.8086559591526137,1.2791891537869855,-0.1842805722291292,0.9813542810565469,0.9509766377906038,0.7468500870015119,2.9309405991994746,2.575098213167026,1.662092040613455,1.6559364331177344,0.6425374456860184,1.7096880515481818,1.445430807517268,1.3896881771955512,0.9335113072344535
200,2.1095756886796977,2.557891433357053,-4.141473736466578,0.6392360034608741,0.6197783710045953,0.6557326349780271,3.3871140036331315,5.028990814002851,2.6183730630715116,3.5818565587155033,0.6566669596287297,2.102914897865478,2.528143059074741,3.3107710895724565,0.9304552908858132
201,2.289223100426209,2.645613890304826,-4.7436593569556855,0.39142607783961225,0.37032514457639754,0.6759008906094902,2.9775837372114466,3.669740336105839,2.7001714595109627,5.309784496732922,0.6125606311107803,2.2856187280988145,2.6072335303410576,4.212127597878484,0.9404400968211014
202,2.045237409428333,2.551118018350862,-4.130041329591828,0.45672179926927486,0.4315578408374502,0.7832333951745653,3.0699712628222753,3.0210879854920623,3.0439508678829252,3.7418985150449946,0.6652988471865258,2.043388232621352,2.5172335771056704,3.4457457579232242,0.9467784523170232
203,1.9891355202544851,1.6671173420371075,0.7854003711885924,0.40278396602784755,0.38644718383046506,0.8048485068947949,2.808917845741002,2.6966988181641405,1.7754867533367873,1.1276914765689026,0.663668482632973,1.9867205695684733,1.6586737726057241,1.0565315122782017,0.9512317335308957
204,1.964203954708759,1.9470112596478635,1.3617153997144937,0.3300669804009198,0.2911011968168857,0.7366656570660374,2.571018789837072,2.4944780065123546,2.2959072904630164,1.5340084065113555,0.6233814453054027,1.962152455156736,1.9432260075527417,1.8392260064669788,0.9427238838704126
205,1.5923593985637146,1.0830409585869623,0.6219297640384411,0.5578588357013684,0.5379524927660173,0.6809848249016676,2.5947544396670565,2.1497619165678135,1.2643083032851234,1.3315150079236733,0.648888643467878,1.5498595894314018,1.0816926406980834,0.957984780652188,0.9531940122074921
206,1.5825832696983066,0.9495651350954011,-0.8877544393735306,0.8494638539108571,0.8217173031946052,0.6492011747518664,2.429334099139234,2.011810327297337,0.7517272127668391,0.5653278546109874,0.6684167106117298,1.3767841711188984,0.6459830244801682,0.4382927277146534,0.9425593144851603
207,2.1675466812333672,0.9531971494915159,-0.9949751378752869,1.1767822047046455,1.1591413139251696,0.7763002052212973,2.863633438352455,2.5726744966162096,2.044194953008671,1.6681204979263882,0.6097226960127671,1.991512067751689,1.8985320309576819,1.4654316816786144,0.9461694127486935
208,2.268294324707997,0.48811092858057936,0.14811439626398304,0.7715162985228107,0.7396718760921394,0.6979981275714817,2.4677523113988413,2.9264651062667197,1.8690973314193882,1.8035246051295357,0.6380535849069913,1.975361845921732,1.7170794997585648,1.660684257362735,0.9314348199580568
209,1.8985314370950672,1.7105054596787834,-1.448633003539329,0.5991765335406545,0.5858848513554611,0.6541210104972587,2.193653841056334,2.5469898763958825,2.509766374627888,3.902710727429657,0.6547956803312163,1.8462156550241138,2.0713783954534875,2.5921310988838893,0.9368163982677375
210,2.1323196135311493,2.895383755145332,-4.970350078543876,0.21103373620254545,0.1916852417433847,0.6782471344582902,2.584804317892969,5.28661057812435,3.1386918757390783,5.431379135152631,0.6380535849069913,2.130968781559154,2.8027054714009734,5.375278407684165,0.9156623856612955
211,1.2749368703486346,0.817281484292572,-0.2984514780717453,0.7813079743984063,0.765289300667531,0.604020447194707,2.277283003293409,0.79341523299657,0.6329461612577724,0.36604412894369465,0.6468212168108125,1.1550062888642738,0.5043223931832916,0.3010072421827725,0.9371178609060679
212,1.755938562688699,1.36837441696559,-0.35480579780124266,0.9864738457740231,0.9924588819761991,0.6213511535470889,3.049472914233915,2.582882775973596,1.473298082560291,1.0858419250796603,0.6333676938231112,1.6073844666422028,1.2904148070827584,0.8407373869977579,0.9434300422939967
213,2.1895237500447813,0.8801562227814514,-1.5642346987028537,1.017554920248692,1.0126122764547514,0.7127288250678939,2.7446123730011345,2.3895597254087773,1.6167150798222478,1.3999870509124672,0.6602640781246099,1.9301789797348807,1.397458198819246,1.0535009620586395,0.947569890332401
214,1.7852805148444548,0.8850593174355577,-0.21376019732918206,0.7020654312786703,0.6925012022837528,0.3827878266994184,2.4017723794455113,2.141348072561847,1.333082251420987,1.439368830364057,0.6403206450210053,1.5510117839654882,1.136419129933986,1.07713039985221,0.9137736777666164
215,2.121951597157436,1.1678956907884714,-1.3477654617508148,1.153914408446938,1.1255613610948436,0.7361587138571073,2.6190425633852352,2.374332546780738,1.8817118368698276,1.6752484841974813,0.6233814453054027,1.93186480388893,1.6767668353822553,1.432462862309779,0.9499898607378016
216,1.1930778950940988,0.7442650069223353,0.32548941451337354,0.4145353718567884,0.38885098828737297,0.5456931161934151,2.706884754081475,2.050933445764194,0.7462195348388544,0.41358115746798396,0.6713451011121618,1.1725459170462318,0.6757133594213081,0.42401217519159073,0.9287872117090012
217,1.2094801664048134,0.7615236504950786,0.5899545868221401,0.536932577230746,0.5137416715365954,0.7376276030489761,3.176452193677911,2.804956719111604,0.9644066566646957,1.1737857660181914,0.6403206450210053,1.1622267923968417,0.7184367529372201,0.8725583744148693,0.934133389705097
218,1.6661951525956142,1.7089486889046521,0.7849386514865637,0.3540708116221779,0.3265029972722597,0.5893482423228097,2.4415491528307536,2.548526012255551,2.2323269158209413,1.4264254870334256,0.6602640781246099,1.6532156597799958,1.7236143654338651,1.03222528184794,0.94920424200831
219,1.8930257654906024,1.9198512498285971,-0.6792441257791304,0.360435953305126,0.3228697002294848,0.6144174028529876,1.8638303078554577,2.7544767729222794,2.5126506573862835,3.081813833234393,0.6038851895711802,1.8107384358258578,1.997926056615135,1.625090845002148,0.9329240498149721
220,1.580814491894116,1.2410702614450224,0.3117861477665773,0.3735227875350131,0.3601954053423731,0.5238035874792663,1.756630248972397,1.7337395976055496,1.545426088019823,0.9271568818214901,0.675384900321601,1.5076337129790511,1.3475639699094595,0.8570641314603248,0.939739749718422
221,1.8789063019497947,1.1052937134584595,0.5233542969416431,0.7635748756186899,0.7546941247547695,0.5557854273642021,2.490096856835269,2.8900230432171137,1.4953492078191086,1.8911252074261207,0.6207552362147116,1.801136631040652,1.335647305109077,1.6971008462020276,0.9427391092741351
222,1.641899622107377,1.302046985130098,0.06829810789131807,0.7283941199905156,0.7078956152586793,0.8131471252735816,3.476110506586282,2.775582231097116,1.3542181996359026,1.2543694509734786,0.6584896970785714,1.5755196942306398,1.1669494337420296,0.8632954194307605,0.9459174135004714
223,1.894359507321714,1.444448734392533,0.7675138849617751,0.9578537112418496,0.9303879458087819,0.8023678372547403,3.9811876496046006,3.6906967871906082,1.6197890127932002,2.4352751834676196,0.6566669596287297,1.8838016613922879,1.3948831457944755,1.8597838584193773,0.8892264060861377
224,1.4281273639732768,1.4488218429989899,-0.9269451949656529,1.0673755089091648,1.0543804611378527,0.6486018777239889,2.938738147549402,2.2535112697676536,1.1004798402177927,0.7505364789409932,0.6425374456860184,1.2749517737845169,0.9133130621802307,0.4831320474894271,0.9221981751062157
225,1.5267165604937718,1.0350171282409226,-0.31797633277080983,0.9539839485489333,0.9467052224819148,0.6814909282699242,2.827247423580897,2.447494785334396,1.1344548822550433,0.8794137567207312,0.6284777104787076,1.4009794387727068,0.9066181960448831,0.6631168757611132,0.9450428486812561
226,1.3092305905720423,0.9077650593146904,0.14258112746177565,0.9316098236293111,0.9228879434495111,0.5258338470390699,2.9378552503647586,2.683243608227427,0.8657594811940441,0.739428251592307,0.5783247308855777,1.1891206821896125,0.7429742271653375,0.5128220922168919,0.9406244963396727
227,1.6465173358253813,1.4366370682261345,-0.25637127108865565,1.1154075935518712,1.0989226176590134,0.7451056804085227,3.228383690744699,2.8978372760221363,1.372520071577147,1.2416123124807679,0.648888643467878,1.5954254362355795,1.1835838538071246,1.0256551970649428,0.9383614025010772
228,1.7151559207975327,1.617337758707873,0.14260211321866212,1.2952252615848225,1.2928243512539408,0.7232879137420706,3.153772324618722,3.107436890263917,1.6409618521287337,2.2804286609867903,0.62595550513784,1.6858990785285777,1.4107591136153739,1.5906866020331556,0.9365372033039371
229,1.544784023821006,1.2936534362694232,0.9778586333754502,1.3155382298789953,1.29977698193417,0.7002191865653268,3.093788647638311,3.265390780838725,1.4364299212328775,1.5952710373069994,0.5883313578629602,1.5155428748855522,1.223310235371703,1.2797657414367098,0.9384589906864946
230,1.6060473725847604,1.3770085052516647,0.1463080601522413,1.159308555425043,1.147401742112879,0.6781719329032676,2.6795058373451073,2.4920174012159295,1.6138629239323827,1.6286998702767677,0.6584896970785714,1.5078344456539863,1.3477494867565145,1.1711019813377852,0.9034534894014546
231,1.7366191879582402,1.4059154280150565,0.7705413847549236,1.029739823322,1.001437932675225,0.7414501186720436,3.3841531635823747,3.162816312172968,1.579212296325637,1.4896796527358056,0.6566669596287297,1.7199971030011643,1.3788759294723403,1.3370233121131079,0.9400950541857487
232,2.259531172685734,1.9349532400251688,-1.6159123539938909,0.7602657913852859,0.7407167915200208,0.6865299564239276,4.042796037698866,5.048818285778702,2.1586952857211306,3.452581119252483,0.6153451465759925,2.256550043421034,1.985521430830522,2.252838589324794,0.9378563896245812
233,2.1566994791227136,1.4636374277745232,0.08898829053500146,0.23483408813450724,0.22273442613760275,0.692794309690535,3.6152867931477806,3.0566772178190162,1.7646757007206588,3.9479314644827994,0.6425374456860184,2.1552192831911894,1.510812076839385,1.4207652950312455,0.9421621304160197
234,1.8723507378792548,1.4603227557322944,-0.8948598817667421,0.335546419962534,0.3259822205337994,0.6043522689075789,3.191403647328903,2.282607349423511,1.7560804752436856,1.4629584951006507,0.6403206450210053,1.815574133994095,1.5182761742084503,1.1171691979582878,0.9346272850418222
235,2.1670780616293315,1.3846015213713834,-1.401083348238772,0.6377614978147323,0.6330674082788068,0.6714203726991679,3.0839425315253672,2.90154257932032,2.0750323030743365,1.9123210750684183,0.6447042257417027,2.0597260641505857,1.8439981384628652,1.4803931537379182,0.9460372098062533
236,2.159081471565681,1.116595296091047,-1.213762251044133,1.4847770104197346,1.507569392390065,0.706546320322569,3.201858819748482,3.1997078233615843,1.8567941482366193,1.951816335710334,0.6447042257417027,2.028748427364318,1.634679894320094,1.5077670374242857,0.9407454293216682
237,1.9580963867511616,1.3735502819516086,-0.07973351510334581,0.7422870500501805,0.7256471560260419,0.7048921158032584,3.376990643569433,4.332591546859639,1.9369348153585462,2.183022492913861,0.6447042257417027,1.867057893278283,1.6869022429362825,1.3493166395611909,0.9406729597589809
238,2.119815490151264,2.0642153901429703,-2.85575876408651,0.2541380724696976,0.2378134824115622,0.5785390274644502,3.611787341914565,2.967140448037316,2.26027081053755,3.512504685250185,0.6566669596287297,2.1249039157565934,2.0980318808384943,2.965121447541208,0.9504042482112727
239,2.112450356116917,2.739049687628867,-3.8214668186090988,0.3713690472244946,0.3703771885571597,0.5678494304809111,3.1580636248110197,4.7486080933639006,3.710189763311043,3.0118467775495983,0.648888643467878,2.1072010746886307,2.8594173339908506,2.4336133554004498,0.9314696845656031
240,2.2044426656860168,1.0926432861304294,-0.06618394101304625,0.17868665972649117,0.15202637942143235,0.7412549657900881,2.2697333211623723,2.876984973862452,2.9174320949969856,1.8379017768318708,0.6357360191111145,2.1845058049284445,2.5409505469341487,1.5522098825267354,0.9244321584330244
241,2.169439902294636,-1.6709941379412843,-0.40518294471587835,0.1963043554646035,0.18162755477924383,0.6659714542666434,2.6071756293449404,3.1270197845412095,4.929350434390331,,0.6309483474627791,2.1674716191868715,4.567264495663625,2.8810693652338513,0.9269238777755167
242,2.536985362733285,2.064845921989293,-4.601831284722578,1.6161297612332526,1.5885422162326577,0.9062544077191731,2.2892188771607622,3.985102967523677,2.0654909798197267,,0.6068309995095971,2.5363403049028497,2.072168782350756,inf,0.8974795661118844
243,3.0138040506510797,-3.0138040506510797,0.0,1.6166936896771553,1.5969750743741162,0.9021355500757751,2.504421057225632,3.8748442955486144,,,0.6668815377411301,3.0132175878950105,inf,,0.906771230872217
244,2.093148770716002,3.3054501445876254,-5.194316133819294,0.24119922981745537,0.2263838325982853,0.6100856071491064,4.0593956914439495,6.450085594127633,3.404138927814055,4.517802109150073,0.663668482632973,2.0859515749267907,3.335161369101174,3.3473946756691793,0.9369121150512417
245,2.379150818270034,1.54452269416256,0.21814507058543242,0.23589655783169353,0.20979254525883514,0.7312869532548815,2.7555513303869725,4.032848149367588,1.9967924389633354,2.6130073876648185,0.6180765742263259,2.3776678991184017,1.615926760003556,0.7675797753427149,0.8907063027910415
246,2.586447521439684,-2.5529539000829566,-0.03349362135672737,0.04466961139416602,0.028969056684325332,0.7735984543315998,3.3456302201500088,4.435797974451836,7.716442289735302,,0.6333676938231112,2.585832568377961,7.212294468500341,inf,0.9046341346781063
247,2.7487446845950774,-2.7487446845950774,0.0,1.6043527748424231,1.571652148938471,0.9115667188036582,3.3546261285673338,49.74741716568453,,,0.6180765742263259,2.7483514978757357,inf,,0.8849695151272028
248,2.651386105159247,-2.651386105159247,0.0,1.5663121489866203,1.5315393415181318,0.9291514791639017,3.5597137253998414,74.98428940528702,,,0.6333676938231112,2.651197389509427,inf,,0.8754338638720353
249,2.8336762405948277,-2.8336762405948277,0.0,1.555889322184759,1.5311536659027931,0.8830328595211924,4.036117990885782,31.2760670262481,,,0.6357360191111145,2.832857851695558,inf,,0.8841786031505943
250,2.892219807349194,-2.892219807349194,0.0,1.641229133769183,1.6305657144430235,0.8755900574712971,4.449112603256194,10.68192712167819,,,0.6528756675646988,2.8891724773206824,inf,,0.8911814675955503
251,2.7026832830435725,-2.7026832830435725,0.0,1.6213440961182592,1.600333033922763,0.8967395494757149,3.5336599784699088,23.484614448550175,,,0.6207552362147116,2.7025652708716406,inf,,0.8735451740466204
252,2.402746274245691,-2.402746274245691,0.0,1.5612800880220705,1.5236205362883841,0.8884017656710835,4.5922838763588585,64.54811189994318,,,0.5677978065141052,2.4019144499921823,inf,,0.9014814685310159
253,2.266634870099944,2.3457453168650133,0.28797973959037293,0.15818068848759306,0.13844569022735556,0.5503905639815682,4.516578246275151,9.33266417237568,2.761528463867781,0.7036591356705025,0.6566669596287297,2.2660388933365794,2.361604148503571,0.4238142467763609,0.9630446660692049
254,2.175773553839303,2.7915062594427216,-4.912252520399621,0.04466961139416602,0.04212848851008055,0.520693152954635,3.908553152038154,7.359639505165455,3.597802947536029,,0.6284777104787076,2.1754630855547066,2.8318444184488745,5.01396308418893,0.9573992173809545
255,2.9599468907922772,-2.8452155093383094,-0.114731381453968,0.04466961139416602,0.033099058540675706,0.7989452314548882,3.794962759366023,12.898164263496186,5.8070261991105605,,0.6425374456860184,2.9548036180555535,5.562389573360684,inf,0.9409490076396914
256,2.615531222235979,3.084912351154708,-5.700443573390687,1.3347682597353332,1.3146163494517775,0.8994005358349793,4.445195442997792,87.64751299503327,3.0849725535815695,,0.6333676938231112,2.615471019809117,3.091650356112599,inf,0.9243635609679457
257,2.7333090718630153,-2.7333090718630153,0.0,0.8463713230302019,0.8077484007159577,0.882702577685509,5.088410759292125,34.675890318972634,,,0.6468212168108125,2.7328553200211814,inf,,0.9209593644907079
258,2.4849066497880004,-2.4849066497880004,0.0,1.4142705576106973,1.3804668017929154,0.9087250044267121,4.27949777479699,7.25666374073932,,,0.5915533975974677,2.4849066497880004,inf,,0.9282677589713744
259,2.3421897961406937,3.2802740487597117,-5.584228318145335,0.1405401224257846,0.1160993507808029,0.6883823578248364,3.924819888571308,3.2114018003209397,3.3356295631268997,,0.6425374456860184,2.3416724817020924,3.3293201701311177,5.043425116919247,0.9345538875278017
260,2.172592247197249,1.4858773358435,0.8081020375590224,0.1405401224257846,0.11635131834420033,0.6659135205851758,2.633641640057285,1.6476734982630297,1.7296605310126159,1.2663451801428396,0.6584896970785714,2.179581142163624,1.546884805612419,0.9335124747070433,0.8955820821197713
261,2.4860380272780223,-1.3927769775207557,-1.0384519361536766,0.106969059718312,0.08497503002877528,0.6080709366674606,3.526522936745503,3.976927180849267,5.058338213521053,3.843447427939495,0.6652988471865258,2.4924013315502607,4.772028891370609,3.4499875458315876,0.9378557242499499
262,2.645991100245335,-2.645991100245335,0.0,0.06698765724152846,0.050991693968839444,0.869185789534086,3.390202655420004,44.174028499874666,,,0.6357360191111145,2.6442932352994593,inf,,0.8900278015942773
263,2.5232137555431944,-2.466018669522552,-0.05719508602064235,0.08467349851939517,0.05950419197380361,0.5262017543990233,3.086867255408676,3.881899879751308,7.7822245061896815,,0.6425374456860184,2.5200503519235813,7.788902308720711,inf,0.9450606692897063
264,2.4382936866992924,1.875904465062756,1.191717700968006,0.11539037784936122,0.08567634802887289,0.5773115600641864,2.755756390149267,2.5831427715892894,1.9010269907370771,1.3985766382616167,0.6309483474627791,2.435101128252494,1.9000419205225372,1.409461420401425,0.9349658748692872
265,1.2867302513592391,0.7903779901892158,0.3237622912768603,0.8180516095036913,0.7755954103901724,0.6475678822036535,2.8635824956290734,3.7987623390478067,0.857170260353997,0.6770366211759573,0.6097226960127671,1.209655587461434,0.7137323242450573,0.541454707045767,0.948352852911875
266,1.8851861537558594,1.3635724019783193,-0.02163475580329699,1.0424854608621819,1.0296989740771916,0.6886191108229514,2.9311601426562364,3.4062619665218747,1.714670243470896,1.6540116905042532,0.6333676938231112,1.7774621645272306,1.5299413378485638,1.4935112607383922,0.9468969005280597
267,1.3467973185070339,0.9610236241308578,0.862412695933017,0.8043129583848722,0.7837386421355035,0.6298685415970371,2.855618553547865,2.890486581247006,1.3527638308864878,1.7397809873995986,0.6097226960127671,1.2654936609741865,1.1048945353712218,1.175449675143013,0.8964234524775937
268,1.1835894900290282,0.6598736373092078,0.48729939544855516,0.31804487739139314,0.3125875687556186,0.5071775945007075,2.4219060348109784,2.74272484811454,0.955679282633088,0.982843731343606,0.6357360191111145,1.1337559908036907,0.7378406516659937,0.5370899814069068,0.946015184568257
269,1.7719129688491968,0.8645266493337584,0.7912608718460032,0.29506657287888677,0.25463976724762477,0.5682753341228679,1.4677605312535886,1.659961089204645,1.412274756017534,1.318213465808035,0.6068309995095971,1.683622810623477,1.0868348506073502,0.9945831538486732,0.9374520799753051
270,1.8385819745485,1.200176493359398,0.6220482514236685,0.106969059718312,0.08236313699402759,0.45499103558022874,1.7408913244327022,2.122139089977429,1.4432478602915861,1.0777274799055894,0.6509067234006624,1.837943033532537,1.1976857370207663,0.6848560229759642,0.9340285329616236
271,2.4869699154444347,2.2606344873995643,0.7583114498860555,0.10696905971831198,0.10052234973267911,0.5055398724187832,1.5697442215741757,1.8350835531886556,2.5985491080175445,0.8424043718415887,0.6447042257417027,2.485173352016545,2.239030651529583,1.0204004656303287,0.9327867509952709
272,2.5514840347294565,-2.4677499813376382,-0.026380763259213687,0.10234807851457901,0.0891918552232834,0.8688099779634246,2.047206940515429,2.028986807872549,6.7706840125175125,2.072741367909272,0.6447042257417027,2.5507615925840246,6.458908083930007,1.2992829841302609,0.9055049990954276
273,2.6875350930451183,2.3267159537711737,-5.014251046816292,1.277310158487876,1.2578311842763992,0.9425436673555836,2.413078648590673,2.5176712149760645,2.325873939686029,,0.6447042257417027,2.686451801549714,2.332551742217058,inf,0.8862714895226278
274,2.479807957078074,3.2206356163126126,-5.700443573390687,1.5315074536478726,1.5261945914923247,0.9188895434915816,2.4568320415582305,2.079467313054721,3.220723450289986,,0.6068309995095971,2.4797201231007002,3.2274012528210156,inf,0.880639969010721
275,1.937472438334242,2.1513248836401067,0.8694256800895115,0.06698765724152846,0.057912420569456266,0.43353702892197643,2.7318286884242124,1.9445781933300186,2.1541433454171846,0.9264543641555959,0.6097226960127671,1.9368623155394014,2.1574822466826995,0.9364934391916745,0.9762682780332883
276,2.7383505049689165,-2.672719332851141,-0.06563117211777526,0.06236667603779548,0.0515507153548368,0.7337080080814771,3.6986304524965483,5.014417719762083,6.585852900992926,,0.6447042257417027,2.735592704108611,6.1070228877422545,inf,0.9086750131502065
277,2.6695703523812475,3.0308732210094393,-5.700443573390687,1.2265626193468795,1.225321060818577,0.8947493949607143,2.64310149879296,2.0573290639458386,3.031293521246033,,0.6309483474627791,2.6691500521446536,3.0379713237770622,inf,0.9213631251128663
278,0.9928978628148114,0.5983246663093335,0.2188596348547629,0.30978555145559705,0.29203907085225256,0.5872169626132463,2.637199811027759,2.015602720409653,0.71058877038379,0.6988931999094773,0.6008849035917525,0.9554070060369332,0.5387695660620785,0.3747519599001718,0.9496847723632053
279,1.3577122192994113,0.867535128159802,0.3042302094142042,0.4481446807468971,0.4355995959962399,0.7220509291026889,2.7089593546855526,2.6870486620925003,0.9262431410480455,0.6621220498289296,0.585052858160615,1.3238413464733407,0.7566674311669178,0.470110415513123,0.9514377932152404
280,2.2293039048320087,1.6944506705855185,1.5195217291058811,0.23325047533731555,0.20314506456583897,0.8209812381248216,2.5527617971154846,2.7855939840712685,1.7238748032338658,1.7792554486376908,0.6008849035917525,2.2280962410033065,1.6917349468726515,1.7839512867802432,0.8188878974479479
281,2.568004527964259,3.12780260943606,-5.695807137400319,0.33624428021653513,0.30531033049130113,0.9448748899901268,3.0689028669261886,7.513651256997726,,,0.552929491858785,2.5679984456544536,3.132456238909073,inf,0.8655437818120285
282,2.568591497987737,3.13185207540295,-5.700443573390687,0.08467349851939517,0.06715901598396931,0.9188484789899167,3.4297286905611033,6.7286362181984005,8.139161810405811,,0.5158180382284114,2.568578155815616,3.1385432201061,inf,0.8799696539877159
283,2.485859162993473,-2.485859162993473,0.0,0.18043082020570633,0.15256475989884935,0.9200857031200487,3.3898214425734494,52.95248214340164,,,0.6097226960127671,2.4858404189480914,inf,,0.9073677528939317
284,2.655135283117559,-2.655135283117559,0.0,0.28616064424035226,0.2485674273094527,0.9309283220600808,3.4824716120308685,8.427508195005267,,,0.6380535849069913,2.6549834801655177,inf,,0.8820172889705541
285,2.4868116761989456,-2.4868116761989456,0.0,0.25717791297430465,0.23582861526340948,0.9429511452254369,3.8171396475969472,19.57076046613465,,,0.6068309995095971,2.4867750608480277,inf,,0.8819111319511131
286,2.4056423245210503,-2.4056423245210503,0.0,0.3303461598957687,0.3020169496472996,0.9199746429279223,2.9597141700673983,14.669603560767989,,,0.6008849035917525,2.4056026764499556,inf,,0.8635937440379049
287,2.609183880292219,-2.609183880292219,0.0,0.29474661112781414,0.26584345218880573,0.9104789714078774,3.7270156070280906,11.182739952932197,,,0.6038851895711802,2.6091102532473065,inf,,0.8801339720323791
288,2.553817989824661,3.146625583566026,-5.700443573390687,0.3171429553762304,0.28990250427382097,0.9296461882586219,3.3874548668032087,12.779272553951309,,,0.6380535849069913,2.553613847797791,3.1535075281239244,inf,0.900813621048394
289,2.3363736394974746,-2.3363736394974746,0.0,0.33342812074843337,0.30612564354793176,0.9115593248466013,4.190465130219374,24.40458027833664,,,0.6153451465759925,2.336371708746378,inf,,0.9261305544693988
290,2.342038167713567,-2.3039081103664723,-0.038130057347094896,0.10060391803536387,0.08150561079292475,0.707642248328899,6.183072838431067,9.273060664617109,8.365951937693856,,0.648888643467878,2.341788028527572,8.372629740224884,inf,0.9337936823491357
291,2.6035409156190767,-2.5700472942623493,-0.03349362135672737,0.12932326130896363,0.11653156517599254,0.7681132452528694,4.419382247385295,7.5449600751658465,7.411503020195759,,0.62595550513784,2.6030897654657235,7.4181808227267885,inf,0.9222097456269882
292,2.7587603179271083,2.253172510894001,0.6469251309292243,0.06698765724152846,0.05167384308412075,0.8778533200641048,4.750231819185294,7.001312702128617,7.032807247129003,,0.6357360191111145,2.75864198721827,2.258682295028782,0.6998812127412893,0.9362012682341155
293,1.9695501805779876,1.4445999984742621,0.6330044781419923,0.10696905971831198,0.0979055196243341,0.628263033459364,3.898335390882384,6.635568568311386,1.4419340875304492,0.926162219474484,0.6068309995095971,1.9690536843079842,1.4448912701766738,0.7094851886325393,0.9797970488512511
294,2.413686596478327,-2.327187731804955,-0.08649886467337183,0.10696905971831198,0.08267851383407444,0.6844748406638888,3.809731433265484,9.629252315340358,6.589971682995111,,0.6425374456860184,2.413020190987891,6.509638108536511,inf,0.9562943719291207
295,2.5257286443082556,3.1747149290824312,-5.700443573390687,1.174760578621003,1.1443393505863333,0.8929478197626943,3.4290246809419274,4.851365039051572,,,0.6602640781246099,2.5257286443082556,3.1813927316134603,inf,0.9033691016513777
296,2.473504943476135,2.5337914493546063,0.6897970936746631,1.6601974002232696,1.6074602649209557,0.8835483150593504,3.671955023962665,3.9886465078320548,3.227728964368048,,0.581717464821069,2.4727146090226384,2.541259586339132,0.6964972674452273,0.8991266243178204
297,1.4533432355957785,0.6308125988972064,0.20339337781945233,0.1963043554646035,0.1699414537611258,0.8138894448707925,2.9483996430435213,1.306741777297729,0.6441619624702569,0.2525055598185168,0.6652988471865258,1.448169764837978,0.6059939696575892,0.15969848399367526,0.9504298481452624
298,1.341680773284055,0.855082632042677,0.34861932132358175,0.762740843953348,0.7330632839589449,0.683619062214103,3.5864497279558405,3.087049691108889,0.9478046649418443,0.6601611445184564,0.6180765742263259,1.294140672949346,0.8247349379758969,0.5469136314624576,0.9420790468514282
299,1.7170651503343148,1.4180571529628694,0.11884726331844142,1.1386096854143763,1.1202808554009256,0.7614241665913828,3.5124259789471854,3.712292240470907,1.5273116154194522,1.5564542341177594,0.6180765742263259,1.6705452896470616,1.3095323813335962,1.243616563269292,0.9346859810442171
300,2.201890770343434,-0.627205402668068,-1.1059307319479674,0.8347956567875949,0.8165209342872192,0.6382591905111019,4.0885743392966365,6.270755213401821,3.51370303514242,2.7932875226573315,0.6380535849069913,2.1968246573148926,3.2497349523742365,2.2474332729189657,0.947366116718596
301,2.5405678687454247,0.5914914643776825,-0.6467500940435684,0.22310659091468685,0.19174572376854107,0.7665005210946543,4.20121887634972,6.530769281966128,5.123784292688636,2.6323571558446948,0.6509067234006624,2.5394332358093687,3.2262246425649197,0.7743726204825312,0.9483814367595954
302,2.3184995587891883,2.900681861772445,-5.219181420561633,0.12932326130896363,0.09577940949324955,0.5755192906647278,4.3875469966951295,11.116335914433499,3.477386349681282,,0.6309483474627791,2.3176987308040937,3.4658487123209696,inf,0.9223671204101452
303,2.1471661127769655,1.7320961700971451,0.3066720247633512,0.18880655353635273,0.18457809702370628,0.6277699912663356,4.024328894841825,5.185598220896128,1.79713346249588,0.457316792418856,0.6333676938231112,2.146721595163113,1.740066939086492,0.4943496063631618,0.9532260685929862
304,2.7982088278446358,2.6479050203319106,-5.410204318671678,0.34582374936928056,0.32832928587078103,0.5757510470843713,3.4973318068781607,7.481236003348567,4.304031833391809,4.3107879397657465,0.6566669596287297,2.779367199853253,2.8140672176340824,4.715518243156957,0.9548014957408198
305,2.1712629364814,-0.9183790544637496,-1.159621062380177,0.3524233312654198,0.33204343234031153,0.7139365830623229,4.561214875373002,5.863984648430664,4.968986888813435,2.6465417908366513,0.6528756675646988,2.169220380926622,4.347995440164026,3.0985896589936988,0.9415864737160331
306,1.9230343009046926,1.631991964424603,0.8308163993009008,0.5382136100365611,0.5101355225482747,0.6959721210733016,3.664152192261232,4.247985194740428,2.193709904419504,1.7629033035602824,0.6566669596287297,1.912120825899239,1.616531211116031,1.6484314647186502,0.9587623186240621
307,2.3641442656153733,2.4738274849452666,-0.4950600603645956,0.7483240228328968,0.738119974319094,0.6343883961769566,4.440571624406285,5.445250718203229,2.7046707877083223,1.2867004404566305,0.6309483474627791,2.3593906279266097,2.475891778691785,0.9925527167077854,0.9541584345646584
308,2.7464755109744656,-2.1845201140103416,-0.5619553969641238,0.7358748858201516,0.7253249942804837,0.6154816407469635,3.9052053960438537,20.887892564929448,4.663258151499372,,0.6547956803312163,2.73029581004953,4.443162634665613,inf,0.9370625821786794
309,1.0437802820591093,0.473439111058088,0.14231509442985613,0.690198447583404,0.6777498017363784,0.5500962772488186,2.1747809396999034,1.9402338414732743,0.5659321339086046,0.5690883468671455,0.6566669596287297,0.8603568328786874,0.45940100444095916,0.39943293907557326,0.95381398986494
310,1.648969356042461,1.0244120615801253,0.49266526947138756,0.46769232929993193,0.4560847483757627,0.46828823044141665,2.142392928110466,1.9307888725748263,1.4212858407247453,1.3625640289963343,0.6180765742263259,1.571553561901188,1.1566993465185416,1.116630794170788,0.935940698826789
311,1.9653175279020207,1.3380745058116517,1.0954384586826151,0.32567673742732667,0.32095517832149945,0.4225644060923028,1.7952180112078535,1.739969817358049,1.6967912445532756,1.6143084698542045,0.6403206450210053,1.9432027063770736,1.580915888797589,1.4798721562029247,0.9353667541348739
312,1.086351096906794,0.3726477741018017,-0.3067366943919545,0.4192980316593946,0.4175286927877833,0.5272692296955591,2.144091138858788,1.5774097052174683,0.372404509816791,0.21397530180487725,0.6668815377411301,0.8244461462698494,0.30397264198092505,0.16078919366353558,0.9494674441785809
313,1.7352100384833458,1.3019693467903561,-0.9688715363154699,0.8797200369792052,0.8692101646696655,0.6997447460379259,2.924229768203198,1.7182757267046616,0.9314168830800685,0.4499145402415357,0.6668815377411301,1.6216791988564543,0.8157079349635696,0.41838997931164174,0.9435835079151875
314,1.9205137719547687,1.6389881740805388,-1.7348797125956958,1.2213475890648882,1.2020980518433586,0.8022563266059911,3.865876286166948,3.0298681541357286,1.803797307110208,1.3374827019991997,0.6207552362147116,1.8864365161699632,1.593804072832645,1.1785648128181148,0.9500629089462159
315,1.7547517704941076,0.9953092400841042,-1.0726539286911256,1.278784485180816,1.2621493207679566,0.6025851420933815,2.3329337245634636,1.82307350923924,0.7992568456546396,0.5451202518832801,0.6468212168108125,1.394595386159277,0.6674865972346488,0.3832194118017151,0.9306294495387357
316,1.1657148921307363,0.8721693702258184,-0.16746361007927701,0.816118057518357,0.8062934004029394,0.504603082232224,2.5544495661367557,1.9062717614395552,0.7864041385512983,0.6872708431671587,0.6309483474627791,1.0276258501016202,0.660554689551039,0.5149615114475977,0.9495531710356757
317,1.4470238684138614,1.1647204812481267,-0.09085593575531403,0.8847948331096652,0.8620828486190868,0.6125277019739634,2.843179380640826,2.840805685964365,1.1876282866642744,1.0581415571017265,0.6425374456860184,1.3781939250860225,0.9915999176014731,0.8002918180112729,0.9502978781277035
318,2.0029629530096353,1.801937745679027,-2.8931461319457066,0.6550548386170624,0.6424624723007444,0.778681834992111,3.6546745648361,4.458059059129551,2.1857459974618334,4.012920842255601,0.663668482632973,1.9766443084251744,1.955581404320491,3.3644653723934255,0.9438878036471847
319,2.0875663034271676,2.168665211512339,-3.1636832197938896,0.8715095273646655,0.8722810026313031,0.7894249045237222,3.9951283181065205,5.023552426318496,2.4280984997285833,4.0476390538378375,0.6727386042041725,2.0852360753881722,2.188235152731364,2.9597064512972286,0.9359591049792745
320,1.9876507038862234,1.6684291760051893,0.8156017533667996,0.4489257627263688,0.43474253069441804,0.7901360196685382,3.243205217787399,2.6728299567824516,1.9253962479367608,1.9293089043020377,0.675384900321601,1.974961413449317,1.6527184207925627,1.7231011018418978,0.9409851786115406
321,2.1189239071700356,2.085898804233011,-0.8753370975734889,0.6924752721750582,0.6854802503698585,0.6932780175163838,3.493746234949755,3.0432021009222683,2.3829269841179963,1.5185580450851572,0.6468212168108125,2.1082068810185666,2.130008051623236,1.4295571044913655,0.9424029292976935
322,1.791079730864592,1.3716234620835401,0.31025913585042186,0.7395360846380159,0.7300203968256073,0.5383442072219049,3.3266518696363185,4.173139479768817,1.499427262794888,1.3626495809401795,0.6713451011121618,1.7716954381923133,1.3725368436801215,1.1236723314750476,0.9489755366131596
323,1.891697081990986,1.5979371428325202,0.21561494624842004,0.9107023314289169,0.8816726939381059,0.773573359979924,3.7655931569516747,3.749761181528658,1.8080491127712595,1.254615626515111,0.6180765742263259,1.8826328395775809,1.5292885054475502,0.8857641412149996,0.9409644492667387
324,1.9550692263287166,1.819423931559653,-0.3951002902848266,0.9746348189209914,0.9444707862478923,0.7295231886677237,4.376788639261391,4.363849652501274,1.984734789373631,1.6247803944659402,0.6425374456860184,1.952789311887721,1.7540278429128826,1.3551114336832026,0.9451852359437185
325,1.9332779864864202,1.6947158727267617,-0.3680488192944509,0.9420019999261838,0.9440903908032875,0.7498541147697503,3.9101521290848797,3.7803927699920874,1.9605593539753694,1.7105650887000723,0.6233814453054027,1.9179275614188787,1.687836985984551,1.1724371484715235,0.9360901589395979
326,1.6356092654728418,1.3709007938682711,-0.11523838866442304,1.1770154980602228,1.1389706566795532,0.8152004799646149,3.4245307480142237,2.399260883239199,1.2939213005364871,0.964854396097448,0.6097226960127671,1.609771301335338,1.1275360808339898,0.7029773882008743,0.9342938508967389
327,1.8669378292456333,1.6403904106438498,-0.1152634614146657,1.1828922452237132,1.1631590270134602,0.6981591081519346,3.5665139396919012,3.279833338868276,1.7214171088653611,1.3807635501799065,0.6125606311107803,1.8289768570448712,1.556019145279276,1.182022417699568,0.9459619580056525
328,2.1969647584729977,1.2627729563219403,-0.21982737542371034,0.807741324917528,0.7896902481156975,0.8004678590041817,3.6307966658988313,3.6866325476856296,1.3062377151586555,1.343070256548455,0.6068309995095971,2.1782065715004575,1.1963488792152768,1.1474998285618505,0.9471947720377857
329,1.7265006177707258,1.5113718724272593,-0.11365920794256157,1.0294469423436163,1.022181884029753,0.8177390623040585,4.03310361475281,3.4918743338656117,1.625077786078922,1.5099244390577988,0.6528756675646988,1.7024063917160457,1.337161672542246,1.0021840478446387,0.9486941650659895
330,2.0256150024672213,1.5514935189046386,-0.14647957635715203,0.9465328609342107,0.9317060319372497,0.7591812289967876,3.8250682800335176,3.1568648605108636,1.6243284079820974,1.14297954818871,0.6233814453054027,2.022935192239529,1.4725728688938677,0.9757141523449558,0.9214399579432128
331,2.256462268767435,1.3645703568657424,0.44820294128894167,0.5752727275001094,0.5594802270717909,0.7915120766893425,3.6764742449109056,2.651385224098718,1.711728001672573,1.3932240279792305,0.648888643467878,2.2513640234368677,1.4073095886200029,0.8798768865898251,0.9314814140210216
332,1.9864523514177306,1.7117026510249864,0.6631752513963054,0.802357047545141,0.7555413065901792,0.752158802999437,3.6461747938824987,3.5167680684740903,1.8160697162168264,1.6628019794061863,0.6153451465759925,1.9804210817682084,1.7111286009016067,1.5094393399176593,0.9310011271736633
333,1.8205451902943022,1.7229893350225005,-1.5935483471474792,1.266148698404019,1.2471895280040854,0.6717535874288725,3.63394991376592,3.3923924240099264,1.6469042995876915,1.221937175727804,0.684994737851132,1.7580023724299214,1.4128772541700236,0.9102197088721348,0.9460505995239893
334,1.617301745408376,1.516537723243461,-0.03815713412149746,1.2778747741329628,1.241817925088999,0.7882152202328481,3.522231748832843,3.6139636362225698,1.4179920036492286,1.296797078546473,0.6097226960127671,1.5670704461041958,1.2395117860622857,1.0005803826455206,0.9327746552202815
335,2.0985425832076485,1.7371665350085608,0.11441749647467914,1.1026963119737494,1.0880142873574217,0.8240835035052593,3.8782931583066,3.298400133639599,2.1904569477222644,2.0964643618069996,0.6309483474627791,2.089985826666621,1.7989719058305291,1.524645789508683,0.9344643996900158
336,2.102890250331338,2.0059924138160192,-2.3275851020345577,1.1900987060750066,1.167248704129891,0.8238625686997796,4.070906998090579,4.385490845550415,2.323331312555249,3.1929001575693094,0.6097226960127671,2.0937658689679894,2.097824077692947,2.51549463685905,0.9429536124797445
337,2.208012676636044,1.8794195338857875,-3.2293443154931314,1.203993981510532,1.1768544750182075,0.8252577938262152,3.963766201067903,4.306572281960374,2.432612582248435,3.6696004981365125,0.6684167106117298,2.2009314392675456,2.2443900457786494,2.9368917735310576,0.9381920430499604
338,2.178220269624826,1.4528557887569726,0.7015247723261386,0.7729139778917802,0.7554132039431144,0.7637349053538127,3.8746694193276108,4.871582528697892,2.0409660896141073,3.2259268227104614,0.62595550513784,2.176050342104813,1.4947709247540937,1.2369566417976414,0.9287100391024803
339,2.399045664776014,1.6144886343000513,0.07712279109085163,0.4440074815693286,0.4235138349317681,0.7140207197532287,4.264067447880722,5.209773577523623,2.089958955254186,2.335303868079662,0.6668815377411301,2.3942131711735777,1.6399774682287758,1.0190042691126981,0.9501966084127913
340,1.6912623489783305,1.4756142763945548,0.2843244904862914,0.679942725139652,0.664134099229222,0.7375563202802663,3.603691472902112,3.6997529460849363,1.6212141901854202,1.4052095701014722,0.6509067234006624,1.659679128870847,1.4488486388284882,0.920653468616352,0.9417730902493405
341,1.9528490280092206,1.5877088554171632,-0.41440692424795245,1.1588625578843472,1.1625548411031434,0.7554880439558936,3.863106570500451,3.530871210710597,1.8475770332372021,1.3336591117747576,0.6509067234006624,1.9419623961405497,1.611997740074016,1.0680171680899069,0.9406479460490418
342,1.9754740600209395,1.632205512112852,-0.5328614506245821,1.1771556530447977,1.1638364186768162,0.8421993333791046,3.8004374269198835,3.755104022190322,1.8461262985803413,1.3515894095442114,0.6380535849069913,1.9503644994046936,1.6335545190727563,1.2224158121060762,0.9329487205555045
343,1.8441617375358617,1.5198984281194166,0.6490588512272923,1.2375918295144273,1.2299093992215182,0.8030165083559564,3.651108783517318,3.6693125614602438,1.8217250588360065,2.1269515995480432,0.6333676938231112,1.8251094489096091,1.602089735291547,1.636485330984915,0.9443367766498986
344,1.8324624173646482,1.424937302490723,0.6115423257270214,1.1443436909417632,1.1192316482598013,0.7577581183549077,3.6917582064490873,3.9588237423552357,1.523756244040547,1.6140835899664663,0.6357360191111145,1.8090412764625825,1.2992377659525458,1.2167373375419739,0.9495251843900204
345,1.5908883901311506,1.1804070081497229,-0.21664985592467856,0.8529476663488896,0.8583277935787638,0.7292445809091777,2.9656422099736397,2.2856625614378547,1.0517720836183744,0.7099563623270391,0.6602640781246099,1.5307807796108237,0.9006482963990302,0.5629707523103583,0.9554950413450128
346,1.9572594091179591,2.1673453750833134,-2.1601245803623845,0.7091247869031675,0.6826655404330353,0.7981181111000507,3.687063115635197,3.7722436854097756,2.457954496995394,3.1389183808242276,0.6284777104787076,1.9471664934811284,2.1398714935585343,2.2835743598591103,0.9452664218889989
347,2.3773258973711777,2.0480671042794785,-0.7038973494060259,0.7497332744856616,0.7156969693855878,0.7235956727801945,4.122170976255837,2.287195629085411,2.3715616853361468,1.4322379208347487,0.648888643467878,2.3700315417615885,2.215336016930323,1.4894785973551214,0.9270268720787673
348,2.356781651267423,1.6080634020475681,-3.5512322507598264,0.4775796355171352,0.4674724967912696,0.7225932768823571,4.275981769606318,5.056433774067296,1.80577368170145,4.67471854887036,0.6357360191111145,2.3487453849774615,1.7369698505465845,4.102973888920155,0.9480206752988182
349,2.191405620557633,1.9353616557864624,0.18368269073849586,0.530664115670255,0.5240861665492325,0.6560205899903271,4.435390379575188,4.839161478714198,2.240724185907322,1.7279008816175423,0.6509067234006624,2.183814890426302,1.9931869054768083,1.3986806761257753,0.9438850429454101
350,1.729746018149652,1.127346281402339,0.21095156236221735,0.49300759824685664,0.4736694318224302,0.681167666620349,3.502880177287368,2.4470439103974284,1.340405310606119,1.0506548152309774,0.6403206450210053,1.711470637999252,1.1021252810948632,0.7442552726134171,0.9254310907949542
351,2.243818593214039,1.5095559767712277,-0.009199817725700221,0.5384209432640193,0.5187932790166296,0.7597717875150336,4.320668996792248,4.5604317790979,1.7425742457070887,1.6813808659826497,0.6509067234006624,2.240132078347496,1.6167716278595707,1.5080284094229541,0.9245546127861093
352,2.201950753075942,1.7397500733202875,-0.023802294061191276,0.41496442000217987,0.3945090296860011,0.756881712829402,4.420299477622079,7.359212472087916,2.746129945721445,,0.6652988471865258,2.2011322021672366,1.716461848310365,1.0285027224810832,0.9449756101332215
353,2.088228864519533,2.0908867961358406,-1.1878823131554328,0.38384055204387413,0.3747082036854198,0.6744108756449712,4.131954278893838,5.725519464033197,2.5339953042802064,2.6811473200141265,0.6380535849069913,2.084699786494375,2.0023382005452874,1.678619891334626,0.9319043095384483
354,2.198374278463264,2.0810938611316554,0.442619414656205,0.5090888585974198,0.48103756052957813,0.7489443429311334,4.1019327270933355,5.145980082124151,2.2444149910996845,1.6198973589463626,0.676637947632344,2.1923365432634436,2.0700322710517876,1.6358077983691939,0.9374804950857815
355,2.4624012600701324,2.4026785292758737,-4.4636067584177725,0.43292467856019046,0.41352682651807365,0.6442895191878532,3.7602095301699494,5.30203987074256,2.555552930691514,6.381861231775066,0.6284777104787076,2.456772810544229,2.391176901274931,3.515092799769819,0.9415148060079221
356,2.0484684032164027,1.399281348626051,0.7896381980078186,0.6097548006973437,0.5910508891411858,0.7092179892594365,3.9210098617754467,3.059949075306932,1.7379280936159995,1.9566017179966184,0.6125606311107803,2.0471679811295402,1.364416493419102,1.3988347728771084,0.9428716082520905
357,1.820692373889971,1.1600637965978542,0.008215156234524734,0.8160935171503411,0.800606287047165,0.8230816814644926,3.667889309806181,3.3183104107244987,1.535467538615453,1.0534754080564732,0.648888643467878,1.7976434123870297,1.1302225499367156,0.7735360167890817,0.94268305205226
358,1.9917144173757508,1.7713262833080927,1.0920332136837727,0.7112598041909817,0.693740624303564,0.7186733367497165,3.7884565326749167,2.707837171628189,2.0165443264252003,1.7571955909705559,0.6684167106117298,1.989235273793687,1.7521077498559903,1.4298523354590205,0.9480127614930703
359,1.7114247008611785,1.072000130711173,0.15257891898201947,0.5434633094086663,0.5088128703427843,0.7846807956978588,3.5846086069801886,3.566735198964176,1.2937323505120983,1.1654408608131614,0.5978297680564633,1.6922158388917936,1.0287507541436436,0.7269730511788501,0.9365068055684095
360,1.4110771598549166,1.0440587188516832,0.65236947993301,0.7172379950004888,0.6931063806019467,0.6462395535568874,2.727076682296881,2.368151119585243,1.3158481487335028,0.9829803361801493,0.62595550513784,1.3340393071491699,1.1380169306600108,0.759679702788625,0.9501188289855802
361,1.6840336923594548,1.0000761066893815,0.10358128578458103,0.7445467243234106,0.7255170900500272,0.6525414768356085,2.488137114226264,1.669964690825534,1.2308083964847296,0.8632293993682293,0.648888643467878,1.5690960331507227,1.0711397683676314,0.7323741232918891,0.9405960529854338
362,1.7389594781705873,1.2577197047151254,0.4996182785910346,0.794004099657746,0.7739176147384327,0.7177169334417016,3.2985908938365767,2.8281436130486988,1.5064947279014835,1.5487576595657702,0.6357360191111145,1.6990587517170193,1.3128029037668554,1.1095115791261454,0.9551360483277804
363,1.627441613926103,1.158578212917016,0.5999316225125204,0.6761799472319182,0.6681344040602981,0.8156505459944254,3.29020569755147,2.846561412587832,1.2901916000151097,1.263799202201905,0.6547956803312163,1.575465992863927,1.0999556887465558,0.9185517147494862,0.9331026379606798
364,1.6005880371013783,1.1645858648348788,-0.03127267770752962,0.7971296688774624,0.779082194477089,0.645550045913376,3.22156888718686,2.782341515551135,1.4116118331929286,1.4520200733200637,0.6584896970785714,1.5229544525459633,1.2269599526549457,1.0418594720756602,0.9357344675995304
365,1.9388631897091928,1.8245896448571144,-0.5540192572079055,1.0338062852098877,0.9988995579618871,0.8065705413631932,3.868369114320775,4.3895649078665215,1.9217256069093638,2.4343442692560644,0.6207552362147116,1.9201232844286256,1.6835983613450038,1.9039459499562812,0.9479944093493392
366,1.616528586543138,1.5077188728153958,-0.27455238469513965,1.1112471458289137,1.1022847635595476,0.7337419619552283,3.16680611325745,3.2480248698775602,1.5617622475522097,1.3657872619032234,0.6125606311107803,1.5380996453907103,1.3350217590989268,1.0866922647748576,0.940816467497925
367,1.69850466627684,1.3226317559274585,0.3948302605769318,0.9103541201084162,0.8796330346748222,0.6780927846144288,3.638604923651409,3.9347034844058015,1.51023941994212,1.7707230666036864,0.62595550513784,1.6455257603606488,1.2490548423095706,1.2595139639576554,0.9433487879958803
368,1.8119745130724119,1.6174643400400202,-0.7531795582963583,1.153873853426633,1.137802755182183,0.6389595554643496,3.35537436654991,2.7739653563312894,1.5483042424567384,1.0336488950395304,0.6357360191111145,1.7457668653775822,1.4075293138446368,0.9694478575215797,0.9361143974257893
369,1.9972258607100566,1.2956405136527998,-0.40698531613585587,0.9983115543617178,0.9591498378975674,0.7799800034268263,3.834079504839787,3.174907004658491,1.6801678573850714,1.3101131397646937,0.6309483474627791,1.9709658831218644,1.5179704128482978,0.9861807617697314,0.9395517151143915
370,2.1041684423593674,1.3683813126766942,0.868884601612891,0.43566967988231703,0.40959984789380194,0.7693129165787403,3.599376142823425,4.685538051633745,1.5101543444056895,1.4423950885883572,0.6207552362147116,2.1012782362890103,1.3646354600928363,1.4049596553392505,0.9494732334001899
371,2.0748099046416777,1.9389806710779927,-1.1957686524660818,0.592922367974792,0.5749322103359312,0.6915691197324269,3.708195587621193,4.859022112918932,2.334000289936029,5.1973065133062315,0.6468212168108125,2.0711207005404937,1.8794121596495281,2.163727264397888,0.953693122967248
372,1.546011631299652,1.1256510990642357,0.6918465245849266,0.6763444283775736,0.6501475410304519,0.7374130555765471,3.0784595387150184,2.3421622836040767,1.2892080430805486,1.146257771363829,0.6357360191111145,1.5197495661705698,1.0427583296409824,0.9137722919749595,0.948188815869555
373,1.6536825647046673,1.1789063473378971,0.34551583533334096,0.5244916247922693,0.5108043277395163,0.6519351919237729,3.656622886865218,3.6833064520865584,1.2874972326833172,1.3806174146973769,0.6528756675646988,1.6186468515194103,1.0829243834850908,0.9806636763907668,0.9350368658988166
374,1.4909438054396962,0.6667018091534553,-0.36250520082731663,0.593563619304285,0.5841602995450385,0.5945710816088396,2.762223579744401,1.7496582019367097,0.8801512488828288,0.5024656399627497,0.6233814453054027,1.3689784833546592,0.7459290514923466,0.34173564966813513,0.9569897705730289
375,2.159088303391371,1.2972219893024484,0.42161649959288416,0.30667374100099976,0.2893441472406066,0.6478217686103133,3.4999456163417726,2.7180298247076733,1.6733288000672335,2.995710778602732,0.6425374456860184,2.1504364158374605,1.4219447782081935,1.0294612018497626,0.9321000569746289
376,2.1343095860636536,1.2189886684790507,0.19333394742227483,0.496302006841851,0.4920957437518007,0.6777559122484781,3.4621395302456985,3.1545520125386863,1.2538064893344765,1.118571474473319,0.6425374456860184,2.1271389697695318,1.1542034500843448,0.8927671108370867,0.9417127683514216
377,1.6222062533047852,1.1987752265792635,0.9220938198860367,0.5052740127833427,0.49444391707351076,0.6659269240462826,3.346974863400927,3.8221126293793835,1.7071721357772551,2.3239255793790035,0.648888643467878,1.594768262060778,1.2761931023155635,1.2415471684734305,0.9567361346911409
378,1.6762193230532292,1.3578021103649096,0.5731369340028425,0.41395659030521503,0.4062636279627277,0.5950674313047986,3.2897511262345747,2.72291674039104,1.586044086135703,1.699180100870148,0.6233814453054027,1.6443744823149968,1.3166343551806088,1.3116652602509125,0.9525231854168842
379,1.7452365181211382,1.2771931451386256,0.9011702194511013,0.31761587652987244,0.3079109208330963,0.8065462478723909,3.392342390019525,2.3274610096401904,1.6303652159918751,1.748253110466441,0.6125606311107803,1.7333018996564864,1.2637645969106412,1.0787834830188086,0.9457751945696136
380,1.8798948895465881,0.9838572379891257,0.24989911954163047,0.5856150374070987,0.5629072530534264,0.8031288981819787,3.4561921598298464,2.1931153082032453,1.1887806482442718,1.0028784925271481,0.6602640781246099,1.869504817852908,1.0301095214101892,0.6759364295438359,0.9424659937084702
381,2.0014282948181576,1.4829109785765806,0.23529867257036852,0.8487688433438534,0.8196234765182703,0.725270167588672,3.378922864649203,2.286619714206003,1.8256416621630094,2.258797850561146,0.6566669596287297,1.9818712914970726,1.610083125780139,1.4005135728635951,0.9449976458423547
382,1.8284101670082165,1.5446116606692857,0.2182928906896766,0.8275360287414204,0.7979816024565864,0.6555778834306992,3.432790955731892,3.509295166876792,1.7429631863392356,1.8964227000795404,0.6790044388599258,1.8093804779854576,1.56614915692812,1.677665273601474,0.9543453626931789
383,1.5600627715164659,1.2866026481501158,0.7794545377957331,0.7399879762782873,0.7121731482377683,0.6123111832566991,3.0597307390193738,3.4942730729319225,1.442205208326276,1.6144596466282426,0.6333676938231112,1.5362390835846702,1.1411202701967431,1.0339929561845815,0.9450249237536462
384,1.6381003290291696,1.2747135765333353,0.38476110906098615,0.8568953815835079,0.8438719984796027,0.6923940851184763,2.9493923432228875,2.8016039939270367,1.4538813773015675,1.524082956264848,0.6207552362147116,1.5746071629668015,1.221363919507879,1.1562953811544312,0.9455266081230123
385,1.8621041847338768,1.4291582807279475,-0.858355251021734,1.4110954378545109,1.3879250275216157,0.6445327101179854,3.2693330043839715,3.786919456327213,1.3779318484908327,1.6064854007637763,0.6309483474627791,1.7264087779899253,1.2451730353317825,1.3090923270918864,0.8990420585460734
386,2.2429203570422076,1.4979278761352117,-2.050261910543831,1.3822176432226791,1.3857662557297301,0.711020405334791,2.9482303583776512,2.588467434319676,1.490599093946722,1.3429776073777089,0.6180765742263259,1.9485692368532863,1.301338697262643,0.9730278624791583,0.9265392355973046
387,2.4449564210997625,1.1421313146581764,-2.7085214561835556,1.4022125281626592,1.3962401116775183,0.7866431959522154,3.5205172287133446,3.4700923736136193,2.7632153423367316,3.3292566860231907,0.6403206450210053,2.357275965484446,2.5179546916056066,2.5069826014872003,0.9389133698409189
388,2.303048641740877,1.4255801806006732,-1.8284799003858698,1.4414780375375196,1.3928938578149173,0.7771790301418583,3.6740992031222217,3.246763103225286,2.416156418614593,2.1797134874614397,0.6584896970785714,2.2657175737815196,2.228110024871198,1.8703122337404379,0.9399945168084348
389,2.378204924882059,1.9475588570566496,-3.1427884497817447,0.8975185686301433,0.8997775703598686,0.7710506782425667,3.9257183508620406,3.605394183711015,2.523616924368725,2.497711970641693,0.6713451011121618,2.3655248927679198,2.3290838558674123,2.569821474285537,0.9319565944636707
390,2.1633686698958567,2.411973195333488,-2.25227872217089,0.9623787012690735,0.9610301776730962,0.8139936041526494,4.103779845659161,3.309039346200498,2.68504667438146,2.4069434559959455,0.6125606311107803,2.1590621162418704,2.5115358750686765,1.9006850510503774,0.9356133873580275
391,2.3030708655484857,0.7810795943482933,-0.1152168497231858,0.7851220198896357,0.7833351686587208,0.6357275252284333,2.67648272689514,2.3736712970864615,2.106814609512728,1.9793401928208711,0.6180765742263259,2.251786365328902,1.9620927655883886,1.9258276593317833,0.9257114613434085
392,2.295931601734475,2.240547410894094,-3.6188263705068935,0.3178671239167429,0.2926151109129328,0.6327682813975953,3.6292334931312227,3.2557828708534897,2.7011534364507526,3.514746336043168,0.6233814453054027,2.287915442620723,2.399429351556384,2.849019144227404,0.9355098387846782
393,2.300353133280862,1.71515222159079,0.6856988383004214,0.2432274721779861,0.20092041407614478,0.791575559757153,3.294578220701666,4.63464864455835,2.3329962986544373,2.8566429117376813,0.6468212168108125,2.292524757190544,1.755572553866237,1.504395716053194,0.8969881705792144
394,1.9918977515284586,2.141538339991251,-1.6863623791952405,0.3429469286447627,0.32672561644925213,0.6364220436671063,2.950695103446087,4.629571778525418,2.624402368630608,3.5264247509341393,0.648888643467878,1.9852633154245791,2.1533815056941017,2.416889864274104,0.9493772513297851
395,1.9791479582636218,1.110022840623088,0.8117842082655979,0.41089263912621393,0.3740179058089138,0.6890401338814448,2.526217341796618,1.9902611269140396,1.4721447456678982,2.0321403922870322,0.6468212168108125,1.9576566476078678,1.2879625022358439,1.180011122312302,0.9471765009374918
396,1.848429239493056,1.1685971343056978,0.8906030874006974,0.41524837263556674,0.4009894245734184,0.5944474329320146,2.56163176954554,2.532739265062651,1.6134743762493338,2.3987708928362643,0.6284777104787076,1.8097876717474461,1.3110040464337045,1.562940790310043,0.9567508145183213
397,1.9447042462936335,1.3206703454341884,0.7277010415537055,0.5707797917382824,0.5635628748872517,0.5813535966758037,2.1315443554615423,1.9344387102193772,2.004751392249974,1.80435249839217,0.5883313578629602,1.8549832993950905,1.8049848112244258,1.4214473655377868,0.943273718765322
398,1.6622632572619223,0.6923916798101741,-0.004369637063045939,0.9218129516354037,0.9264729842969961,0.7308877901383808,2.5579773850444467,2.483428205305207,1.294504388573138,1.0590379765658715,0.6713451011121618,1.5204100513971717,1.083880915414186,0.8277093240058429,0.9430082120002612
399,2.148359971977086,1.3490239579169159,-1.0742977641705087,1.1031323421806816,1.0921134113742108,0.779028589335707,3.170485297788595,3.1047169737553975,2.183060563747408,2.841111969706805,0.62595550513784,2.039281099270265,1.891811468878232,2.2779753498980795,0.9439156704899158
400,2.166114130827517,1.5839025479469604,-1.2329401193145464,1.0399843186243034,1.0308571868160437,0.6946418192980593,3.026605157612255,3.8602174772039546,2.435974449871655,3.0694091997021795,0.6509067234006624,2.0601619269478797,2.154468801148723,2.223120921639799,0.9354309747066627
401,1.9497137760473815,1.2561131072847673,0.21433308282014085,0.7956163458657651,0.7729541376607605,0.7897717820729643,2.6230242528088525,2.6815540784414593,2.0390178856737102,3.4261929387017234,0.6207552362147116,1.851438704729656,1.5947560428632352,1.4874795053672363,0.9411329460606149
402,2.658753277484373,-2.658753277484373,0.0,1.3876511958254467,1.376782299338248,0.9136042191802364,3.4927731013951986,19.941490235248413,,,0.6547956803312163,2.658625317774687,inf,,0.8628952715517467
403,2.5240957645274458,-2.5240957645274458,0.0,1.5263480367995417,1.5110176693481532,0.9134522865278152,3.929899200890345,53.02422416495139,,,0.6125606311107803,2.5240633649891944,inf,,0.8617777810483834
404,2.708680155765553,2.2840480625270216,0.43671658092734056,0.08467349851939517,0.07510400722292751,0.6586098284217934,3.5078597268209943,6.510642936763224,2.331790867480037,0.8046589508803906,0.6699045166045591,2.7009090929508437,2.288290920425347,0.7693906977750053,0.9293071283689133
405,2.4380503191979366,-2.3346830129292417,-0.10336730626869496,0.16921395908888537,0.14264725963821018,0.6323257932665269,5.0525587799208065,6.694274189741047,6.767800019836075,,0.6233814453054027,2.435862549609078,6.486795749915324,inf,0.9205548449336477
406,2.5380606989309396,-2.40623013049206,-0.11271280506134469,0.14893872608012715,0.11158421005249167,0.672589387413797,4.4109264036674976,10.653652740856451,5.774205995228283,3.084342279587752,0.6509067234006624,2.5356386981947736,5.576089385113299,3.295836866004329,0.9291253257459592
407,2.5348517674505193,-2.501358146093792,-0.03349362135672737,0.13766330170126678,0.11409138668684544,0.6847417088863011,4.426495965824553,41.07705237486107,8.17392314506342,,0.6180765742263259,2.5338168211580085,7.487453767034503,inf,0.9484772838779038
408,2.9940112463236557,-2.9940112463236557,0.0,1.3945346388195015,1.3576653948293977,0.9107693370644278,4.655946744592925,522.1965720811473,,,0.6684167106117298,2.9939560741527353,inf,,0.835064579586337
409,2.3306036519429214,3.3295170076213894,-5.624211130059442,0.10696905971831198,0.09019568231561427,0.6442007071117661,3.9376403956784682,7.328592098563359,3.340488432246237,5.030252428643065,0.6468212168108125,2.3302989315615616,3.343924740853095,4.634728988229636,0.928491957343013
410,2.644571058013042,-2.6255060293394945,-0.019065028673547448,0.10060391803536387,0.07708941315374779,0.7270844616409834,3.963508058674401,48.3292690652501,8.757062917978434,,0.6125606311107803,2.6438242288029388,8.763740720509464,inf,0.8758022004740423
411,2.8306873270894144,1.4520244277035452,0.09525605866253617,1.20723711706266,1.1849451955132366,0.8813773840903106,4.182042938286191,2.0624941127008647,3.2580281448781268,3.9202114441513327,0.6038851895711802,2.829653022861459,2.448861716390398,0.6953282065063056,0.90453943499557
412,2.7311163520875463,-2.7311163520875463,0.0,1.2230615446366637,1.1893025709204756,0.9009334430070409,4.179475842443462,94.56495000192095,,,0.6602640781246099,2.7301254087540676,inf,,0.9177419627521263
413,2.4908697113305003,-2.300219424595026,-0.19065028673547446,0.30752023096499176,0.26966130852504777,0.7960039191249377,3.9709787848987363,51.11485224331417,6.83078912333293,,0.6727386042041725,2.490656481768607,6.614323374549749,inf,0.915879249916928
414,2.5917308914002066,2.3857230245072594,-4.977453915907466,0.23173705308824025,0.22005475495956908,0.6221251058117714,4.094243304735914,9.766480797572907,5.920396360614676,,0.6602640781246099,2.5901190282705318,3.2153271001621695,inf,0.9596234190191005
415,2.476753680244914,2.4534798103131816,-4.777291383537817,0.3353524465940549,0.3162988186791211,0.6628319772620965,3.9426018345256764,7.157241938636147,2.541161492123094,5.2815668569239715,0.6309483474627791,2.472846335295634,2.5098495901113806,4.345427482225552,0.9464199061921453
416,2.682866267808768,-2.6112425891049456,-0.07162367870382226,0.12925332146056012,0.09243909305194795,0.820852735303743,3.999867050292936,61.04226080518918,7.332372761260291,,0.6125606311107803,2.682220024401192,6.933585455683155,inf,0.9025620010573647
417,2.379070777849174,-2.346933227088126,-0.032137550761047885,0.11539037784936122,0.10074575103332944,0.6992164385235398,4.1768514999571025,13.611998218327512,7.925205653857981,,0.6652988471865258,2.3770692042552817,7.4210578326230205,inf,0.9193255514523853
418,2.3114013338620265,-2.041111698743499,-0.23205410836345788,0.23810219477118838,0.20007108027665474,0.6632926561740344,4.201074148374836,9.986427595480093,5.306640127252549,3.777489460147697,0.6180765742263259,2.310057385610563,5.03706455315542,3.367295829986474,0.9326975724694092
419,2.855812257523017,-2.7060004387270538,-0.13069405541842838,0.1963043554646035,0.16905702610072185,0.7084579444590645,4.257596953994694,8.046284984038138,5.554196117688052,2.989032099783427,0.6403206450210053,2.8509587555393296,5.465563740414757,3.0910424533583156,0.9145806619969281
420,1.3378725670416836,0.7459711624610164,0.12424646476591583,0.15643652800837793,0.14865270449020265,0.6594936057498724,2.880151304769508,2.0759048981868835,0.853603508279993,0.6685700942072936,0.6619902821573977,1.327983525153725,0.7095059940613354,0.2890467946014985,0.9424022042684705
421,1.1547493396832162,0.9117102249012066,0.5721732175379652,0.16284881740593724,0.15976765403926327,0.23000122393152767,0.42123400168977454,0.3576783489958476,1.215713468157812,1.2521718737259933,0.6038851895711802,1.0323564928910445,0.9851332035479872,0.8732821414784727,0.9172612155801536
422,1.8618986855912438,1.8689325368596945,-2.619165163927786,1.5407558781502284,1.5377752420785855,0.739730642051677,0.48768276311065406,0.5074493329605271,2.021982958653059,4.742570356191284,0.6509067234006624,1.8570449359266843,1.8443570431861422,3.5165082281731497,0.9415632221986221
423,1.55419234498286,1.6223327558887148,0.8498963335852547,1.521964953539176,1.5169684529105625,0.48271015461610683,0.3010031602762535,0.30747274932497914,1.7641322941201778,2.7931516992275816,0.6125606311107803,1.5435981549385573,1.5817367310771593,2.318650719678239,0.9177893146302099
424,1.149657485073049,1.0464299635582008,0.9506383930327682,1.593370799618552,1.5698946417350568,0.4979212830528975,0.4114835618461397,0.3053130922402703,1.2524430917319938,1.1986714047991542,0.62595550513784,1.1478375474774882,1.0337105504737234,0.8654774699903297,0.8947995128111164
425,0.7033491255562605,0.42813200978038113,0.4315659122594875,1.4976157120251434,1.5033413327951122,0.44631493592403854,0.4474828537883593,0.30706807264227,0.561519988950013,0.6547304744711393,0.6684167106117298,0.7023897619268779,0.4299172032653289,0.4242749855662165,0.9083024138743743
426,0.629175033829628,0.338056834705905,0.2373253882615789,1.46951262899415,1.451055453960737,0.48835512429226696,0.6995013525055229,0.5083368811002851,0.45916184924284503,0.42065528670608526,0.62595550513784,0.6290462551534217,0.3444911297477622,0.24337057079632196,0.9231534133729332
427,0.6379895060338328,0.22446690254023083,0.11246925798173746,0.022340379843483554,0.015380601306591546,0.4634411476071023,1.8803642152542643,1.2241984859905188,0.2931442791577834,0.20310854203945636,0.6284777104787076,0.6295257464848578,0.2519610631946051,0.1266146765811565,0.9664245052960807
428,2.618272547988475,-2.56706996855388,-0.05120257943459533,0.08929447972312814,0.06813396418797309,0.8082923341379562,4.403807674674717,1.748280879689454,6.837985527570816,,0.6403206450210053,2.6169914701552432,6.711131937477322,inf,0.9228093009122036
429,2.4501309507920905,-2.4501309507920905,0.0,1.0350283683798818,1.0096498276982326,0.9084647578575068,4.257789282036866,240.04218602068693,,,0.6125606311107803,2.4500544390207897,inf,,0.8681397434857793
430,0.9386067034841146,0.15519070557917214,0.008698867666594667,0.022340379843483554,0.02029201649703622,0.6557547386719503,1.7104533278543637,0.9515615271162379,0.16700909969101924,0.0337811761711621,0.6333676938231112,0.934369845274061,0.1654097911460555,0.03729631870012176,0.9202633940909815
431,0.6051794069338673,0.5417553776174967,0.6221226168101979,0.022340379843483554,0.022559418996787917,0.08786452702505365,0.5468511734860142,0.7676726234190533,0.8066546136629503,1.0087925915592766,0.6097226960127671,0.5689256572612004,0.5993583046562284,0.6820938097990379,0.9450497701086197
432,1.073385847341107,1.0373248898263943,1.3594785747486111,0.04466961139416602,0.02730635425951994,0.17341454918733448,0.6543316809221461,1.0545228928986137,1.2326003058204806,1.8473536454962212,0.6309483474627791,1.0643074849761194,1.0816537984225585,1.398721631272234,0.9501706313143703
433,1.75896285562,1.3623845457336503,0.7383684339367602,0.6877472363143871,0.6732205119721668,0.6781297289901145,4.401892812210863,5.277350587454813,1.5603922929467435,1.871402446561915,0.6309483474627791,1.7497861377506319,1.3158918420455825,0.9418774523534954,0.9427702008559801
434,2.3060476226228914,2.5397046006301194,-4.471735568621064,0.9432292834523525,0.909522129454679,0.8172663743337978,4.781810600018754,7.836694187781634,2.828969709578165,4.070837270135155,0.6528756675646988,2.2971554159612686,2.4460005130007256,3.4863551900024623,0.9375547335518841
435,2.536944430868853,-1.6847474264594644,-0.8330792410318539,0.6409981818987502,0.6139644346352221,0.7138191862884008,4.549440678340048,7.441021614757409,4.130871877228869,,0.5883313578629602,2.5338168211580085,3.8970143857338195,4.976733742420574,0.9280664803583872
436,1.8542514622959816,3.7685477805793184,-5.54632818936516,0.16280166969132606,0.15247280533961316,0.5226748452631552,4.130861576226298,7.522072997440908,3.7229059921233807,5.1290982632796975,0.6380535849069913,1.8490355370477851,3.686411622789201,4.485823428355525,0.9465396932313087
