,bvp+acc_XAp0,bvp+acc_XAp1,bvp+acc_XAp2,bvp+acc_XCond1,bvp+acc_XCond2,bvp+acc_XDist,bvp+acc_XFuzz1,bvp+acc_XFuzz2,bvp+acc_XK2_1,bvp+acc_XK2_2,bvp+acc_XPermEn,bvp+acc_XSamp0,bvp+acc_XSamp1,bvp+acc_XSamp2,bvp+acc_XSpec
0,0.36908042356445186,0.2584983854232225,0.1998861887621557,0.5078282191135648,0.5077103576965508,0.17075163065114587,0.9814957152954853,0.9419016135488254,0.3131407114725398,0.3439897922286685,0.6333676938231112,0.3528726579889938,0.22664826249609255,0.18846954523998588,0.9553351170525842
1,1.9423357790532385,1.7226755356342898,-1.8893853178269824,0.6375387346198377,0.6125414746092851,0.6157101173825623,0.9213471924259019,1.0790987153230613,2.0649717810580266,3.4751314565465887,0.6233814453054027,1.9028400168247661,1.8375666771684884,3.123863473049144,0.9463360640482803
2,0.14897431343912917,0.0912798464448796,0.07832482436224991,1.4742706527405405,1.4728939215218237,0.06642030374210436,0.4972003758625401,0.46194054651037164,0.13421645730800943,0.1545241984437131,0.6207552362147116,0.14844844996726866,0.0965431524301577,0.08291079376294783,0.9503702850614579
3,1.8674562439489508,1.3100177372494508,-1.1061677342234675,0.8115235821239474,0.8168978923200739,0.42392208650931673,0.4543065895573161,0.4148045348980772,1.7470260304977876,2.6235165678345718,0.6233814453054027,1.6717862412023832,1.5270146622903515,2.1426559557159197,0.9405709886534392
4,2.072085342143951,1.732946695545421,-2.4352590767502207,0.8099785572308654,0.8046318049810052,0.7263822701832884,0.5677902710726077,0.574227542064973,2.30060023539772,2.753796502704189,0.6566669596287297,1.9830814082193087,2.0675652987370725,2.436937316527896,0.9377283804078752
5,2.0810804290839604,1.2283115862086942,-2.726012913274027,0.14257358439717902,0.1340723169958398,0.49683050950910174,0.44661108044257924,0.4658203697583934,2.1277772391286565,4.26025713111853,0.6447042257417027,1.8706583868344722,1.8967833897825663,3.6147714819602146,0.9561573033211137
6,0.3605039014071128,0.12213048442304647,0.021007007915455733,0.4946184795166257,0.4856381659297435,0.41644589820086597,0.8037298641983958,0.4772310517973478,0.09137923785843144,0.0701559312970775,0.6153451465759925,0.3423964166411815,0.08701991228949625,0.05489359350072303,0.9060004007444853
7,0.3378789438678367,0.1660524744047972,0.1351089563902549,0.9166504899047844,0.9142719137227234,0.2411216454649944,0.8462763219068152,0.7776443071825819,0.21907032509648441,0.23924501404857054,0.6380535849069913,0.33032671463992447,0.15524638105024083,0.11400278978693004,0.8823056789456887
8,1.439761599799177,1.3876635717420391,1.3277251758499813,1.388649736553658,1.3847643637693912,0.681764737805565,1.0430095578664749,0.9212155638838382,1.5859877465928625,1.8909515845923528,0.6233814453054027,1.4280427105002764,1.3545514552224571,1.585310433727593,0.9506497286527016
9,0.9316553557581378,0.9034673625964823,0.8965369073359575,1.1671358834430676,1.1708806724215712,0.30720861282691203,0.760677606501245,0.7112622924800107,1.050257880027336,1.2966599930229905,0.6180765742263259,0.9014294870236415,0.8295485099445545,0.8761716191982811,0.940517101606555
10,1.487315904338165,1.2936994378405253,0.726944364180039,0.9391284327804788,0.9389142910978506,0.6129503795351358,0.7563269994962567,0.6404944655532012,1.3493059295273016,1.878141348536602,0.6668815377411301,1.3811520499389758,1.1577181227924538,1.4203609156834969,0.9396737827262431
11,0.5631534718570433,0.5230643752155991,0.16287998174093854,0.9201639632925709,0.9099903106057448,0.13276658512914374,1.149567312742632,0.971400975883177,0.459236390578533,0.4855840773172819,0.6468212168108125,0.4923855801388661,0.3325928518035217,0.27888093191271196,0.9225085414690737
12,0.8992160041457479,0.7302312686826514,0.2279767466010687,0.9320704846576607,0.9293133349243629,0.29876588923651937,1.3639647251861333,1.0478808195959117,0.5820304620084681,0.5016061964228976,0.6097226960127671,0.7644522469199163,0.4645724938047186,0.34493878351580576,0.9332045506988796
13,1.8121777308811633,0.9474867733290315,-1.0107780903555015,1.2164222249075718,1.225279156082465,0.6858957495074371,1.7447959473842287,1.4154198988656117,1.2335671051794488,0.9226713766910085,0.6699045166045591,1.597344664746717,1.045698375046883,0.6815019903474729,0.9362062767234706
14,2.4290066394901304,0.1505083604692059,-1.5451999415725834,0.7348741894351566,0.7397935940359318,0.6141563795016298,1.5139456409615906,1.363305599258652,1.973030577374622,1.7635950567891912,0.6207552362147116,2.1007332771474583,1.7405206573924805,1.4221253806468175,0.9380569948524302
15,1.4402735815644456,1.184065959858695,-0.20813611658907893,0.6161910432229174,0.6235042615024674,0.3622079570287709,1.8784421618242422,1.5151756476996023,1.2989353709865978,1.1418518366139643,0.6468212168108125,1.3180958791508324,1.0424714963815604,0.866956850289849,0.9400411625054176
16,0.8960984751888881,0.7583920704057603,0.24662541547948447,1.0695101692175197,1.0733980285286773,0.18791501570819352,1.4187669868480843,1.2773696355175879,0.5946689160836297,0.655244359354044,0.5978297680564633,0.5976753976524892,0.4280272556283023,0.38661631825594184,0.9462350456085259
17,1.591009401703278,0.5378892611920945,-0.17127225347920794,0.9209742945722085,0.9110106017949104,0.5457148594930739,2.046332410532869,1.5935266929814218,0.7766690744086379,0.6314579750181354,0.6584896970785714,1.1418677973390667,0.5967933408939727,0.43162943786309893,0.9085555628707803
18,1.736994735379269,0.6071542537163148,-1.268368869944035,1.2932471594904666,1.2841228075076199,0.5568495975806169,1.9383112697753606,1.3472995312427836,0.5803361853784804,0.3342201469273022,0.6403206450210053,1.2073488671886603,0.4842636534344558,0.26825006816133795,0.8947177533652266
19,0.615607109864684,0.11127070033374487,0.2296387678750006,0.632097524215472,0.6254677307629134,0.4172852077787167,0.4388183865355047,0.4426594096169227,0.4333233601940558,0.527453381803419,0.6207552362147116,0.5853296857489445,0.31470500555020514,0.3228566867690456,0.9492335870700345
20,2.5184207350269183,0.3665333940235991,-1.4911836427455356,0.8548151846469855,0.8444299184402135,0.6735196519356212,0.35269836425062046,0.36196418876163566,2.151142460637745,2.5717890423773833,0.6097226960127671,2.3018076175286595,1.940263856722897,2.122068358141599,0.9446708437770266
21,1.762211637181505,0.9607786518670816,-1.2585294235903677,0.4595230826036698,0.4571477433218413,0.3304040127884153,0.47939165920594484,0.4111627576410576,1.0709172814949919,1.1060789232920563,0.62595550513784,1.2457597704544103,0.8711759756530061,0.7605197865222019,0.9661667411380312
22,2.185085748930109,1.090559828662594,-1.6080726754712023,0.7560749655058995,0.7360850041828494,0.6511062437676028,1.4253970110494787,1.2881335964876963,1.9289176599224522,2.0794337995803107,0.6380535849069913,1.8968977873513597,1.6918347181576376,1.54031101963756,0.9547329491359516
23,2.5063080457641225,0.45446650646751907,-1.6613217584212996,0.8631723726107624,0.866431651294774,0.6797238151860107,1.7086716947086065,1.5650007831713293,2.201723121207644,1.8287637296922201,0.648888643467878,2.095841963047617,1.9618492815264483,1.4919405502548775,0.9503078702317432
24,2.1798440286731067,-0.1647598245625459,-0.7609747340890218,1.150071629870685,1.124559322621152,0.3560061634280116,1.634614318062665,1.4571536840166486,1.5342869889475705,1.2617822695753043,0.6008849035917525,1.6115512550815072,1.2380625103424898,0.8286555095779238,0.9317448799140512
25,2.0602721734540888,-0.26437762505721696,-1.0252894414313123,1.2248822819943337,1.2021362040823884,0.5366699651049214,1.1741576707875518,1.1745591374061761,0.5365838746411661,0.6131748056830555,0.6333676938231112,1.1582915241697107,0.3971844356925637,0.33272099100278607,0.9315421188753954
26,1.0175677185069878,0.6118664909701093,0.6229425033834961,0.38878223736546635,0.3798029829045349,0.37989849182695284,0.4228535909078221,0.46865710747918365,0.9161961139292,1.156809337539531,0.6380535849069913,0.9828757901855131,0.7181902004281197,0.7511798769348194,0.957308090861571
27,1.4832535207255308,0.8298298115419807,0.7466393253064716,0.23589655783169353,0.22683223981974776,0.4203013602636418,0.6530279101226845,0.6971622210668876,1.212355332817473,1.7620369016373303,0.6357360191111145,1.347372838018635,1.033774577478513,1.3752973581125545,0.9572818895666348
28,1.7392842865474019,0.8883078172993162,0.26680082169099384,0.2285328140111255,0.2252940536980849,0.3864703181777857,0.5498639979473711,0.6939879729106273,1.5802322228207755,2.385026378916481,0.6207552362147116,1.5999827536633453,1.3744229998428288,2.0050539231216318,0.9507135447118259
29,1.8908894748247285,1.282331891228874,-0.5537567010514914,1.3558913422671834,1.3579886685222016,0.495971709551979,0.5397151184965557,0.7434196004985275,1.826635398312413,2.20609848884379,0.6233814453054027,1.766741706252767,1.6036032119266235,1.8206139300481465,0.9452196533885955
30,1.9665200836599652,1.7304670105602926,-1.0060934441595313,1.3212259864423423,1.3169649624145767,0.5882027945889667,0.6510835997704505,0.9005620490111753,2.0619704060102144,2.7221531549614095,0.648888643467878,1.9005332107268509,1.8185763820356071,2.1239349492272503,0.9429425754836426
31,1.9507604073738212,0.6171212793762948,0.26453063257479004,0.7163323066132811,0.6960129060510148,0.6568589130653626,1.0876739085725007,1.0749750024158795,1.467085706243386,1.8052416152073487,0.5947193981915972,1.6387523001028756,1.2730474052069094,1.4370070914839526,0.952962091077671
32,3.2744402882648043,-1.0838682275930875,-1.4083054893163154,1.1618555751411879,1.15007263128016,0.7006447628210131,1.1240513949267852,1.111353443144962,2.4013026487194074,2.5392667327786826,0.6528756675646988,2.646955101742399,2.1869296806093574,2.0628206604437955,0.9502904540507334
33,3.425306631487369,-1.9742531494701139,-1.149344196727594,1.0704336863033614,1.0524382239081416,0.6399965001894147,0.9980079928575099,0.9271798506899429,2.640897466149532,2.2209218807500264,0.62595550513784,2.9488486876551407,2.41371094762125,1.9018705876444792,0.9329705222599557
34,2.904395467051211,-0.5990233437731485,-0.36972098279874754,0.8320286932344971,0.8043583423798802,0.603741053995993,0.5012514798000912,0.5404095182801729,1.6753853864010297,2.198195674062307,0.6180765742263259,2.2123382151462674,1.4545623322488934,1.7848270324524103,0.9372537462949856
35,2.6358035419415646,1.0745951786765389,-3.1947223114123644,0.5252751673135516,0.5170182526838534,0.6034727322816957,0.389750951009939,0.4546562432453286,2.625535725096762,3.4590357290291625,0.5713653840954815,2.41924376098872,2.400771173498886,3.329453476803314,0.9286061918266102
36,1.4192622746703938,0.8809019520953532,0.6612357220818113,0.6725779369194663,0.6730550441510356,0.23753735355663144,0.5447604092441611,0.6681593839474497,1.131270470218338,1.362906964894969,0.6403206450210053,1.309662592294936,0.9362271570225642,1.0524502469049473,0.9505895505805712
37,2.112417499857952,1.644868164627432,-0.9167412807366317,1.322225462870294,1.288800179480095,0.7771997178866398,0.6302895577864284,0.795685928213239,1.9411445591886636,2.4769891904136845,0.6584896970785714,2.056072297580336,1.7128128278559542,2.0402578648777374,0.9251948956689793
38,0.9715814047295883,0.06823264314357047,0.31389698019358725,0.5424587008591985,0.4990889281963504,0.4711561435727519,0.7077230237021799,0.6880041620754612,0.517548467897771,0.5617726037924723,0.6180765742263259,0.7993228431746128,0.4130182108218398,0.4017744479887588,0.9588287746509897
39,1.2473675974292882,0.19392032984635854,-0.48796961739389,0.7830546530779458,0.7641269113426238,0.5967562851400962,0.6496594116718364,0.49795727604232576,0.5414459010799813,0.6136760428379563,0.6468212168108125,0.830775844437035,0.36578008856120126,0.2994540927002789,0.9539091250777135
40,2.4057907700519925,-0.3955281530519166,-0.5698818300446915,0.9629807594991635,0.9712745070941354,0.6798841465901498,1.4043834964283362,1.3503356916304037,1.335170425745239,1.1310634720215311,0.6566669596287297,1.762459600183193,1.1215325507489329,0.8466356525621965,0.9581172110005761
41,2.186926563022528,-0.20493216775001843,-0.5643486479631401,0.9770768223397369,0.9655853183688227,0.40176913185854396,1.8462546616908115,1.4424772865435544,0.9253424985596259,0.6828906571864711,0.663668482632973,1.3725667945740636,0.7471413403343276,0.5024702271198551,0.9457092532207574
42,3.1127252759893564,-2.015346290149651,-0.1928852845173693,1.3435041437252915,1.3304093973785245,0.604710812979185,1.4773796893237612,1.320149003828975,0.5990268600337277,0.456733205339878,0.6509067234006624,1.736892567787215,0.4881143905614561,0.330465227486602,0.9367075845676814
43,2.0886370333756656,0.4478362559264515,-0.9475500917921231,1.2342372788456322,1.2346704751827953,0.6533103669517496,1.5954099563197144,1.5664489740066172,1.6164589542612329,1.4975549849828915,0.648888643467878,1.842421384030283,1.4000643064770515,1.1906003477800224,0.9586254320801696
44,2.4786038196147646,-0.2552164899253544,-1.1343649705355208,0.8910628950003696,0.8712106322721433,0.6009798859704851,0.8918271908601588,0.8062893425486805,1.1918342373717288,1.057783677231101,0.6425374456860184,1.818103444567657,1.0349725285848108,0.8887355442982356,0.9485063459657694
45,2.2698072679044596,0.5499958433645631,-1.7018469261038665,0.6212565456846545,0.6028430167090952,0.5718290341719648,0.8072328608356262,0.6748246498675753,1.3672577677298954,2.0227931260192125,0.5883313578629602,1.6637767755339492,1.0040916359354293,0.9631615096577836,0.9287900448372515
46,0.9600378022685541,0.7230465386702762,-0.12895692869195674,0.7882167975455975,0.7847636673863979,0.20250790154462533,1.4879004156608002,1.3279659744260444,0.610821319325958,0.6694847541386032,0.675384900321601,0.6839231860324135,0.4247731090897158,0.3661136039735765,0.9389355194688569
47,1.6440649097491546,0.11019025730959298,-0.11998944767695763,0.562697323596336,0.5664598647995429,0.2705340723008939,0.8221441395755494,0.6366800861717098,0.40650935167104546,0.21592136255397726,0.6380535849069913,0.8718752018437698,0.31637007906437725,0.1816946569388959,0.9124835278734792
48,1.714479609258881,0.6963772848539846,-0.4153568630114546,0.5612724973447629,0.5408722809995825,0.5803634645376816,1.3036183476844627,1.1253913921320515,1.2235627481817377,0.9886323594676603,0.6566669596287297,1.4518170701151893,1.026577496057588,0.7152467875168821,0.956826906298102
49,1.344859226701304,0.6810286292669143,0.10384651938778289,0.70993582146605,0.6702335950190526,0.3413190991043609,1.6418347393704138,1.3571552522039179,0.8741462514322849,0.7084130630698189,0.6425374456860184,1.1253670259769293,0.7134840507849762,0.5078020140662429,0.9147123707677332
50,1.5007990806342855,0.8138027675908439,0.2323328902019055,0.7856203682711482,0.7671584233461578,0.4361806971172418,2.2785910382625505,1.9250778463513232,1.1363403360796378,0.8408617130208138,0.6333676938231112,1.3318061758358208,0.940249712123402,0.6493938255078034,0.9393207135134292
51,1.6024300728802252,1.2154445639617018,-0.14892980121385557,0.8026863657548758,0.7890331623985812,0.5773839862983681,2.2781375986818864,1.9385083096626805,1.2885451624888322,1.3593095161778208,0.6180765742263259,1.4371199286513932,1.062291407339489,0.9236908810593233,0.9509469634740473
52,0.7749800804766461,0.4288102882194652,0.3754583918464347,1.0454209638474772,1.0363169569841275,0.496415821008307,2.115391303680546,1.5424794886575337,0.4421381859116094,0.4028520221227704,0.648888643467878,0.7338302958354803,0.33554686756429436,0.25137917624946127,0.8839559352976953
53,1.4272764730561012,0.8296448474093967,-0.2819546117623888,0.6746677259336137,0.655842637160752,0.5794863837908797,1.6136369393081393,1.2290044821309711,0.894562004912998,0.9226860394205675,0.6509067234006624,1.2298225676385235,0.7093547423756056,0.4618785076039271,0.9465501808489853
54,1.3299447512356641,0.9992922536375617,0.70430663013869,0.6061427610487884,0.5871678710059218,0.5346179934601313,2.4713554367355424,1.9141038981835092,1.117488702212605,0.9839665908406097,0.6584896970785714,1.2917117186339429,0.9407256144580212,0.9161871532319784,0.9225066742338708
55,0.9249792249471481,0.5081653276953991,0.2655159991755296,0.47925103879182324,0.4589409539942146,0.3515286047846769,1.7715621784589297,1.378583905537596,0.5566744385463285,0.5264085454639563,0.6008849035917525,0.8602517715490395,0.4632138626320025,0.3655567575959006,0.8965736589485667
56,1.6405236572199589,0.2228567029102404,-0.5773526479036897,0.6982892508903418,0.6872282389982708,0.4880741040751783,1.8745491696815124,1.1698991407754256,0.7773668533452229,0.509223451091396,0.6447042257417027,1.2311917535672503,0.6230106562840237,0.3131721455160602,0.9320472399609495
57,0.768373599558626,0.544331007224327,0.19123909145779328,0.45074297807036257,0.4475302796096624,0.39195573285147467,1.3164732847324905,0.9046418746151081,0.5415391714458322,0.5786302766218081,0.6380535849069913,0.6770551326603014,0.405913492019788,0.33231980928212534,0.9396517107945634
58,1.5726083013069156,1.3352114114545062,0.29611631329945887,0.8886485019308983,0.8681837354045393,0.7525968853688949,2.4084366162855915,2.017287460852381,1.6458266331503129,1.1295919230147284,0.6652988471865258,1.5088889537734962,1.413386353135677,1.0623183913538086,0.9486647417064346
59,2.2323605772171193,0.4412302056473032,-1.2270145796063205,1.227714500133562,1.2250084781020174,0.5796745602775798,1.5600714984299573,1.2506738129172486,1.7037432426927943,1.6369476128470009,0.6547956803312163,1.9353989194296657,1.4288238594411282,0.983724542150225,0.9456164292572976
60,1.5447473423374363,1.3219419732090607,1.018385297909243,1.2516437540922205,1.2455168332369275,0.6399344936304066,2.967849392712621,2.7752302227738515,1.5391031715228323,1.5615267147666572,0.6425374456860184,1.5401191681235396,1.2716262693174356,1.225588870064346,0.9386185742009666
61,1.1846305721252786,0.915156925853764,0.8244423722619829,1.3707723978876676,1.3521167819569742,0.7342943514460138,3.0792216467727904,2.3975107491123433,0.8940734713047672,0.8426835556155707,0.6602640781246099,1.155147367409988,0.729385501970422,0.6264440081407744,0.8237553782194237
62,2.1845777283760865,0.9546424098050155,-1.802719984766013,1.3456300312378753,1.3270401335974338,0.6665693639369304,2.1313184708295774,1.9937314903395378,1.9739673372712736,1.6076437174323908,0.6403206450210053,1.9099425849057783,1.7397161560548768,1.282473491647657,0.949840732811037
63,1.439005806797914,1.1594981065595034,-0.11736324838398282,0.6825595131322456,0.6719842717772532,0.6867514773630177,1.7322535194405624,1.1832823585576147,0.8549272259130658,0.6835510771637024,0.6207552362147116,1.237223227035931,0.6952553091315651,0.49202312376454,0.9478821606345618
64,1.0754973169248383,0.9541124111721335,-0.05871657602697611,1.0396891448441778,1.0276559992477738,0.5580122420644646,1.4903756745855619,1.458063282915144,0.7708394475212621,0.9300583250802001,0.62595550513784,0.9486417620918146,0.5867715149943123,0.600434020575189,0.9406365277845958
65,1.5314376256295419,0.9085017054389173,-0.4393803012449258,0.7424146353260187,0.7185996113065769,0.6413550136238393,1.4789129849452998,1.3993282020235591,1.1112554182435563,1.2744308325754197,0.6097226960127671,1.2880390275921114,0.9274513585510005,0.9169529329527815,0.9449550983117609
66,1.7910437346954964,0.4414281219887539,0.17219343872192816,0.6319077729749021,0.6132901923109383,0.5945326011974519,1.0907436152959638,1.158566560760734,1.3628636471802602,2.670384551433934,0.6357360191111145,1.4025140813668329,1.170859549743498,1.920453967542387,0.946281193373596
67,1.566628674874957,0.9876241075490841,-0.6628751620958406,0.9099459962972819,0.8863170818390982,0.7318948821794306,1.7285445778250332,1.474578931113399,1.116985828782493,1.2253068861679381,0.648888643467878,1.3856723323976528,0.886275791134503,0.7535563083555052,0.9440935432502803
68,1.8093916749850483,0.3342792801242025,0.15336938596495964,0.7071186437184372,0.7077043630017427,0.48829133677995495,1.176780413107097,1.318652029614271,1.5616705238082955,1.8118410237769866,0.6097226960127671,1.5329914069409163,1.3401299975487206,1.4561019652650942,0.9520067525408443
69,1.5321732881651349,0.31723997531991954,-0.05979031029793336,0.39808175141331453,0.38710308278081373,0.5173110516371365,1.2847194382647256,1.339184150175194,0.8447589825708616,1.1273396988177693,0.6333676938231112,1.1114273857149535,0.6622957210270028,0.7575765826157544,0.9529759890998541
70,1.106673077443214,0.1810516088007974,-0.49779707106249205,0.44389008236733096,0.4425385880193684,0.30658276855519734,1.2014183298386154,0.9357861262826983,0.36582461211757966,0.3000171028131273,0.6619902821573977,0.6141511743334475,0.2725537869465233,0.16967832317042866,0.9317044033132352
71,1.286644731629601,0.5277447110301285,0.3992428801028003,0.2887122308848281,0.28270490174165974,0.37575065883067266,1.2533160759956101,1.310477689075285,1.035857634782303,1.3445353238142916,0.6180765742263259,0.9987971200659127,0.8323964184075494,0.926572254874681,0.9540352833996439
72,1.6722927932294702,1.1532298339755132,0.6975526433767558,0.6450372603920744,0.6339008405517337,0.5374246707612219,1.3482117270169067,1.5952484570956502,1.7502515348746825,1.7415492843593428,0.6309483474627791,1.5138247482311542,1.5266724682426485,1.3667332725633694,0.9478187067678401
73,1.4413082593751747,0.17661462055625465,0.09054518438868597,0.42790111896134325,0.42219071406879505,0.4981988744567032,1.2503910057558358,1.2347155211450056,0.8549332793108606,0.9358411272310201,0.5947193981915972,1.1135905718488228,0.7186437299449504,0.6493445579015524,0.9539501344579682
74,1.1668759530543535,0.5407560504722644,0.5853484317964377,0.4132444470465132,0.40448805002566823,0.32937384930990554,0.8961153797444065,1.1999312758383889,1.1887221633493463,1.2159065990200033,0.6180765742263259,1.0629556114600751,0.9316547058144272,0.8864053456976374,0.9430950046813347
75,0.40596410671994093,0.2211655109746828,0.17842817725117033,0.451580913107281,0.4438738517856557,0.27970774190409503,1.1182600969862182,1.077390221026162,0.2085173887915399,0.22052132262735577,0.6584896970785714,0.3566590710488343,0.1405010926401033,0.11684728085626382,0.9248276343969836
76,2.2732163316163594,1.7099576813157746,-3.59264196158793,0.43293065090319033,0.411946241445146,0.6359708977360174,0.9619820456835196,1.2977754696816426,2.5640290726648374,4.095307261197106,0.6207552362147116,2.169901281687329,2.3707303831631914,3.7314390685327323,0.9383097369431797
77,2.1419298277363663,2.3011556567361278,-2.450971447974263,1.1877773698086276,1.1590865504206032,0.7782869780986491,0.6260664871689953,0.9605481184760597,2.276019360073096,2.161899908990818,0.6566669596287297,2.119985796995417,2.0789788143567858,1.866266085995388,0.9343923491582997
78,1.8616416867953989,1.9961205805300897,-0.9745480872178058,1.4301574203476717,1.409523542196149,0.7472172897823407,0.7409266357734705,0.8808970317508406,2.070719397384325,1.7677452633900765,0.6180765742263259,1.8486120474875318,1.814383092470375,1.4869022214718566,0.946326420415635
79,1.9596606850360074,1.410636332167932,-0.9490681689349958,0.9798874583625579,0.9489529138184689,0.6787933212526267,0.4748918319484841,0.590270756427134,2.457699928878004,2.246877340116787,0.5883313578629602,1.9446775756527677,2.1637659109488347,1.891949691250681,0.937836866509759
80,0.6726536214957409,0.630808126301856,0.5534493380130354,0.4850100622614759,0.48650422266327525,0.11396554289255867,1.716865890864343,1.728079379211875,0.8044677221154561,0.8161099226359837,0.6309483474627791,0.6614332050704176,0.5982872439924493,0.5773153650348236,0.9525677503207076
81,2.5021480097100155,-0.9171779581796462,-1.5658522881528343,0.5045205727559866,0.4995401733899529,0.8228216342590353,1.3889881109078985,2.156116005272935,4.305950034123028,4.588419676364026,0.6357360191111145,2.4998172625237545,4.171549238394152,4.736198448394496,0.9275593560421318
82,0.28053811543902835,0.15979618324287603,0.1390511717807829,0.44140637201324034,0.43363148041765465,0.22233608807975597,1.1915130737779351,1.2492206185257801,0.1850128434485128,0.17926953554559677,0.6309483474627791,0.27264021499565855,0.15085309563189706,0.12313221726962256,0.9429288853255477
83,0.3911804537840302,0.2006479065634581,0.16917515426615481,0.292891870741994,0.285731396949926,0.3000461800194363,1.0203695281128902,1.0396229820170637,0.22097467392788334,0.19511694756635323,0.6284777104787076,0.3458763166965068,0.16391280738388478,0.12027893307833351,0.9412444813420857
84,0.33711926360710187,0.10793537677827808,0.03281867862209564,0.3050030429526747,0.2745504450702982,0.38026077070997977,1.8733347526448045,2.9424880096273553,0.09923248961310512,0.07677767158442118,0.6425374456860184,0.3208635769102813,0.08248710151403021,0.04549176965342143,0.9077483869857323
85,0.6440444180246278,0.20293182376760743,-0.29820520581903887,0.5295044398044864,0.5187017108712829,0.3783469675604266,0.8770828231501826,0.5171782045100636,0.14628894431921724,0.0732340041419706,0.581717464821069,0.4521899066144001,0.12707318734684203,0.07129299119395725,0.9518980186680812
86,0.7347293864060052,0.3201529053303287,0.009290173378634359,0.6342637324615321,0.6234915737293535,0.44840470112162095,1.4795544725577359,0.8322643225826705,0.32962711139573464,0.2341087793651843,0.6602640781246099,0.6079281496039852,0.2750084025974358,0.16504599551536694,0.9368082033285832
87,1.3435681050636596,0.9313336060185866,0.5898720681628769,0.2961992331241894,0.29167691035094323,0.4536896919285989,0.8815844161603236,0.716777679318129,1.2483833517835479,1.3031133802273611,0.6333676938231112,1.2117436601094407,1.0141890813635224,0.9113630964028147,0.9501249747178745
88,0.9339705140463369,0.5322218691445461,-0.08252228266237305,0.7794395630238793,0.7629856828666627,0.48726604015199765,1.5945083257682091,0.7981073034806614,0.3868280244359606,0.22809919617528437,0.6468212168108125,0.781735557937053,0.32470730984624524,0.1967365866260858,0.8569435892011789
89,1.3656810851416343,1.0480206645227608,0.693286210878234,0.6950915930475745,0.6827997644530558,0.6067846188116814,2.9435510957468676,2.3958835548345796,1.0863264974738376,0.8433772829124841,0.6097226960127671,1.306826177428014,0.9132576940542878,0.6797323452418624,0.942317877804136
90,0.9457615296861434,0.5713819744216427,0.2876250601399515,0.458592025925587,0.44589508436288283,0.4344267370853504,1.9700967267868756,1.5324114822046004,0.45466520331059984,0.3349604176443747,0.62595550513784,0.8010046381447558,0.3558018947680799,0.2037334488672422,0.9341739624265266
91,0.8934300941226885,0.33860377377419715,0.22808996855257746,0.49501380222158764,0.47953611957556125,0.5762969787933612,1.8586839501260093,0.8860878865020478,0.3350566753006885,0.20137524990853098,0.6233814453054027,0.8755487405540706,0.27959862685591735,0.14790939513984708,0.935100378959778
92,1.3240750336632994,0.9839391776376507,0.8698467940243582,0.31437268908350524,0.2662568477973965,0.3490127452999164,0.7945179006237532,0.810921623106982,1.325929094459419,1.5425132411463696,0.6038851895711802,1.2340884282305595,1.1009050788505559,1.202023597723575,0.9626896689643423
93,0.472728085407591,0.2693811360742013,0.13210669598284042,0.6659969677285378,0.6563556343493571,0.37278169438180564,0.8656027299131119,0.6025773329854563,0.2100611778338237,0.1504344853041141,0.5915533975974677,0.4284437736785751,0.15666647602013575,0.10066417653182139,0.9300351786735664
94,0.5020033033231982,0.33437843255632693,0.18589510253511543,0.5918295479881934,0.5868334983451772,0.18172569156624094,0.9333803258320204,0.7815363431708163,0.2538708013279172,0.2108638387995292,0.6778444222523095,0.3975961497294691,0.19299444250538408,0.14245308532440432,0.9603540320349783
95,1.236766752647079,0.54991214464292,0.05890085950657653,0.6553271684513393,0.6478775366998814,0.6833507432506826,1.4534819017840235,0.9098650392686394,0.6528375697308313,0.48794175685453206,0.6602640781246099,1.1016502318815609,0.5579704806560628,0.3703959458146892,0.9457545190910489
96,1.2736006018079191,0.9425621945407365,0.3891078629503397,0.8954402978664467,0.8755583912571964,0.6486859852911218,1.8113015655252345,1.440023463389685,0.8882617286369793,0.7197063815555237,0.6403206450210053,1.187261369599429,0.7244083963011835,0.5040840251990711,0.9382813160500028
97,0.9651052865598547,0.6427277289584462,-0.14658017484929586,1.105329583332488,1.0655207603698729,0.6319777359362304,1.9926868814223933,1.51986372997224,0.43145126291420244,0.3471124003995847,0.6309483474627791,0.8380958842890983,0.35768831613128504,0.2307767539280625,0.9363967172782339
98,1.8629639618177145,0.03943432815887027,-0.5928862812904847,1.0841448330625858,1.0529627585136885,0.6217809181465521,1.1960387859111539,0.9965305060713496,0.8272793389796651,0.9528298126143121,0.6380535849069913,1.2615234519422411,0.6360410761827904,0.5624544061551898,0.9514021543597893
99,0.5301779726942902,0.2781477457897832,0.08995405879547658,0.32416276566136304,0.3245120090006421,0.2803834306314236,1.0676226179628228,0.8215949168007517,0.2756204420823521,0.24831553426505867,0.6566669596287297,0.45364046131259594,0.2164631620787402,0.15746423397801582,0.933577134405696
100,1.2450088749765853,0.8601889175125357,-0.019377130218084737,0.7966642939071144,0.7958718855250198,0.4407315074130048,0.6479470074645789,0.46665169514266447,0.8433746064330111,0.9353207104407931,0.6425374456860184,1.03814454190102,0.6329323955714239,0.5500305803271074,0.9426902962194574
101,1.6026976201505796,1.3913264063367181,0.3215952069333521,0.8550868763030015,0.8307380692772667,0.49289312822507947,0.7346523391746167,0.6306493056443121,1.5271110568960147,1.7426742772853194,0.6207552362147116,1.5083364536966575,1.2713887841124434,1.3266919056472688,0.9526097302291816
102,0.4016857589713855,0.06766169644390763,0.037123182691991,1.1028616025608553,1.080418944924344,0.4736225410019154,0.9242056892326914,0.4815623715686831,0.07812328895069734,0.05669562014671926,0.6447042257417027,0.40163910327463526,0.07428423514878434,0.04377486384616937,0.9431602472462868
103,1.4225855922004615,0.5720538629353364,0.12115718942975917,0.3447416619877114,0.33211333291446166,0.46605145771625983,0.5839662010382117,0.3715284234646613,0.8990291204667924,0.9181340190098255,0.6233814453054027,1.0668552570549181,0.6835703486801598,0.5579540209673041,0.9351926308502027
104,1.6029498010789502,0.839247080371651,0.6295544761086993,0.35536628107267804,0.3423978379963901,0.5162506074140187,1.0448029395347584,0.9493994433182842,1.4095290579514617,1.5738080403628443,0.6357360191111145,1.486237478647943,1.1608744243491875,1.197771799593387,0.9532670436457655
105,0.5932579388704677,0.3790104382142746,0.0697049501155399,0.8405154605480619,0.8348160430544083,0.3474181839834779,1.1707553474097128,0.7631103957132213,0.27853614855266806,0.23824246869737797,0.6528756675646988,0.5216993437746974,0.22552863839464973,0.1736008089148201,0.9584194863929817
106,0.7234324822805887,0.4526460100753793,0.3126610961312719,0.889158553671386,0.8902161461794885,0.35503028025354777,1.2587812248234156,0.8462218309321361,0.3805302368620518,0.31874633170418787,0.6008849035917525,0.6496195163340786,0.28761115599842485,0.22791323348122156,0.9471290069318844
107,1.1360562735300046,0.5000158537465731,0.22450502242053116,0.626701550561613,0.6040632973019733,0.7799537831529028,2.1013421310221196,0.7296008357323278,0.5249485990998775,0.259690278090859,0.6547956803312163,1.133617897866925,0.493814277939454,0.21498920822390388,0.9538599111112667
108,1.047469236118783,0.662486276156889,0.37032103367628855,0.19509921375953443,0.19245548811652494,0.5599051819323608,2.666999289855351,1.8881151324322611,0.7568416068636957,0.4869186499109021,0.675384900321601,1.0463361441027388,0.6582675141223363,0.3636122385476105,0.9533684994559531
109,0.7612662898072607,0.5249215483662174,0.4027910134655739,0.122888179777612,0.11379070001433146,0.32004969275840517,0.8841762202076036,0.7021520713209609,0.6824626637607504,0.6935863945721158,0.5947193981915972,0.7422907404996406,0.5130923241184181,0.4102137613229067,0.9560108870129517
110,1.1948498101694576,1.0183710440774776,0.9918243296909197,0.9311498007098967,0.928053476195943,0.37308043499849114,0.83276340181119,0.8276385637726954,1.1470617313571507,1.4539664138229422,0.6284777104787076,1.1788466813787157,0.9364293133103363,1.0646462467189213,0.9363972046295765
111,0.8213415628162597,0.16254048787036046,-0.05199874624611378,0.4147272126241766,0.38384399132864144,0.45204808786018613,1.2931135955101896,1.1078817913525225,0.41128246706892757,0.4348366930346372,0.648888643467878,0.6070918159601244,0.2695776419702943,0.21513273880914172,0.9353612839596219
112,1.4307441368084763,0.44779633647006856,-0.4455625811166182,0.8169625186509208,0.7816012076870387,0.4956300967447635,1.7692748125594366,1.47649095656234,0.6969174501833272,0.4863170234347231,0.6309483474627791,1.0571824789049702,0.5401072995934826,0.36890244610331957,0.933710236508075
113,1.202178053869223,0.9130284289744661,0.34383034955658864,0.8545506796061496,0.8523530658251192,0.7026428918062272,3.279243016008288,2.5681115091812323,0.8494175251695415,0.7283254666974531,0.6357360191111145,1.1591410817429317,0.7218868552433055,0.5022852837131807,0.933858983655757
114,1.5312017698580234,1.2317018334378047,0.7885634627003091,0.7078190727277058,0.7013912143615187,0.7185254419203423,3.0581007150822797,2.9684262840178666,1.3640622605548025,1.477433117974353,0.6125606311107803,1.521834118365533,1.1698507286504127,1.1578851437656505,0.9544080493136512
115,1.5044399384569487,0.9211495473786546,0.47975616187993,0.19804851594381867,0.18702000009539668,0.7269043563233527,3.6278699846863898,3.705583981065117,0.9508256251772003,0.670295741550678,0.6668815377411301,1.5040773967762742,0.9258361447176865,0.4798449302023942,0.9461144854295834
116,0.7551028248068657,0.11444070068926682,-0.0033197570457061953,0.12925332146056012,0.12260165767703007,0.5513170725365889,1.105918443247294,0.3364972607809995,0.10413997248845777,0.04319118912248344,0.6403206450210053,0.725968855742069,0.09982122338128371,0.04475745391147909,0.9520765118283112
117,1.4611237560414239,1.149904274325129,0.5076562293982074,0.9733287290329948,0.9583507086923285,0.7162847995357878,3.449875643716682,2.6430059031283237,1.1514193418582184,0.7990092504116052,0.6097226960127671,1.4274404822375704,1.0046207450039044,0.6757205501211389,0.8559191782289662
118,1.8689295691910817,1.485216018492553,-0.4233691485277471,0.9900392721505945,0.9593640277807451,0.7926332122689326,3.8104018938950848,3.4804763499698383,1.5245155228611327,1.3223630594573557,0.6233814453054027,1.851509473633829,1.4254075075179893,1.0240418304332817,0.9567159255529903
119,1.020731690132509,0.6363255035118405,0.6995709920432152,0.9278455161524798,0.9029660969873037,0.5621828965017382,2.0216401182333783,1.4314711174133667,0.8361393547752988,0.898657984781526,0.6602640781246099,1.0205099237811472,0.6416843410922639,0.7015572633581217,0.9487945240127188
120,1.102857833625006,0.6895723466935857,0.5326110352582378,0.4764007786644294,0.4776983912755805,0.4837170349434842,2.2443684255070324,1.6137396109349975,0.9429998420682049,0.6409500252477902,0.6566669596287297,1.1027541878354448,0.6958285067407357,0.5388239133599013,0.9418722768087704
121,0.3480480856292541,0.1729888105850726,0.13838971069030304,0.6742778512686816,0.6682288369625402,0.17496299601601323,0.38710049527776286,0.32158052676915044,0.27620591531610844,0.31861430591587797,0.585052858160615,0.33606343130460536,0.16878012078383786,0.15770976338686846,0.9528453268663779
122,0.5146941529571811,0.12945661912488093,0.07007530346938862,0.38513176824761,0.3761975362291334,0.5098752411884333,1.057308175348868,0.396921081619112,0.14819636565458136,0.10167673192954017,0.6509067234006624,0.5122154780550451,0.12777015439066802,0.06762114153871485,0.9238857074634573
123,1.3192309571473004,0.9669559358172173,0.9229807046272644,0.4664577077410428,0.4713839628978988,0.28200490614070806,0.5646544261104232,0.6430929614119595,1.3170009965581466,1.3834417161427455,0.6038851895711802,1.2258019280240648,1.1317087792454967,1.1119655151458883,0.9576809530469318
124,1.6663890933616172,1.6001708847042102,0.8859550008559935,1.4204525324968766,1.424951056100934,0.5003529048426901,0.4294356438994346,0.46106142457297355,1.743739791302517,1.9703526226406032,0.5915533975974677,1.6398398477902747,1.5116369677072186,1.557820079699496,0.9408327372959815
125,0.5835291040787507,-0.1948357157639628,0.06242241473629462,0.3841079125105576,0.35026961498662446,0.22997062182134728,0.579559277565581,0.4419787610411453,0.16655930259283888,0.21775313542570945,0.6403206450210053,0.36528331847533263,0.10767578499604735,0.08651225045069257,0.9468008815783047
126,1.44642169838872,0.9405359281604058,-0.31042238243547615,1.0209199930175312,1.0108835852639007,0.6513218652576219,1.9819480474993976,1.4935823835422297,0.9386687621197887,0.8068545780974774,0.6357360191111145,1.2991792858034146,0.8092105778323141,0.5814930335110324,0.933883312212789
127,2.1950075054077574,0.5633371564221967,-0.6863088213717066,0.7996473638617663,0.7775010147907332,0.6495278132504386,1.1023503896014946,0.9132040848874405,1.5542871414561812,1.463695067653489,0.6008849035917525,1.8526424577516265,1.3518922498459163,1.1071370206173277,0.9380106396614994
128,1.7392434381110577,1.7254230402721369,-0.9194307324760373,1.2513771196841936,1.2431512446205277,0.7459743036762136,1.1682106377140133,0.9103377680646079,1.637456061406793,1.4412101540442959,0.6528756675646988,1.6678323839963902,1.4035817491953488,1.1290319599129073,0.9458762602898027
129,1.9366948835907858,1.3628545527788642,-1.801204838113656,1.1884562265626577,1.1946391972465895,0.6615747440844978,1.0338076127634803,0.9411849016694094,1.9576824121233847,2.8147770942610415,0.6357360191111145,1.8259369210296417,1.7264710224014157,2.1681816495415247,0.9476308399490437
130,1.4192796278620163,1.2384377822789145,1.0764920894572825,0.9405658336540053,0.934952543695194,0.4707112420131594,1.2132389087034754,1.0447124963759977,1.4645192802990232,1.8956328995786698,0.6468212168108125,1.3569513318859803,1.1965197097709042,1.3403846598158127,0.9500946904614876
131,1.9862213264046507,1.2420937481157577,-0.8214155494525084,1.0485625120964739,1.0272382457409857,0.6707647599333605,1.0598842044688006,0.8794314741612195,2.0061169696203094,2.5388310978338713,0.6153451465759925,1.8794256059806278,1.755807768162161,1.9492856796865947,0.9462845280461734
132,0.9220988239593764,0.8805561878908046,-0.24878977417653947,1.2113082279564544,1.19120883087629,0.2666285018134053,0.7759263716470366,0.4592602379051536,0.6299675123648656,0.5429459051993559,0.6528756675646988,0.750493847412498,0.4603916837383975,0.30906721478366855,0.9499625825191428
133,0.8240338502100704,0.5730099400379112,0.40749545173090684,1.1242888586977882,1.113173263375346,0.44034073449251593,1.7602744200110183,0.9412181588113062,0.45345678808273043,0.3232894782403191,0.6566669596287297,0.7472514395531461,0.3524948251561665,0.22213458308615797,0.8880382646322948
134,1.345980696980404,0.7192027847840632,0.5266568110758056,1.0435412851575134,0.9951595802245521,0.7276993363319696,2.727296890030614,1.3383596575764027,0.7067588811670563,0.3390102032327877,0.6403206450210053,1.3322692459992242,0.6076036086930484,0.3262731681103686,0.9362519393882723
135,1.511466169145068,0.9165984973608927,0.7716354186727914,0.38270527544353644,0.3740619585631382,0.631544838998048,3.2024573534927354,2.044969039615364,1.033134228372548,1.092623808045513,0.6425374456860184,1.5100954691018371,0.9125251946018859,0.7406102377525844,0.9417378924000456
136,1.0403690568242374,0.3184709368525225,0.1849320610786791,0.7957157174570118,0.7783772613142316,0.7019959346354399,2.070939191254517,0.7709994479747251,0.36945044719018694,0.2623546114840652,0.6068309995095971,1.0374231203556872,0.3159093897281614,0.17929869411048655,0.940255267669353
137,1.4813310287549757,0.7218979494605748,0.32968179790227126,0.7996940531225011,0.7772852102007967,0.6975289751472514,3.4353651750915857,2.671383721544192,0.7406940851733059,0.38426932876618597,0.6509067234006624,1.4812401628735168,0.7275510508341679,0.334451013093279,0.9477329445970548
138,0.8245951883214998,0.17006927969672803,0.062048441309001334,0.3593879189773909,0.3344266209043984,0.6347036355646125,1.6897487165013592,0.8736194265101602,0.18309121413474266,0.07557381336663165,0.6727386042041725,0.8244714867829961,0.17656047354624954,0.06857183930415739,0.9493821307493411
139,0.9668517226058767,0.35119880113516755,0.1312043612220839,0.7226541975731668,0.6968171331527109,0.6929402631552302,1.9485455945763541,1.039913176521934,0.38403989311548636,0.17959350554026837,0.6284777104787076,0.966794864047923,0.3577147641310174,0.137706314502416,0.9453095419261036
140,0.48559686980927097,0.3400477637394109,0.2375154979801809,0.7157856091725127,0.7173573224059561,0.15562999565450963,0.9552694044647306,0.8490364192547024,0.46712281627680313,0.4929420378913389,0.6357360191111145,0.47647787535458386,0.3127887012257186,0.2547628343175155,0.9595885738242497
141,0.4567219023675826,0.08037232894475899,0.03393276098723186,0.7475266763331826,0.73291542383055,0.5154277517711197,1.0736942143994783,0.6728339629076678,0.09365029508532216,0.049835709222031996,0.6447042257417027,0.4564251247055945,0.08652202672383237,0.04007090139758991,0.9362194862724216
142,0.7070544408782069,0.403794883311968,0.27865947929246326,0.23488743178568297,0.23547980738069874,0.31832149690639805,1.5262849513644463,1.4705166423531746,0.5108835055466036,0.40016459304943,0.6038851895711802,0.6934361111852676,0.4085150787483567,0.2928234719521996,0.9477938958474583
143,2.3400007536109175,2.4120923796103977,-3.9897085953701197,1.0641887288107768,1.0422702341436196,0.8062713503231809,0.4545088227756749,0.8149461163134726,3.1528496128422767,2.610965965863377,0.6841113288387766,2.334534528300826,2.9202977263074716,2.4391606279997964,0.9012861598080871
144,2.1441616976709033,1.9957073177569424,-0.37809869492444337,1.6015620943055227,1.564308478968551,0.9514542055765659,0.24810082179303194,0.49331058821068136,2.1669964854087707,1.9982772069717307,0.6153451465759925,2.1413169453979233,1.9424174377121617,1.82257235565759,0.8887601234613904
145,2.1677263448709416,2.0969078040312805,-4.056664748999539,1.5696431833182902,1.535944244005084,0.9248798055629817,0.19883047386679223,0.3895864108933085,2.2890963859146343,5.336590558420204,0.6357360191111145,2.1590621162418704,2.0510674789739407,4.712528704308591,0.8981408851651221
146,1.9933008286072633,2.275543159513364,-1.5657515747616757,1.4904111741161152,1.4538629761767508,0.9251855753151368,0.2518601728688922,0.5061643660705677,2.458611740334077,2.6467321039022176,0.6425374456860184,1.984778035570345,2.2046100753386497,2.2277442516246713,0.9119572505722314
147,1.9790526299432198,1.8471465000723148,-1.4587191095738303,0.7966658849428632,0.8020565258835444,0.46497949159884444,0.2819722396817012,0.4887276402023728,2.118483178325922,3.636940494864528,0.6357360191111145,1.9752016536907129,1.8334628387502803,2.568462535478974,0.9290039768215286
148,2.399846253722749,2.1535401356355055,-4.4386798090930455,0.8404070652056306,0.8139249638928311,0.8926172176213776,0.3310703727112168,0.5627485760578159,2.578145072052927,5.031874489014934,0.6684167106117298,2.3978730508230583,2.4514940956770754,4.7664383335842135,0.9179468441920448
149,2.2548902153775114,2.3662861976816925,-4.52558759617153,1.018129500854465,1.0254270203012694,0.9162809503073263,0.46477638657521136,0.7192731748354854,2.5287506501578774,5.22841111687368,0.6284777104787076,2.2507308448593606,2.323802371666841,5.2235938203521,0.9316145850465556
150,2.378598021995827,2.606158074185887,-4.72641139789703,1.0484249015627085,1.0451134965750206,0.8962809059177865,0.6256136182668204,0.8797598510503837,3.0732046157315596,3.6439580675231746,0.6357360191111145,2.374439196762029,2.61313082440323,3.5296231702509777,0.92500217545886
151,1.78051749311213,1.7733205757744428,-3.3435426717336885,0.39247448031489623,0.39054677186105274,0.4654187237225965,0.9228178558845652,1.3022571016830373,1.9578288843039586,6.271352097208163,0.6468212168108125,1.7787116303787969,1.781872336794817,5.449085709340418,0.9456443097054439
152,2.6275319042627667,2.3758575684922287,-3.7416170898376913,0.506790546401221,0.48020934014714317,0.8132484622617087,0.8829518574195764,1.2812189361125461,2.5859287831954973,3.011690123676011,0.6068309995095971,2.618514235791355,2.4469292947998955,2.152466676694726,0.9120097131395765
153,1.3153354268351873,1.0543987602230405,1.384319488276419,0.609513337070474,0.6042792211436888,0.3317412973784678,0.6969831683868508,1.0070791425950936,1.199884035659109,1.9144231963022935,0.6284777104787076,1.3119705392475223,1.0451880760050223,1.418005207458404,0.9580467234622718
154,1.210478556534147,1.2235775649923673,1.7047879157792742,0.9648845797250127,0.9466132194079395,0.16367677433368855,0.6470083390868532,0.9257370738443457,1.3689787477730864,2.601496740044028,0.6333676938231112,1.2031213150939553,1.2151240681754953,1.7436644984484162,0.8803441081665747
155,1.5571208644945407,1.742825595995079,-0.7022060242223134,0.16020273491155929,0.14705184151786868,0.24435475212880903,0.7038399345367471,0.874399118538686,1.9418120420768852,2.762205303052921,0.6668815377411301,1.5543711908307412,1.7394676725109148,2.666988714304436,0.9606108224526991
156,0.8190535335742108,0.7925311950117826,0.33204498465438914,0.18508749434778257,0.17784145598732692,0.1852711379461106,1.9084980517716665,1.926861629494401,0.9215827892523577,0.4037154394974566,0.5713653840954815,0.8118556442928296,0.8043271862677523,0.3228399796463645,0.9564206943246689
157,1.3636136200042692,1.1000863222804165,1.511601899366489,0.16020273491155929,0.15482979047448378,0.3006830192399836,0.5137610083224778,0.56954658673665,1.4758190249969478,1.9984312121721681,0.6468212168108125,1.2853033779800072,1.2885073479140001,1.6682607483575491,0.9458827325801437
158,2.125874290369649,2.2637745922493506,-4.179353485466115,1.4888885249838664,1.4683962822454737,0.8735269662119998,1.4995547886478386,1.7724900149190446,2.254032926630207,,0.6447042257417027,2.117766656001504,2.1709720442488205,4.720930976263707,0.939554988536926
159,2.018293424442778,1.8745716800192653,1.574815221512941,1.4296949165092878,1.3868836386920471,0.9243365340987034,2.3340394058586775,1.6465966686040727,2.097138676450808,1.8363886642304283,0.6403206450210053,2.018241921807779,1.8799877614880307,1.8533434551967392,0.9187884948972114
160,2.037354759652951,2.1179497506222242,1.4844356860976236,1.3987278345909786,1.3759148996484445,0.9370420376245266,3.6107595140726403,2.979604759283966,2.9701477633411564,,0.6125606311107803,2.0371486294895846,2.1190713364506037,1.5643696270323941,0.9171345130954405
161,2.181214864389352,3.519228709001335,-5.700443573390687,1.540929157022319,1.5254343268785189,0.9451221359542366,3.168899297917707,7.357610186686257,3.5192891762319616,,0.6528756675646988,2.181154397158725,3.5259669787629906,inf,0.9131965079086772
162,2.0292320732154328,3.671211500175254,-5.700443573390687,1.4068429601543497,1.385890626699759,0.9485840092884699,3.7571706471860886,4.213658730290424,4.315554876374326,,0.6425374456860184,2.0290864650587395,3.6780349108629764,inf,0.9206923442017292
163,2.0202801957737107,2.73619544175851,-4.756475637532221,1.4792905456493106,1.4475061303578047,0.8251511280942908,3.765496221526859,8.493823746160686,2.9871295426133773,,0.6740851607140061,2.0201668502173638,2.710314637847903,inf,0.9095125513667646
164,0.9452935220328775,0.5227356580155618,0.3493113790626228,0.14054012242578456,0.1349859846130549,0.586821698908991,1.900098114466349,1.7319486192146345,0.7457986167789238,0.6772991336556204,0.6528756675646988,0.9415515614247667,0.5118327210359893,0.3686969466536881,0.949808725140562
165,2.23909872970672,2.1218215642913303,-4.353456631565694,0.12463234025682715,0.11499489226667882,0.6008108583329865,1.0850020646967304,1.530494702450773,2.356364383267545,,0.6547956803312163,2.2277868829188594,2.2444076203784324,inf,0.9140734799889171
166,2.349770838758058,2.6020729132594154,-4.856254935129799,0.122888179777612,0.11244991631453267,0.6633940527834015,1.3764210452567929,1.9791092193162894,2.802539874676034,6.249049867982803,0.6468212168108125,2.3425972303519718,2.6547928369942633,4.800736969532067,0.9590400275987457
167,0.2461795930625458,0.09462810472597735,0.055165320433575527,0.3336516225861211,0.3042195389694226,0.2905652327121684,1.5204070527035267,1.7886908490699185,0.17864147085635088,0.27436114756783864,0.6357360191111145,0.2367495838875645,0.09002757997860912,0.060487907598039466,0.924119166992338
168,0.15521434944847814,0.005605868624431548,-0.0007312253693542436,0.25536107293752264,0.2563517029624844,0.08740698226566099,0.501688838629123,0.47883815378991,0.045891109397898276,0.05668753905880025,0.6233814453054027,0.1109439754336303,0.03161855158697609,0.027448450196264972,0.9235595498551762
169,2.0617638556467615,1.8808086056439008,-3.035357545532974,0.2703566767940242,0.24841427407221267,0.5913513516606256,0.5991220332294465,0.5871293446677663,2.386793813542727,3.5356606921920384,0.6125606311107803,2.037745262790897,2.1443382137392106,2.7711341765287867,0.9516320807190566
170,2.279900747933674,1.9934172856605907,-2.1463626531546316,1.69070311992188,1.6785691349625598,0.7896219750681107,0.6988442081869227,0.6800917289913128,2.151471838800558,2.4772697077990498,0.6357360191111145,2.276809056679062,1.9506860183305441,1.9926840684620413,0.9223486010165171
171,0.0933847691679914,0.029622049993824187,0.009067791284512863,0.8282559203107385,0.7956339263753068,0.13443509229110168,0.7875294329036754,0.6820027445472279,0.03851169850006229,0.01236912878376692,0.6713451011121618,0.09338314883284826,0.036295358236601905,0.015771246948653537,0.9381031558092646
172,2.2288588276485157,1.8887495292658074,-1.5932161929777706,0.9500668806515661,0.9505449569345553,0.6473122646609487,0.219976883340612,0.2619290481552261,2.2440343979139543,2.314403966990719,0.6602640781246099,2.162919773644229,2.048707949192604,1.9810014688665833,0.9483601486570211
173,0.5037487571252558,0.3273241632379609,0.33003964520367735,0.10696905971831198,0.0732436471913592,0.245450480994297,0.42963124046128787,0.41275076352657747,0.45967009097831424,0.5668153630076024,0.6207552362147116,0.47785660552992293,0.3485934223444428,0.38342907322233083,0.9563860852056614
174,1.61101587325006,0.7220192095411817,-0.5700892673707727,0.6980039176857813,0.6686669595823946,0.677689694543941,1.9730965984679991,1.1680170767920262,0.8820578647925648,0.48710256504903005,0.663668482632973,1.3706835136057431,0.7367003597306868,0.3716732516626788,0.9531108887272401
175,1.9518641849546374,-0.12196620694408256,-0.31332135466827493,1.114966569317031,1.0977057910529688,0.6327728207355547,1.9443264063754642,1.89310189861545,1.271648036010002,1.3342639398500227,0.6038851895711802,1.4487373017431096,1.03696966821566,0.8271743306548182,0.9534984636352013
176,1.6987432537277514,0.9136915980467175,0.9701575808093494,0.8476244398304007,0.8006132390478472,0.701525881306354,1.08174926590934,1.4458182314056942,1.7471709249735499,2.043633283751201,0.585052858160615,1.8830709876786462,1.5254867483898018,1.8107430901613646,0.8948685012550548
177,1.590756078890469,0.7328035919777234,0.8399595413540575,0.3949650856469345,0.3814254062696394,0.5622820239315274,0.9186214741266092,0.9716087462544698,1.4574925789610085,1.2842664881203392,0.5947193981915972,1.3890982884526248,1.2059208906875392,1.0046291412458295,0.9397782927076143
178,1.6029926188579187,1.2809392779571929,-0.16967368767976332,0.3578865509332051,0.3352420584287843,0.4826921425674322,0.5392996695994612,0.8296586470999225,1.5157675156070678,1.624142888983532,0.6380535849069913,1.6235931827778372,1.3076005696385826,1.3335437957343617,0.9190601453825461
179,2.5556586047134586,-0.8736573190586381,-1.4954756463798737,0.9727653358812335,0.9522271410187835,0.8235718540372339,0.3332682353269504,0.5665034632701076,3.9776303587869526,2.9225870003752745,0.6447042257417027,2.548059464793269,3.700450185304604,2.6741486494265287,0.9010329161962036
180,2.1273913422002115,2.515526800724712,-3.861415841696193,1.349634454706778,1.334134085985045,0.8761998395398418,0.3664367460199761,0.5294698940692223,2.6915119307136837,4.097319653974955,0.6309483474627791,2.12044873853417,2.4649188201577417,3.0845277723371223,0.9205592406161546
181,1.510959446559884,1.4433100754705306,1.5677550938609057,0.53037550204384,0.4961855670434805,0.3006593497814454,0.493716081106396,0.6033691723996084,1.7398595913819113,2.564497428954912,0.6233814453054027,1.491407993675611,1.4856115709462256,1.7854544151849214,0.9331279093155739
182,0.4406448467569053,-0.05547169716674499,0.08934697110182516,0.29874863549611025,0.29466182623011655,0.2862176013189978,0.8264023164512208,0.9411018295534403,0.2265384395564417,0.28921131285667984,0.62595550513784,0.29026317841948085,0.11036365304843425,0.09503654455839795,0.9286590883867386
183,0.6577156376211127,0.4479935524670874,0.3106765762958221,0.1914526360307307,0.1925029110998366,0.16517847975056923,1.445073433682362,0.8687023025342888,0.5294015058091462,0.2992233825989985,0.6333676938231112,0.6571367430369123,0.4528398757102472,0.31459667691651555,0.948036326287869
184,1.7328306167103196,1.5633229992697983,1.4182908306533628,0.7529710020839243,0.7446367985805749,0.6198394804106588,2.1406159393818265,1.7553562076522105,1.7183153092468069,1.9876123444166234,0.6668815377411301,1.7324219498825477,1.561117557073098,1.436941981109621,0.9524206521713494
185,1.9822275425536517,2.088028691916411,-4.070256234470063,1.2172818515062511,1.2150270936772711,0.7126684454030854,1.876013679658704,2.324077347892356,2.17005735869325,,0.6547956803312163,1.9809042513701351,2.088422547876678,inf,0.9419860090923984
186,1.8012050406355609,1.5830997334469024,2.083375551892521,0.588215448625971,0.5553373829914277,0.3839096540655716,1.924392781508636,2.5978680975039925,1.7899380097095947,5.405351639907856,0.5915533975974677,1.8010020505949875,1.5879374336716658,2.3626336542258963,0.8922651671404841
187,1.6773987047458514,1.2891298785846426,1.545104662779592,0.08467349851939517,0.08273520757390988,0.5952521574634199,2.754302995139298,2.0223834849049225,1.6435796571887624,1.7259653642812693,0.6425374456860184,1.6650680828683997,1.3445377629514632,1.5989032414337432,0.9722057537623119
188,1.8057354249958826,2.313679152317576,-0.06010838713552147,1.2353733839609484,1.2411411690646206,0.869455066183261,2.992009732944665,2.221593831796433,2.993859732206607,,0.6068309995095971,1.8044395223854295,2.2786354475784405,1.421856645947166,0.921424992862508
189,2.0120428546906344,1.9077113461250335,1.7773392856897368,0.8657337984921452,0.8556984786843413,0.7042232191827908,2.8589804078792183,2.350665233180067,2.079015061861356,2.272743390661787,0.6699045166045591,2.01199059909523,1.913455426665057,1.785025437046711,0.937381949495304
190,2.1499613856676048,2.2632890087521336,-4.413250394419738,1.5873035313877373,1.5728462062758366,0.6709951173341293,3.156488824285923,3.7768898232445056,2.4520626485426527,,0.6547956803312163,2.149768636179924,2.2611148249559396,inf,0.9441173594703873
191,1.8283404238461811,1.5595951879029974,1.5860770284970198,1.579975927401931,1.5857917966861463,0.7717856598858082,2.879330832374056,2.7177537899249926,1.6840014991705379,2.788634032458188,0.6566669596287297,1.8278012405753206,1.5660895659043967,1.5871856853749942,0.9437168722516012
192,1.9470720534301416,2.306979275426631,-4.2158158021017025,1.525568030416169,1.4854437801838232,0.9345875493454584,3.1129346180446595,3.2439973016100945,2.366614091942607,,0.6153451465759925,1.9466993492807925,2.3085967439990704,6.459121675472594,0.9405415865671604
193,1.5240724877237282,1.415511325886879,1.3838485734590353,0.18043082020570633,0.16967701727643894,0.5148998004172348,3.0610412737123966,3.531593639963255,1.6828665463469825,1.5272301861553912,0.6509067234006624,1.5235150906687491,1.4200464957415346,1.3873495474581674,0.9677703803637812
194,2.7987883203836375,-0.9347796760490303,-1.8546793499333285,0.18043082020570633,0.1548511539445319,0.6629277350368016,1.4973974562653602,2.7618791471981816,4.745654413748643,,0.6468212168108125,2.7840317221248383,3.9507043927256578,inf,0.908833534611782
195,2.524702273432474,-2.344044848512314,-0.13629263880830023,0.18880655353635273,0.1564559373360287,0.6466636411906911,1.6388571943977541,2.8603000120786337,6.2374890981327065,,0.6233814453054027,2.5243407190334075,5.887491956725004,2.995732273553991,0.9221113346792613
196,1.6164620131553717,1.3828285034095154,0.9567201581475251,0.15992484896680825,0.1575303754493952,0.46200301328728993,1.2692504916731036,1.1344324593448152,1.7808118290623176,1.94922006887985,0.62595550513784,1.609715728799271,1.4109925308248972,1.0479685558493548,0.9606105498852818
197,2.293420336881917,2.978396076546714,-5.130347335329613,0.15992484896680825,0.13019228212706313,0.6959072777564522,1.0185948644234701,1.1369614951493043,3.2205781116461605,5.895933159630802,0.6403206450210053,2.2776757017338465,3.0453898345033843,4.138589264019858,0.9544520881193004
198,2.1112778510076335,2.02609716152193,-3.8123134340253815,0.14516110362951756,0.1074165921064,0.6657679364601283,1.0106682318673061,1.3574787503548051,2.3101177682532326,5.377794889018525,0.62595550513784,2.096836403304951,2.070795954686982,4.244200317766478,0.9624392616372972
199,2.267522892482298,2.5216472361148257,-4.585852723194843,1.4264169474281603,1.4116730085527318,0.9207910017166937,0.8934293623498423,1.2468026894370965,2.798343841853412,4.943831196255986,0.6180765742263259,2.2657175737815196,2.4325430352725834,4.07024701064304,0.9380009277780448
200,1.7009945414093879,1.2150207660699965,1.2606441522308214,0.10060391803536387,0.03342428832444458,0.4404552673442087,0.911600134768854,1.4613836853786721,1.4949747771361517,1.657927924678436,0.6284777104787076,1.6732063597842455,1.3020699052023632,1.267568305553936,0.9670361226037888
201,1.6893913581948623,1.468982803620557,0.9867409490620447,0.102348078514579,0.10249263189882767,0.3440584924938879,0.5480088795021473,0.9747629996023227,1.7861434257774835,2.9022568224289396,0.6380535849069913,1.6688341223907568,1.5191353727445653,1.8669660578575136,0.9537152388754855
202,1.4317881082185713,1.37661231458734,0.06518226776777825,0.1821749806849215,0.177495040778324,0.205104516023819,0.5356652833722401,0.856916264625695,1.4227521330697332,1.5420694477713506,0.6038851895711802,1.386205476181385,1.1629908368229989,1.121188558473388,0.9599920635509381
203,1.695792897837854,1.2302676487739876,1.2413555462421595,0.24074827726556633,0.23263751435734636,0.41258946932149637,0.7709733915411304,0.8689592618913413,1.5210238771436306,1.7413167933408022,0.6357360191111145,1.6365807465893678,1.2879684631083834,1.279610218531556,0.9457588325735098
204,1.977255576033013,1.979446717321042,-2.8886444414341934,0.25701489319421544,0.25610771855846926,0.448093971986699,1.117688591298915,1.7824102468718668,2.4354019909636007,2.269031854878862,0.6153451465759925,1.9275791923705898,2.1972245773362196,2.0787544925287977,0.9396778899282309
205,2.2511840230308233,2.0974719137993976,0.6250479069991481,0.19509921375953443,0.17234040436904616,0.5078619137627006,0.705742780726771,1.1687884339554855,2.55018525749915,1.5440890115820285,0.6284777104787076,2.2373176709026636,2.239752512458112,1.3469984571699274,0.9214747000837613
206,2.56696962881592,-1.715997992491836,-0.8509716363240839,0.5829700907798208,0.5648464432866098,0.8834508819109109,0.6754387635625092,1.1867422154348903,5.579129310282986,,0.6284777104787076,2.563661298476905,4.972702639927606,inf,0.8865903763539729
207,0.07144557243781935,0.018594927375991083,0.014864089031103644,0.07830835683644703,0.01035246432842736,0.11249303071565254,0.632897684855263,0.9719062512732548,0.050124381901864565,0.11101634693656005,0.6509067234006624,0.07448411126123584,0.028730560219751112,0.025035453525240496,0.9795049136061622
208,1.7311545706728886,1.6230714459391835,1.5524981499318824,0.07830835683644703,0.07863632658125959,0.2218785528976319,1.2405926859714318,1.3088289639893327,2.0496255007751136,2.244591624835931,0.6547956803312163,1.7339938323779125,1.6376447470426982,1.5981747201553895,0.9761513448358102
209,2.0412822176126753,1.822631834254211,-1.863526888976324,1.4882934304371274,1.4921339103552993,0.740624035059583,1.001635367349097,1.180164246587406,1.9690439129484403,4.0537428367758555,0.648888643467878,2.0391957131113094,1.8124641425897463,2.873773866487127,0.932931737255924
210,0.7164287852418872,0.2133148043318166,0.09556660834286124,0.1581806884875931,0.15312481554234805,0.5354248668725091,1.9571991925117718,1.2315143120004928,0.3263227465265296,0.3356624470523195,0.6425374456860184,0.6912157137101981,0.2367259609048185,0.15601191304443374,0.9576766542678821
211,1.9910390886977294,1.5813374337108326,2.0680900315587447,0.1469052641087327,0.1211429711386768,0.8030555741545551,3.446113301027958,3.7699861847652882,1.638877677618546,5.684925370615006,0.6619902821573977,1.9909423830974213,1.584211639027061,2.108825825235539,0.9579405945894975
212,2.312640508643187,1.4473890366531377,1.8368231298210018,0.15181554680464496,0.14581059569852303,0.7686119578946243,4.587159483488172,6.177293274384058,1.5880670583965213,1.8210586833178148,0.6403206450210053,2.3117379641249802,1.456184697329409,1.952666931518193,0.9660209121498053
213,2.1526391817396577,2.0545890157780775,1.4469777677321964,0.8783329865109668,0.8579864053952414,0.8050779169297532,4.15275360824141,5.286487174967292,2.1364996766886155,1.4186519146005279,0.6566669596287297,2.1520600253818456,2.055080030985599,1.5033314064395527,0.9271105169593451
214,1.3455346252028932,0.8259553372705666,-0.23384462292438934,0.6780275489822002,0.6589260985898197,0.4614339594832757,2.552359747214282,1.3981903535545541,0.6545277422407103,0.315567478330997,0.6566669596287297,1.2963724091512556,0.6087050787740244,0.25948630717139104,0.9278917990460479
215,1.1686492671244644,-0.65531870150543,-0.06451299801784716,0.8053936546040359,0.8027723809464001,0.3284081815279758,0.6648199169428333,0.5560952015983024,0.21881431848992336,0.29461163034480575,0.6509067234006624,0.4945695831909852,0.13310201541004868,0.1048403054811881,0.9197537492213801
216,2.2295646597120813,2.395765042443567,-3.440028372748483,1.5105055646339631,1.4786728943461924,0.8444690831146354,0.42425939479298574,0.5186806488419414,2.795913170012551,3.6025271213957533,0.6584896970785714,2.223157959362724,2.605155777939577,2.4521168269650095,0.9275196588450845
217,1.3335969929404725,0.9727631503605347,0.9055214120382535,0.7353488745759036,0.7188767688620334,0.4502869374895012,0.2972806126297068,0.3156806390112414,1.2416813813849072,1.370747583209033,0.6153451465759925,1.2615234519422411,1.0610376167052762,1.0140977918770673,0.9587977057395091
218,1.2003453561332167,0.6364811493684188,0.8102631614556766,0.29401692006599367,0.29647572630481134,0.15243201886428615,0.13060636329466185,0.13109869324045925,1.0599660684743992,1.237561860012413,0.5883313578629602,1.0889590316399713,0.8506819210685,0.8594286467809074,0.9705375936776769
219,2.2849159331448887,1.4874235178574806,-1.2462249464681951,0.1774930122970747,0.16779511957441595,0.5383036961460709,0.07852096815536985,0.09862659638767945,1.8533849478359907,1.759995326794275,0.6284777104787076,2.067073892871174,1.6374833739619918,1.4040584356232935,0.9236521694249448
220,2.3071519800070552,1.2370663490921854,-1.4275676281955074,0.04466961139416602,0.0230436878181059,0.3029120942805316,0.07192535206534152,0.09384452229718743,2.0574740346677243,2.2492992199864767,0.6357360191111145,2.1106799759360335,1.831229663242312,1.7854827011169891,0.9641461238720472
221,1.0400345648937588,0.5679849182239625,0.5173912100789055,0.20641275499881248,0.19933442464501927,0.37502182095654524,0.3890384920386689,0.27412096238843964,0.8392810578307665,0.7700027446049,0.6008849035917525,0.9637609342432522,0.663671241563127,0.5114291582329253,0.9500588826347037
222,0.7218526729115304,0.1370517885093453,-0.12962619300608125,0.2608501012821926,0.2571524696893487,0.38716566630719285,0.813898695449156,0.5366192120661053,0.2460859581356632,0.23367641890084934,0.5883313578629602,0.5661230252660927,0.1690505785509898,0.10405321155436002,0.9470017028015728
223,1.2582758133718448,1.059848546062094,1.0684053242917604,0.06236667603779547,0.06230208284132428,0.2946873776575052,0.3334437318179609,0.352534064800017,1.329822201149987,1.385980275815852,0.5978297680564633,1.2300506351474945,1.1154419588578277,1.1236268041422917,0.9717732857063819
224,0.1778600262384827,-0.05281721154849944,0.0027581488127272347,0.12925332146056012,0.05594486803833339,0.15419946783624908,0.2346225300508479,0.1600774142267175,0.011781431732394789,0.00858639405191868,0.6509067234006624,0.10231577287901485,0.01701846527010504,0.013257913160971737,0.9508844613160702
225,1.353285499903207,0.8305963176183009,0.2683853952463626,0.106969059718312,0.09907285445717336,0.6030196547312198,2.43735298431204,0.5799098453554841,0.949065130925163,0.3105838036983639,0.6008849035917525,1.3500695842969264,0.8189563386806141,0.30751581047883203,0.9728994019245805
226,1.664736348384868,1.2455216713352284,-0.5132468243392769,1.0725795938371017,1.0588648617507388,0.6369503804967914,2.6516222754850083,1.995012355813937,1.0709691560404122,0.7508618144282246,0.6068309995095971,1.4755385319698533,0.8983038992436426,0.5279948047919468,0.9278318633895196
227,0.9453401557563498,0.8276347341017568,0.11734472827989628,1.222876699853768,1.206907110094017,0.44057718066459023,1.9570348473530141,1.499110973628119,0.6146919711521527,0.5837178505985205,0.6125606311107803,0.8121559671421474,0.4516454795796159,0.31526892909594073,0.947802181626984
228,1.8369833291526436,1.6713407609025246,0.42828824541664057,1.1989823010452518,1.1915133109323044,0.7993696950731279,3.206721137496165,2.8837773107405167,1.8279887399922143,1.7613895513715865,0.6602640781246099,1.8158472647571449,1.6018183096123177,1.3846014539947376,0.9384443883929977
229,3.1690583508088928,-1.468930319062282,-0.7591882132484018,1.1025704745235312,1.0600266415431514,0.6969286207800146,2.1461216665955085,2.0636372254900817,1.8524972507907285,1.2407577424951108,0.6380535849069913,2.52018846393264,1.6691996469763546,1.013619075834717,0.934232725183654
230,3.086486623908852,-0.8572709516588848,-1.0699420569595022,1.2272886139736032,1.2305453739168075,0.723267811654719,2.211761219454676,2.158560045025158,1.814934629846707,1.9124577898133164,0.6822068148872973,2.4518587957418,1.5612130463515643,1.3377090939904133,0.9419942382833573
231,3.2274930261333723,-1.113045551625632,-0.9399632486021123,1.1136880405988967,1.105429897771453,0.7195395860642284,2.2504803341364705,2.4769285520847433,2.384174006635581,3.5841988719831686,0.6566669596287297,2.7177638932898494,2.1105498440124517,2.5188082014636817,0.9487318471786481
232,2.887325895174572,-0.8071063227496698,-1.005166158034614,1.3934553289839628,1.3750278294166887,0.8301524476736957,2.529542453231026,2.563904824344978,2.6825882226669755,2.320577531813853,0.6284777104787076,2.80750228007387,2.4537334115696345,2.035455393495586,0.9498287355250715
233,3.529450061457069,-1.260863560772388,-0.7132575139808501,1.4716310550759826,1.4804444414718354,0.8471935444947456,2.4913108000065325,2.4827046321583013,2.618228347537986,2.769172623670407,0.6038851895711802,3.062347022635975,2.3663321617753055,2.265313698196814,0.950004743414234
234,2.829926023683983,-0.31317779202429064,-1.1919812366632967,1.49947830380649,1.4770937306760736,0.8506021970395812,2.57805055506427,2.314672992374362,1.4618322028284596,0.8236768091283025,0.6207552362147116,2.3129721858805325,1.3063812055847934,0.6973017357670925,0.9419530930289591
235,2.083856485429931,0.07377329976915581,-0.7713360441087723,1.2933278623496778,1.2622652115670603,0.8284676350352114,2.1917678771008573,2.078796128381609,1.1999320093069845,0.9667091463795049,0.6357360191111145,1.8045745662748989,1.032066869200298,0.7247246983397797,0.9456887783626607
236,2.2498079190064177,-0.49330133690933686,-0.6079150035989878,0.7174034775621592,0.7055731387588263,0.6407187154237417,1.5262651801533984,1.6190801231425709,1.1040261454315916,1.0800852230064186,0.6233814453054027,1.561335815616556,0.8745267339925218,0.795592057465983,0.9514761177737836
237,2.1709166515642475,0.424950055674838,-0.15310136070919977,0.7745704275738172,0.747761391878524,0.6405822282232654,1.9171502325050347,2.287248570789882,1.7966177912149561,2.925353423926691,0.6468212168108125,1.851934192264125,1.626864435421582,2.5396945918101945,0.9502110170828798
238,2.065789799423787,0.620830295357162,-0.700471042494788,0.6349937230061893,0.6158801813108006,0.560156201946725,1.8477076769640437,1.3091356729842827,1.8698547682583542,2.065230840005009,0.6547956803312163,1.81012712658624,1.6201558359710122,1.4700042743701383,0.9425992840839985
239,2.391955234324941,-0.18049920679798692,-0.3610073064034156,0.5989125889626392,0.5946539772438438,0.5817723506525945,1.630571895956039,1.3377139560059605,1.9251108400863648,2.5921302223357503,0.6309483474627791,2.0486321732863924,1.6545716081156974,1.5284938978045512,0.9505064867955343
240,2.601299066359669,-0.737866782641063,-1.2013718755286802,0.885916684712149,0.8684475382881556,0.7069556389934445,1.5970787988769826,1.2262627939237998,2.9430951691583873,3.6661422814335554,0.6447042257417027,2.387054249620496,2.6403881627921413,2.9143866341000386,0.9333705800410661
241,2.2935071349650666,0.13851399683807575,-1.7298487959272448,0.668244619110867,0.6478227173422209,0.6227653452160089,1.4499627276909954,0.9946442394517672,2.1291018255069716,3.434652313424143,0.6357360191111145,1.959231823171804,1.898197783652169,2.630154416660304,0.937694176006469
242,1.7007886786579296,1.1697790668156938,-1.092421795276111,0.4268459957561604,0.41233893489229156,0.5723922065772346,1.2920682577983482,0.7715622336294616,1.8771854571556845,2.7316277368651165,0.6425374456860184,1.5924169280997975,1.6514918450441725,1.669902336316746,0.9306010249120735
243,1.1304716641418722,0.7205531172451312,0.4500896062709574,0.621577869558465,0.6187708290499058,0.5215527350805712,0.7979118456002421,0.5942728759351743,1.0523316594628662,1.2608099372651758,0.6403206450210053,1.0246186087597835,0.8417925701640514,0.6910661636990009,0.9535550123058847
244,2.0232011706096467,-0.09787246130882044,-0.27465653727798744,0.9257721318183249,0.9028934414231925,0.6819375361316414,1.0417794931402564,0.8441516311240445,1.0044016795116326,0.9201799612326422,0.6447042257417027,1.4065424209397421,0.8245492259080546,0.6252652324610904,0.9488144509254735
245,2.1442699561480727,0.7761172585958953,-1.3201492085313378,0.9601471249719732,0.9607816446477799,0.5263836365410829,1.2499652301527466,1.2207703355607114,1.9340894981747587,2.599932345761527,0.648888643467878,1.8495298349782674,1.7153636393546776,1.9455176073427163,0.9505447199091991
246,2.4513731998794115,-0.43261308150967026,-0.07949415213402844,1.0084928622980305,0.9690402120014665,0.6547666349333299,0.9667132517932729,1.0637829177307538,2.0724721514517417,3.5903205841194175,0.6584896970785714,1.8812466357295912,1.791759469228055,3.0901679452133832,0.9478262544056456
247,1.2435672544317955,0.9589897734623885,-0.8234717939764555,1.0986236535760665,1.0702892609923609,0.31037834855115404,1.5844016693575633,1.3296041945175163,0.5899160323048228,0.43018652525990814,0.6509067234006624,0.9215824863199237,0.4634238158153356,0.31035267280648055,0.8926022235818611
248,2.4330035053651224,0.1479072611818677,-1.163280244184967,1.2959354536882395,1.2986944341509237,0.4803350084457518,2.0818110753047447,1.9594296407455558,2.041821167439751,1.6672762598011075,0.648888643467878,2.0866675867715756,1.797416049967329,1.3835967603472423,0.9151983160764742
249,3.287103649798632,-1.6255719699306137,-1.0277883124461829,1.4253727317922689,1.4144474736889043,0.5311483820454697,1.612587728942406,1.5387023320785271,1.6691446125432168,1.279388322280165,0.6207552362147116,2.3818688294998194,1.3966922301596256,0.8133638995786258,0.9568839834837034
250,3.1736957017742626,-1.2665061146095231,-1.0937241245522902,1.4849133989653274,1.502556080821121,0.6988895585202131,1.7395538226653073,1.6623704726143707,1.507919421547535,1.5106727654869547,0.6068309995095971,2.1160133219113963,1.284850781960639,1.0463531163390594,0.92919379900611
251,3.1320801231179383,-1.1263200243180227,-0.9278095505276085,1.4342627710895413,1.4156191301823138,0.8019950164853805,1.4260329352667143,1.3660992585938525,1.8730412221611068,1.388389318802154,0.6468212168108125,2.487309534404311,1.5951064569525162,0.829883402018567,0.9439762570607112
252,1.8257636605222827,0.1883654066514151,-0.09470541290967383,1.133081331896698,1.1081847434393297,0.5451390955555759,1.6306121682721455,1.1363210461679807,0.7377568380937294,0.5063319535838836,0.6357360191111145,1.2016421889876536,0.5621779115511598,0.3251780717265347,0.9165658665091255
253,2.0506188481270105,-0.5837837882039105,-0.37879962375873166,1.2603173377874157,1.2556018972017022,0.7306293239186504,1.9446043146795082,1.6724650940460801,0.618756916448009,0.5794571628688653,0.6727386042041725,1.3676252736407741,0.49462819320049956,0.3321750231929445,0.9222731359918197
254,1.2152984300174747,0.19992903697812459,-0.37608531310322113,0.710643307487599,0.7011344110727515,0.3461248216976894,1.4465682201680155,1.303354532816053,0.45127195910582824,0.45210258359107924,0.6425374456860184,0.8365557638553016,0.36033109408114866,0.3164835857514165,0.9428002135276484
255,0.9561999493412098,0.535560145276924,0.23443043377911477,0.7912237688218976,0.7375591985827563,0.6439192603266065,2.14905288363056,1.5011611734697698,0.5184416221725765,0.3194277915634778,0.6528756675646988,0.9226721610620765,0.4036775479304703,0.22676038136103854,0.9365913416984268
256,1.4198262679204299,1.3689755561828,-0.5050572123527046,1.074094832924515,1.068851283551326,0.435582443418433,1.905849135941023,1.7107839337215396,1.3213946597903692,1.387706924521485,0.6547956803312163,1.2537857135430521,1.0908953332610425,0.9873012658365878,0.9328619512046574
257,1.9116688944840379,0.39017695688309084,-0.6974034678209806,0.7851801467074615,0.7906274057375984,0.3409834631922341,1.4788336037151117,1.5939519430170512,1.5455763953003032,1.3150556662117556,0.6528756675646988,1.516048768557494,1.359631440595681,0.9733679971135827,0.9542329237579534
258,1.5906777688048166,0.709480530639554,-0.23117141028639,0.5861041727822804,0.5730179903742515,0.5575259168454216,2.000154709832213,1.7265720888963683,1.0749191875989608,0.8624617350359726,0.6309483474627791,1.3311750618988112,0.8955813180434461,0.7075672654830903,0.9361108856734364
259,2.2933064843041833,-1.6652311951190257,0.0380185229591159,0.5820862688617439,0.5763688473294816,0.4914334858370463,0.7033952323605056,0.5989401407854715,0.472917998652055,0.5732444319791992,0.5978297680564633,0.9776934340944309,0.34181493334740937,0.3500334690619657,0.9666812057958165
260,1.7024147444373046,1.320275892483996,-0.6541376409345427,0.5826840259022258,0.583830882513918,0.3948453379682676,0.3449099831293062,0.39237202998902004,1.765726880993448,2.107227543980441,0.6528756675646988,1.532271131147056,1.5398623402845493,1.7451304296841108,0.9482830424790065
261,2.919227196204729,-0.5359592310794543,-1.5579461199792237,0.7346415737240581,0.7374622962019742,0.47439854795470726,0.24404094075442334,0.30127445362884375,2.2888219146053888,2.4769236022045473,0.6425374456860184,2.4540541863052354,2.059854408404531,2.0733747889975986,0.9393949798708479
262,1.3641266239541496,0.11726469482809998,0.2073443162572708,0.5147603063159264,0.494110673701751,0.5656303566499223,1.1342663638022499,0.7388221413346487,0.6873397421861764,0.7477571705535533,0.6333676938231112,1.064694070464649,0.5210815702961303,0.44992550241876855,0.9569242300049681
263,2.6244574817939603,-0.053702560638024366,-1.6693099292425106,1.1571875031667738,1.1367624824095623,0.7934561432743802,2.159420478381233,1.9137893275369544,2.2519258074696777,2.2828977236966703,0.6357360191111145,2.3267639486912044,2.003302947051966,1.8517513798560303,0.9407592018708224
264,3.201470868767828,-1.4550713692377892,-1.112432056586225,1.2745042665684034,1.2662595690289742,0.6762843352547661,1.6693606661052587,1.6224297693655247,2.4201787704065407,2.8538186209759195,0.6566669596287297,2.5938290570121874,2.157009368121823,2.113431741908388,0.9515408743864344
265,2.9773746849590466,-0.4486172776617825,-2.001777007740214,0.656145360184293,0.6334426778561147,0.6239938926728706,1.729408693943268,1.6557040029139427,2.6162469718154697,2.969193757563763,0.6380535849069913,2.4765417334563726,2.3489980769632033,2.471151274719515,0.9489740965247229
266,2.5161567759147685,-0.34919652940568313,-0.5911719021271349,0.3792169544851061,0.3636477461448396,0.549641381173549,1.4819579090981287,1.4393116023534747,1.785595484743343,2.191405849193461,0.6566669596287297,1.8877565515625814,1.5968224390386252,1.742969305058623,0.9472437874646163
267,2.297895041206704,0.3852084897055179,-0.607183100403363,0.8608655377358944,0.8529009746296214,0.6757901797106907,1.5654930896009873,1.4456503035212216,1.9022880068028392,1.9898537081035041,0.5883313578629602,1.968655769376945,1.6947725523074668,1.6573619007156832,0.9452729385859775
268,1.996588264284363,-0.03187581706624787,-0.46369046888356835,0.6929865578771127,0.6702093289073717,0.5217872689518678,1.3257219740258195,1.1492036558973144,1.2242581808543056,1.218808497078492,0.6380535849069913,1.4201039630000953,1.005276707473878,0.8331604107866588,0.9571386548346945
269,1.9546779869365847,0.4891589334583537,-1.3400406439762167,0.5217561597257065,0.498063351159222,0.5445562880234684,1.6766130917798645,1.3164489710362772,1.0582767115231848,0.7010006000932347,0.6380535849069913,1.562130328224891,0.9023203129957269,0.5073481153712758,0.9489130290023594
270,1.92009138393428,0.48450815625005483,-0.7451677832978614,0.44882183687491994,0.43916396987925016,0.5190301618814835,1.50397467084412,1.342331234368065,1.5308279617129703,1.913939127783222,0.6284777104787076,1.5132695151451894,1.2858000843441895,1.2490277115674024,0.9533253323362708
271,2.1862108942420235,0.544662732852538,-0.6741087852107905,0.8148624060506457,0.7944260828200921,0.6724392458962756,1.3586636136511945,1.1355339084490714,1.9824727219088207,2.124927121079842,0.6403206450210053,1.875141078167106,1.7450418446605953,1.6346493317805963,0.9439099799951093
272,1.0902233923408806,0.3665111205512721,-0.08264603561607853,0.6313724779565808,0.6050586500114228,0.22728087661296145,1.1333640823455606,0.8312471599449915,0.568857752690295,0.5309258663975371,0.6357360191111145,0.7435987240560435,0.44020841067529803,0.3161786441416789,0.9245605623318052
273,0.6728336255493919,0.3613115498742916,0.22691454095744312,0.46281135755604647,0.46132652666453766,0.5061786360525726,1.5961643922211457,0.9137945274800825,0.3314244263011145,0.21644337754364584,0.6233814453054027,0.6437645993115759,0.27731536040574045,0.15756631630991572,0.9388959627017768
274,0.9929057772798672,0.4297341106476712,-0.15183899742964924,0.7144455209048346,0.6882426934157961,0.6039278423030772,1.5786035400514502,0.8359369474717162,0.38447304521245085,0.28625301752214893,0.6602640781246099,0.7688050711656815,0.3064488279251933,0.20636017767605366,0.9074695393804396
275,1.128532535551207,0.5442975589461707,-0.08039328979969462,0.7874916614411722,0.7775333655592428,0.6720061328138786,2.319157362461968,1.7358605899487909,0.5445980155027784,0.407283936453816,0.6740851607140061,1.0303307812517042,0.4356322834159119,0.2682195597564191,0.9336111412883127
276,0.6963892169767388,0.3080940197911982,-0.13580587227902496,0.3574163924545702,0.3492641170023039,0.434608704292567,0.9608182180070827,0.5735109897302643,0.3182064518692823,0.37314077500528114,0.675384900321601,0.5346061524313942,0.24475272494761668,0.16495988452209345,0.947175204985288
277,2.200752680912854,2.0060578272385663,-3.7288664237130478,1.1298283166477272,1.1195314840564723,0.7201149692653664,0.6652453198084712,0.700589066531213,2.720170505441355,4.00667532591787,0.6333676938231112,2.182434491863584,2.470526357960856,3.5357282746197614,0.9394006579816555
278,2.1571509784511536,2.3893004676879306,-3.4883375190403574,1.4376923727867208,1.4142571437285736,0.8237115690982595,0.5251289907232275,0.5346154739002512,2.650553150174968,3.07358948781149,0.6153451465759925,2.1436838104081897,2.4211978566657906,2.5800034051971066,0.947805846472324
279,0.5558341360701128,0.3776854772338004,0.2855685151809859,0.11826719857387902,0.11320693212159705,0.20175913383579613,0.9063742488516249,0.8168689015208412,0.47870972157860187,0.6241338635413911,0.6468212168108125,0.5296498409725746,0.38104546343332935,0.3477336857160909,0.9239752708094869
280,2.048687417064704,2.3862999132354377,-2.230999486757839,0.11826719857387902,0.10579092943389129,0.5344701603585461,0.8113150057915444,1.045063672333363,2.41194751477325,2.4272863855901794,0.6668815377411301,2.0116582903773756,2.202972437719227,2.1177604059819726,0.9474101095413068
281,0.4443670938544914,0.1986658706597832,-0.03598779655578066,0.4434293964183096,0.43239874107342513,0.23735041919340039,1.0795377455041222,0.9737980886791247,0.16079215059222163,0.13179433836991053,0.585052858160615,0.34678747849075253,0.12588637931086186,0.07320340402329494,0.9068485169627987
282,1.1803011641149845,0.6652773194002,-0.2906932417657859,0.628407823150159,0.5973082370258316,0.4572144176525662,1.5596583446585695,1.0571528800015535,0.4750864865646874,0.3445841527805554,0.6153451465759925,1.0259196032746691,0.3901011296813219,0.25310820944928375,0.9282149052667287
283,0.8786489890865439,0.4307488720071333,-0.15896110470152536,0.5433102655100703,0.501009588276192,0.5336403962764779,1.7668108652678431,1.1658147646775974,0.3407383923845983,0.2515894396381604,0.6207552362147116,0.7293041473363837,0.288557991646617,0.17348697673697522,0.9226304412381279
284,1.40097477938608,0.8782579176137684,0.3216803199209033,0.28683182802537527,0.2775223751828346,0.6427647153012115,2.9940464682557755,2.051940463767371,0.9443792527790799,0.5075322170561657,0.5883313578629602,1.3827893995690743,0.8251928344201052,0.49890198047306106,0.9532308574398962
285,1.7101098218975088,1.3463360236876682,1.5265893349392705,1.3720094118143842,1.3426129786104422,0.7433487015618774,4.205204705265436,11.58236285747213,1.5777110396592393,1.9205178422725968,0.6652988471865258,1.7097494671784792,1.351173391912725,1.5331974907103025,0.8907004956778651
286,0.8816398087024447,0.43282411513205454,0.3936409564815544,0.8562742374492951,0.855053884036721,0.424107495367705,1.6052946454190669,1.2831716115339127,0.5672043712586324,0.5940736866583664,0.6509067234006624,0.8805482830971986,0.4361785568636801,0.3927769873244468,0.9340886650081626
287,2.11604295533771,2.0128444713718294,-1.9732321595484965,0.9262330096954955,0.9077192795113641,0.7266373977497056,0.8230680056804184,0.7943188119210928,2.1632468782048155,2.844327406560779,0.6684167106117298,2.109946569229159,1.9804059717234046,2.5722802799965887,0.9385107490067257
288,0.8584795970083553,0.5960047599987289,0.5727950446413912,1.467830206130243,1.4697574525294919,0.3627860117744179,1.0109664173602886,0.8710491699708753,0.7308211801078609,0.7678956323296335,0.6380535849069913,0.8571050533369421,0.5909701533240472,0.5311389714727685,0.9406201117407322
289,1.8535900013214393,1.6351638894558522,-3.4887538907772915,1.2796472335410831,1.2569921523262155,0.6163536633578148,3.5564911633532135,15.317975845067547,2.2682879854904474,,0.6547956803312163,1.8532803258763053,1.6393016175877024,inf,0.8880452427327876
290,2.077386408177503,2.0693915296196597,1.4706676621556776,1.0881419644053434,1.0642158308059009,0.7355358313262059,3.419472098758419,2.775509110188201,2.178646594704087,1.4617421589583257,0.6528756675646988,2.0770444170801143,2.071404404135187,1.538804351489689,0.9253726954986181
291,1.7766019715497927,1.4711188746691273,1.4026225605679041,1.1938627408293208,1.193481606416393,0.7050917263371425,3.2301076678496714,3.241047304599049,1.8504608772493902,1.644822093965777,0.6357360191111145,1.7764111922812555,1.4755044866651454,1.392919763434122,0.8965823887743243
292,1.313550578833302,0.7749444917582888,0.5648057489204419,0.9228272160811057,0.9178449056102826,0.8078486655018912,3.211193835604954,2.4836943176105972,0.8790741861403821,0.6223218563196532,0.6008849035917525,1.3133743959544044,0.7812935930567231,0.5709614962071305,0.9257303663721335
293,1.1770348826918846,0.627817321105604,0.5567290722978937,0.7936669683750944,0.7837682871712468,0.5691673262769764,2.3881026053823735,1.940284080037649,0.7604775846315999,0.7398333784364793,0.6425374456860184,1.1763576372929625,0.6292979371272037,0.5500959111442906,0.9365246977627315
294,1.402519581591581,1.2149889091413297,1.374844420141622,1.392437980269204,1.3695066334062926,0.6680168208742557,3.485714134728868,2.007979600631841,1.4796714909516642,1.6535267042180053,0.6380535849069913,1.4024237430497744,1.2209789839921512,1.3707948865752364,0.945456399097139
295,1.1570858749900004,0.5077884801283861,0.2724149938662075,0.4768043233294326,0.45059183256626684,0.7337487401044483,2.6032322226449347,1.6262658395587235,0.589685080549475,0.3387720529871017,0.648888643467878,1.1531036739572993,0.49253728714076145,0.25585897214319286,0.9456039431491304
296,1.711092972911174,1.516377910798666,1.3274183381228255,0.4903417184311803,0.4771002184304937,0.7550459491997573,3.0616714099979747,3.668228696100216,1.7325607757889956,3.2697455029191147,0.5677978065141052,1.7097494671784792,1.5163747864145496,1.4221854250556802,0.9469633252288862
297,1.3161818455120227,0.9864057105761572,0.5054278678664019,1.5543637815742148,1.5946463180391732,0.6026499143693232,2.751618799159426,1.7568885900924567,1.1126133309819208,0.5185246082103446,0.5978297680564633,1.3160637374458026,0.9924276523190035,0.5114219044827972,0.931725065410076
298,1.6626876546419016,1.215875947722529,0.7431211697551667,0.6255416641895839,0.6106816928384755,0.7340336096926683,3.267357756249261,1.4036065255548151,1.2659950046313537,0.7125105649711982,0.6309483474627791,1.6624871335239157,1.2223002460783483,0.7500248532413964,0.9450354177273386
299,0.7726233137077573,0.37248064130755754,0.21520344954428294,0.4065184719280748,0.39624213096914246,0.6212024758225382,1.9561897741748535,1.1959618001986594,0.4447104701802601,0.21402721618990816,0.6097226960127671,0.7651445610671955,0.3569752094029537,0.18602084543013173,0.9521462296796165
300,1.2358192414876656,0.7870283308700272,1.0330102106469292,0.3922862226724448,0.37890148302721693,0.3582707454895794,0.6283836912983494,0.5766180056868409,1.1212660201031224,1.479427900110552,0.6566669596287297,1.0372977088490172,0.9041225349334441,1.0061569878844827,0.9528430816698965
301,1.5238497661026027,1.0665786199832554,1.1997289465273733,0.2646030353449886,0.2576574102489512,0.3287374445218492,0.5916630590863411,0.5782932554404236,1.3927305726523014,1.9235684616309914,0.6333676938231112,1.4393201495609955,1.210932952814998,1.507386310218421,0.953342460344619
302,0.70739561546992,0.5020138374955714,0.3518016389537242,0.2461042929025039,0.24080497143479151,0.2115107033476524,0.7070628490711196,0.5915634220675317,0.5979830150925479,0.6316362029365441,0.6528756675646988,0.6383223516100133,0.4590240719368629,0.3927787596113939,0.9526828632358844
303,1.3348021434293789,1.2357530739027056,1.0028612946717756,0.16020273491155929,0.16066660335116487,0.2540393692166795,0.9004550766750002,1.1676379375666386,1.451801404564712,1.5279221775894372,0.6333676938231112,1.3094979425868174,1.2685479119448062,1.2406892164729653,0.9546556821354423
304,1.678774773298491,1.603654463713571,1.6361359839355987,0.102348078514579,0.08334999426288968,0.46987776039388507,0.8033715251550413,0.9886396115198252,1.818983218372707,1.979634641071382,0.6284777104787076,1.6713133161521878,1.6255240501857247,1.7721335047713067,0.945192380667394
305,0.9502572043785138,0.41321738006041286,0.18508109113524007,0.15530386776307528,0.14031482813733218,0.6702487543421759,1.8848872446116491,0.9904907244446639,0.45663805998532053,0.14830775192253165,0.6125606311107803,0.9464063557787786,0.40503579457390126,0.1578990760986933,0.9444989920117584
306,0.7826573900750361,0.30941056366151753,0.23958843921346573,0.12932326130896363,0.11508716688988992,0.5388640238643353,2.013960647890307,1.4815948665260703,0.35777241141111055,0.32449621782500515,0.62595550513784,0.7798919264321442,0.30722007806575863,0.23102538996170563,0.9478630049077289
307,0.9143969132991872,0.3798832504929639,0.1799178594237898,0.5557791801421466,0.5501430843514229,0.49761789328809564,2.4227287175208643,1.8193478860668608,0.46882293931085894,0.2258415223495275,0.6380535849069913,0.9130183143001135,0.38197388841299096,0.17855598902834666,0.9212539045255439
308,1.0582809123305799,0.7710238371741234,0.5359854856462385,0.875628817668913,0.846005932180676,0.5929509309637337,2.093860882653611,1.4891772534222683,0.9296701715356525,0.7672205009028137,0.6380535849069913,1.0522377381582098,0.7629950872554875,0.5013385095550884,0.95637373129738
309,0.7965332708621796,0.7276865464217194,0.9364263226875107,1.4157418315237156,1.4058237508057683,0.1257079834116132,0.9555715331068,0.8982762806228279,0.9137182978929036,1.1908067380005947,0.6309483474627791,0.7920593954660774,0.7076774352117766,0.8109924474551862,0.8543014139570176
310,1.6460576411342345,1.5137052392755397,0.880978935145385,1.554709270447663,1.5345240547047854,0.6126567765644249,1.019964929072261,0.8111010553171372,1.645839024793578,2.121949155805801,0.6125606311107803,1.6374373755215665,1.3926563255497355,1.3983259731722901,0.9508569851962598
311,1.3292684517935964,0.9133558949037373,0.7561644947054496,0.1581806884875931,0.14531629688129402,0.6295116697798478,1.9413868380728911,1.6861985782263538,1.1048709511444004,0.9271825678388266,0.648888643467878,1.3232986962398339,0.9023253556180835,0.8216354615753918,0.947681221792137
312,1.345645753908482,0.907888671415912,0.313974555189485,0.377600512213639,0.3635457616817115,0.6087976225031185,2.5359181945884357,2.366686770345517,1.1108147930083792,1.048104070730401,0.6509067234006624,1.3148216041294214,0.8155858001694809,0.6224658404116288,0.9396513711219948
313,1.361007451596624,0.9358870164832194,-0.28598148222166797,0.9262043753279076,0.9049241997027366,0.672089708383084,1.9465776032189084,0.917989073285868,0.612630856870425,0.3368848146028761,0.6357360191111145,1.1829726372861828,0.49539862459681666,0.2656850510333146,0.8837991188477795
314,2.2521827230000317,0.4616647162252865,-1.0920434869954996,1.1896105421639185,1.176647119732669,0.6147799163545344,1.8801208715507085,1.761374498205131,1.4884345662969976,1.58415963605616,0.6468212168108125,1.7312917224609654,1.2368253840600523,1.1349318963312294,0.8892445709852882
315,1.309793448072826,0.7998177496936398,-0.767681400742364,0.48624349455490984,0.4674361850631669,0.2885141898072439,1.519470676891967,1.1228572075982477,0.5863663913876185,0.39943301141400206,0.6403206450210053,0.9003900427591466,0.4564749743367409,0.3048608362694571,0.955334698046343
316,0.9837766213431148,-0.3405559473394193,0.013983514504201877,0.345489593762638,0.3427827104053491,0.25394844710514386,0.7762539565931316,0.715044717791561,0.3124657283700459,0.4153853998428017,0.62595550513784,0.483967336263122,0.22582878303385842,0.2134353102565059,0.9593099391327286
317,1.9553067634162085,1.8320983763031713,-1.9092920414146495,0.5224106150170214,0.5251247953424488,0.5937165691778884,1.077388208729933,1.2436744541472409,2.252028515042145,3.5037525678109587,0.6309483474627791,1.924833823453397,2.00399630029113,2.666550470195457,0.9399444401064292
318,1.334630761351092,1.286763903834227,1.1923314718129951,0.6440545136752822,0.6422699199761152,0.22824340788667408,0.9953674751204984,1.4243540467903486,1.704133815545387,2.418410698011402,0.6207552362147116,1.2751903708349985,1.4039484867727914,1.7073421274154719,0.9333919937067333
319,0.7335896840492115,0.7200080428193834,0.5702018181606343,0.8422043559268562,0.8462550393547023,0.2236846548794591,0.5390395794291404,0.4553847385058222,0.7343161246145489,0.981296811510862,0.6333676938231112,0.660120826572871,0.5363983437468324,0.5262118724979283,0.9433301322014882
320,0.4964241466941784,0.18201596252228142,0.12795251174556177,1.1187940938356367,1.1214452099194645,0.3714639839979073,0.9075017059252628,0.5862287369297415,0.23959543331479657,0.21692097975668384,0.6403206450210053,0.4938956734875909,0.18368441653198145,0.1285118495565071,0.9258666046449846
321,0.8655146712209006,0.4068735720195299,0.23439527452903008,0.9183816081502163,0.8942599565658242,0.5775867506835775,1.8247088464413483,0.8553850735083972,0.48667506156911244,0.3695982861647257,0.6380535849069913,0.8654128015160784,0.41340328797498466,0.24088268818816794,0.9361488447226358
322,0.588524585393373,0.43058006970085316,0.5192821125706875,1.307279508374436,1.2907381451844449,0.2998653815536918,0.6068051309420968,0.5956007585445263,0.5100660465122728,0.7507925133011087,0.6333676938231112,0.5688864054016386,0.3740905917350224,0.40366939169078486,0.9407675849621983
323,0.9144724480539874,0.6415438467218777,0.6607345577220523,1.0692573487449355,1.050983638468493,0.5164515234776834,0.8593382660414582,0.629371802280888,0.7587316300994574,0.8798690211473394,0.6153451465759925,0.8940944574770976,0.5783873777094259,0.5395918583455815,0.947890359024448
324,0.31093885687435363,0.10982585873367873,0.08654231722982902,0.8970799470446957,0.887501816522967,0.2852082187755708,0.6652791284634874,0.48297960747020374,0.14164261497042915,0.13771421268343248,0.6528756675646988,0.3060723642301296,0.10619918859101293,0.0801140273177236,0.9449558282698977
325,0.21953939244611098,0.047282701930633886,0.033311168038011374,0.9686014004565252,0.9688243581148388,0.1956013578312266,0.5095552985560291,0.41786741246071935,0.05870757353224189,0.0328170896545918,0.6425374456860184,0.21901320406544966,0.05323306025649203,0.03924288699503447,0.9112471240254812
326,0.8168574685658073,0.26747863985713816,0.09796901019224169,0.9407055687703196,0.9336369679070418,0.6603176423181185,1.4162295334499613,0.48678140523378066,0.30662514826804727,0.1373377430939167,0.6333676938231112,0.8166968111106658,0.27368279263096756,0.10422976726100269,0.9490679180155084
327,0.7280010315392669,0.20155267599280136,0.13013860690965406,1.1932825453071119,1.1801161921884067,0.48452555814092607,1.268164446805286,0.6350231736267722,0.2492718687510558,0.17682868526616166,0.62595550513784,0.7278766610810431,0.20779512029903063,0.1362661198738493,0.938346290249756
328,1.387103118456955,1.5319842425239187,-1.2568621572568706,1.126651003013722,1.1183880696821795,0.3015115057400497,0.39563575583065697,0.3504828439116928,1.6110268073581115,1.967830759210097,0.6468212168108125,1.2947082788839042,1.409681961386819,1.6047990704508923,0.9538024946178191
329,0.1998974176945489,0.12329552755561266,0.10402257014520955,0.5437863239908557,0.5479087259664199,0.11700603304262878,0.6596649263938998,0.7165616113830803,0.13132114509517748,0.15515664674712548,0.6284777104787076,0.1777321044601474,0.09184813262765126,0.07727011076044973,0.9585034866777614
330,2.3389182064512517,1.0165937219800814,-2.217197748032736,0.4748966501706317,0.4621333579276646,0.7107790036688704,0.7834681822083013,1.33549795904678,2.6141931753283245,2.62012458740906,0.648888643467878,2.3097216085633656,2.3958829747464963,2.3452515393129487,0.9237380819714546
331,1.3150600030831057,1.0186685842343657,0.9795809342833772,0.19509921375953443,0.19506769553673367,0.3383816410128552,0.7208418285000432,0.785300177253573,1.3281809424590525,1.4848378737529748,0.6547956803312163,1.2692819927216168,1.075862714691225,1.0523927134178268,0.9331446480526989
332,0.6672875858324006,0.49255236638209365,0.5061884395901646,0.2742269873508272,0.27729696709279755,0.11310232873296079,0.6058124701245342,0.5656813159200126,0.6898879048425178,0.873108676925953,0.6180765742263259,0.6093167834524822,0.49323659444888973,0.5141329632575565,0.9552968851287377
333,0.5862967290269547,0.37919009303958773,0.19294585161524203,0.6303036028280913,0.6329361119021751,0.28709663942759395,0.7192340469012037,0.39022074165616216,0.3952428293600833,0.38793442567463804,0.6684167106117298,0.5547581608883305,0.2975671306943839,0.21133821616794285,0.9485204977075526
334,0.9168909943323672,0.8388412820845098,0.6470456321976132,0.7358903128928068,0.7373839220996476,0.25300741416252837,0.5743074402661067,0.498768460719882,0.8060586607258398,0.9694446925980925,0.6528756675646988,0.8310053806473798,0.6426883114944543,0.6346961714938948,0.9464161016530721
335,0.5032685728062607,0.27823597034768865,0.12279863806752855,0.8089015009698817,0.7861135295942298,0.39194777622018945,0.9875585809513178,0.666682392700522,0.22743188959696042,0.14138505159103193,0.6468212168108125,0.4582156040492512,0.1923404811059481,0.09925551363356189,0.9368686250646101
336,0.5959619601887056,0.11733357384468202,-0.11733270488121494,0.7296376632646617,0.6604977743756902,0.159088471187776,0.43177448256484685,0.42028468848087436,0.1497706036094254,0.11104538397298219,0.6284777104787076,0.30560469029593545,0.11778680634568428,0.07996211228566992,0.927181087521495
337,2.0365156181028277,2.30002332174896,-2.577660446242257,1.0197272506431454,1.0233792100122387,0.5054775949108006,0.2690157536150669,0.42257560609289463,2.321178487191527,2.1539146579530946,0.6403206450210053,2.0064389421301354,2.1026809056741196,1.8053836581675986,0.9428320060198676
338,0.5216564027913916,0.26607764169226333,0.1188694496972521,0.07830835683644703,0.07638150491289644,0.39880664587810666,0.8898406232009491,0.7119710272719058,0.3487410449931787,0.2806281042320994,0.6333676938231112,0.5152613730978948,0.25697711600744794,0.14508054907233944,0.9605602442817505
339,1.6370017961658458,1.4250963829084697,2.495891063125146,0.122888179777612,0.11460674987411484,0.6722289142434811,2.798343264320126,2.855494276747822,1.7446800437548764,5.81535904181001,0.6068309995095971,1.6369233101097034,1.4309018731835554,2.464809035167113,0.9477764635672106
340,1.3212177149586068,0.6200307128069003,0.19747366937181243,0.06236667603779548,0.05808332632659826,0.768537589297552,2.4118193289723466,1.5336098347538343,0.6511144282608788,0.214139575252594,0.6447042257417027,1.3190927225628357,0.6130789003819643,0.20990210992657135,0.9473424214048849
341,0.6708500316210979,0.40076994373409547,0.40860528723278944,0.25701489319421544,0.22404105875614022,0.4066067357704098,0.8319237460891907,0.6894760649507933,0.5428278507090686,0.7656230068141379,0.6125606311107803,0.6296300141609301,0.40488134910065593,0.3973383995178072,0.9490071877670118
342,0.8380434204021725,0.3212896653215873,0.09665947279979403,0.33454720470134913,0.3191363000032137,0.6108329269932672,1.9890564914744848,0.8789695603780057,0.31507274819412673,0.22391801448836124,0.6727386042041725,0.8245475121755138,0.28377846868023493,0.14014067446881398,0.9304338810633236
343,0.8621115333862719,0.32086511915260085,0.055962796296908035,0.36646622615967805,0.34537469199072035,0.6004582710655684,1.837756949752573,1.0858431897935619,0.32462641125275254,0.2390076254381092,0.62595550513784,0.8326647083623349,0.2525707832641362,0.1690953720410592,0.953674524064833
344,0.34828537339140053,0.1970790676954286,0.11555279295663601,0.43733460243429956,0.43564250209669686,0.2574143167379805,1.1046857102342411,0.9987559356446196,0.21064891385312,0.18965077749131318,0.6668815377411301,0.3332219689131657,0.1660594353992835,0.12146243074777835,0.940401849276689
345,0.40190890521595857,0.23969492175017748,0.054551653914473475,0.36664282574060947,0.32402531234335935,0.3058831732896669,1.0434347421856967,0.8724533983009961,0.23086889838529925,0.2295379595473189,0.6468212168108125,0.3590587352940086,0.16887537046125362,0.14238670120047553,0.9414666268764438
346,0.6804907656420083,0.26124966505988634,0.20110265450115317,0.5351169291164284,0.5252459170069028,0.5645094716854834,1.9633873192375126,1.3870695571741631,0.3039240265235931,0.2624306819674081,0.6309483474627791,0.6759623558058443,0.253469904491485,0.18734399899845147,0.9448118184503129
347,0.950685122157564,0.2652364065723841,0.10564849799798015,0.6579985016236635,0.6423096036004201,0.7981296273225441,2.4980537257727504,1.256327384730867,0.3028737555006587,0.20204554754516102,0.6602640781246099,0.9503647122079065,0.271244179169474,0.11116576675406958,0.9225270987036548
348,0.5913646871762516,0.12212916305114774,0.07189771674546386,0.8950888780993261,0.8756357737321275,0.5290161507588792,1.3620134486126572,1.0880707038186153,0.1638675156064357,0.1544461141275304,0.6425374456860184,0.5903098454465574,0.12747161607174898,0.07698017353643885,0.9378402768677652
349,1.95532609126863,2.196837346992475,0.8727168429361649,0.8540325522213235,0.8396106619211611,0.8824966276591745,3.4855629062478033,6.052884635626983,2.569402516509516,3.2319782783938167,0.6468212168108125,1.955220018381091,2.1960476912406306,0.881272419862584,0.93595252545448
350,1.7946873559950203,1.4722266240692803,1.5758666439753117,0.16921395908888537,0.1609833835744434,0.7956054361901342,4.222947457745626,2.9310032298230793,2.1335220418691234,1.755941896886764,0.6309483474627791,1.794296016880052,1.4732449799694298,1.5524739376381242,0.9432421167085266
351,1.7163206607291728,1.6092287873542492,1.4837502423899562,0.13766330170126678,0.13000289343962929,0.5792461840453114,2.691522243100797,3.097013582704396,1.824746923089457,1.5302826594481143,0.663668482632973,1.7147984280919266,1.610364267294231,1.5270453621155795,0.95171364259456
352,0.6304027133443387,0.34874902380393613,0.2904341109738754,0.24119922981745537,0.23454755753845855,0.33651637760608843,0.850050473947068,0.729685962321232,0.48247952175583186,0.4998298917219652,0.6180765742263259,0.6079893722196386,0.3338186177270833,0.30263964694493256,0.9344903526507642
353,0.6306750903740878,0.026926147139164525,-0.25959749716339015,0.4558374793870704,0.4238929635495319,0.37642688632891647,0.6222448644626826,0.37109094021237876,0.07204756501182369,0.048068995142300334,0.6468212168108125,0.37241725406196396,0.07303686226256366,0.04855080897037888,0.9299722078454747
354,0.9131854555307545,0.25948905021399027,0.21786565315811446,0.3726057379698649,0.36292666707142607,0.2990565489985505,1.1614619419528152,1.040548470802755,0.5519372333592024,0.630058169915759,0.6425374456860184,0.6999704059080708,0.39927541673364697,0.3340003933739648,0.9509235225356859
355,1.6713574433151557,0.945639834869942,0.8545600468022854,0.38120235656759355,0.3680828325705861,0.5258141638571122,1.3607686798799499,1.3276865062354237,1.5287270721817559,1.4507465107569137,0.6380535849069913,1.551955477020738,1.3036284553897628,1.174847304067947,0.9591072622060909
356,1.8419849166621485,1.496245591651264,-0.6304177580716956,0.2782558995976933,0.26729436574432847,0.5418671596517743,1.1218887355089127,1.3179199811877138,1.8772641802359615,3.0724713993660333,0.648888643467878,1.8000604942674414,1.6626577440429644,2.328075613335425,0.9457758793811107
357,0.5010064989926624,0.4524841143037126,0.5033540523685796,1.330162025143426,1.3267565670884351,0.09679711075709926,1.0173246078805913,1.0670734116823883,0.5587998533530577,0.7104683077216362,0.6333676938231112,0.48924534721430174,0.4212842342247817,0.42722861602074175,0.9233154729559314
358,1.4511382787471028,1.198195204530046,1.2071337807050875,0.3902798992240407,0.3611720679915189,0.3386407989085163,1.0740254386463939,1.175210340563527,1.5219298418011942,2.7193685328343244,0.6602640781246099,1.3210061210917736,1.3294043005640221,2.3274350496174696,0.9615996741738488
359,1.7206108746785567,0.5844017222386362,0.46843600042193234,0.46238709065775935,0.44334629449193536,0.5866950491390741,1.1007013080295278,1.0017791043472457,1.1216218091526502,1.7936915860010758,0.6097226960127671,1.4622638939628636,0.9790725411237619,1.4352121821478607,0.9463552686974138
360,1.5666910565011498,0.6276847753293779,0.7915737318876399,0.3939664835093146,0.3804775209041539,0.5538835114277572,1.2262146590077068,1.2048357910561107,1.1907203949204144,1.7800761399017457,0.6584896970785714,1.3846068968001075,0.9575278523319203,1.3079514335961953,0.9476379269689167
361,1.4031278333826982,0.9461175326143036,1.1734084552907822,0.122888179777612,0.10533229705780532,0.6944778217466125,1.0672680805906034,0.9135679534475241,1.1674161198229753,1.7998509775101608,0.6602640781246099,1.3776650344218362,0.97961093106261,1.2493069125702154,0.9514419528150557
362,1.2726654765785188,0.9701723241881246,0.8527327743531976,0.19509921375953443,0.19305570376305295,0.44728839072128784,0.8491581706508734,0.9264368673073106,1.2148180408057565,1.6559507318029705,0.62595550513784,1.2075346958922966,1.0353150594701983,1.2395576817252036,0.9511382442799826
363,1.3774389526081814,0.6186023313377296,0.44373863674470293,0.2939830764901688,0.29012921293884675,0.4658046734403464,0.738483677861713,0.7461886982116476,1.1578826535143203,1.347413753595513,0.585052858160615,1.1737669622688702,0.9536517408233863,1.0316171214199275,0.9473590511391689
364,1.3438006843917703,0.8557588904360469,0.6643791309877289,0.29506657287888677,0.2914231615912189,0.34924346087635216,0.7717462995158002,0.8559047972440328,1.2933739984280594,1.2571220312187792,0.6180765742263259,1.2407904811592148,1.086428892793192,0.9573808601259348,0.9352340551326732
365,0.8125092185976746,0.4384919491207291,0.4373911363952674,0.2742269873508272,0.26765862558082454,0.36273225521158275,0.937997421450881,0.9628664458341298,0.6777596647943355,0.8011698685457038,0.6333676938231112,0.7687092007823664,0.49171638404834733,0.4806407700818234,0.9362233104923259
366,2.148816725904006,1.5936065506855108,-2.722315738945479,0.1792080277878048,0.1761259885946669,0.41953699054996607,0.30346660994853863,0.3677308070212194,2.3737826213201485,3.6756767028558053,0.6652988471865258,2.048890782830526,2.11159358189612,2.9704144655697013,0.9410580490367347
367,1.149567745287189,0.11519480303059582,-0.2830804082361086,0.8796662094623855,0.8145302395507087,0.45106235814326595,1.0223979345707708,0.5042412828470912,0.3057020183673602,0.202684670363242,0.6380535849069913,0.8377363106368357,0.2525771752165789,0.13435345415534702,0.9466373453654411
368,2.1677582150036843,-0.2835629718489858,0.24353917548755,1.1193995664697747,1.093967910744626,0.6441657491907256,0.8700772231033129,0.8057701698533494,1.4514245025309154,1.5454728512289388,0.6153451465759925,1.6128325566133115,1.2342881592885382,1.2379337994131583,0.9452365481568293
369,1.9413331751218996,1.1088864504162441,-2.1360343577675596,0.4749836973298519,0.4673643578071675,0.5584596030679094,0.5437353691192887,0.5967973791526514,2.748056694249156,3.6781712589458335,0.6509067234006624,1.7490831949476187,2.4753700526215026,2.9204318247019656,0.9352960659132364
370,2.2330239510529855,-0.496212290093512,-1.3497861975493644,0.8934045118525968,0.8836581487869531,0.43641225728064564,0.37447905453918545,0.41427843260658587,2.882785772576349,3.4655931295753217,0.62595550513784,2.101369091692698,2.6066955174580264,3.0359386940320316,0.9470606852369876
371,0.5818166787765128,0.36024900132749593,0.5553555366949952,0.335546419962534,0.31947143866299904,0.12319161304646009,0.4416298330080326,0.6876915451144454,0.5908032032316288,0.9256177084154393,0.6038851895711802,0.5084580582919125,0.4360035505489389,0.5770671815491786,0.9123173055326501
372,2.2664344207837575,1.8421727606624976,-2.5431138758148437,0.14257358439717902,0.12445545342237745,0.5279006324392458,0.2952816408499399,0.5550903050345539,2.4667108260514814,2.764662306745973,0.6333676938231112,2.2309882074890286,2.240234005989324,2.331172549845958,0.9061954861478115
373,2.0630447727418755,1.2577003356696417,-0.30636574797095006,1.4364706443409667,1.3019948277464313,0.8121136153247688,0.3745573758170197,0.5039358708491295,2.1234354688520702,2.2380816560947037,0.6180765742263259,2.049063226355699,1.8763827994045879,1.808795656380623,0.9224839808937075
374,2.303318200587415,-1.2664870805764596,-0.9985955932558856,0.7379552489141171,0.7195749243228955,0.891354980258466,0.7818074344338528,1.139167815052185,5.227989536940552,,0.6547956803312163,2.3016965989329305,4.4907478335382125,3.9219733362813143,0.918259699999221
375,2.426353379533203,2.9414329026790726,-5.3677862822122755,1.0755127692677289,1.0438720329882787,0.8183398596512543,0.2793844476346893,0.5497546299708799,3.4942392148988666,,0.5947193981915972,2.426009008540515,3.203903617549231,inf,0.8987773245002796
376,2.723750967994928,-2.4921331212050974,-0.23161784678983044,1.402708497664946,1.379896588982633,0.8075729418715909,0.2211619184166015,0.4562997692731656,6.7372131044362105,,0.6509067234006624,2.7177638932898494,5.694068782468562,inf,0.8751292821506325
377,2.9706333745133255,-2.648846105058203,-0.32178726945512287,1.468174280469041,1.451561883976439,0.8973244453330795,0.22929416572442557,0.4735407998375989,7.073348697391561,,0.6153451465759925,2.9412440882699213,5.575949103146316,inf,0.8820298459644702
378,3.048437709563371,-1.8319501630471975,-1.2164875465161735,1.3681455599276864,1.3605793835105569,0.8570252166330057,0.27133296508335325,0.562662128351548,4.561597851534017,,0.6233814453054027,3.032626805477036,4.185283401808941,inf,0.832999412471793
379,2.589379139729698,0.6673268417727862,-3.2567059815024844,1.5357054326484354,1.4902025097311238,0.8363501960775145,0.28126811583524164,0.5490707026732893,3.6189146489949677,,0.6528756675646988,2.5834754665205795,3.3026285649295763,inf,0.8677635203754724
380,2.573046486166544,1.7132281040747497,-4.286274590241294,1.5489903105617835,1.5351556126888277,0.8637268061499404,0.29083928513486956,0.5835126121162708,3.1578208512989554,,0.6584896970785714,2.5594865281437356,2.7842932124810584,inf,0.8747525359890457
381,2.7008164713999485,2.866700829872913,-5.567517301272861,1.555730996691877,1.5228253539585477,0.8861726119969205,0.29641822107318505,0.5749842327653067,2.9615976247899227,,0.6153451465759925,2.696286334181968,2.830745628729734,inf,0.897324547810627
382,2.127903129652569,2.7225351025015576,-4.831320468776592,1.4002472793445724,1.3809596425254616,0.9141386588483519,0.6095992771768266,0.85160563427246,2.839854065163042,,0.6584896970785714,2.126486562830878,2.6839326845948728,6.597145701886651,0.8802655293576597
383,2.589760902029378,-2.589760902029378,0.0,1.4291288149793027,1.4020465635307087,0.8814343016640931,0.48522581238721657,0.8096696836557904,,,0.6125606311107803,2.5834754665205795,inf,,0.8882439287543481
384,2.1624644300930025,1.8606181871231198,-3.9657293270835177,1.4571105117608163,1.4305851532958915,0.8629003899351869,0.40569585776892625,0.6706350009167911,3.174079254023778,6.059407916333184,0.6180765742263259,2.160699802653847,2.924299906731271,5.223952951259174,0.9065403258759085
385,2.4256896293493444,2.2499159580784767,-4.675605587427821,1.5243442247040329,1.5150077301001506,0.9070030362247493,0.39015720036135293,0.6590420710233531,3.3686693981600198,,0.6309483474627791,2.4227459534363933,3.1979216145093012,inf,0.9096187515997811
386,0.661852735421192,0.22122834169013417,0.14103974545887432,0.2303631307044071,0.1989592160887075,0.43692290609841455,1.050556906011563,0.805073692700008,0.3005259698492362,0.36803786694591545,0.648888643467878,0.6470484657810084,0.2099256889367272,0.1734188949732303,0.9557178547618259
387,0.25784053351302644,0.06733704545185032,0.029773922971333355,0.31224754057539006,0.25413057058646077,0.21158953202100686,0.8555916868486041,0.8187918175908255,0.07590100646791821,0.01957148130599209,0.6447042257417027,0.25443357347477485,0.06632280670643534,0.02654988875342484,0.9590011690123912
388,2.3828133716546622,2.039133091170479,-2.8150896196239628,0.2967741131787797,0.274652042261987,0.6381715526925745,0.5402031410823837,0.8026305643939107,2.6695459669595034,2.4662302849707207,0.6528756675646988,2.366590422969958,2.4548028714877694,2.120263536200091,0.9253371925191584
389,2.1154546435704695,2.2086692522504388,-2.6053414037170417,1.4044853441029728,1.3960482544102875,0.8946565877128474,0.508956971605563,0.7857189203618973,2.531171089311929,2.9070371330818126,0.5915533975974677,2.1058311489070087,2.291421933098164,2.4051416813191375,0.9138135867701015
390,2.3162170706096243,1.9809610202029453,-4.10600045703722,0.9554173023782653,0.9301125238819518,0.8633862426768263,0.5244322637285193,0.8495706183926782,2.2805069191360725,6.105875199086476,0.6447042257417027,2.314657674228315,1.999502649215321,4.79081953287472,0.9053243479887568
391,1.8312033577040905,1.384027776029183,0.8096075907888824,0.23810219477118838,0.23643885354239624,0.40386155893396203,1.3646592670828817,1.4521520797381329,2.0678102515451062,3.450525039361254,0.6528756675646988,1.7983142381987294,1.5213031564710031,1.1732166619241073,0.9549050307935869
392,2.5610844167961324,-0.16328290389331812,-2.3359990092453438,0.24333467620883387,0.1960955416088567,0.6611184533910665,1.0399042313476063,1.9072672010615848,3.2058844271803193,5.649291637049289,0.6684167106117298,2.539010908781201,3.0755404321470574,5.793013608384143,0.899534225539752
393,2.1754767791459853,2.344032169285095,-4.426246128793607,0.9524026753468829,0.9072722675575278,0.8928981242462964,0.7088440016177984,1.2179822121018984,3.6730250597780025,4.167687096125073,0.6509067234006624,2.1671804559878427,3.5038121958453674,3.9448128282511368,0.8945344954542453
394,2.440566388330761,1.0857442971442781,-2.08266465778319,1.2384996299606894,1.236720407116026,0.9333720025595653,0.7344411135021857,1.3140294997732158,3.7315009807327892,1.8922039329088187,0.62595550513784,2.438277549193997,3.289114791101338,1.2981459743431856,0.8842841416318246
395,2.4062676403855874,-2.23468238232366,-0.17158525806192704,1.6723663226181684,1.6497813331619424,0.9300696342677143,0.6483294765137476,1.2831863999755218,7.631038630133769,,0.6357360191111145,2.3835541555277127,6.82678621644847,inf,0.8988773074270376
396,2.9796464758504757,-2.9605814471769283,-0.019065028673547448,1.4722848066302516,1.4649679920991217,0.9011569801790558,0.7962555823652391,1.6285875236403733,8.426916365008895,,0.6207552362147116,2.9739707817724783,8.433594167539924,inf,0.8799622635356709
397,2.594165848616632,-1.8887597876953763,-0.7054060609212556,1.5315553528525054,1.5126118405779052,0.8900815165427833,0.9152434274396228,1.7912325032910732,5.975775678358972,,0.6619902821573977,2.591898124366185,5.2047489123019925,inf,0.8797298491696904
398,2.3602143840461025,-2.3602143840461025,0.0,1.6282863848958022,1.5737197613555067,0.9159249872112482,0.9529369330552845,1.7943219383595377,,,0.5883313578629602,2.358450225835441,inf,,0.8919332844220906
399,2.377882772688406,-2.377882772688406,0.0,1.6090144239090134,1.5882517526843676,0.9234434005181478,0.8593873938360393,1.5883731366211755,,,0.6233814453054027,2.3771889145564957,inf,,0.8977588372597675
400,2.3894221318895505,-0.07584008755163296,-1.9121090134096843,1.532827945896945,1.5122921423561333,0.8899334528578058,0.7464487949237817,1.4043016828481796,4.582774260347824,4.42411662507275,0.6380535849069913,2.3872960875902356,3.97684374480292,1.9989026791958235,0.8902407741335647
401,2.2899431071616405,-2.224311935043865,-0.04651340874024035,0.7261395483472171,0.715058325359075,0.8503213638661551,0.9867046790094874,1.7921971103223526,7.324928086202691,,0.6509067234006624,2.2841995913506263,6.725470085163405,2.3978952727983707,0.9027840802723786
402,1.5523852086685292,1.9175592684852303,1.4133482732228209,0.16744580799690306,0.15615619970957337,0.4467668138090197,1.4779544209489883,1.814854782906853,2.160725936114846,2.4588582909013112,0.6447042257417027,1.5434941291400655,1.9538471130749921,1.5912555933509098,0.9510907134579429
403,2.2785454163227095,2.902088241566951,-2.8482665258304007,0.15525433535522937,0.14400560591076864,0.7210864090148322,2.0441433079275897,2.7257769939181977,3.4362360887077066,3.37769008957521,0.663668482632973,2.2776757017338465,2.9986627580954153,1.327205444749884,0.9359599059745872
404,2.2262296949578686,2.353248968379965,-4.5603608999602985,0.42193883684421546,0.41127912314209053,0.717659194532008,2.0340869129355506,2.5673374254552948,2.568543858919588,6.606684044608995,0.6566669596287297,2.2189590694822257,2.3459225975917546,6.842683282238422,0.9412068063673905
405,2.383233064435989,2.00774496872076,-4.390978033156749,1.6203968998622114,1.607806376718249,0.8669480152074607,1.6409041973541827,2.2137740399206196,3.273107354462792,,0.6528756675646988,2.3783868064103277,3.042726137617637,inf,0.9195696151610692
406,2.1670964426771153,2.0803586422495517,-1.972441243000012,1.521589231353685,1.5091207509201219,0.6681308000001703,1.643117571295178,1.6550048866390599,2.2692848508520616,,0.6380535849069913,2.163693094127427,2.0584848396045583,2.4062635224688873,0.93293351875291
407,0.49823570491435853,0.06582086790545905,0.0064324339756931526,0.2564937331828253,0.24972361019435313,0.2852202377610303,1.0981362656203693,1.2125106684127291,0.16966212907079928,0.13287426226613974,0.6125606311107803,0.3672384786359701,0.12551077093139726,0.08518609928437755,0.9521544975898246
408,2.1806242217351945,0.45119254941099296,-0.8795344984071647,0.7918376495599072,0.775288133654219,0.7142451944638134,2.0704155651486627,1.810605457630977,1.545563448563548,1.2665906524272397,0.62595550513784,1.8239383675922902,1.3079955271421024,0.9914962483828048,0.9441609785155235
409,2.4452379628304155,0.04244100947454221,-1.235367418257287,1.1193057917275901,1.0936579591896165,0.7636120782601026,2.2252568227720753,2.041213251515027,2.0784996314169653,1.459393437930973,0.6403206450210053,2.1005516900759584,1.8557715742487673,1.2207602374091941,0.9254293807642788
410,2.4082764067461793,-1.5624978637506195,-0.6661090191682795,0.6389693604001849,0.6029236211820522,0.6178700105412364,2.5205016270247684,4.3528268625950695,3.8306972739268206,,0.6425374456860184,2.4285263163518924,3.6415005532591915,5.337538079701318,0.8668319399980986
411,1.5396450877672085,1.2453060585761344,1.1094907520574466,0.1740656785227582,0.1722393827789205,0.29815188133574133,0.7319942082083724,1.0083104245055021,1.6664434786959663,2.4678022205000034,0.6068309995095971,1.510548287906586,1.3784244490758715,1.8605811664591965,0.951209399155669
412,1.0223605201785158,0.5797858512227382,0.6640062450564446,0.2286284036166141,0.2280575668852696,0.24232378990916473,0.4328011276558645,0.4972502488946572,0.8829353410789624,0.9992105923283223,0.6357360191111145,0.9791713688022791,0.7320532062036055,0.761753503916842,0.9577063687374212
413,1.6477559610740506,1.7534540525232565,1.1219359314210968,0.06698765724152846,0.054866147461194156,0.19194900500511347,0.2962951362204807,0.4404455283318935,2.0433818027437214,1.7371064095387565,0.6207552362147116,1.6526934211050575,1.7748479358966998,1.5374834258424461,0.9106126831729359
414,1.0646519621139006,0.594216577094467,-0.003908797075722115,0.763346178732099,0.7578795225069476,0.2303480938240237,2.0593079156639993,1.9366378571334781,0.873832302904498,0.8385307694617249,0.6403206450210053,0.8806554987078942,0.6061715446618523,0.4663539185445215,0.9075234960192673
415,1.8994365180170718,1.4135840357358753,0.7447277760988262,0.6146073221203908,0.5817604682459815,0.6185995852031176,1.0503446368054146,1.480360292639582,2.5659344276760767,3.234154557816412,0.6619902821573977,2.01057904906221,1.9474878948673426,1.4480831274216992,0.8962914682691832
416,1.3391903289768494,1.1566649684921098,1.5450412327492198,0.14257358439717902,0.11630752796412828,0.3608057732738195,0.797900145468556,0.9697438199967922,1.5845885650565261,1.851204116770019,0.6309483474627791,1.2775396123940488,1.3016777168651927,1.637671585720953,0.9511627247773103
