,bvp+acc_XAp0,bvp+acc_XAp1,bvp+acc_XAp2,bvp+acc_XCond1,bvp+acc_XCond2,bvp+acc_XDist,bvp+acc_XFuzz1,bvp+acc_XFuzz2,bvp+acc_XK2_1,bvp+acc_XK2_2,bvp+acc_XPermEn,bvp+acc_XSamp0,bvp+acc_XSamp1,bvp+acc_XSamp2,bvp+acc_XSpec
0,1.5527832570403808,1.2575488823197372,0.7578533906604696,0.9805191583431295,0.9697830864610532,0.7222032946711826,3.29782102179736,3.1590432502578145,1.401909330355018,1.4960276250847966,0.6547956803312163,1.5199019471232456,1.2300124580776635,1.086691960942483,0.909404884341355
1,1.8160697046721692,1.9123729819958801,0.04207021324362881,0.7560347320887995,0.7455733722017012,0.5918431349705234,3.3347911929349907,3.1514079967338455,2.124431680541973,2.408309036400058,0.6333676938231112,1.7988512230418112,1.874154881915835,2.151062535573057,0.9487022910748822
2,1.4637070387143192,1.1188205783119338,0.03373086490197075,0.8879563610833057,0.8749085045111064,0.7349666948859084,2.9833391314322846,2.0640238410767306,1.0434294031529252,0.8597887850197523,0.6447042257417027,1.406406369602828,0.8067443582836507,0.5294909179853505,0.9539450203428621
3,1.3083596459651463,0.8079393786381861,0.1599851915745032,0.8187534470737456,0.8063772018500736,0.7866016086750567,2.729674779676052,1.29298571442893,0.671650816640483,0.43054618420570645,0.6602640781246099,1.2655724383493652,0.5467299321100194,0.33242463791908106,0.9416051921095184
4,1.2064001025297966,0.803204907342125,0.4711740866257199,0.7872648158152857,0.7490927603056944,0.692823461186037,2.863447890732656,2.21495021821399,0.6840179672407908,0.7832553351905994,0.648888643467878,1.1492040747841699,0.5935112942649626,0.5765638542943927,0.9392251413248793
5,1.2017556357827297,0.8953681961007216,0.44497411509387375,0.6960407888925614,0.6726426602880771,0.6455315887879679,2.4873205582944196,1.8008903874543973,0.7716348155600329,0.7499542841407202,0.6153451465759925,1.1281097594571328,0.6529076132390201,0.5821437321846984,0.9414647064723533
6,1.4132131514720596,1.1608140082383587,0.3701140392058484,0.7773052524399788,0.7595606227633853,0.6777695564379845,3.226792738185697,2.0961889206566116,1.2338973246652245,1.1577840503789956,0.6619902821573977,1.3715590170761296,1.0044334388547467,0.7463113593125774,0.9196878476373141
7,1.654608871554512,1.2387877668570069,-0.563007454374858,1.199034081277789,1.1678855995358184,0.7356174712096201,3.301159517997089,2.397198103227086,1.1113278772825532,0.7694099721275652,0.6125606311107803,1.5524276577173208,0.8643220254103974,0.535923100965826,0.91779250724974
8,1.4992085024361343,0.6724858106828315,-1.0148590858639566,1.1598997342609387,1.1440695034202655,0.7323265969028294,2.1521352195827443,1.2926501741912642,0.39467013415695706,0.21032383024209605,0.6357360191111145,1.0927296255099543,0.3427082955496318,0.17538984566356866,0.824916965083435
9,1.2615956442380194,0.32623730429139397,0.025896297153318537,0.8586798115792146,0.8381229576854943,0.6203664803216213,2.6248341463723537,1.8794233619975302,0.5150905597846743,0.4400815235377796,0.6584896970785714,1.0290862260194995,0.45034733984401465,0.333617638832163,0.9557418410914046
10,0.5540118515610637,0.039296698499630134,0.04969059053652025,0.4482763600920526,0.4243182847238466,0.3950035382568858,1.076858134376018,0.9013540970572025,0.14317760129322796,0.12165877731434821,0.6357360191111145,0.37911533278538234,0.1215949572395153,0.09249100757872022,0.9351842193244889
11,0.940260061937333,0.4965521607596889,0.10901534585330541,0.35912832231439573,0.34467919726019114,0.4704496584094449,2.0987489910137174,1.6541120239557956,0.5553056419296317,0.5626303160824768,0.648888643467878,0.877524181666313,0.40497088186270586,0.3098126346416695,0.9581191795345338
12,0.9891925671932373,0.6278072209350003,0.4909985216361057,0.7621446300778156,0.7384064023355088,0.4960447566751443,2.3430744610251417,1.6948681132849939,0.635379251631946,0.5713682206280412,0.6097226960127671,0.9458912016504458,0.5020894557739581,0.39317916209877807,0.9264104470928098
13,1.026373809176655,0.6846992148508853,0.5631816632673332,0.5712889717015402,0.524487175780558,0.6268657631025422,2.03854882384352,1.8531101350502523,0.7154864609274915,0.6797174654936827,0.6207552362147116,0.977988846344371,0.5585600905788658,0.4457255641273006,0.9442672110459192
14,0.5851654715470592,0.31243659733374607,0.14392853064612,0.3303943987535167,0.3219891167764068,0.45543439997104246,1.4440639857055915,1.079611160614233,0.37426948809632876,0.2848332544750141,0.6584896970785714,0.5502596930113978,0.24130916972631114,0.18088078264331126,0.9363097490255718
15,0.622738496697153,0.36585371281452406,0.23336268130840176,0.39434724551308725,0.38282089556773324,0.4324256043880619,1.6432502593037102,1.3940571070277028,0.3672519667181802,0.3591725198582006,0.6652988471865258,0.56702371455004,0.2798964393994439,0.2509923796043524,0.9566142874480935
16,0.7090584155026666,0.24669287631233705,0.25592361893326865,0.34317766687490264,0.33660148362979053,0.28695215251810596,1.1371580349987256,1.1255917297612774,0.6094512171933809,0.6840639040186474,0.6447042257417027,0.5636210204033387,0.39714420157264574,0.3645803868568923,0.9518084958523806
17,0.7917372392854918,0.4663696952613976,0.19532178717847382,0.33129332395610994,0.32067293034706323,0.5126696748055397,1.8974549836217338,1.4879077194724615,0.4848972382905181,0.413705040580797,0.6584896970785714,0.7399593023457496,0.35821974685080094,0.26770284882832407,0.953299786603019
18,0.8951974517902196,0.466038166169508,0.31409614642468364,0.3078199196165713,0.3017226362817833,0.5677488606974084,1.715729018245141,1.3156718907002012,0.4723804933885806,0.47406989352929774,0.6309483474627791,0.8326647083623349,0.3653628411039802,0.30505034697687544,0.9540851750566252
19,1.603814875622765,0.9153975094146569,0.5459674824967227,0.33106558253853974,0.3181531212894548,0.6764152844419641,2.825281609905748,1.4094899085471289,1.0775724645297573,0.7499017519457225,0.6357360191111145,1.5994325775931293,0.8734137577025046,0.49268009620129133,0.950031738227968
20,1.148475440091867,0.7270024933804506,0.5339695769042159,0.3658909274990795,0.34913316874690675,0.6074211835205477,2.6750077070649736,2.4365944694316455,0.8340577067122211,0.7421002140461385,0.6740851607140061,1.146228142609773,0.724069610948765,0.5209971276061842,0.951293889314633
21,0.8860684946833645,0.6497105947722775,0.30336043212201425,0.6375394584638236,0.6261430550425746,0.3494694197975308,2.471906202499078,2.0310712780331532,0.646735988852164,0.5557439854525491,0.6284777104787076,0.8285597064861546,0.5086905544548135,0.4535097079540033,0.892484660251154
22,1.0861511812785556,0.5853182823144756,0.36087566411199967,0.5686669009589147,0.5528949115328337,0.44445311586933345,2.1840372310823426,1.9240039823403214,0.7581666688527784,0.733965142327941,0.6447042257417027,0.9364650949221753,0.59241742077307,0.4760701739938514,0.944292339761954
23,2.147452973293639,2.328977999119666,-3.857570012291754,0.9004714294908016,0.9017905286552914,0.8286639779208248,4.509156855800176,4.406736006647146,2.6139821619445134,3.8038762153208925,0.6509067234006624,2.1431152516891876,2.2909066781030747,3.3099813733904937,0.9519325622191229
24,1.5155107401227907,1.31405670089164,-0.8112656103319349,0.8832945866726395,0.857502547916213,0.6813865838823604,3.1183903229135685,2.638668214473444,0.9073400097687621,0.8048083050456609,0.6509067234006624,1.333027460020384,0.7881624310398377,0.5680385558014005,0.9484891207604291
25,1.2262022641334114,0.7713116105312132,-0.34341856219090405,0.6571965523088413,0.6323724951131454,0.6100002538162964,2.6336929197987518,2.2815265729030627,0.5654397916132938,0.5111847887760496,0.6566669596287297,1.0475390184841091,0.4570385033338474,0.32842069542669616,0.9512036502414151
26,1.4827113632155244,0.9375439637450791,-0.42361108114626234,0.5276245038036906,0.5112607180715721,0.6923493340081792,2.7551806127338683,2.3978886140459013,0.7843907875985778,0.6886618471189342,0.6547956803312163,1.3247603490026183,0.6694417550156134,0.47759090662438564,0.9512604672759064
27,1.5229135862222933,1.2005474720666793,0.4129599757656832,1.33159317518016,1.3378097523200438,0.7602467655628072,3.741579923907239,2.7396745856901443,1.2112536815133985,0.8650381398326837,0.62595550513784,1.4823159049947614,1.035665052522668,0.6939744245061974,0.9288532582794219
28,0.9619579044108589,0.6309414170391531,0.5096988456715694,0.8507934600559718,0.8471591956774128,0.577020765591872,2.254378034239368,1.8903926403064126,0.6472804692996328,0.745568650506708,0.6425374456860184,0.9085430450833293,0.5036846980630658,0.45031190814270705,0.9483172386376373
29,1.2121453792076957,1.1792220496145591,0.8542970454043792,0.8826355228665138,0.8812238682983388,0.45563657034827654,2.09533963357656,2.1489395420050004,1.4215375434098894,1.4022309306111018,0.6357360191111145,1.17592539177078,1.138170137296855,0.9761569586427936,0.9352004947274882
30,1.287425932715836,1.0801088052737788,0.9515415305074959,0.7400062230093971,0.7239446206673426,0.5530334909177229,2.871128943802598,3.1593372142682266,1.3157679719348847,1.1468048831395454,0.6008849035917525,1.2804939422336792,1.066856093680178,0.9458902042432059,0.9536269170037537
31,1.6436254819963194,1.329375450181268,0.7343418419491736,1.056173488875254,1.0190394735053094,0.8390482169089842,3.8006583610832907,3.234073740026161,1.4797120390497527,1.0793680467494096,0.6357360191111145,1.6369233101097034,1.2863849480327263,0.9446978618689422,0.9185726386582859
32,1.7570323294048622,1.5362825526186303,-0.3012239132304817,1.4585421979562008,1.4198429123189622,0.8792682675956492,4.2458480621765196,2.3333595440009613,1.4352447168756226,0.9112917951820954,0.6447042257417027,1.7165901557344583,1.2589038555785415,0.7785760283381494,0.9256995175358246
33,1.780360434473596,1.5053580615838464,1.2323727165208354,1.1551842615989023,1.140075885631672,0.8079809623455796,4.4103550801216445,4.3362443103344575,1.6629969884822977,1.9196318125904244,0.6468212168108125,1.7713034606606728,1.4573421558033333,1.5804103042338808,0.9247712838242339
34,1.8802861980537264,1.832196617319185,0.522535987462946,1.1444679133773437,1.12030826789219,0.8081518295597284,4.8083235060732,4.821061868783794,1.985776160067342,1.8278465706626998,0.6284777104787076,1.8602524656733552,1.7406161111178675,1.5981063464245504,0.9236893461170346
35,1.7678797802870088,1.4003098160339589,0.5327584657962774,1.3185313638171525,1.2993793655669743,0.7886910776876136,3.984858310308688,3.8103522188690486,1.4508896841628478,1.3133517980196776,0.6447042257417027,1.743413848297773,1.2247032582232444,1.0431125489905764,0.8118262920270412
36,1.6790731687022729,1.3415260714100596,0.1672399142177734,1.1085619771418427,1.1021844685640727,0.7560892423608098,3.644625106882567,3.249693212195504,1.2961653712388408,1.0478823860866968,0.6584896970785714,1.619432133139303,1.1072913332285286,1.00297798226636,0.8409275566022009
37,1.6242288073735804,1.2028912703279269,-0.4344373000625299,1.0829110725495354,1.0878454572500504,0.8080098284616694,3.5638257938650226,2.1000571642845407,1.0430441628686884,0.6269287703799503,0.6566669596287297,1.5798251742145488,0.9395349036428308,0.5234638032304618,0.9410387621656964
38,1.7416096668243346,1.0529806436023035,0.6901760290385446,1.0061838955856361,1.0091651715719576,0.8475484302822865,3.548044762642957,2.7413587290028545,1.1611120377338333,0.8406652610329912,0.6207552362147116,1.736072507813801,0.9998628967779445,0.6373226083811683,0.9292471542856708
39,1.7682576423187981,1.9574341498675143,1.4326370504621524,0.6867758160533732,0.6551709052489054,0.7213950747778826,4.617466673225245,6.391267958178279,2.0562884794809273,2.7487423896342467,0.6468212168108125,1.7608423665933335,1.9647010718921942,1.7082118989576132,0.9364009502319866
40,1.6478870402189547,1.0532889553348164,1.0836890642198438,0.2303631307044071,0.21579189608300717,0.6945990137417988,2.4680705509910488,2.8456986608183645,1.3306755824337038,1.5722785311788279,0.6403206450210053,1.6453529841342278,1.0428945896718027,1.0844966977608286,0.9390841857901311
41,1.9941117645620148,2.482041277959964,-4.44024351301711,0.2126938811736031,0.19530024723186548,0.5952091877281471,3.5562962188373355,5.2054761352923755,2.5831006441627062,6.818759862484743,0.6509067234006624,1.99232646636336,2.4759845369075344,5.840641657373398,0.9448413636379052
42,1.5288582591872262,1.6698792463050067,1.087828111837005,0.4505066813599595,0.4432495143747936,0.7775909169488565,4.0529548591874445,5.773065710678819,1.7374917192961357,1.3991156590943465,0.6357360191111145,1.5277555241308511,1.67349869938753,1.079419916895213,0.9432836767846546
43,1.4009253568552738,0.8843059089608647,0.3612188205981446,0.8045501056600715,0.7774820077102778,0.6733786365354216,3.518131845240252,2.0980661393697164,0.8868142875295605,0.6784443686444063,0.6284777104787076,1.3860277300024597,0.7771819687464819,0.4787407006487447,0.9402112977332882
44,1.8146407298622327,1.1273316346084146,-0.5637168762806635,0.7152925850214986,0.6786547271204052,0.6456885347045881,2.7896105811629055,2.03244956791125,1.2394309841400701,0.8151808736325163,0.6547956803312163,1.7396731560297236,1.0041769492036738,0.53808385560194,0.9450943237485518
45,2.3181175373180447,2.9530246573491428,-5.2520244312896525,0.20726765807716444,0.1973788967325144,0.6209400961573184,3.1919670274165233,5.208897248407386,3.401974713626143,5.676879593568118,0.581717464821069,2.3153326658165483,3.093295721549171,5.998936561946683,0.9296865720610351
46,1.7811000979156604,2.79961214156921,-4.472018274888211,0.106969059718312,0.07671048882950998,0.41602242411485746,3.030371255988754,2.775898800123991,3.6190777672348005,4.898574604667865,0.6153451465759925,1.7779223124400334,2.7731806522777824,4.659237407258367,0.9468104604685519
47,1.5969828099150327,1.5261962138595757,1.4585110576801261,0.18880655353635273,0.16619691566352174,0.5851137783874679,2.8398917669255077,4.410718670650477,1.7233349657749113,1.761049632786907,0.6668815377411301,1.590834260702556,1.5209325779737015,1.5767849562508849,0.9479666024362942
48,2.0325545914761998,2.0242824060468125,1.4281448799552319,0.21391055692706326,0.20505545447646162,0.5286759737700372,2.6841963328375034,2.8826521179625115,2.2661091503719275,1.4336614086196025,0.6153451465759925,2.031455933883333,2.0121955140232495,1.6634699280151333,0.9523292278710892
49,1.9292328200487976,1.8383216723077949,1.100898971564619,0.23037256409582926,0.21831635186575307,0.6789023169046824,3.584337257296877,4.3761963288387715,2.0805124449186256,1.396369976854164,0.663668482632973,1.9283431343481559,1.8309587840623263,1.1029133705675003,0.9450727120039856
50,1.3653120221253174,0.8031562506386134,0.44205344393228563,0.46070406629200716,0.43494042275543654,0.6625380485572555,2.9702703843669895,1.5151724828411774,0.8705395258441071,0.43077397370042236,0.6097226960127671,1.3539777685322365,0.7520359287505988,0.3590903252089853,0.9466643463044798
51,1.8592679716182954,1.647140756735295,0.21783474602337138,1.063805773407105,1.0702871504976232,0.78384736862958,4.0140790758065705,4.298324041263109,1.8785459761110663,3.1214444454557695,0.6684167106117298,1.840319659843432,1.5430378036903922,1.5139491452554281,0.8771271699578647
52,1.963715034977491,1.9559805839398068,-0.7696897895029076,1.2893194963344936,1.2574586145781539,0.8215609340902411,4.162179133096331,3.8364761711333584,2.194873444615922,1.8154825827568477,0.6309483474627791,1.937093573971729,1.942677387619229,1.3987437776608989,0.913688981577294
53,1.6367688849401512,1.3100969577150934,0.5024514711210628,1.1732116404592123,1.1475565038696693,0.8286917377495536,3.5646010539037816,3.469012216507738,1.2491397693321893,1.000607862247729,0.6447042257417027,1.589580820390215,1.0603577176547792,0.6770794454429095,0.9093572781997028
54,2.0117766743682663,2.515829202222479,-0.6681436715788944,0.2920994119318466,0.2910905134672942,0.35956661432172543,3.633998809799908,5.294890518539946,2.8513623275814086,6.537211671794228,0.6068309995095971,2.005612973635172,2.733723727259827,1.3550222693756158,0.9512600739958949
55,2.277471162775642,-2.277471162775642,0.0,1.5987890118137964,1.5701569402583686,0.934238348566988,3.5813213994545805,6.6719556794095345,,,0.6425374456860184,2.2770256475397743,inf,,0.9026890802609899
56,2.3328812458209245,-0.7643931738875887,-1.5684880719333358,1.2868045741378655,1.2792054265970438,0.9365084114794078,3.8226715094552888,7.95021962622069,5.701691836132078,,0.6528756675646988,2.331899480662821,4.587029098917442,inf,0.9087261196326499
57,2.335807218220949,2.6761256106001605,-5.011932828821109,1.478971458834949,1.4574122728150112,0.9132461366052745,2.813853299500329,3.6422690048338633,3.3656795820324055,,0.6447042257417027,2.334763991358281,2.6825602908887713,inf,0.9201284261870434
58,2.2850677076246853,1.5320884459034283,1.1554958655499377,1.3959347999193104,1.384536764388151,0.9195150774853171,2.766176602969389,2.9551383493503565,1.8230151397113974,1.5892240194968135,0.6447042257417027,2.2848543272971935,1.5328691098325513,1.1617362394980613,0.8999218207860719
59,2.036366411155307,1.3615592955681142,1.2032767334501706,0.197000680373157,0.1856035292141266,0.9099919429104074,2.7300218485864716,2.238000081086648,1.543834485385513,1.3812006133976005,0.6207552362147116,2.036211781488516,1.3683245014391539,1.2095625338047227,0.9128774922291123
60,2.2450856316204937,3.398162855749551,-5.643248487370045,0.10696905971831198,0.08781749297557552,0.9360019755846843,3.147741851841819,4.456372937723825,3.469385939987321,,0.6038851895711802,2.2445258504542323,3.472679644534109,inf,0.9025081589792255
61,2.606134409026225,3.094309164364462,-5.700443573390687,1.6194305371927311,1.5603065901162418,0.8831169135439961,2.8399880562701476,3.220533787541939,3.094799528119866,,0.6233814453054027,2.6056440452708203,3.1014773306508956,inf,0.8781785170628529
62,2.319008466462191,2.002911210708339,-0.38366042139833745,1.5644026097412163,1.5366484255289983,0.9229392612642976,3.1841044004083736,3.8157121189294365,6.885061005942334,,0.6008849035917525,2.318601563502819,3.0630974119842684,0.6979898050357334,0.8848592697567329
63,2.2910164940555275,2.382512231230909,-4.673528725286436,1.561492895905882,1.5479274770138156,0.9210397722303296,2.475990932008606,2.38811185972871,2.8184418738053783,,0.6180765742263259,2.2908761334176746,2.3773521885375537,inf,0.9053033030628123
64,2.076439002922873,2.1424704824772913,-0.9903334718469656,0.06698765724152846,0.05538049137044869,0.7942789679736331,2.840700261185264,3.5832293697684316,2.326524667256482,5.204605815787843,0.6380535849069913,2.0712970207384287,2.133606732050736,2.0668627594729756,0.9295539295135251
65,2.4330919371087756,2.100872321395999,0.8080020302844959,0.09310611610711308,0.08047995867678083,0.7021929279269626,2.696691243083269,2.759897178510173,2.2610345164488876,1.1814860246247314,0.6125606311107803,2.434213535472482,2.22342022005135,1.1187194119672044,0.8962022232860821
66,2.477218289074578,1.8600224607843217,0.694617523088974,1.5813544224667546,1.5759604183546434,0.9391927147642257,2.325869488532182,2.181477382645972,2.1310114946673093,1.0599182112222483,0.6380535849069913,2.476409519534054,1.8646884596413902,0.6965659873087309,0.9070995973267333
67,2.3028274495827685,2.253270792029188,-4.556098241611957,1.68089167166641,1.6574531365375977,0.91834882976592,2.2154059903241348,1.7380452975721936,2.3394911288319005,,0.6233814453054027,2.302140747285779,2.2521251088405445,inf,0.9109126206881215
68,2.2058933271501777,1.5224389274685337,-0.5547835339479157,1.575215779657982,1.5414301260301522,0.9049079766910674,2.144246206139981,2.3602596315592987,1.8895687318340408,,0.6528756675646988,2.205458382263323,1.5251694212309992,2.5649493574615367,0.8947681515009196
69,2.508057066744337,1.5506307262855614,-3.0454463340205478,1.473733635855316,1.4802451533598524,0.9070585393173969,2.0043773772314446,2.8070771195950797,1.58387890165732,,0.6380535849069913,2.5057898607044247,1.5570560344583053,3.374427140597551,0.9123859431487719
70,2.2962716675881634,1.8014506888929303,-4.097722356481094,1.4823638359437032,1.44647507075635,0.9292704981294111,2.0515651525528757,1.8913517522162873,2.302331058260819,,0.6403206450210053,2.296161325196243,1.8075603988384548,inf,0.9101911289891139
71,2.30594006400905,2.2670267987283985,1.124126623767956,1.56312578268926,1.5373082000209133,0.9594597261738654,2.1270707614350406,2.4487080395181176,2.529809658992893,2.6073210776833697,0.6333676938231112,2.3058125177531186,2.2697988659934283,1.1348600790604508,0.9102154923505541
72,2.2197043492364874,1.31911981266801,1.4541917014294063,1.3962543139523336,1.3733725919753135,0.8025494880366766,1.794796267105508,1.7037529034563348,1.5175397017943628,1.7794413031532679,0.62595550513784,2.219470186283539,1.3240591039564125,1.4505767019050937,0.9396292578177455
73,1.6361825319026135,1.1161702135309974,0.4458195683664026,0.106969059718312,0.09670681889408579,0.4763698463566012,2.0643621631704248,1.6869841980771696,1.4927840489643014,0.6610910607070337,0.6584896970785714,1.630945325385262,1.106362056784066,0.4888168714237009,0.9685584166635993
74,2.251898282878048,1.8142121471410135,0.8701590260411374,0.12463234025682715,0.1074634663197747,0.839165585008203,2.3580341949725665,3.6956658870028276,1.8592870145750564,1.0095125831304788,0.5883313578629602,2.2506253540633345,1.8311320926532946,0.9645050250227776,0.9590929597149013
75,1.946923818797231,1.8133384981073981,-3.760262316904629,0.10234807851457903,0.08641510433174147,0.8148494430739031,1.7129097477014654,1.8725609434542159,1.8427068250028573,,0.6233814453054027,1.9458434846107702,1.8058574470855753,inf,0.9308734926711115
76,2.0997990326209353,2.213163871228778,-4.274727377094643,0.13766330170126678,0.12887054448265525,0.7506167039777422,1.8436404323471578,2.0256222186644934,2.281233578915724,7.013490534541361,0.6097226960127671,2.0994628595537237,2.218025253982587,6.396929655216146,0.9423751390444872
77,1.4345527155271665,1.3485388629034754,1.3087985602941838,0.08467349851939515,0.08026736646837315,0.6764456225372198,1.6437049603407765,2.0902784466297697,1.432425419755541,1.746292508775917,0.5915533975974677,1.4344114185431713,1.3548488379845818,1.3151346415478489,0.940939099476825
78,1.8580721558013875,1.0067033277162218,0.38859747801780475,0.1469052641087327,0.13607620810821888,0.6506951503843783,2.593426878265912,1.816816222263519,1.3060973173310786,0.9432827590842373,0.62595550513784,1.8551963751443252,1.0029018222015438,0.47326222472750673,0.9346484687536372
79,2.3799277618895642,-2.183333951752592,-0.11105778611357285,0.1469052641087327,0.10562572151166928,0.8121618191067892,2.751851435005054,4.384369389757769,5.9303785560930535,3.084342279587752,0.663668482632973,2.3794661373300032,5.290429193699031,1.3397743454849977,0.8926736550146255
80,2.336373038982777,1.7546326219738084,0.9129406449888746,1.4969684843087734,1.4622388394097914,0.9512574470846508,2.494897750174463,3.1075316393854613,1.7549786807399077,1.4143033537213419,0.6153451465759925,2.3360269802166784,1.7616564832709372,0.919640818759437,0.9066985622686862
81,2.351776495406983,2.006921790279222,0.6366890481642704,0.6228223416074248,0.6119979809238738,0.8761605396306712,2.0633643656678404,2.579154557626854,2.3668316287997153,0.7780142003148719,0.6584896970785714,2.3494437903137304,2.0062655360427777,0.6499384262287086,0.9360548051034429
82,2.4973757862574786,2.7256298925100086,-2.8715207833306926,0.8678289271460554,0.8505996692991125,0.891695949917252,2.1909808297111475,2.5781131751113975,2.6933078387344502,1.9412200262127737,0.6425374456860184,2.49697923102227,2.58981742403955,1.5085839388781648,0.915072255174835
83,2.456758752513161,2.1197047382979965,-0.07738481683284526,0.7381732334823446,0.7172008373698049,0.9009985406596381,2.004280734735099,2.2283579373703675,2.6947997864703246,2.353383411284698,0.6357360191111145,2.45418347714516,2.0719701685247074,1.1578262016901544,0.9136611772851083
84,2.086731956781259,1.1499521832985358,1.0940396294153047,0.9933891333165417,0.9778937589482661,0.8500937089074501,2.1423215956364783,2.4642266849551175,1.3357602460966256,1.3792516629411138,0.6547956803312163,2.0861305298306325,1.1537987042354005,1.084247867621074,0.9367848502062166
85,2.9824095228429663,2.541849482913755,-5.524259005756721,1.6411691819140855,1.6228759789026113,0.8960996894136218,2.4009438248184645,3.0220802003039955,2.724513927132875,,0.6425374456860184,2.9759296462578115,2.50470927708418,inf,0.9005181043352143
86,2.491067220515339,2.746250732885741,-5.131698789918093,0.08467349851939515,0.08116740185536832,0.5968065977654016,2.936924544315938,2.7302695481690007,2.908219268338233,4.205427424107921,0.6357360191111145,2.488780811336601,2.674617237312065,3.759260250875736,0.9380293382698857
87,2.3610577893965616,1.446816029151706,1.5219989581718525,0.08467349851939517,0.06820204400533385,0.8522018493278736,2.708638339386237,3.4566660134217946,1.6385959295983576,1.7115616376345841,0.6284777104787076,2.3604496384391855,1.4592980908797897,1.5499463000712892,0.8871155726529183
88,2.042545397837949,1.1133903800443878,0.7393860090187281,0.08467349851939515,0.06652449624991749,0.8701172829322104,1.9288271134694617,1.8186975994455945,1.2023465986497845,0.8246079424757154,0.5883313578629602,2.0394518934636774,1.125093586859476,0.76541522579166,0.8780657476301726
89,2.048466363455222,1.48795520115589,1.1781076776048756,1.1408372228755703,1.1274415101058541,0.8357223423282305,1.9835018916765919,2.2611126607596823,1.734753939569003,2.0015876076529815,0.6584896970785714,2.048373630603865,1.492469033571809,1.1696880374702439,0.9048372344270226
90,2.1269504672646287,1.6008597419426618,0.07598963576528384,1.3515460641506936,1.3301939461912906,0.7938787273921716,1.8993549181893858,1.8303398414764227,1.872321676084862,5.449841197992367,0.6425374456860184,2.1261139498782664,1.5962073914583024,1.681356540869294,0.8944411683610946
91,2.696999440991199,1.9048318437313787,-4.601831284722578,1.4805998631464192,1.487841233700121,0.9066320238544765,2.150717525613766,2.333223506005665,1.9050506758785974,,0.6333676938231112,2.696780608843979,1.911728478409627,inf,0.8824544310526422
92,1.986311805743544,1.4925108783706968,0.8992029951952549,0.06236667603779547,0.050860921110677276,0.7122267529245565,2.675058678442412,3.663206156595908,1.9652206107656625,1.5740824829031603,0.6403206450210053,1.9855869662082117,1.4942929374884124,0.9012582369161424,0.9637302160846872
93,1.9782954964112136,1.433793079294965,1.6193433008773859,0.08467349851939515,0.08052187966510355,0.5675849920416505,2.128202049468992,2.17727533687365,1.6590177268778146,6.659832440497458,0.648888643467878,1.9767245169674272,1.4375581042433836,2.3234014051210714,0.9444299873900959
94,1.4768415625108522,0.9969072353685096,0.48226021763045823,0.16280166969132606,0.1477596765810495,0.51167234312154,2.2487479720939016,1.8991392504250473,1.0461372083259144,0.7426855809258969,0.5947193981915972,1.4697242804046116,0.9820055246888315,0.5241998411643681,0.9503728853367247
95,1.8696464985103713,0.9918380979337436,0.8096172186814434,0.1774930122970747,0.16436233270556175,0.7626652104581957,3.250402254063707,3.6868708652846203,1.4213505021031783,4.115643782951895,0.5947193981915972,1.8682086413914611,1.0045196813321082,0.828223712624636,0.9409718300436876
96,2.2889986868933927,2.608062064491136,-4.897060751384529,0.040048630190433046,0.029666303670344618,0.9151576066781855,3.449111022275992,3.0824451398660764,2.72441029861502,,0.6652988471865258,2.287915442620723,2.5960872005421667,inf,0.900741268477285
97,2.369716550182234,1.7234864623928936,0.8941680994615799,0.06698765724152846,0.05693378388252161,0.9016368521755203,3.205827139628226,4.689817407977201,1.7235769660357805,1.0766141777177825,0.6566669596287297,2.3694373999818863,1.7255740512279183,0.922312831037248,0.9155368315694842
98,2.1340668632101703,1.300940341338066,0.47447963928805015,0.06236667603779547,0.05604952692013788,0.907469788733344,2.4997864051787317,2.169169082873133,1.4932793524391998,0.295951815293066,0.6380535849069913,2.133592717091446,1.3028864787153491,0.4912216223405807,0.904127758881916
99,2.260774642859454,1.1849903581190357,0.8580662846794995,0.10060391803536387,0.09388614734091996,0.790332825022629,2.1201027660017457,2.509354467549079,1.3214540277853413,1.1910030175417767,0.6038851895711802,2.258993603733851,1.1941990730466845,0.888758908934149,0.9117064210851201
100,1.6996313857541099,0.928755727379462,0.5837643360943852,0.14054012242578456,0.09372006332031987,0.5519283845161963,1.8202387577954295,1.6397146440497148,1.3103969554378618,1.0372127031856886,0.6403206450210053,1.6986334912385712,0.9266085986763241,0.576012133603486,0.9382998301398412
101,2.1425849132136534,2.8458847451098466,-4.896567459854174,0.102348078514579,0.08882016450402552,0.7315220463953148,2.487968378148354,2.589366980288735,2.8469005074833347,5.711970913379388,0.6207552362147116,2.142168371588141,2.837291305039665,4.482195123629283,0.926090885650994
102,2.092881215627596,1.3131127183834548,1.5726433200208105,0.07830835683644703,0.06992652010373493,0.8450412743751717,3.393926570630881,3.2543864188990406,1.4197634096154843,1.5086895608344377,0.6207552362147116,2.0924142129838743,1.3171514183487978,1.594425120044915,0.9479483252474221
103,1.9845339195377656,1.145495459909175,0.8991515633193328,0.07830835683644703,0.06317310039382523,0.8196264394182936,1.8341953860950537,2.126590737762134,1.3137920703877195,1.0552433112604584,0.6207552362147116,1.9793750144831193,1.1553639311788817,0.9900648240448081,0.9215359807909218
104,2.429699742098443,1.3651407134158569,0.47868041131157124,0.07830835683644703,0.06635257092823157,0.7608663107364075,1.8262945887756765,2.4752958329841794,1.5999959417905179,6.674154505019651,0.62595550513784,2.4268893456406944,1.405090952113915,1.8072636557640203,0.9351677343775164
105,2.13614590878462,1.2789219656685007,1.9222926793935282,1.321081475768312,1.335372813230506,0.8033557336613619,1.838401426692153,2.175759850224363,1.7639577248601854,,0.6509067234006624,2.135847297661316,1.283853555565399,1.9357749271612703,0.9044852521743504
106,2.2590755862437137,1.8597962865349058,1.3781858502094853,1.5571603813847843,1.5247691463613826,0.9128260904185163,1.6874507433997534,1.9203624718134968,2.2327370584471478,1.4835156149190858,0.6447042257417027,2.2573993003722896,1.8503682821819518,1.349154814170434,0.9089097169542122
107,2.4411709240044472,1.4843802603461422,-3.9064334209730545,0.9445712596731848,0.92868805403413,0.8566537090568951,1.429157467963604,2.1502468512059845,1.5818314589862317,,0.6619902821573977,2.4394235351855884,1.4854595859721622,7.482681828154651,0.9133280555001906
108,2.4185824886107805,1.743847383828768,-4.1624298724395485,0.7054783327995547,0.6990685274501262,0.9312412864260438,1.4803925857311226,2.3769610288388705,1.9145944902833814,,0.6619902821573977,2.41812065610995,1.738808781303772,inf,0.8958915513975666
109,2.2902537841086392,2.204994987165744,-4.495248771274383,1.222416856870732,1.2213169025744715,0.8816983990825571,1.3969158569644018,1.5365947722008961,2.6295314585581147,,0.6403206450210053,2.289778558946827,2.202062941734261,inf,0.9052488962039966
110,2.2082240822775674,2.01300005342714,-1.9157493998960105,1.3539293457736064,1.3157166256332915,0.9252186076720936,1.389610944321391,1.888799199718613,2.3940511934468405,,0.6619902821573977,2.207780091275736,1.9823414263401335,2.193562910850256,0.9271538854916919
111,2.163591494819701,1.486701470076882,1.8124449303344616,1.713974976884151,1.6885896327975045,0.8220179422211432,1.4999554235869672,1.8497902572937306,1.56585065015365,1.8813014417784795,0.6547956803312163,2.1632096987489415,1.4894449785420305,1.7634457249134479,0.9366275967307957
112,2.2476370032139696,1.5510606980033876,0.2677128193799221,1.6327737589407036,1.6293022519024885,0.7635199243262223,1.1348885059231668,1.2683518947490733,1.7846646525125005,1.627430351253908,0.6153451465759925,2.2390887814349183,1.459167834491615,0.9091382650836694,0.9121975043546764
113,1.0007392271536413,0.6569034560320595,0.5518865157817208,0.102348078514579,0.10118815392468525,0.08685859291990526,1.3818447453542866,1.3717359564950315,0.8835717221241328,0.9605628646009581,0.663668482632973,0.9751564847411914,0.7130240549114679,0.5988593420059242,0.9657245638672042
114,0.5891656379360491,0.1830211273333705,0.05523713118882678,0.23810219477118838,0.2136252088752377,0.48014434983561444,1.3489145197326482,1.0680795900823443,0.21736550358815224,0.20342534975856252,0.6528756675646988,0.5542745223696707,0.16640373986963147,0.11942333127730644,0.9561792802774047
115,2.0305155225786042,1.7900006030861966,1.6700831223958987,0.14893872608012715,0.12184780713120383,0.8033671842149809,3.4070362020872365,5.01518437185066,2.0884786516364526,4.571441339829608,0.6284777104787076,2.0262167804425384,1.7986096799554527,1.8957631325745914,0.9135852988755822
116,2.6093579832534703,2.4051089114596036,-4.995349131335539,0.06698765724152846,0.05502073455062988,0.8454957101343304,2.9359200744157508,3.134637539032408,2.4119562434290467,6.373422363129201,0.6207552362147116,2.608808366452561,2.4051658289092095,6.393590753950631,0.9088621061961468
117,2.177823051867092,2.1392126026022176,-4.31703565446931,0.9230123190353856,0.913853275728147,0.8900960150041797,3.1272090008814595,5.844399574089763,2.4251325499900465,,0.6068309995095971,2.177814183816396,2.14552434339809,inf,0.913375120350391
118,2.6312297050128075,1.9306193104319131,-3.8661217567269346,0.07830835683644703,0.07364029434976986,0.5591690394629649,3.075305809794895,3.813121709598785,1.9429360544617684,6.128864717311175,0.6333676938231112,2.6292390206779204,1.9292596460010245,3.111396664350089,0.9018041571933039
119,2.112086614158006,1.455396135024094,0.6340378839803944,0.08467349851939515,0.06768142857496948,0.8261320676963444,1.9299738988034445,1.6894145303902692,1.551787409074336,0.9141702193626158,0.6425374456860184,2.109305279298336,1.449325943649995,0.7406895866325305,0.8892417297299408
120,2.004758222973729,2.098718432327483,0.9093783945589564,0.12667717881458568,0.1162934808510039,0.9097795008021538,2.6732710137290483,2.099748211600081,2.2521871250299847,0.7815993458546837,0.676637947632344,2.0042928414302494,2.1014497657442206,0.9149430227752872,0.8907959719291992
121,1.3796893731891715,0.9545483605900995,0.6191531509342645,0.2813089248064795,0.2704135435729096,0.6388626715566438,2.4265404190817748,1.9400585651040143,1.0544997082559142,0.8330172922402023,0.6380535849069913,1.3681052352530596,0.9280560899431833,0.6669962024255744,0.9404390497347901
122,2.2365185879078777,2.415802959451016,-4.042879116527978,0.2587590536734306,0.24992758238587034,0.6059034177021523,2.067071494171846,2.211892266727466,2.7528174429617325,4.805484181601853,0.6584896970785714,2.226447436013123,2.453685788448424,3.2309241633843753,0.9285668564181769
123,2.589976530227213,3.045571003654558,-5.635547533881771,0.06236667603779547,0.05290868582296316,0.7759746043908575,2.462999362844439,2.175703497808034,3.118368227703281,,0.6425374456860184,2.588786780275392,3.111667904288134,inf,0.9157463435443282
124,2.0986949718017502,1.9726771478035898,0.9349001835903206,0.43687299022501175,0.3656542648567365,0.8453534489730589,2.6712394564352593,3.1644244073384518,2.4866907511675236,1.1152076775010678,0.6447042257417027,2.0985564055395183,1.9772935740464184,0.9431535641808361,0.9397040844383956
125,2.421727280018628,1.7123819932362188,-0.21980182226453326,0.7643787290478679,0.7497346536051588,0.9277318353386698,2.9015247292835675,3.022414492877825,2.0498766140797837,6.229669416433141,0.6584896970785714,2.4214937619379393,1.7122848695295685,1.4016685283694785,0.928867154509114
126,2.414808879287647,3.1998606282812405,-5.6146695075688875,1.411439506421799,1.3844403919188022,0.9220591118378209,2.933097645537416,3.7796719007393556,3.286678595873829,,0.6284777104787076,2.4137649775168573,3.176688811832341,inf,0.909000870299257
127,2.208916068318614,1.412085963392237,1.382944274234609,1.3640442813215248,1.3492354871084518,0.9553849418973778,2.6025286083603483,2.652673478619799,1.4495927427616895,2.021969042535849,0.6403206450210053,2.2088923822039015,1.4187874520379784,1.3896444480051726,0.8928831510663545
128,2.567016701253077,2.0813358580797243,-4.6483525593328014,1.6482472275302305,1.6178573074912337,0.9289693853296894,3.224756488994247,4.7323803219392895,2.4423359241963642,,0.6619902821573977,2.5649604686343768,2.05138301795184,inf,0.9047502117694934
129,2.046561726230502,1.4113777032025832,1.0950822441415689,0.08929447972312814,0.08778502671549857,0.5259975977099749,2.4225078227290067,2.6158038379719137,1.7561801254380502,1.5586129337545984,0.62595550513784,2.046307692019359,1.4121657574625266,1.0863335867791153,0.9365333659887959
130,1.8894267336326955,2.4067325300144615,-4.219688210137017,0.11826719857387902,0.06842220782967712,0.45527790812278895,2.573372264438867,3.1211061426755675,2.6454092671675067,5.765778832171872,0.6068309995095971,1.8843865850033206,2.432268542229098,5.704615460960093,0.9487566359097166
131,1.6227779376599725,1.328764866508212,1.1150591598934625,0.3565789199424748,0.31294729815298145,0.7530795379584587,3.0672154480244913,2.909263885983355,1.6695158659038238,2.4467146348733353,0.6333676938231112,1.5977838632165824,1.3111592802650178,1.4060480898561232,0.957169385540422
132,1.6935650255764116,1.1601890855762407,0.21285542235336452,0.8309059144873034,0.8163585910738859,0.7495839546371134,3.9485237109158375,4.097447089209049,1.2837413656381815,1.1292099916936402,0.6425374456860184,1.6449499556576896,1.0721409900966694,0.9368504569982968,0.9309553272181302
133,1.7655473974085427,1.2846121468502893,-0.09551674702286572,0.9377043341750814,0.922083819529968,0.7208497078337358,3.584248732580623,2.8552213486027194,1.3832924794474584,1.1283065913798918,0.5947193981915972,1.6889020837883473,1.2070854128934532,0.9859374775890661,0.9445906572495282
134,1.7828874214779,1.5179800002804928,0.08430819641674692,1.2779472205437072,1.280624397669192,0.7436068323534637,4.100424958752167,3.875528123573914,1.6304000603906115,1.7248883270379232,0.6652988471865258,1.769802301876013,1.4538069301314354,1.4783166224449509,0.9236611410396449
135,1.496695772751165,1.0590234721311347,0.4508354190524311,1.3019621023821564,1.2793014140993442,0.7492713884647753,3.7620112065864677,2.5607476866264687,1.081357534755846,0.8219127365708009,0.6233814453054027,1.4838826894907549,0.9551587044252956,0.6772277034909451,0.8660674614482352
136,1.8084006474772794,1.5314665493650457,-0.3898217823839989,0.9434457308895811,0.9153577029560018,0.7708255671116298,4.106066081880956,3.3960990125674195,1.466348254413194,0.9375530279253363,0.6357360191111145,1.7950983704935697,1.330236515522147,0.8473821880846858,0.9092004456091641
137,2.0273965046892397,2.4529591902124177,-2.4081494730013575,1.428864271932415,1.4200664811909565,0.8279705872444711,4.853360083998764,4.645121355416584,2.6365971630284326,2.820613448158464,0.6333676938231112,2.0249533563957662,2.4053302512858887,2.2410828932362516,0.9091216049877776
138,1.8789086917595865,1.5397934035449383,-1.5053334545127686,1.518162353630411,1.5197309189262462,0.8163442304070734,3.047368500279405,1.977405171456919,0.9259781342380183,0.4670106522822336,0.6447042257417027,1.680993588911678,0.8254772387921628,0.40165765178158286,0.9466437406396168
139,1.3270820820073312,0.6932555809067693,-0.1984024425108133,0.9109115113051176,0.9059703001040491,0.5900456373456223,2.4898722246056466,2.3462705645569146,0.7693831028412388,0.6278106552798277,0.6357360191111145,1.136210319083428,0.605997371315379,0.46972451580968644,0.8995336568855904
140,1.7357982678276032,1.145942435795671,0.9775524108705596,0.48836489538768724,0.4683330554511313,0.6504888680743999,2.6347211220097804,2.9200162921714443,1.7647717140230108,3.143639818009866,0.6357360191111145,1.657461703675631,1.4267375512006903,1.3948278762714152,0.9526864218227772
141,1.2018769444932715,0.6880072769864662,0.6560121446922669,0.4957697280684838,0.47096758975169595,0.577610072152508,2.2875451864705556,2.157312236884612,0.8873855445512621,0.8198112387657029,0.6619902821573977,1.1979907326483885,0.6783829889695746,0.6420207723310264,0.9550367764777756
142,1.7550828120261948,1.4936525161842262,1.765308968388744,0.554764180255521,0.5392881581060637,0.7208909705469698,3.2005934061729073,2.8633987439582778,1.7470274341671195,2.1857140335127583,0.6153451465759925,1.7543352405820558,1.4955726935338736,1.734410051662953,0.9541430046588077
143,1.4641271747724516,1.2998893826046438,0.6892438067412727,0.3885402604128759,0.3699911313948737,0.6862355895739991,2.4801396833176628,1.580157999632934,1.3657178930943195,0.6772562828062132,0.6068309995095971,1.4583872708591585,1.2870187167868206,0.7127145414157974,0.9544184058886352
144,1.6508106446220723,0.9667060095055275,-0.2973819104064743,0.7877126619658148,0.7484046532539982,0.8622901763547911,2.9800134298282095,0.9315075802608797,0.7795176302198966,0.36363984158183305,0.6125606311107803,1.6133901567169748,0.7420098555851209,0.3831093962848228,0.9278173590861082
145,2.0617070650103066,1.6948734489097261,-1.241764465183882,1.45043839910067,1.435094718763672,0.8197507017794038,4.266074144174138,5.2630408963927415,1.9138776692621833,2.512536857301184,0.6468212168108125,2.0551175607113894,1.7283168029397231,2.1560704445261583,0.9438269536103518
146,2.1449011966988123,2.1086967818579283,-1.1947532676979593,1.484079683392924,1.469821768616575,0.721915110624224,4.657512486540225,4.3057808835803355,2.3587781743813623,2.38417752636916,0.6180765742263259,2.1403717657434367,2.0750111248557204,1.8498478067484343,0.8759026457604168
147,1.6298140784981914,1.5010470031292649,-0.7210976245445235,1.2963894870748154,1.2823397874741307,0.8102207118957782,2.8187986027117384,1.6809519391442729,1.0064877706549293,0.4505152422585295,0.6153451465759925,1.5046775768483065,0.882981377392418,0.4491720367274104,0.9134241116690506
148,1.3791418521998768,1.224949532206782,-0.6522694158215439,1.181424919384868,1.186047502260112,0.7173552266481922,2.619030828759217,1.31102114728695,0.6962408061774538,0.40073073013478816,0.6068309995095971,1.2529296490524668,0.6296301845020846,0.34739456840458666,0.9427869689042712
149,1.9130340614006132,1.5530401051671228,-0.3561610643632154,1.0446689128834334,1.018680530505231,0.8224404741807664,3.8834369082165345,3.335945199726438,1.8032046176769463,1.359800270816602,0.552929491858785,1.8785526881976944,1.5919947715992542,1.1525604268778102,0.9082246513907782
150,2.0905090913617355,2.2801538069547287,-2.6952777128439953,1.1526905383035762,1.1376711874758552,0.7999669090914054,4.770974498906691,5.636407575547167,2.5651511889440446,3.803464946550958,0.6547956803312163,2.081131858349366,2.2728473637693596,2.5427262206768266,0.9366350925864009
151,1.8649222033406256,1.7610717093103192,0.48612246024214434,1.2275701184934313,1.2114660160501685,0.7572248467457559,4.096798321971828,4.181292583803763,1.8053269806910177,2.0111898342709775,0.6380535849069913,1.8346669702393315,1.633739161116274,1.6738576052190868,0.8806289341304527
152,1.073970201390101,0.722599247262351,0.5796065600959093,0.2589220734535198,0.24980257861189875,0.5346521647021047,2.645832290043334,2.7352283566613806,0.8310142652418231,0.7701895497780992,0.6380535849069913,1.0598724603521792,0.6821449169810618,0.5929761297478744,0.9365763652590129
153,1.443236942710429,1.331143927284534,1.1519667245172163,0.3571786852606988,0.3418800359225479,0.7403242812281718,3.7289126577557794,3.47804987027381,1.471398802140066,1.2117320474409308,0.6333676938231112,1.4421359952360908,1.3324101971544835,1.1503369287671765,0.9461137951937312
154,1.6500424479247318,0.8806450052747528,0.4632429040535917,0.2009025163942163,0.18371169363685638,0.731632203322161,3.122592353161885,2.5638577802292155,1.0593716227469954,0.8172073881333746,0.6528756675646988,1.6466783653752963,0.8539512448779403,0.5191676950833861,0.9502845358970085
155,1.324929406375139,0.7749103749177353,0.5803634563015097,0.6086613911334203,0.5910837232715737,0.661668880494224,3.0567125595463307,2.784127878376674,0.8476095192823558,0.7661986642547027,0.6619902821573977,1.3127960986108476,0.7366121040311532,0.5587966634904933,0.9268866230640349
156,1.3344743987396288,0.9779816085966984,0.8074199876945767,0.6288856655302999,0.6193931452002103,0.3939505497242913,1.9422028552829742,1.90277284084609,1.1930148874176316,1.3634668699377033,0.6380535849069913,1.2524241370163485,1.010192659086923,1.0980786422495539,0.9420699014039046
157,1.3950351493173647,1.0875439475706203,0.8886462493590908,0.34076602459371574,0.31856910547745815,0.5193863656699481,3.5101624204798343,4.687854875527789,1.287781603548026,1.423542671196747,0.6584896970785714,1.3905255220921586,1.0762792923318594,0.9508607599454447,0.944400527262758
158,1.6459608131473287,1.1170479294051585,0.8442038105810372,0.5091791988199422,0.5012777365852864,0.6207484932185181,3.092006609109906,3.4848770234312663,1.1903646495912406,1.105126900710592,0.6468212168108125,1.6433969370256858,1.0911683697322792,0.9262667348008151,0.9295435864129971
159,1.3594927707996132,1.0978014880556966,1.0134933668941946,0.5762053042157935,0.5180308556842403,0.7068245008061632,3.719204479198818,4.2746387619811195,1.2879462332952571,1.6601914208307207,0.6153451465759925,1.3526446930160647,1.0911200134407604,0.9972135452171749,0.9418503138940308
160,1.4014499548090573,1.044013772790575,0.6808905214376537,0.6765619101864618,0.6558368086658206,0.7006965237743268,2.9953662551732605,2.1681920862023465,1.1405225688670049,0.8379609019643364,0.6333676938231112,1.3967488190237496,1.0200008641039686,0.6323833671533882,0.9404104463561695
161,1.326199662566387,0.9025637668321931,0.828668444018763,0.6259955604082847,0.6069252077858291,0.687055892568531,3.0324614959157152,2.4406514476663173,1.111685516894877,1.4456447584517587,0.648888643467878,1.3204233947485409,0.8795048341619933,0.7960262915606957,0.929273866163831
162,1.5624097395949028,1.0334680461321368,0.6703937106383693,0.8021992576317716,0.775223390489329,0.7681825038824445,3.136412306789035,2.021763566571875,1.1705766518627179,0.7985817604203562,0.6284777104787076,1.5602245573992752,1.0259030397461304,0.6896125671598012,0.9274145346123993
163,1.572450242635535,1.2130109463664749,0.7534715690991343,0.7869045874349958,0.7669418815903891,0.6034376943507305,3.5089273910120635,3.1935153542156858,1.3347603639954453,1.1104885004704812,0.6097226960127671,1.57117920031701,1.20390151324442,0.7344445449863536,0.9378943696032215
164,1.5124551883959358,0.8703217193443118,0.40935347002905464,0.14257358439717902,0.1365481304005152,0.783868410147292,3.3626004057201393,2.387979760931643,0.9493836562606164,0.5820752763074816,0.6858323589451731,1.5038274280210668,0.8417811550814104,0.43680603328859535,0.9361207019592434
165,1.744444792736236,0.9617356760506202,0.029460261806915522,0.4798065375664064,0.44727836212362426,0.8037726355717681,3.6356346805908717,3.6811050896445314,0.9079753400119961,0.651811510126625,0.6566669596287297,1.7357572791127702,0.7976395798356641,0.495317848569475,0.9313719736942937
166,1.584551323968625,0.9614653199447623,-0.21411508292937942,1.0983032127241112,1.0952730607233296,0.6964411019132599,3.0266875344053545,1.7560939150013901,0.820107465772238,0.4032564401238974,0.6619902821573977,1.4352978813814483,0.696513557406539,0.390727852473568,0.953589140466976
167,1.9950616752210335,1.8857113980715852,-0.6460343770622585,1.5022211633647813,1.472515578212656,0.8499798108029161,4.1831970891175345,4.384053663416925,1.998366975009943,2.2068735415671847,0.6357360191111145,1.9849397693568855,1.7781844183989508,1.3236724673059834,0.9002488596215131
168,1.8091295880378444,1.0502838043041074,-0.42279504755319675,1.2593533607638787,1.239469969329241,0.7336426987232034,2.8152392303821263,2.653956706266496,1.0775046336450935,1.0654566564107186,0.6333676938231112,1.4625996173299651,0.8655312298540532,0.7172586329787558,0.8870149188469083
169,1.387118387996078,1.0627957116171154,0.9062772758062638,1.0207884736635024,1.014812939747421,0.8269734506321959,3.4218416317341926,3.3621521848960843,1.1821777303761583,1.2671862653177701,0.62595550513784,1.3671891447141524,1.0039127426333587,0.9540608080386467,0.9422763405415332
170,1.7813193894370867,1.60107490956105,0.8832039174590913,0.7082347199730079,0.7040584290464311,0.6343715535200273,2.8475093035026173,2.5853256619952845,1.838523409401902,1.8745690423492496,0.6309483474627791,1.7622006669865107,1.6097615894073098,1.6123557293850619,0.943671117142381
171,1.1995566155576682,0.7579799161552767,0.6701179066060181,0.8081891072304189,0.7924140814227552,0.5282391811404326,3.248406502443602,3.459401997867453,0.8884840508943317,0.9090114548065642,0.648888643467878,1.186860794222175,0.7123354186081192,0.6269491849743037,0.9085654829410464
172,1.477622539970799,1.0865240481153764,0.6600983760430288,0.5527022252188336,0.5344423139934209,0.6439321961370544,3.006342412461613,2.2811570380850723,1.182844842844581,1.1880545354401952,0.6699045166045591,1.4585305818203038,1.0482127625768711,0.806748456845875,0.9409137914084651
173,1.2070917949179787,0.83761894737113,0.6141045108125516,0.8218637078346162,0.8143460917962699,0.6562738099268622,3.0661983657084466,2.505986452481898,0.9258239496487706,0.8423864303472411,0.6425374456860184,1.18609650470123,0.7320579770317723,0.6046617411282181,0.9181177021508828
174,1.1800221368619754,0.8430858701426132,0.5006727467690641,1.262578049222439,1.235090167723472,0.6681022891628768,2.5875570294739374,2.0418775457262957,0.8066347852707063,0.8248458356921716,0.6380535849069913,1.0900490580076219,0.5684623920757162,0.4907804734975785,0.8489777050947002
175,1.329165019856398,1.1060328120982796,0.7760713386897957,0.9601978982173335,0.9452658177353824,0.5869831822071838,3.12413626975486,3.042906748705625,1.2069306273749643,1.289758899386077,0.6309483474627791,1.2812138846693832,1.0192623224773107,1.0163800260817106,0.9387824912918653
176,1.2903666940221143,0.9978309889014374,0.37741338505255184,0.8281001240070351,0.8036090652177458,0.7892040210907608,3.3489895053664327,2.621983469411548,0.9803331123659348,0.886404525710118,0.6284777104787076,1.2452192716380706,0.8466547900903229,0.6589096819607178,0.9235037412356489
177,1.821682716094891,1.4604154194375334,0.09722479357279479,0.983889728623925,0.9481136363739714,0.767214589486458,3.600368302950212,3.2134596992575633,1.5758253512353444,1.2658458335742488,0.6207552362147116,1.7979116887132531,1.3852216873779912,1.0180542817489056,0.9140594632595908
178,1.641412046687018,1.3941476399465256,0.16887816024178015,0.9157419462430734,0.9302359521567551,0.7801582210017073,3.307789540389275,2.515368278856117,1.557254474008878,1.2369363508483135,0.6403206450210053,1.6106608821790576,1.2775132921736199,0.7619120083755456,0.8952355810045577
179,1.317553144586131,0.8382696949124033,0.5207067421486009,0.4989130566213893,0.48666722454286016,0.5654407081982898,2.7051773659905667,2.5423160415609907,1.0921906664894485,1.1208770449819783,0.6008849035917525,1.1918978527241058,0.8827551722239331,0.7803515891108347,0.9320351154814178
180,1.5681872198893059,1.2597420009955185,0.1571218099189169,0.5610290199142471,0.5453648889877154,0.467349072459131,2.3960598167392733,1.9606343277465665,1.5152409804114877,1.2662363895370448,0.6727386042041725,1.3872281302799818,1.273302554854252,0.9584081985531367,0.8910572582419626
181,1.7119106954277088,1.3467355317320466,1.0980563621668624,1.2978996240014655,1.306130967536095,0.7841556754132346,4.310449125360631,4.908197188033144,1.469251665953837,1.953501711058644,0.581717464821069,1.7061323832606181,1.3064070086097543,1.2043495231098222,0.9289121421326973
182,1.8627417441319343,1.629760519070104,0.19515245387763303,1.329104776396505,1.3017503903695928,0.8744587468343152,4.3776204816817685,4.861118856529634,1.806020335012858,2.1732825971311494,0.6468212168108125,1.8542024098512737,1.5968857414243465,1.5934486944963167,0.9190157202495706
183,1.7843867622877425,1.6486118574112953,-0.6711956894382043,1.0443551842581094,1.0322591723229952,0.8343134508237058,3.9779897898788006,3.9789980185477836,1.7320363138372434,1.120565237881954,0.6357360191111145,1.7582602206876514,1.540380572649412,0.9319053900654388,0.9044744916453866
184,1.5514469266875899,1.1994147084818294,0.13272178156835412,0.8388228633979955,0.8367711196499935,0.8127340239033876,3.6994724703057225,3.4279424779815404,1.2048562888632164,1.0518198098972085,0.6309483474627791,1.482120229424232,1.0030531225923127,0.6181441322173836,0.9218352398874495
185,1.3982984090887856,0.8662407702092985,0.13042329317294188,0.9260504429022526,0.8996465355812248,0.749580643683015,3.102722662450056,2.8067356992681773,0.8801755984125108,0.6275795783556265,0.6207552362147116,1.3565198324186596,0.754710551750699,0.42132707909464767,0.932026374297075
186,1.1896631045329384,0.8650316891021157,0.7431235625343531,0.6051310497406227,0.5853663873626125,0.672835521822247,2.3912716086630326,1.9135295582264744,1.2241486469446594,1.2884980155621484,0.6125606311107803,1.142181107814903,0.8415462952589123,1.014229565502287,0.9331472051699772
187,1.6463609031976163,1.7471637975757157,-2.7206392307356926,0.2904085951038072,0.28797056886508726,0.42193528453673307,1.7645181650285195,2.0620927406292875,2.0409592294766004,4.520292231153504,0.6425374456860184,1.6140596875125042,1.8876949491409662,3.6153508715105405,0.9519784904352666
188,1.0797815739945789,1.0228006735073072,0.8638231172085029,0.1330423204975338,0.11983573891529047,0.2134197350163837,1.5184397087093235,1.5620066090156774,1.361772405802168,1.2654295972156542,0.6207552362147116,1.0482994747945207,1.0762324171482582,0.9117909214376902,0.9665665067183111
189,0.9856317673398447,0.9699635146012007,0.8004477454253096,0.23173705308824025,0.21011760518440376,0.3531236882114942,2.0698506440823716,2.3103943393317383,1.2328719353100261,1.3621396364849385,0.6153451465759925,0.9695450120656514,0.9797263350477838,0.8832089323669519,0.9633081278873378
190,1.5966074204798058,1.3052747413477106,1.7630481894673116,0.3888840258453019,0.36534384190363184,0.7406619197758129,3.4786714492177415,5.429760842025512,1.5989325087988753,1.8270926771640432,0.6333676938231112,1.5812824676852455,1.3120937992312178,2.006910970010927,0.9363078522027644
191,1.8333121184767542,1.6241148550402984,0.44567404165642976,1.0219640974559376,1.0046053171100475,0.7705270706465226,4.632661981732969,5.417898103558975,1.848024106150654,2.13865934130028,0.6528756675646988,1.8240072167781756,1.6008000305231134,1.3666925168782957,0.9419924413163588
192,1.74714825936295,0.7497245226775218,-1.1095847366383231,1.0037534270329536,0.9408436035070372,0.6152448023128247,2.5237995983047528,1.985831445310073,0.7290651827653585,0.46673154302052555,0.6547956803312163,1.3205898533423501,0.598170001091698,0.37200646731053555,0.9391815371475324
193,1.0236200377602587,0.6714643874491806,0.4006119497935057,0.7826243158999356,0.7875970837708643,0.4980932704498817,2.2774145437747224,1.6664077898387437,0.5993733258391906,0.4311046877026219,0.6233814453054027,0.9323072023829284,0.4993565138843003,0.31767503707687417,0.9370459618008014
194,1.6015386818333033,1.1966312593708421,1.0920029949303705,0.2415578128774342,0.22167868985951775,0.6774864317786974,3.095295029395799,2.4011808056107498,1.3845162353237341,1.5344809732090872,0.6668815377411301,1.597893692980559,1.1855987032885098,1.0598340778728426,0.94940815679733
195,1.2852516520098891,0.9032763463270215,0.2936168863547395,0.7640981560269936,0.7632273258812565,0.5596791776391181,3.6053152497347836,3.24944212125156,1.0216288478058717,1.0007549759150545,0.6468212168108125,1.2580770633191367,0.8042670318232644,0.5604462620089854,0.9369973475184109
196,1.466095743539128,1.1643084806368746,0.10458346246136063,1.153318038777334,1.1318003379045602,0.6410258316932208,3.39982588227655,3.0782218852527365,1.06713963950819,0.8609801530574186,0.675384900321601,1.4220827492236467,0.8855148855939433,0.5761958077184522,0.9467882808269223
197,1.4798584689141794,1.4888249988698703,0.8545870862850808,0.7942419720165843,0.7880092171577836,0.40767850876646117,3.4391553241669417,4.0874701022942155,1.6920639815988419,3.3380305962238204,0.6380535849069913,1.4514375094520948,1.4387342684414037,1.2436068535740092,0.941228171966169
198,2.4128497399810254,2.186624789608664,-4.336477836804603,0.122888179777612,0.09682235132273431,0.5558349984949279,3.0802820569481635,5.400254521710045,2.1976376796797594,4.299614639167621,0.6097226960127671,2.412028004375428,2.186497638893995,4.036450583803198,0.9390490351822725
199,1.0988575825919507,0.7198066385944042,0.7528294057546956,0.2534680367230719,0.2414991423815727,0.5586779454833388,2.6679737524119553,2.5381441472304647,0.8537423279813708,1.0827548260117583,0.648888643467878,1.0878372155001512,0.6964833246309053,0.7730134435925299,0.9500555565769565
200,0.9199692268719201,0.7464198920982424,0.7762984231131809,0.24951709126596466,0.2481549839224337,0.25298875487537664,1.9842792889719931,1.9389158187711908,0.889968548674645,1.057878689293149,0.6425374456860184,0.8841731779840463,0.7329609410845245,0.857558208312458,0.9504768353160183
201,1.0784309229791917,0.9077539616541717,0.9776129257810571,0.11826719857387902,0.11531653058667461,0.43522826930562947,2.10234076769439,2.7850483251383182,1.0038802339513733,1.2332573916780771,0.6207552362147116,1.0687946202589276,0.8945443092311799,1.0013254329879122,0.963178031950886
202,0.6764885901119525,0.5510067688785455,0.39174542333526174,0.14696382737077213,0.14543421296712566,0.27563109978312766,1.707446748178118,1.6414029687221725,0.7871887237879074,0.9301439627728934,0.6233814453054027,0.6526025578370241,0.5214159812809149,0.4619915289191605,0.9510233149703881
203,0.9275978803240587,0.5645301850194778,0.22612536734916966,0.1963043554646035,0.1846705146088396,0.4779447431375409,2.4265446759644167,2.0644462143996085,0.5844451858628691,0.3145663586847538,0.6153451465759925,0.9072208765346151,0.5336470068437746,0.25388587457459266,0.952592578547399
204,1.0570570959947483,0.6229405321677104,-0.3293279518286112,0.7536140516363771,0.7247112318128726,0.7148825580662488,2.205688053359163,1.5432761291977348,0.3303642810609931,0.17228020172301756,0.6403206450210053,0.9616077676758219,0.30266563689313525,0.15725673123975153,0.8869186099772297
205,1.290033474912834,0.9235932971371346,0.4796532079980027,0.8843037169750411,0.8742450718489665,0.7718708466005869,2.9804589153291583,2.8108285091132292,0.8809307243298083,0.669077641199144,0.6403206450210053,1.2338594380761354,0.7989530030096972,0.5021251423077328,0.9304511938437766
206,1.587867649877566,1.2150109993095126,0.759700024320106,0.8766637413161393,0.8586212154220918,0.8641289807330363,3.9459293272486535,3.032842354039436,1.3375638507833782,0.9257554949569465,0.6233814453054027,1.586535519216796,1.2112570573862755,0.7442006150245402,0.9010761972572897
207,1.2177472582119524,1.3632220991209119,1.6756821533487178,0.8938557965874375,0.8871218923474157,0.5065936112579745,2.6157595991417693,4.688774660296978,1.6735191989333051,2.194348500004059,0.6357360191111145,1.2145844649205304,1.3608305783889727,1.5879223903995492,0.9533183481368092
208,1.6106287172965734,1.4358431305188475,0.9841842509547138,0.3429469286447627,0.33006347700022237,0.5775604829232215,2.9384670112195175,3.4494763792790724,1.520356811455495,1.2450400383073466,0.6447042257417027,1.609493469532923,1.428682483131636,1.118044013275629,0.9549704510580369
209,1.7742404665877598,1.8641719541725932,1.022279852535362,0.5422644738573604,0.5208740443714593,0.6078014817374484,4.068628960392796,5.53799410996046,2.1181728976759677,1.2732489350289609,0.6284777104787076,1.7722836927273982,1.8528909209975442,1.4455646044410186,0.9410829283213873
210,1.5941606186845017,1.2123815944575467,1.2729786305954507,0.8499897909133429,0.8032951670603805,0.7861828773773678,3.75807811270448,4.28534749606813,1.426298043069733,1.8117709056593259,0.6284777104787076,1.59367393058803,1.2121728722384466,1.247995816086294,0.9396708608632218
211,1.5604922833529187,1.233951977323734,0.30587490029266196,1.079108424425378,1.069003718788441,0.7776669263160412,3.924189343751213,4.1481314283447315,1.4009971508858843,1.200722245014945,0.6357360191111145,1.5354648700179068,1.1158899874077581,0.8163385155248548,0.9384705215682446
212,1.689092140611377,0.9285238112711103,-0.16621115633666506,1.144873005675547,1.1424414383332135,0.7738716299931776,3.4143912559521796,2.302781957309577,1.278311251575443,1.1220511090120286,0.6038851895711802,1.588328949223865,1.10171762743877,0.8807535893857001,0.9386716191491669
213,1.5988340477770089,1.1745845032100826,0.7969703343941901,0.9301694336860292,0.9227037889965526,0.8089220465579685,3.7504186596619946,3.5008534977269976,1.225138400682572,1.6337321469178392,0.6207552362147116,1.5683492867964144,1.0745375883993824,1.115938285160363,0.9011043930725624
214,1.3880012837650106,0.9956303877757611,0.6759169531458378,0.8455431001460441,0.8305800253094632,0.7324437463114225,3.875790940748239,3.1848779380009087,1.2689759149632531,1.4880492250994413,0.6097226960127671,1.3509701182457325,1.0259793900371754,0.8533805555193015,0.918829599312659
215,1.4369656732358935,1.102214656893341,1.053938459875444,0.43315569796103637,0.3961771155596812,0.6659357222911494,3.2874478691644207,3.4389875999018718,1.2486403951183482,1.328496288149163,0.6125606311107803,1.429341050662257,1.0891913267754036,1.1028961340916696,0.9056545912708238
216,1.3470874602297618,0.7724310327585167,0.2832812326720666,0.5064985670498988,0.4811061636102115,0.6599873900594424,3.09783234122241,2.5783811841302002,0.7845318343051487,0.6250241941629752,0.6125606311107803,1.3061696055303251,0.6707955756715475,0.4431529786933491,0.9422670175968565
217,1.3428496122429818,0.37108531107403797,0.22766798381010278,0.775788485598194,0.7537362554912104,0.5715908720318592,2.4828218111056475,2.2709884237866964,0.8192606489161971,0.7869761753945994,0.5604843169999094,1.1278694697352274,0.6340723310836454,0.49641377652157775,0.9455842151568944
218,1.628040059648674,1.354213179643747,-0.05812319758303319,0.9879843401513999,0.9800306471945983,0.7589760697461568,3.7987721858231036,2.478724084202401,1.3663051235446444,0.9921371174306429,0.6547956803312163,1.5938380039838973,1.2046841002823885,0.6508156527238046,0.9050927919650003
219,1.7496880232821097,1.619737843669421,0.6307869845374379,0.751548313338207,0.7033732854287182,0.6652055456075631,3.947324481959013,4.26589808898815,1.8472714863900348,2.598803583882631,0.5978297680564633,1.7331761451291576,1.5733173010637003,1.0202036064287623,0.943180316091144
220,2.380179077795667,-2.253106576264114,-0.12707250153155264,0.20817067060929573,0.1878620960639285,0.8154117750391743,4.092794778465148,2.22200697361329,5.803384764842382,,0.5978297680564633,2.3786265570707905,5.733101526237283,inf,0.8896230197915885
221,2.1244191078774874,1.7933971331912208,-3.9010244749413747,0.06236667603779547,0.0479522222006289,0.719448963334598,3.783967529313678,8.302868063942391,1.9828145034444473,7.2876771255182575,0.6380535849069913,2.123695344048104,1.8262603155486923,6.7644621091556605,0.9453732803069308
222,2.2357064652302254,1.8591213591510254,0.7406910349149456,0.15992484896680825,0.1514755423030599,0.6552408944351458,4.340975100591257,7.440681870362893,2.3824277957679736,1.12765078867219,0.6822068148872973,2.2351341504094395,1.8882959927077578,0.9437755024674528,0.9477805247553099
223,1.9427563682702491,1.6974187737740465,1.8429905235596733,0.2286284036166141,0.22445224420628687,0.602419205193625,3.513388937630038,3.041845895110521,1.7288516143658081,2.0762563100167166,0.6333676938231112,1.9401048104670784,1.7164150208735218,2.024197370384605,0.9526983778845568
224,2.104946167867606,1.728044163082517,1.1077685356010827,0.19368247163291621,0.16834365585277067,0.8226808896094066,3.3851504563706016,2.7955035934218198,2.099436892219954,4.6295213520495775,0.6180765742263259,2.1002793712797403,1.7144152901878438,1.3332888237798952,0.9164436371749316
225,1.7318070743619547,1.3500322967884397,0.8116585537153056,1.6096558867597828,1.5949752451953503,0.955492402913761,2.8443304789678088,1.8268389764265227,1.5008579559151836,1.1614517830808877,0.6602640781246099,1.7315427737395073,1.3516858428659948,0.8084472474917743,0.9185186579182916
226,1.9699266563508855,1.692566787612155,0.6931390274420326,1.5920856375376058,1.5597530927606902,0.8665904417928398,2.021263372817604,1.8758835814591492,1.819018918290189,0.8099308882236674,0.6447042257417027,1.9695313913234382,1.6882801517145267,0.6961676790807604,0.9221704998873836
227,1.7209886439450508,1.0228390233343485,1.0172431919364544,1.5017313352827522,1.4945442638103654,0.8639818807783282,1.7922628190803471,1.9354308813311691,1.1493705113521115,1.4175925269744831,0.62595550513784,1.7206177969569119,1.0280808026231072,1.0120349583019008,0.9076410797290392
228,1.6992388611261393,1.2875806856664227,1.1417574271787787,0.08467349851939517,0.0765920490018656,0.6193521099561149,2.350224430391262,2.3900477703157885,1.7836857389371954,1.1162227043981618,0.6008849035917525,1.6985727545019376,1.2933888591558604,1.1445947973736121,0.9623601184047482
229,2.3140496077075685,2.623438876512858,-4.846551661833154,0.08467349851939515,0.07161062229512524,0.9149219026387903,2.58233371425771,1.6225366616091028,2.753421908137977,5.229741789059386,0.6713451011121618,2.312410987145337,2.6044304276645582,4.544813385447194,0.9487467907069658
230,1.5420004453754945,0.9227380706216839,0.5064121005118882,0.8798408936838045,0.8536888228590751,0.7919805335831714,3.655629482362835,4.428937134158559,0.9702295424781499,0.6784464217039711,0.6333676938231112,1.5288825156952452,0.848426123494737,0.48447566185427,0.9183451817247406
231,2.0846054466385313,1.9009783026880034,-0.12055566050455013,1.0115179663494365,0.9978669823304595,0.8001587077882462,3.9208770682839713,3.31972788735662,2.179013226247137,1.7090543188850835,0.6357360191111145,2.0680401189553934,1.839548289404887,1.5160402602649314,0.9032352713151416
232,2.1932598830540697,-0.45740375711468384,-1.5363899494815807,0.7116985868940193,0.655945522207789,0.5377116004757815,3.8047001876297,3.698910675558155,4.09757915499673,3.36059565621591,0.6097226960127671,2.1442526925701135,3.8516662048872488,3.109060958860994,0.937588031998331
233,1.9040240078624273,1.6775299270531447,0.8520614587497413,0.21391055692706326,0.15923781412047075,0.6854435630148259,3.193466177523895,2.672886211299626,1.876674069649835,1.3005200027539208,0.6619902821573977,1.890843427451954,1.7665373596026113,1.0768861944901829,0.9475668804237731
234,2.045492567393117,2.1264666465743502,-3.955536660856202,0.29506657287888677,0.2750916270632664,0.8237369089811069,4.376174753362898,7.855059824325537,2.548556121429549,4.857532127289259,0.6740851607140061,2.042188575236687,2.153081905575374,4.321922710604176,0.9342423038471834
235,2.141620328088377,1.3699529714318812,0.36371188249779784,0.30482969529774284,0.27916892737653426,0.6833879632289078,3.3638807279901424,8.45208500428349,1.7846112776766396,1.1345698791912795,0.6333676938231112,2.136411737939707,1.396414086200885,0.7854959701442961,0.9473306417501942
236,2.2330258862374808,2.713815553991013,-4.946841440228494,0.08467349851939517,0.07577914629888513,0.6867640684124494,4.118087423836026,6.798904433868868,3.3965942686719863,,0.648888643467878,2.2328517549793707,2.6992804776289416,inf,0.9192708089750844
237,1.6781211997543457,1.1587421017944555,0.7136521894686227,0.1740656785227582,0.16220964122611223,0.8319732830697555,2.8835822936252162,3.2505359810372223,1.4079859740077627,1.2547761099612014,0.6602640781246099,1.6761120457020933,1.1531646128342607,0.7630812285869606,0.9460161086277016
238,2.2402746924461794,2.3541547457492755,-4.233517931272493,0.27866284231210153,0.2555454352700295,0.7290525222187919,4.071745811495835,7.078442498544573,2.4723254589769885,4.3840384015053395,0.6233814453054027,2.2352380195344357,2.338218190964128,3.8383764652598473,0.9560564610844455
239,2.038154151289324,1.8399841559291605,-3.8399027804634147,0.14228428290499973,0.11381912927046488,0.8964345210890519,3.727606874632754,8.488983167110025,2.3944620086327433,,0.6357360191111145,2.037574759806682,1.8432726281530145,6.833570380792761,0.9336711967697319
240,2.2538150920193827,2.550070711459436,-4.803885803478819,1.6634089938949628,1.6336284057884949,0.9031654166299945,4.78219133875698,71.41059745664634,3.443415557807826,,0.581717464821069,2.253689114317346,2.536472857020579,inf,0.8535535535124693
241,2.0360011938625058,1.718532230472868,0.8439477735019207,1.671222136538751,1.6321375500146296,0.9521876153024869,3.907197351819704,7.9303047108078,1.874959818206475,1.7861772385588324,0.5947193981915972,2.035956429740097,1.7252547971263053,0.8506479472724855,0.8739475640802283
242,2.064120585219817,1.5573280397774036,0.9770325728400739,1.6456449068316397,1.5930424103251106,0.927123259949638,4.442014236701898,13.760418820771633,1.5699533449628236,0.9644345881414348,0.6425374456860184,2.0640932647330366,1.564004717121041,0.9837611922848105,0.8730101966109296
243,2.0570183097339965,1.524201889084292,2.115873287687116,1.7101950561652484,1.6805682886907067,0.8447835162345244,4.297963734224088,3.815860655509895,2.034064629067423,,0.6097226960127671,2.0569410318891634,1.5277786271434657,2.1257518037743686,0.8904626981397419
244,2.045264678511817,3.0199871641985183,-5.065251842710335,1.620738793991488,1.601250273616081,0.8980924694320147,5.0405305313796624,76.58573071746116,3.1881802344123105,,0.5677978065141052,2.0451904214807213,3.011488811116941,inf,0.8749611756498127
245,1.9702116285991254,2.565215238706621,-4.368018991408334,0.2424924377447815,0.22494941193618462,0.7910178566010687,3.9021880021314423,7.2576504569832885,2.9855562960452366,4.829581733180914,0.6566669596287297,1.969611031350558,2.555516446963997,4.3975308212098465,0.9334409703930611
246,2.41517901756947,2.206362900199404,-4.621541917768874,0.2205191014544508,0.19948286275575197,0.8467278079000085,4.206503351383142,7.217981451289813,2.2853971473476435,,0.5883313578629602,2.4147588898859187,2.264177446341782,inf,0.9442957809008434
247,2.402947862227129,3.2859046211876386,-5.688852483414768,0.122888179777612,0.11661846483045675,0.5435442506164524,4.023524740129178,5.197200862834343,5.066533303534949,,0.6097226960127671,2.402528210522098,3.2880090373840822,inf,0.9622305099619262
248,2.4670577270917224,3.2177265445360073,-5.665666508250195,0.11826719857387902,0.0978005937959013,0.8309016494267868,4.158805776486587,7.937267069372648,3.2115442138797525,5.716884928181817,0.6652988471865258,2.4657578309492396,3.2149593707759654,5.726847747587197,0.9432661704194021
249,2.1004209119131487,2.5091528731873303,1.0492841746498547,0.08467349851939515,0.06705795544127455,0.8910934063935224,4.165026377262928,10.6983779051859,2.5119082771683425,1.1055177669533243,0.6068309995095971,2.10000712662086,2.5140916901115324,1.1031066782559489,0.9444524363415616
250,2.3865258774759766,2.1772696105726257,1.0568269449466623,0.11159004092204497,0.08229366347814697,0.9173032821578642,3.5956170489262735,7.938171676494678,2.760015456564646,0.9607828372882679,0.5783247308855777,2.3851216484633597,2.240251244842251,1.0986122886681098,0.9044748530686451
251,2.063205064801959,1.5261107139708674,0.9258609482465823,0.08467349851939517,0.07997578483321172,0.6739709177772424,3.5047615133626233,2.869067168507488,1.8461982773060401,1.091354545883937,0.6068309995095971,2.0630433958701997,1.5459984998169962,0.9473381261314634,0.950195245790357
252,2.2352494107706398,1.856180104204609,0.8495423432975002,0.12463234025682715,0.10601551591992787,0.7511061847409041,3.4335758951165154,2.0680250368161994,1.8531994982693356,0.9274271406804471,0.585052858160615,2.2351341504094395,1.8525658690939926,0.9212699952737624,0.9121179436080289
253,1.5858247256958096,1.1065177534782735,1.054837626360393,0.1740656785227582,0.14242929439320742,0.4557779164771223,2.8482038860103254,2.549344138640504,1.3768036172122466,1.1483590019743999,0.6380535849069913,1.584203441255559,1.1032274726439155,1.0647433905867756,0.9301906096913559
254,1.839473295304222,1.344264402627638,0.5236514922853992,0.17755399948118852,0.15884477559979426,0.8625969453580444,2.992788944066733,2.785228119937976,1.480004844250639,1.29247996673334,0.6207552362147116,1.8372450993891865,1.3601954447589493,0.5982820055838496,0.9543696430241728
255,2.093511590437485,2.507357546885588,1.0962243491823314,0.27261283805526265,0.24620181533199426,0.9289968963832964,3.606508332560962,11.539709973199606,3.6069481818169438,,0.5883313578629602,2.0934953915737426,2.51389948943646,1.1030765817967951,0.9287192184593777
256,2.56721930772655,1.7454373055388,1.3797848787396516,0.11076939664562824,0.10158875010299916,0.7773099562212212,3.6226110782217877,2.2877007217773095,1.747019702224963,1.3829442742346088,0.6097226960127671,2.567129510045833,1.7520266605911745,1.3846263040191935,0.9242570180348193
257,1.989883936670448,2.2326715326693343,1.319319179233566,0.1506828865593423,0.14813401144237462,0.5033882716200052,3.663070526736773,3.8316329942175242,2.2670241274337735,1.357752445434278,0.6153451465759925,1.988666884350428,2.211038193529499,1.2862814517886596,0.9539961943700772
258,2.4406720450974904,2.811365825289827,-5.156449053499643,0.11539037784936122,0.10273230839911812,0.7906341441496597,2.9229583281316645,2.262394993706415,3.5462546452988524,5.4094002284338565,0.6380535849069913,2.4385320992781003,2.824847215908656,4.534747721691546,0.9437130733672527
259,1.8455118039124674,1.5583310279935638,0.5043870926160885,0.26317147559081755,0.24910005005872127,0.6574279325290382,3.2494536169487747,2.40170242893176,1.5719820801660729,0.739118291140591,0.62595550513784,1.841720318381827,1.544588450786578,0.6823680463051182,0.9419507699147093
260,2.2698970110519676,2.58566313710391,0.5356491243089669,0.2286284036166141,0.21498725405659608,0.8198896836182684,3.5958412716501162,5.7744179746882445,2.7349146264385347,0.837269896523965,0.6380535849069913,2.269042865126692,2.677053907831993,0.819561105415604,0.930549182668922
261,2.222686809751682,-2.211322734566409,-0.011364075185273046,0.04466961139416602,0.031215370965539023,0.8654374485647474,4.003920833899551,4.509880736205459,6.982247753307716,,0.6097226960127671,2.221414816137437,6.88356504018092,inf,0.8922119916371778
262,2.3715779644809976,-2.3715779644809976,0.0,1.5804936064201285,1.5470389611719217,0.9507621341511586,3.8564969968781235,52.70144649926835,,,0.6619902821573977,2.371577964480997,inf,,0.896170498358943
263,2.7480589707244993,2.9523846026661875,-5.700443573390687,1.5948734441471812,1.5751580232668536,0.9106809827628682,4.187954459330446,18.897608782011638,2.9526125022766316,,0.6547956803312163,2.747831071114055,2.959290304807661,inf,0.9033131171497127
264,2.762694475441062,-2.762694475441062,0.0,1.5399409025153141,1.5012711767598776,0.9125311765722116,3.70615164882034,8.225344086811377,,,0.6584896970785714,2.7602210734311194,inf,,0.9269185566456988
265,2.6575543030261652,3.0220253084078683,-5.679579611434034,1.4610541451500774,1.4338084277584828,0.9468444490728564,3.198110274140601,18.442634937470366,3.042928045662524,,0.62595550513784,2.6575155277281626,3.0199496386106652,inf,0.9250684830357837
266,2.43288383282396,2.1960688638122075,1.0681407898692372,1.5727249783800403,1.5436206054879418,0.9205993119299448,3.601557511637241,5.921466265490835,2.1928272775039153,1.6038799432423136,0.6125606311107803,2.4326937783410663,2.198364178599153,1.0794135058667786,0.9150524220673516
267,2.586047084443219,2.0324962918055545,-4.465601269228494,1.5499765356520057,1.5393130058382762,0.878792573878949,3.1878120451696925,3.5135019375727032,2.057107555725082,,0.5947193981915972,2.58568508662856,2.0340348803742625,4.708403440629744,0.9082229370039552
268,2.45000021508158,2.5572961777491616,-5.0072963928307415,1.3667706770901287,1.3404496172044154,0.9238398095655903,3.3052945893923305,5.5727514530963145,2.6392266567357034,,0.6333676938231112,2.449925680892755,2.5640485144690155,inf,0.9186770681240457
269,2.6139805550481494,2.393315837782592,-5.0072963928307415,1.6428123157127805,1.6168632323714054,0.8913233354181171,3.068823943924288,5.288450377001087,2.3933435151076465,,0.648888643467878,2.6139528777230945,2.400021317638676,inf,0.9261447926158622
270,2.2823647022532008,2.319466582469377,-4.601831284722578,1.4650968404447025,1.4449285922658521,0.9065203649536522,3.014720097745544,9.118409277846311,2.4315405872516824,,0.6333676938231112,2.282237951663176,2.3262711355904298,inf,0.9240423134100506
271,2.1840965930186043,2.2956751775199633,-1.4302336191337863,0.10234807851457901,0.08526591694560891,0.7290994086148924,3.064885555299094,2.820769086063565,3.446912995058127,3.9729814801313967,0.6357360191111145,2.18253302859323,2.2742171522765884,1.8388269800860408,0.952142854150879
272,2.07285492226276,1.228846352304434,0.804388231464809,1.2765400982433768,1.2438142730511628,0.9554253263910483,2.1931065026685888,1.8057670593468473,1.4786045132437962,0.7735292429464455,0.6068309995095971,2.072179088361995,1.2321941086646204,0.803394385527626,0.9071465308797358
273,1.9767068567678037,1.596640636684443,1.7822878531777575,0.06698765724152846,0.06520845904340872,0.5765304023208222,2.709269553976005,3.115685149325684,1.7862044513205524,1.9382475113028488,0.6068309995095971,1.9760028715847082,1.6163550155386062,1.6927142526747017,0.9501909102997935
274,2.109319558582357,2.268056260966375,-4.1968627959423355,0.1645458301705412,0.13393917741993794,0.712039191433601,2.4801065155588486,3.9541121693232895,2.4646083697340044,4.6247873205349,0.6097226960127671,2.107566705405684,2.2594618536907625,4.332486189113745,0.9094429420328165
275,1.4133495608209776,1.063292666886,0.808329360463039,0.11826719857387902,0.11035892279025811,0.49157728993409844,3.11785422803711,2.6082056474542545,1.2122185937610337,2.1777931939520525,0.6333676938231112,1.4125014532890647,1.0672186698116355,0.8210287872646495,0.9417563711502214
276,2.5882596040070847,3.071724527147459,-5.547603548139535,0.106969059718312,0.08851809892232866,0.8694964252019151,6.964186894309944,10.435976311319369,3.093562164114585,4.614999314168738,0.5947193981915972,2.587013206059376,3.080758831073792,3.793882763123921,0.9080159188125355
277,2.272696640880196,3.389616875163396,-5.662313516043592,0.10696905971831198,0.07644059171890341,0.9435320567244374,5.098954273983935,98.90994748617818,8.029895607176282,,0.6233814453054027,2.27237925093698,3.4414535595727225,inf,0.890396311841431
278,2.5064062335686677,-2.5064062335686677,0.0,1.6972016608756992,1.6724594713537253,0.9298702382502596,4.953089446305556,278.5499958096335,,,0.5947193981915972,2.5061983852556224,inf,,0.8851551509744724
279,2.75934349548976,-2.75934349548976,0.0,1.6807914398971961,1.6302540080930588,0.9228332566310541,5.016520860015246,11.335340685920809,,,0.6425374456860184,2.7593434954897607,inf,,0.8993527876271071
280,2.6813782446895873,-2.6813782446895873,0.0,1.6066411203765392,1.55674564444176,0.9668175567467125,4.544671934511977,40.55369321674327,,,0.648888643467878,2.6810837528723956,inf,,0.9041503669262421
281,3.0647251450409425,-3.0647251450409425,0.0,1.596218588957139,1.5746460820578903,0.9455015349272927,4.1775396858147475,63.18762473884218,,,0.6233814453054027,3.0647251450409425,inf,,0.8970876981825266
282,2.774121869303636,-2.774121869303636,0.0,1.4271262526582225,1.3937889525746796,0.9637541097497998,4.7449221083173185,52.41659171353264,,,0.6380535849069913,2.7738339416482134,inf,,0.9117489782536325
283,2.63770124809657,-2.624018954916113,-0.01368229318045681,0.08467349851939517,0.0511830078803571,0.7064382787727241,4.250339872913563,11.960926051351347,7.154323371581762,,0.6233814453054027,2.637125862765511,7.161001174112791,inf,0.9016658534997803
284,2.1406428055985276,2.4614081013130718,0.3342185491485994,0.10060391803536387,0.093586833002464,0.638709238144033,4.23967517115733,6.081258472711496,2.6077789573859107,0.9672797373955874,0.62595550513784,2.1389556692122436,2.4673262456285383,0.439980556898625,0.9567391969152164
285,2.0457547642755656,1.589382625980563,1.316167965677161,0.10060391803536387,0.07902977399693539,0.7812255680191966,3.362286830399401,6.4625282889234,2.5488882224136034,1.1428569165127942,0.6668815377411301,2.0429596183247902,1.6015840219690944,1.3948341226680252,0.9268682294008038
286,1.8995704024950282,1.7391246106912988,1.3652512927591332,1.0405271012977486,1.0369630660406706,0.9080083084194155,3.913684721474859,4.8520446795784355,1.8481217935062857,1.2565540688253392,0.6468212168108125,1.8992704436138341,1.7448481169712056,1.3732057216620128,0.9376921764050409
287,2.1577598849333453,2.2309099912022288,-4.350434349380504,0.08467349851939515,0.07471371191065965,0.6050948681135921,4.773356104498391,8.043695185222514,2.807886095213999,6.429450194598863,0.6357360191111145,2.156850683197946,2.247648807327994,6.309918278226516,0.9732779387761429
288,2.0658671854730852,2.224215154339723,-4.128687079583947,0.14054012242578456,0.13034718680568466,0.7376386260245041,3.5512443792443364,6.047154404769572,2.2442195101074756,4.686314375511049,0.6284777104787076,2.0657578145939137,2.2262250085340347,4.476524796569195,0.9545089916659529
289,2.000098419557638,1.0451761253179903,0.8115951477679508,0.14696382737077213,0.12992531211725244,0.9108663593097498,3.5995440782753367,2.80106016720383,1.1865717681062153,1.1285805923789534,0.6153451465759925,1.999850217915972,1.0499863146312196,0.8102267339502432,0.939534559422666
290,1.7399678227954067,1.0455414353718775,0.7514491286466831,0.4135227844135473,0.39205329858834226,0.7555303769159223,3.5602989853613622,5.05546825156242,1.1595140638504304,0.9146796276110625,0.6713451011121618,1.7392935293247531,1.0409690058913816,0.7594309236999458,0.9534411695265088
291,1.8415865415332133,1.7170416790442737,0.6156666086106628,0.6280345831526557,0.6167606340478581,0.8342607036767781,3.992766711457204,4.637351608404717,1.790410214649764,2.4254986953932987,0.6097226960127671,1.8264199294916799,1.6169893009797849,1.800840914806296,0.9265004036708716
292,1.8510842482519758,1.5420626534486528,0.08642123549723113,1.1246594233800336,1.1118282863789173,0.7602791437019925,4.163279814120141,3.1943163545746796,1.6802469497810941,1.50525571057779,0.6333676938231112,1.8285617757521597,1.4136395410862599,1.174186745352773,0.9006957986119755
293,1.527981417846486,1.3351712103108562,0.5800774384530447,0.902639568749053,0.8797760355288612,0.7249111731973249,3.274234054027326,2.901119747906105,1.388496831632549,1.3006529260011122,0.6284777104787076,1.4751984372258973,1.2097864909453167,0.9884587178128831,0.934342135125644
294,1.9153828247293987,3.3458840011044613,-5.091532952686247,0.48452274582591054,0.4861040938643557,0.5615481371589258,4.041013477516384,6.1276720154054605,3.816702401814704,4.564568460541846,0.6333676938231112,1.914303821986149,3.69114275194919,3.499533282383017,0.9462294911564789
295,2.327244270794827,3.168398628742409,-5.495642899537236,0.3834750800538466,0.3712270850340798,0.5214376065612532,4.209291290589858,137.68730014816694,3.331233834195213,,0.6403206450210053,2.3266501247766773,3.2757798556192363,inf,0.9418431845457255
296,0.35348244703860865,-0.14737963071692325,-0.00820054288061009,0.2958718147715924,0.2954614517265011,0.20684461052185654,0.24032593476358735,0.14954491382113339,0.07050769942041363,0.12501392611924617,0.6180765742263259,0.16773512459903425,0.04464709368008436,0.03898935449164556,0.955704907755135
297,0.38991393242204264,-0.27185133946600337,-0.029113317829893556,0.3466100062652737,0.2966409027726028,0.180076278177328,0.2269953119436889,0.10513075567863803,0.03025172065780807,0.021058406096986292,0.6547956803312163,0.1430880232100349,0.03239033510192525,0.025373835101429223,0.9677442034296088
298,1.858998012120951,1.45888027512486,0.09733268221979907,1.0302512282835485,1.0227046561892081,0.6838131482842525,4.284359759651701,4.432655313833124,1.918793295051398,1.4242943662672336,0.6309483474627791,1.7877010491005536,1.7111091614286025,1.2900157552660267,0.9301773106636134
299,1.5754922755315393,1.0003767200032538,0.04154508535282142,0.9236421311337647,0.8778843974064838,0.7400533475504877,3.4173478591319237,2.3549154268790207,0.9869747467249156,0.3781165843796555,0.6309483474627791,1.5571090433280796,0.8385664727319778,0.3526759818156782,0.9416749476789829
300,1.533639299384676,1.117660993012935,-0.01951629388459697,0.940769968678346,0.9041734366161581,0.7325262561892848,3.252157490341873,2.880574501559415,1.1680007090242885,1.0898756138412369,0.6284777104787076,1.4724333914418126,0.9926706310500081,0.7948831906188112,0.9415043415535918
301,1.7288037296842784,1.1880566688006695,0.43219634872061397,0.6839815030273344,0.6549254402423714,0.7604891539175044,3.8197409027566183,2.7833895426228232,1.29534437329434,0.7593690288232867,0.6566669596287297,1.7143664226542825,1.135055348912928,0.6519643373503772,0.9142484171706434
302,1.2336959305876911,0.6829296787590289,-0.13987593743051652,0.8507190735724333,0.8182464113632183,0.8191481925385682,1.989090693476026,0.49945943814379845,0.47235347533030264,0.25127621329446076,0.6357360191111145,1.1098417706196584,0.39909742557352307,0.1632018856303475,0.8919467605565601
303,0.5059742627988207,-0.3176181223953378,-0.011911582517921418,0.6659777570543451,0.6580133099208659,0.4415022573479847,0.2344454895865105,0.10598732042612824,0.034849167558893404,0.014271570741040237,0.6153451465759925,0.33950572187765665,0.03231508986435838,0.02018527668199312,0.9608425696060734
304,0.6936825959187581,0.3354260346288792,0.0994509862334303,0.2987486354961103,0.28991278858748654,0.45122361273861844,1.3056216855572416,0.28218183639177674,0.3987342103933868,0.25466748639208553,0.648888643467878,0.6478764297800308,0.25978497539606976,0.1774754200905857,0.953681689787387
305,1.2195490407651963,0.7917851519747088,0.058348832578166476,0.7250152353696242,0.7222400637160951,0.7087751328584362,3.229477782720604,1.917916762758476,0.7047312718881233,0.44245362933993165,0.6447042257417027,1.1669982015345746,0.6077075131276529,0.31178282107932626,0.9414228232640102
306,1.33557250454837,0.8351742444855057,-0.41430280993498236,0.9100800849049454,0.888303549725637,0.665837358579961,2.404415975180087,2.430975986826961,0.8912188301117584,0.9972563982793728,0.5641709578113449,1.1567005464436757,0.6076383272083872,0.5610600424076647,0.9383097841098248
307,1.5299510861831243,1.0387976705668867,0.0772377559338242,0.5308632646826006,0.5208968993262685,0.6265641016143504,2.407760451584774,2.239785961364364,1.259080721532581,0.9935415721413626,0.6652988471865258,1.468806782694355,0.9548166386767469,0.5079870845416605,0.9231535080653782
308,1.820762637729872,1.535997443278563,0.6517046105478466,0.7551638621350227,0.7435649675569798,0.840604255809969,4.641576204259684,2.531593329707013,1.6972848107810248,1.6019869878775237,0.6566669596287297,1.8163937501864158,1.4720703614885,1.0917863235977099,0.9251130613254944
309,1.5184659632456445,1.176387839939864,-0.4375923617882447,1.022513027898994,1.0132491367648222,0.6908574793441546,2.922560291357777,2.2043111434017826,0.8154034564917453,0.5153912318661603,0.6699045166045591,1.3547526286657108,0.6685186415470704,0.3602828853149315,0.9287554711393016
310,1.659837394168595,1.3659216887505798,0.3815881603156668,0.7530490004369634,0.7366458416790436,0.8741478227897069,4.16177709396315,4.264890045196316,1.3738108618217253,1.0765930498349774,0.6284777104787076,1.6365807465893678,1.2174590820594064,1.0070788469176042,0.9382731613457734
311,1.9102783147018443,1.5298318562372526,0.09583352509400367,0.7562202274312553,0.7344592242557544,0.7656988042365959,4.476573897227573,3.9902489409623403,1.8676625829010165,1.7471638685987998,0.6447042257417027,1.8604666672378458,1.5555060000064638,1.2908611725202817,0.9483996413076387
312,1.3688037852517425,0.10600016428550596,-0.714430807014001,0.7002663560722252,0.6623873773940527,0.5352585028832362,1.4057640486971144,0.8032132672671544,0.29890490256242336,0.20955116494495926,0.6447042257417027,0.8160935231732088,0.24853610599743667,0.16519293846787808,0.9519585800793015
313,1.3151248198849907,0.5514551704770652,-0.14655799973796824,0.5580021016460565,0.5442240587000836,0.7264230372494376,2.3697287330700725,0.8934893082152393,0.3846759029392654,0.19195362077488987,0.6509067234006624,1.2430601930339829,0.336495344918248,0.18536727732226452,0.929637220861093
314,1.7188922730274048,1.1545581519926806,-0.3151730685300893,0.6806771657333347,0.6610016410883433,0.7507882289060706,3.5920224695103293,2.6664928829983188,1.3061654861355831,0.61974882825047,0.6357360191111145,1.6307182977436714,1.109338699493625,0.5679536696987414,0.9394848978275376
315,2.009437449810522,1.635613095746387,-1.6083311753489165,1.094202401834081,1.0981816464512193,0.8196778885434431,3.8710110293663176,3.4199925295728053,1.6575470844571074,1.4237789424995824,0.648888643467878,1.9672245852255232,1.5004687877249963,1.2017190817659253,0.8852814637671174
316,1.896133034315163,1.711310484595224,-0.5061683056499251,1.2991487675709161,1.2852721030840302,0.7856036464241011,3.9069445885401057,3.4396936137400966,1.859401162669118,1.7696302920094673,0.6380535849069913,1.8223561432055224,1.6304854716089714,1.4655184031725912,0.9302534814686001
317,2.0408446996267626,1.9969325589180018,-2.638482621709744,1.5240578252370267,1.5131950032215653,0.7922533000210509,4.173772623473204,4.0217387633529285,2.3306025858811013,2.6246746596726784,0.6447042257417027,2.0080929286137157,2.1215334477530248,2.308125273369661,0.901985001232006
318,1.9131598402011856,1.155541205856635,-1.9236628830076872,1.3784636492663278,1.3105658502275672,0.7600242325320434,3.2034349204828683,2.0077516174063383,1.0318245704735811,0.5511399404221808,0.6509067234006624,1.6849999326565215,0.9009801392249152,0.4475694556910561,0.9115168023848363
319,1.8466249421000596,1.409981076582627,-0.6326793556121708,1.1802835008781667,1.1444322025685858,0.7559119176421242,3.5773175447156698,1.880076433332905,1.1193164940626075,0.5350802181229116,0.676637947632344,1.809584054140607,1.0518115955190406,0.475888406258855,0.9341293185901387
320,1.644412731834325,0.9397925438043864,-1.0972745359547833,1.0983124832220563,1.0684131979623184,0.5795955307053099,2.739765830543625,2.2073587076648855,0.8579010699833519,0.6447202229377129,0.6125606311107803,1.351828524238612,0.745641219960615,0.58005125186816,0.9595693788442492
321,1.76828115067026,0.8399320391097518,0.7366735441676675,0.5708194992669586,0.5642343422228785,0.6264256352043048,2.299369487260416,2.653330549644812,1.4499393286978424,1.607050155504792,0.6180765742263259,1.612163846641332,1.2894711035335433,1.0931659817109638,0.9384451499650894
322,1.929291437209896,1.5508963898351724,1.4988265795212574,1.1888202480891288,1.1598148007664588,0.7126467899065552,2.276409480462076,2.6171057981572563,1.6470867473486166,1.9019434546488574,0.6357360191111145,1.9289547084058998,1.5545379159830857,1.4943528468842793,0.9550076798041371
323,1.5425632045287079,1.5879186620855383,-1.6003132090524383,0.1515848085745051,0.14795677420599587,0.5004277391941562,2.19393864653808,2.586378478669121,1.864089231169596,5.218374231009755,0.6125606311107803,1.5391347885916766,1.5841783630988089,3.3642708717937917,0.9575745090637776
324,1.461161326921352,1.209541504807155,1.018033701320375,0.1469052641087327,0.14121533778568407,0.5687773218935342,3.0475481708240317,3.833008730323653,1.4542973231210126,1.7966440340371455,0.6790044388599258,1.4573846687842917,1.1990222991660797,1.0324724861635648,0.9454124093952601
325,1.4473726451613071,0.9920357619559237,0.23537860010120282,0.632539035761269,0.5989135444371348,0.7005387631652853,3.4818755836179394,2.7400872851226357,0.8458252204446285,0.7281782808786256,0.6380535849069913,1.401927028131341,0.7831713694070379,0.5608267559927578,0.9239913754611317
326,1.707855768431663,1.4355393186350272,0.713567362924322,1.08475940707979,1.0392403443601066,0.8199151895950354,3.8580850644354623,2.69433458532546,1.4243046478742325,0.7995633252672848,0.6547956803312163,1.693846618705386,1.3081273157720807,0.770770337089392,0.9418394725100094
327,1.3178896213448237,0.9824349847453271,-0.1427943186490097,0.8064437069922226,0.7722073174218171,0.6838409152209708,3.05532690361981,2.3182956729373045,0.9636596354783601,0.9289060745980713,0.6309483474627791,1.2523075166737414,0.7348992765671961,0.5243176544513548,0.9374053644056181
328,1.4283776523930722,1.21012123695338,0.7606565972779045,0.36809656443857436,0.34738323250123726,0.6576162060887342,3.366572859215765,2.8475856244710758,1.3865064852522277,1.1576312737165322,0.6153451465759925,1.4157918319089138,1.1868478547854284,0.8943346503615821,0.9557139103317095
329,1.3677389274699052,0.9159334293383108,0.20817245701651288,0.6982732886181239,0.6724444603675025,0.5891445023104622,2.733089680296052,2.4064357055866887,1.0774824341823661,0.677708099196817,0.6284777104787076,1.2973478207303193,0.8839049870962016,0.5473402945070187,0.9343430264676686
330,1.982577111544376,1.600129316076894,-1.0671297689155028,1.3593215468796802,1.325974731828991,0.8715287711337214,3.898409142597007,2.0706230026059855,1.5570758045797026,0.9879648110938124,0.648888643467878,1.9728817454465277,1.4546596115552297,0.932506370953349,0.9290769220726737
331,2.56323453543041,0.9138097707306954,-2.5276818343135696,1.1941295129802987,1.1831565896028475,0.7296278460676688,3.603948146305667,3.594519876985606,2.2527821641735977,2.4152171418666946,0.6333676938231112,2.271840370717009,2.0250284556165656,1.7216243931623265,0.9408730689379654
332,1.9331110667872375,0.9206323834655379,-1.8098634741876671,1.3617821069948068,1.3175622021798459,0.8177955642892089,3.625093952554563,3.455718875451706,2.4765423769454085,,0.6447042257417027,2.6253955229800217,2.2719110858092306,inf,0.7712909478644367
333,3.448513209025806,0.3961457793494727,-3.844658988375279,1.0377840018088387,1.0071756861371248,0.7374981314308336,4.088751898776353,6.313436338707514,2.6224261950260774,,0.62595550513784,3.306190278083821,2.4246208689602997,inf,0.8493496137211598
334,4.138136487261045,-4.061876372566855,-0.07626011469418979,1.1724349006492312,1.153026785795753,0.7846586201576827,4.0610390231455,4.154681995759635,5.9374330481934825,,0.6068309995095971,4.0771597374679995,5.9441108507245115,inf,0.9045606501931219
335,1.3522038662308253,0.7717766511656261,-0.46093901413369287,0.7206810347013738,0.7013797937611657,0.7481169610760449,1.7672153553147467,0.25433149707908753,0.43623698802001865,0.11903725278045763,0.6425374456860184,1.1993907255086693,0.40599983296809405,0.12659170671543074,0.8640762157632086
336,1.8584031493657234,1.4437778687200584,-1.3231275951441996,1.0993668453863168,1.0988000386721442,0.7490034385522858,3.5987967195552875,3.5129716967454527,1.3793547442137568,0.9878351451455296,0.6233814453054027,1.7735267009669953,1.2329295359499712,0.9556911556937481,0.9436194400685526
337,2.4088286889925925,-0.8292354043215187,-1.547475568817839,0.7792289366789134,0.7785944513352406,0.7220765017372044,3.9848143181136972,5.562975733251096,3.864406160328504,,0.6684167106117298,2.3546974361607833,3.619145509597379,inf,0.9434462210850743
338,2.5671744359409137,-1.4956567580908404,-1.0715176778500732,0.27474691976761734,0.24716164015249,0.8579344360529351,3.752411231162672,12.826129841025796,6.639279718155357,,0.6468212168108125,2.564382851289797,4.436462850758352,inf,0.9288964266740448
339,2.15132549648501,1.9335824535420119,0.9260163476690408,0.4704040095413415,0.46424312862056294,0.6069279073808888,3.547482263367743,2.3854924368908845,2.776082775956129,1.8132301724241875,0.6233814453054027,2.150913674472969,1.940103097656457,0.9313537781852506,0.9292617443280276
340,2.00273586744821,1.8483116036512537,1.002059795446491,0.2306043928429376,0.22180369041500564,0.6426186236589461,3.8385506166690457,6.3497429454029,2.093629868826157,4.253965603899051,0.5947193981915972,2.002069062562178,1.847500928219418,1.2645756796843242,0.9515544555617781
341,1.7602015747287105,1.2598992680979049,0.8587294414109552,0.20466859451959732,0.19748638463877993,0.664793557429221,3.0209661529538874,3.068413203224928,1.519211559271229,1.3873024970851573,0.6566669596287297,1.7542710248170634,1.3159453599981634,0.9766086614388975,0.942944344705828
342,2.15822108082946,2.4405984001787027,1.0218029519871017,1.095729348628758,1.0668717069619202,0.8067061766074244,3.835729293466944,4.560790575202532,2.4597503711980284,1.0930452594947144,0.6333676938231112,2.1578115749793843,2.4619083920234384,1.1042652149708978,0.9242514419267983
343,1.6945324849194177,1.4057708580487915,1.108620821864697,0.7625662081505049,0.7505394231367822,0.607053861576515,3.7504144510383606,4.950853801821463,1.5654353157816574,1.8075584183667215,0.6740851607140061,1.686138987364371,1.3766832075304851,1.5291027643432145,0.9129053085023732
344,1.8134530862190517,1.6229002232711351,0.3471687829530321,1.287592183846791,1.299720962616924,0.7847543822078197,3.7233809019848305,4.111671284331411,1.7519779460451999,1.5752645462845094,0.6713451011121618,1.8054527963600575,1.5574858731850074,1.375128189909458,0.9495427415375459
345,1.8592456380008457,1.6234469926319017,-0.08499769664276036,0.8919898620045362,0.8801949326670959,0.790453575905683,4.072921673482855,2.9871235401566247,1.5559836751904446,1.5997874005129478,0.6528756675646988,1.823318938135821,1.3338870596992867,1.2555089656442238,0.9326577498388476
346,1.763832428059618,1.1977594328015637,-0.9767822741493208,1.1087095755819687,1.0984180332283675,0.7816482491030333,2.849466817032087,1.9835203157205883,1.0445974044342445,0.6341475073865324,0.6125606311107803,1.4811424254937782,0.8541954539720755,0.5173528114626225,0.9357050112211311
347,1.607707966294392,-0.031478277341971284,0.0740248105155139,0.7582620871919734,0.7461692167493722,0.5104208856893714,1.9396004639190674,1.9099027200599077,0.9095274336819785,0.9673979159232118,0.5947193981915972,1.1242720354486873,0.7137408182968298,0.6139749492853737,0.9295642635816166
348,0.899893905939776,0.6219043105054837,0.6030111577482378,0.39167365934281917,0.3478231701556196,0.5038293456673698,2.252116743218844,2.1658808166069026,0.8500959097273626,1.029118677765491,0.6425374456860184,0.8512575414389507,0.657731899698344,0.6783838201485506,0.9507503857205617
349,1.1907015213098289,0.7970659308480714,0.26891182620096554,0.704991137884574,0.7004488198327834,0.7460073296490928,2.7687874096992893,2.746282348937961,0.863176971259686,0.975328446991106,0.6380535849069913,1.1255724702508927,0.6827229676172617,0.5862831190959814,0.9118714640807305
350,1.4015171259148056,1.1970582960724323,-0.12867368804053125,1.192253189049192,1.168925996593078,0.7410886470419087,2.9926319820194633,2.0016839408333498,1.0500157872752471,0.7421146061953346,0.6403206450210053,1.30575946689772,0.8830010320263699,0.561849316596916,0.9263092378432568
351,1.5085057803983435,1.103378330740951,-0.8721257391302188,1.1646687324210174,1.1448740380137132,0.7731715455202788,2.843564431264711,2.4225796989225077,0.8443269443532645,0.7529430701498151,0.648888643467878,1.3576853085612037,0.7273719719042679,0.46812821007582306,0.9381931253668013
352,1.8191350852964023,1.411674793291797,-0.19541921062015843,1.3140040254760652,1.2971778822024846,0.6752516911414125,3.5804158651379026,2.40801653310188,1.4255593480016573,0.8212547237735085,0.6357360191111145,1.7910930246848944,1.251730856402947,0.7648391090160618,0.9490519950288364
353,1.691095382250958,1.2766625968634402,-0.7282541290808706,1.2870502981726017,1.2757197153646476,0.7528097377721269,2.6624348414141648,2.039240351014686,0.9298450144740161,0.6749895317512565,0.6357360191111145,1.4968039128097756,0.768485395440573,0.486712780381044,0.9074918617179839
354,2.104488920873621,1.884334207187945,0.400995581186673,0.8467241467021569,0.8202411519633637,0.6733635115997305,2.7617978709968094,2.974268897908425,2.0369466324059755,2.1281926724454863,0.6333676938231112,2.087384111656687,1.8948229506285634,1.1734540038612629,0.9485727993625707
355,2.295363711340617,2.302144976560436,-4.559273161145983,0.11539037784936122,0.10933372398439052,0.6506243249211134,2.8954578911026716,3.790406883662125,2.5652402242466006,6.53432982541934,0.6447042257417027,2.294616923344869,2.30170364736624,6.118097198041348,0.9545666269160815
356,1.7429931227571875,1.3361611071193298,0.03927172813746127,0.8161133877771415,0.7874654521870534,0.7874849063066484,4.09732064826127,4.750071661585641,1.5683710139367824,2.0044504971531505,0.6357360191111145,1.723291179754636,1.1801658176901841,1.0030258276077104,0.9280444555297732
357,1.853436352663471,1.87638357557465,-1.0481505440741268,1.4288551585219766,1.380259614177717,0.8228955437718214,4.266680349248129,4.487427465381866,2.1440993225015537,2.5897478507503435,0.6528756675646988,1.83202606245661,1.8262164221954365,1.5987196962140762,0.9443726615538198
358,1.8591443074895544,1.8351457104944315,-0.3944806398212539,1.4028519372744255,1.387972731309672,0.7629995239394072,4.325945950960343,3.9709492767823553,1.9071907705302844,1.9492940943513752,0.6468212168108125,1.8473426538050888,1.6767759413695738,1.5378099933091438,0.8459041922514947
359,1.8841093604016055,1.6050454428683847,0.1760474113955124,1.53919527928603,1.5423867253972925,0.8268307047698106,4.127490805388488,3.756206598170567,1.7584059308012796,1.7677535483598985,0.675384900321601,1.856760319445469,1.53152083695014,1.3651312727335745,0.8853802526409503
360,1.9275109953051548,1.9268393404787492,-1.3101579937794314,1.1925835860074276,1.1926296134212166,0.8023608738077408,4.403069058209563,4.5204303137445425,2.061321801010692,2.2708551711576463,0.6528756675646988,1.8802264505503854,1.7897222159041124,1.7461517357499226,0.9071622778856145
361,1.921556445263728,2.049589510513931,-1.3826946361574954,1.3662785289442185,1.3253269101258545,0.7900963875270803,4.575852742650858,4.770841283546658,2.1669748055595504,2.6264958560947034,0.6380535849069913,1.9002359455641389,1.9291835313287973,2.118559958275307,0.8900306465910072
362,1.8743688263237464,1.441014489564652,-0.9754271298082529,1.098397387819054,1.03790001127607,0.7959448831041583,3.6272339882339053,3.4072794963400876,1.6219471142587765,1.815556776392086,0.6425374456860184,1.7849824849490312,1.4361180349412808,1.3774251233791108,0.9501785007384128
363,1.7357948155932286,1.331304193931757,0.5935793200241171,0.4521965911515489,0.44154649785526773,0.6937642927118816,3.630075723903491,2.959410369000383,1.506616249350169,1.1857031788725543,0.6038851895711802,1.7190047933191432,1.3140832667786166,1.0453831529680506,0.9456253189981091
364,1.621519884711367,1.330784444111064,0.3606820736800098,0.6911756282544002,0.6795550792562975,0.7406024475573927,3.8510189664115564,4.188167553374145,1.4916887081482189,1.1725509477750247,0.6528756675646988,1.5675498197318476,1.256285414364073,0.9440874273584687,0.9457673534189305
365,1.804992160143225,1.2778470651097964,-0.3697877116040371,1.098003232845207,1.0995199917100433,0.7432929501776934,3.8849222891211905,3.972265480882216,1.5255377813245548,1.6599480722355908,0.6309483474627791,1.744112815760702,1.2887445904322181,1.2015158006328839,0.9386544454661307
366,1.7867277977256413,1.6641732944954437,0.7292908320765052,1.016363874467416,1.0032338168527053,0.7033278757320072,4.291360592542707,4.322930836437784,1.731366044266341,1.830315887045612,0.6566669596287297,1.7640794534547457,1.5797928615881403,1.5805852828123175,0.9366577444558749
367,1.7143440842715605,1.2792794769016247,0.2345086739963329,1.168694334392757,1.1725455761887404,0.8116077251305854,4.22893881071867,4.723662032844835,1.3344961233083916,1.2975737985678522,0.6447042257417027,1.6880002349372025,1.122821244200953,0.9323968380756293,0.9236811422780453
368,1.9137343497731827,1.708478409910834,-0.4414865275381392,1.2408305956101158,1.2289578333449354,0.8173007811196545,4.274145835222547,4.49159173423826,1.7456848266865002,1.5456029959838309,0.6619902821573977,1.894309124243849,1.5816118036142426,1.5067749975489224,0.9492554406444147
369,1.987239832768217,1.5465366045137203,0.44612939977379806,1.1123445693879344,1.094136918967818,0.7864508345904081,3.8836937152744353,3.5731012734082666,1.8111575043296733,2.302757798511244,0.6380535849069913,1.9670656911281046,1.615653567157441,2.059654588242012,0.9230262682050032
370,1.7423711690957042,1.6356887664302742,0.6661592045528004,1.2502207202663622,1.2516674772572811,0.8077062319870347,3.988597220819742,3.8282682655519675,1.8495328935217659,1.760619766103653,0.62595550513784,1.7249111178035932,1.5758377925617564,1.4322546471326265,0.8757870231669267
371,1.908940975441109,1.7424356381761097,-0.5017737557639821,1.1583108418291572,1.1642012172028002,0.7312110374125277,4.445740008050887,4.086892925683615,1.8968231645991904,1.6813808659826497,0.6403206450210053,1.891727145014437,1.6089223156193784,1.3745811964562376,0.8858173250939684
372,1.6639107739876295,1.3038678836578694,0.5847797472158889,0.7974197917979116,0.7861696806367544,0.7238860537498406,3.8420508834978038,4.242975780995376,1.4924034104014672,1.4518889223788676,0.6528756675646988,1.6508387781716778,1.2389331596525193,1.0178164705360833,0.8786044605110176
373,1.7407342291658165,1.4022003776641443,0.4560427745736084,1.0321686447319942,1.0323168169168422,0.8491131291706943,4.211082884142094,5.404177017571388,1.5107253172547483,2.4265117709527066,0.6068309995095971,1.7333647828509733,1.2985705393669782,1.990435228096725,0.9288946249291591
374,1.4633928631844009,1.1300846292551274,0.3471202907105715,0.8459732183317499,0.8327298267099483,0.8038012184538124,3.720467948111713,3.2584646857248334,1.0951681555228345,0.8007122191830924,0.6153451465759925,1.4091309194673205,0.9240279351097319,0.6928035576254606,0.9087950769188026
375,1.4653110534009637,0.6776814797861099,0.0814121553110212,0.7129491969633774,0.7054574862203515,0.3564366768823502,2.059909045462501,2.085543905878392,1.158710781055572,1.0880314406119513,0.6333676938231112,1.2266350720546855,0.9521603698131667,0.7666662823462725,0.9262149704426058
376,1.026476636448315,0.7065750585361175,0.5188971564014258,1.5315417711655892,1.5341422766868282,0.49205737745371864,1.6484832569215282,1.4708086844011299,0.8672910987799264,0.8255997411903341,0.6207552362147116,1.0264156657887171,0.7126881042135399,0.5214866829557823,0.9530095121979966
377,1.4273920576882162,1.1908883991437125,0.7917305725032358,1.1723576064629728,1.187004597676459,0.5056379546633875,1.1530750713083608,1.182412216053738,1.5348790702734505,1.6297041868933508,0.6125606311107803,1.427208952519697,1.1938993184487048,0.7864425846659289,0.9515392206232148
378,0.7102573356773231,0.33606970854652507,0.25176662577007836,0.04466961139416602,0.03796960376702182,0.4029382961801338,1.5020782438123932,1.1398000750860435,0.48639585371713573,0.41067791265521025,0.6468212168108125,0.7085315826036926,0.3389124194900176,0.2558990648814838,0.9702279920452971
379,1.1054293211755293,0.8405348017562884,0.6626634814051235,0.04466961139416602,0.0374486202450065,0.47796378757896857,1.9221846406437337,1.4560763062899456,0.9780545868117286,0.9488823785756232,0.6652988471865258,1.0946202673985723,0.8545730431156584,0.6798916862896847,0.9591036704991239
380,0.8000586040514102,0.3944825569621948,0.2727153353522951,0.1581806884875931,0.15214905459418657,0.491678670259715,2.4322220557764997,1.832373149865508,0.5140872170779327,0.46398270603425384,0.5947193981915972,0.7825371417151109,0.3631667544868494,0.30293879368621324,0.9569348731581526
381,0.7923376547587456,0.4211390495478796,0.09906260869653827,0.32949247673835397,0.31993499372206846,0.5359692797068641,2.10288175695669,1.6249233544797828,0.3994319321764905,0.41985068377831075,0.6403206450210053,0.728198818618864,0.3055937384550416,0.249664468932597,0.9550924817689808
382,1.1180431477841137,0.6493462766268805,0.006440090441438784,0.5833120907593335,0.5698228882441637,0.6717217756153468,2.903264113525432,2.0176017481196147,0.5808174446216866,0.3210918960193825,0.6468212168108125,1.069733329117733,0.5319017712533465,0.2659980014361494,0.9201148674790169
383,1.814766361952275,1.4950790354798853,-0.24305829161909198,0.9889134138827591,0.9856132507504781,0.7691446316802253,4.108651344581063,4.194535356403851,1.549667694413487,1.0463646290050892,0.6509067234006624,1.801473161415694,1.3643886281668895,0.9924881026154294,0.9373848496781211
384,1.987858573702844,1.7521622841354123,0.5384707450796333,1.2190599743516932,1.209773245135202,0.8507032787905737,4.053407000656998,4.142677149021822,2.0439111095270235,2.0361116348887776,0.6207552362147116,1.9575779539229954,1.7429243400189338,1.4904565542856083,0.9412488130326866
385,1.907942413203117,1.5633207127236968,0.01886837072025571,1.238976284869495,1.2343274296587485,0.7790937908548288,4.316968975589959,4.54992325968722,1.6308360696849398,1.4911325248810758,0.6284777104787076,1.8937921947932066,1.4563952659612038,1.206192561064249,0.9502863022258213
386,1.8319881158477165,1.624634862115313,0.4568930525923749,1.248999325792423,1.2040728289949878,0.8098655454883845,4.18641680986423,3.787189240612962,1.8384815692978846,1.4151851324520293,0.6447042257417027,1.8269722249837996,1.575893213779053,1.106994567420914,0.9047511672319988
387,1.219228617145953,0.5002151815885556,-0.08461368386596613,0.6515629386645098,0.5792293392829332,0.6937170261612947,2.470953004739374,1.5015117607821349,0.7452527580426948,0.4081620839384282,0.6207552362147116,1.1083933005232152,0.4979383302918155,0.2924193129912093,0.897155127043949
388,0.729551688433323,0.33202810167858143,0.1494481746293781,0.2616892180491241,0.2568235289331983,0.5019328570257353,1.9948931839553923,1.711828915585194,0.3317563303466203,0.27098166336484036,0.6584896970785714,0.6729306955595609,0.27875695837303016,0.1876771872224832,0.9591683357755302
389,2.3034842881648108,1.3265823810997395,0.36963199087524456,0.20817067060929573,0.19791713908059355,0.5936735267887493,2.716852199399651,3.9894040626698968,1.800568701898188,3.8374454092544963,0.6425374456860184,2.290436959058398,1.4213699996992428,0.523333413429916,0.967845079663
390,1.9045214079980064,1.5759815746340742,1.8161237317526298,1.2533430325803139,1.2209806868913051,0.5012235725732013,1.9976047136116208,2.426792342639498,1.598443342258933,1.8049361921287281,0.6547956803312163,1.9040327117108409,1.576929638420177,1.7717445051649665,0.8581441424081211
391,1.1667871233649165,0.8962742423881165,0.8011275397982689,0.06698765724152846,0.05655438099286788,0.5109805047182014,2.6291405956494565,2.01405106789351,1.0719200519702266,1.2424522102315243,0.6153451465759925,1.165927995952977,0.9008825426613096,0.8053284510208186,0.9600898260494264
392,1.5055579237392704,1.0622123155644654,1.0736420222954481,0.1070503374570581,0.10247468425082454,0.7418674132857884,2.8829584033744284,2.9956786957817347,1.1799930170128656,1.3250264957991273,0.6309483474627791,1.5051780022203072,1.0657223607346693,1.0727932985372037,0.966439653081543
393,1.678839976350676,1.0805104062353357,0.9150688065630419,0.8939477048752649,0.8617324721889031,0.8251932008832955,4.821751735489913,4.41933752773901,1.253734407210238,1.2347726028105868,0.6547956803312163,1.6707815426751524,0.9797862230136954,0.9249830031180855,0.9218695136057635
394,1.9802230934670702,1.9445834236063484,-0.2889207528771429,1.1170777741272995,1.1000600473208753,0.7698689813917844,4.247417055247615,4.002318698041283,2.109451047821315,2.2584853316241005,0.6547956803312163,1.963655560538427,1.8042671009159623,1.903069990378821,0.8947927806144008
395,1.9442147137948727,1.823147030760886,-1.471775159087874,1.1139984298760517,1.071175764469316,0.7289136625214045,3.8898271495720964,3.939592088674456,1.97820286211172,2.2582885545508056,0.6309483474627791,1.926586939493697,1.7451076898661386,1.8442261081267957,0.9095984524867202
396,1.8314613869387748,1.7197980740630303,0.3192622949381603,1.2023641259703113,1.1993525269191887,0.8317348244613719,4.166796022177165,3.9780261283512486,1.9699653142350437,2.254070368790475,0.6125606311107803,1.8230437592678215,1.677237580618233,1.6010083224783322,0.9384353594106247
397,1.8045661193413332,1.8647218839315967,0.8827436306304892,1.6123060117386885,1.6105384923553625,0.854459504571678,4.432138542704544,3.791907605580171,2.0940679309688606,2.1137468318365182,0.6528756675646988,1.8018771474163406,1.8154054211925785,1.5776762849519643,0.9411210790690739
398,1.7153418173029547,1.4336543661638745,1.1328319519314625,1.312016013901416,1.3072622085887353,0.7590206152438891,4.132012260040565,3.7907919555013407,1.5917723152222734,1.6491291010829936,0.5978297680564633,1.69808699336542,1.4010324355612223,1.3499971270881048,0.8947331259592668
399,2.0050861729468203,1.841652655973169,0.456220859010831,1.2272138205366123,1.2158224920567882,0.8308488200490419,4.537699683333441,3.7721087285584494,2.0972270014547614,1.5339687561286004,0.6528756675646988,1.9978001126426026,1.8234685295170796,1.2655280129021378,0.9436811521576761
400,1.4676378223654074,1.227911361700199,0.06885909175753291,1.0750823180750364,1.0545361008100296,0.7475109129557711,3.5978305533945742,2.9514929350296915,1.0893415130022384,0.7971676743711115,0.6509067234006624,1.4108603150651402,0.9342843923477013,0.6817342951379862,0.9432416235548503
401,1.0183299692417143,0.36225769964856736,0.25419015254128063,0.7265267232644399,0.7039093304378015,0.5988016903098349,2.4583997232009827,1.961689994760683,0.4054125886105889,0.39631674954253937,0.648888643467878,0.9067530273936664,0.31064279726441035,0.24218633223164615,0.9337189312330976
402,1.6997579090969714,1.1448700073424707,0.3753831584687415,1.0611201078578492,1.0596731919628042,0.715917331097476,4.14322923290321,4.191482578361398,1.2116211511607144,1.3195371561261262,0.6233814453054027,1.676884361201643,1.0014452384514856,0.8073369386354766,0.9322960940211538
403,1.9560671547610642,1.9108399808682297,-0.3345305981722704,1.1258438263101316,1.1110552898371342,0.8404454575303275,4.466727369470013,4.403155814263318,2.089411901999314,1.8528818917962522,0.6652988471865258,1.9425048425872655,1.8463177290547232,1.5690089224384556,0.9164601697234626
404,2.035868218868319,1.5309828392520153,-1.3405791627026362,1.3571320852476376,1.3354978732694374,0.8702611405602062,4.000079047594344,3.7603590109021874,1.8421688163821013,1.6387823823471024,0.5947193981915972,1.9836466308917107,1.6369513158058202,1.4378280112350734,0.9019362654038092
405,1.9198021648010373,1.7324066756157654,-2.069008881196526,1.350387764245732,1.3178157069687408,0.7392909487426397,3.6070364562660213,2.8547056933505175,1.4966795339909145,0.8589231957308068,0.6153451465759925,1.7738540653592205,1.3471895102719456,0.8010297656504815,0.9352397108111542
406,1.9203056938712957,1.7804158815099933,-0.7116875825618343,1.4641177302248878,1.4142167117893638,0.9039272266051207,4.421261323857472,3.5033833103882026,1.7402152894425662,1.212175604777988,0.6284777104787076,1.9109184510643695,1.5610591126588331,1.102555652802999,0.8868727104241003
407,1.8000976933480206,1.7573093805941233,-0.5692475405868733,1.0982396131338374,1.075670103282105,0.7581212069597381,3.9008198906283864,2.4737318598141735,1.6109933195919022,0.9865515992397195,0.6153451465759925,1.775558089890047,1.447214205257277,0.8796044387720411,0.9089661494547209
408,2.2116606556881107,2.4670949370860673,-3.303934044414195,1.3235619730483412,1.3264972335558318,0.8265893050385056,4.586138813852274,4.377063936148868,2.4582350081699738,2.4496494241086944,0.6380535849069913,2.182237447527971,2.266879108486776,1.8895441910774238,0.9236516882799356
409,2.169315267087677,2.210473258431086,-2.9020837021422143,1.4549585842405628,1.4414872759688064,0.8188928199589397,3.8242844772584648,3.4378888858894934,2.1642060289540854,1.6288885329517182,0.6528756675646988,2.145771295747304,1.8997831023053648,1.0251848201132925,0.9256570736229836
410,2.046571402593269,1.8782946154855997,-1.5954809649720008,1.532635408086001,1.5128201025889638,0.7605298954963816,3.9577696681533423,3.723995306446376,1.835579513314437,1.576953621507822,0.6468212168108125,2.028410503900766,1.6702948443644616,1.247391424693457,0.9135136493372905
411,2.3009754718505806,1.4531624879973504,-2.603428441590663,1.6275678670763245,1.5739652301222051,0.7764804694076256,3.8332870775410526,4.278762150523518,2.532225419616977,2.7148637464983687,0.6509067234006624,2.2552775087848365,2.243532661212345,2.18136696060288,0.8733276190099671
412,1.84038358198297,1.8180657856760796,-1.8910348404365054,1.5363867441889463,1.4521854854838374,0.7299679492014326,3.4133755493218834,2.3710986708702038,1.4518201538502846,0.8260691379095062,0.6652988471865258,1.7670668566376835,1.2627968800770801,0.701227566208482,0.8632246418406935
413,1.4991854330656382,-0.6227565875867211,-0.07031535366194763,0.9352751907687914,0.9018167334505892,0.6162252480823363,1.96947014812672,1.8912394227874945,0.4239100201598405,0.4568058752756728,0.6403206450210053,0.8662315320014181,0.3211026867274961,0.24256377987310837,0.9424826333505749
414,1.3578244114658444,1.0539260096584868,0.5878010249797421,0.26624769637231455,0.2596776576759026,0.5063136313696701,1.6698331541743456,1.3960313581512198,1.4332599032965825,1.3170056180808345,0.6528756675646988,1.306333708094796,1.1266132027624933,1.0205969511770754,0.9418327473607242
415,0.4957182468189427,0.26611728620573083,0.07665555926921008,0.22490934442804394,0.21702126360865628,0.28345537859471337,1.4601957715384997,1.2288717088403565,0.358075774095122,0.39032165184018697,0.6584896970785714,0.44665175243841426,0.2404691780516281,0.18896132836302265,0.9451243266722293
416,0.826706331822974,0.5189311089557008,0.37264667931869155,0.15818068848759306,0.12846218571952053,0.329284592777912,1.5286314365457183,1.5583148590578786,0.6181145827394647,0.7157599301291586,0.5567373465730988,0.789535719362172,0.5063087388356465,0.3989092997551638,0.9584356457806703
417,1.110695028399904,0.49798681843473913,0.33764272823059693,0.1740656785227582,0.15498132056769703,0.7205707652891932,3.517337070923745,2.3597673155732157,0.657345604118359,0.6236795749263006,0.6652988471865258,1.1060398044969064,0.4812561710303012,0.31882738131157523,0.9493007591754297
418,1.025231095588248,0.4061709708684127,0.24859153666832556,0.30262405835824796,0.28610178746011183,0.7466116549864785,2.50457522820349,1.4093289588807574,0.3813190181112074,0.2907295483859163,0.6380535849069913,1.0102351780506968,0.35138825093064385,0.23802918271796286,0.9521154931175647
419,1.0428160822388222,0.5580171932394089,0.3749050225179753,0.3870750734575978,0.36030209632557464,0.7682731918507787,2.8688650113387935,2.038162490418354,0.5481391743674374,0.4653974285913139,0.6584896970785714,1.0143324166215222,0.47004039688041643,0.40279684053077447,0.9501394691836714
420,1.1792419149325695,0.7022620126223753,0.10310319657739475,0.7047374603910134,0.680029159128611,0.7091007873661882,3.1366971645651076,1.7224200927352564,0.6203796533581208,0.468590736474444,0.6333676938231112,1.097479597072176,0.48353284117822054,0.36475327679156666,0.922110936040924
421,1.8288680956291963,1.3689123169839827,0.6475110717497867,0.7606534170289149,0.7377513380365284,0.813423128105517,4.791271409926619,5.284500377226255,1.6167879113636971,1.8277096828078612,0.6309483474627791,1.8206391687787056,1.3692173736883915,1.2019959863580758,0.9266241214958625
422,1.8795878644236612,1.5462384736131105,-0.12809741248682016,0.8589020222889779,0.8341107462658289,0.745666642733158,4.050139583509177,4.310928603618469,1.7080568531010127,1.4930025888666636,0.6584896970785714,1.865190747313938,1.489123048449367,1.1505084163905044,0.9140104368959853
423,1.5041103224179233,1.0982049085167613,0.09944323436170466,1.13959361953237,1.1090061019351556,0.7383435109535502,3.086705263756678,1.8094268845835786,0.8567680442641564,0.5291688069982512,0.6584896970785714,1.4358114561061854,0.7728785993393121,0.462706828008677,0.924755737086991
