,eda+bvp_XAp0,eda+bvp_XAp1,eda+bvp_XAp2,eda+bvp_XCond1,eda+bvp_XCond2,eda+bvp_XDist,eda+bvp_XFuzz1,eda+bvp_XFuzz2,eda+bvp_XK2_1,eda+bvp_XK2_2,eda+bvp_XPermEn,eda+bvp_XSamp0,eda+bvp_XSamp1,eda+bvp_XSamp2,eda+bvp_XSpec
0,0.2095473101159858,-0.03874481292504413,-0.00755446649418484,0.8482289447736988,0.7964646779162357,0.5142565193151009,2.8431046104930293,4.236846689607102,1.2659152776834905,3.6135745322845416,0.6357360191111145,1.4332927980583137,1.1321011026423733,2.445241393395569,0.754888168530793
1,0.2683234486680084,0.032786167601366475,-0.02840986988415052,0.6914843872220138,0.6557025480455696,0.6022207697027578,3.120589700199758,3.450081610189222,0.8783054128444912,0.9106733952424232,0.6566669596287297,0.9858194611929876,0.7189064090701254,0.6137627945661457,0.6080002116258417
2,0.41864158977624966,-0.00997427210923399,-0.04782235879634991,1.1904581149898472,1.1563142382195042,0.8081262066282104,4.850442713715094,19.9512535505909,1.2753216926575024,0.9960511226309334,0.6652988471865258,1.6184225985611345,1.1323611451279767,0.7215516658063839,0.8003124199757008
3,0.9133677431247988,0.02346660207663326,-0.0797298098679507,0.8321203971699761,0.7525738723816365,0.6692351806686822,2.726381430656259,1.948749943716492,1.9946932117926592,2.2698342420235393,0.6619902821573977,1.494869916025361,1.4061584220593326,1.1919837789036287,0.8140535939521094
4,0.40159038010633313,-0.03916566357248556,-0.06831129911561315,0.9325765583073623,0.9185619780193176,0.7074921420648683,2.9341241056872946,2.814738136708035,1.6949627670078167,3.3220971780830255,0.6547956803312163,1.2531630485167076,1.4021365871999734,2.0200546071285146,0.677978076389787
5,0.5201576395619045,-0.020975994578811774,-0.03361939201774718,1.033579631531804,0.9806404040490403,0.7515903811473064,3.1797566689318484,1.4414087622855942,1.6243720859924102,2.2307764351180728,0.6447042257417027,1.390570155982679,1.3081899982124383,1.5997426594301123,0.6598955249060277
6,0.6301344418946113,-0.11621100406324987,-0.03292081385180816,0.8920777267074979,0.8640190229422555,0.7163529437472146,2.9888455859204885,1.5986969052415265,2.4440574611423536,,0.6509067234006624,1.754913368107392,2.090489949979358,inf,0.8312244497030175
7,0.8875416954273928,-0.14415645933909574,-0.11036853032126827,0.5392341759944189,0.49884920177859904,0.5254966659337462,2.648863945374279,1.621763721836062,2.3028722261998578,2.553555913259223,0.6684167106117298,1.7928267051884776,2.048427229351461,2.7221239283138723,0.7815628881578666
8,1.580773646520234,-0.10343691725639712,-0.0019479925116184997,0.5324433429461604,0.4936767574824288,0.46343094970627224,2.1267568035578024,1.8083067706628162,2.9381291619201524,,0.62595550513784,3.499913354601313,2.789657782294334,inf,0.7199397735027828
9,1.9352018622337281,-0.3818363685645945,-0.08412245635626414,1.126126738883968,1.077583568698369,0.739469570510182,3.71169612091904,4.677307054586004,3.0400918271492983,5.530634093247973,0.6380535849069913,2.823461052613538,2.7640209663465023,3.517497837358316,0.7826581080790374
10,1.2214415742766334,-0.14358444488610864,-0.041262725629610246,1.2269883911039579,1.1364221996065107,0.8233944990488894,4.453181730044076,5.149137576062404,2.75207944056029,1.3261055023983404,0.6547956803312163,2.5285102872701324,2.656478393970901,1.252762968495368,0.7574175291283222
11,1.0945801954707193,-0.10198865674335425,-0.018415164758424873,1.162192761587073,1.050018011002057,0.8314105390517577,3.424511214506062,4.7528487901116385,3.451477355560785,,0.6447042257417027,3.161918048438542,3.1157481859507867,inf,0.5011461336394238
12,1.366509951226483,-0.3755797519131083,-0.03804358193660603,1.3100435483766526,1.289190492775896,0.8052831386342518,4.5959709391118615,6.882397704249769,2.3939014090977,1.256398804055466,0.6447042257417027,2.3502592135052813,2.2593653228321906,1.2182105869887083,0.7359727708411592
13,1.1183492073692038,-0.11046144483624663,-0.012556967974365797,0.61275045656526,0.5684609125676361,0.5912287810484617,2.7313305926671085,3.3648585791866275,8.671272767763321,,0.6097226960127671,2.7296143790180505,6.732040421239038,inf,0.6691465221639569
14,0.9562078708281851,-0.18646395939049967,-0.02708913176112834,1.0840511258362038,1.0661272843453584,0.7097517732773573,3.1905949331953765,2.990608384958941,2.44937543464395,,0.6447042257417027,2.0387688916442466,2.32127883631086,inf,0.7285516942421068
15,1.0873194702499032,-0.18652985424160623,-0.01072506987488641,1.088608470223655,1.0401443293269619,0.7535170082470288,3.9226559679977746,2.937652776067945,3.0141039503274043,,0.6447042257417027,2.370626036755615,2.7398295926228515,1.2219355047001084,0.8076860966318716
16,1.4258498655378784,-0.24348323959315915,-0.07020373082517413,1.1754663497507456,1.1520293837865638,0.7697199983896948,3.9719665792731123,3.7840282933586944,2.8915991348722487,,0.6207552362147116,2.2867117438377558,2.5305521572779606,inf,0.7661725526820519
17,0.9216217421763048,-0.11319360025370759,-0.037038377315616,1.0328563215686166,1.0033872224800278,0.6632976846121283,3.928580440430158,5.389321365484893,2.8672294517291914,5.073150189347165,0.663668482632973,2.0675129708145623,2.495236499289577,4.8989053301529495,0.8223478048916366
18,0.6972069668075233,-0.06729157278027736,-0.01605591648782664,1.3402470959267265,1.2788109408820652,0.8533517681050983,4.13283695421358,16.650952092254965,3.358493756874364,1.7340737407246234,0.6425374456860184,2.2585682075772713,2.6859672848144607,1.3331307419975966,0.7973249812808326
19,0.8894140366649305,-0.14704529416184464,-0.027872799715591666,1.1840441630861807,1.1705056554114295,0.7553835194832024,4.854008806887818,11.140520338571259,2.3345395086750824,,0.6233814453054027,2.1136189934814222,2.175119706768902,inf,0.847050870425947
20,0.8498539772237703,-0.05728037165217359,-0.08850271461251116,1.2388668291219045,1.215785385496788,0.8024978176333757,4.59180743035773,9.006553823990934,2.521691633033795,,0.6668815377411301,2.0195806100933757,2.21326002938265,3.9166277718148943,0.7948827259356556
21,0.8549665528615623,-0.16671248187753676,-0.012830494223391335,1.28932999839338,1.2740745846346853,0.8344742098883715,4.632531829602052,48.387066176846815,2.2973049147296543,,0.6652988471865258,2.0612960601119754,2.142863368117332,inf,0.7244627961091034
22,0.7458541165206588,-0.0817703727052067,-0.05656833414114429,1.3581810738442752,1.323091452011911,0.8564098825648493,4.526318480239419,41.56774252617475,1.8088223515620152,3.0692333991629495,0.6125606311107803,1.9414202437824613,1.718547866837055,2.5435901516160904,0.5979541649197813
23,0.567248479904597,-0.03929937735072847,-0.03427599741156609,1.2781731136566876,1.2448088330342781,0.8316893342338588,3.838221408977099,4.538155597669952,2.1869495265510404,3.8992437855812,0.6380535849069913,1.8114860994120883,1.7010153518087414,1.618420008749928,0.6557394571323233
24,0.44832164666208896,-0.07857440847779912,-0.0016596463176571288,1.4452190134476246,1.42718637774016,0.8999974981694208,4.395614433957011,20.42212365887572,2.0006775037649427,1.8377846849263004,0.648888643467878,1.8063317984113123,1.8649260543528046,1.9494097151815777,0.7661404955602694
25,1.2507205762686813,-0.21093353625745243,-0.09167669483016057,1.1036739987887616,1.0750613039541423,0.749786552902144,4.364385119255846,3.7591956381957887,2.5125665875299417,,0.648888643467878,2.102732914243502,2.2538425880008557,3.313319828784677,0.7307590051422816
26,0.4875029315032164,-0.0433344177713547,-0.007707065747511933,1.1298872604999963,1.1037534073438333,0.7824763357450117,4.174427365763936,28.740818007717614,2.44626568487196,1.5914061726539863,0.6509067234006624,2.400688057883602,2.14516555094807,1.3048832787811926,0.8449155073188319
27,1.2850220961694274,-0.3049409005262936,-0.06573137193423116,0.9732120691149536,0.9308078399485079,0.7385680587334839,3.752780112294962,9.439008450631121,2.9226975153950003,,0.6619902821573977,2.407451903383883,2.5139522569844304,6.486160788944089,0.6494902768447508
28,0.8111568174631302,-0.043261696931366944,0.0,1.1138161158058457,1.09099824344801,0.7711959419515148,3.7443983726089693,3.388845671986814,,,0.6403206450210053,3.194996551078258,inf,,0.7238192985424823
29,1.1764453287262011,-0.272736695803763,-0.07498665151811329,0.9212809236900987,0.9044597411502728,0.6866818932265045,4.020908015099895,10.095511142104932,2.1607731286541405,2.264694865955298,0.6284777104787076,2.1245318919427785,1.9879766409069932,2.001751591738138,0.7244829118433452
30,0.7546801466205404,-0.1390678618716703,-0.01198510434077187,1.0629856894649508,1.0523426224291412,0.7437751171724628,5.060911297859024,9.582568152152193,2.1331479089142293,,0.6584896970785714,1.9760830286926827,2.003743080086826,2.1445351117949047,0.720008215074168
31,0.021652683210078207,-0.004114009809914859,0.0,1.171646220388654,1.1681102811114321,0.8185997083124247,3.7698921611659704,5.559203939093004,1.0516637123946984,0.9612081242337012,0.6207552362147116,1.6760526615160845,0.9400262610473155,0.7918074472495522,0.7717211274654484
32,0.12510492315242783,-0.0022661991636162247,-0.021247793881936396,1.1797353472748031,1.1473193924721268,0.7902574489422163,3.816210413865861,25.37973778774275,1.272623352991843,0.8618736432993199,0.6180765742263259,1.6166863411589283,1.0908639849016306,0.8699865407180036,0.4880142756009848
33,0.05463908286536165,-0.0040844686994203705,-0.002098845604990491,1.064514835517,1.0604551140715872,0.7758282899531499,4.328442819606188,33.98217575916232,1.4086462692526427,1.4206846022174557,0.6468212168108125,1.7691503263671964,1.0586222897724482,0.5536221382263309,0.8618077683829677
34,0.015576120527557743,-0.0011521315572211358,0.0010690468854940276,1.1424881594972005,1.1096980660304478,0.7595122174299899,3.907438739307754,4.615289786455827,1.123116697497608,1.2839130188559016,0.6509067234006624,1.5576364138708372,0.9948355554129291,0.8381152332663735,0.6927627568935775
35,0.04909334321800372,-0.0024145484175162844,-0.0058063963993768295,0.7518716546034093,0.6590880730327119,0.6324238511648834,4.085471314383637,16.59174596071236,1.2270890300354367,1.972051575362004,0.6425374456860184,1.4038249048871827,0.9369236825350792,1.2819270662350422,0.5605419651893241
36,0.09840986097044215,-0.011448341528669288,4.279134936981989e-06,1.065765508377723,1.050184456458218,0.7175461466682961,3.6046449483306793,5.468897605268285,1.6566763763840195,2.6445061283551174,0.6233814453054027,1.8618958514170854,1.517866249525005,1.1515382364795457,0.7117829292481429
37,0.42772240991423116,-0.03408511784524092,-0.04110509116239704,0.9806186619206165,0.9501931853179332,0.6563830592152402,4.080518842482427,8.80035828039077,1.3080546662961938,1.4177779743194854,0.6468212168108125,1.6044503709230613,1.0797205563892056,1.272152337012459,0.7238218070338301
38,0.46975132906202494,-0.07277461793052653,-0.0023855947193974587,1.3663887502925682,1.3585985268521663,0.8851077484629272,3.683959401380472,3.4376816787015745,1.7394897253746866,1.552489558462736,0.6425374456860184,1.9863155636903522,1.582511826022768,1.448496892533932,0.9435537403908677
39,0.21367376694820583,-0.01546105320420954,-0.020960012168946787,0.9137670260958985,0.8510094954469863,0.5478800842625321,3.80127278217772,4.767412219237399,1.0086626102500045,0.8068713130333859,0.6727386042041725,1.3980521021329702,0.9468607481028533,0.6753398285148613,0.6438119470054247
40,0.039310283576396,-0.006997544714235299,2.5350873138815094e-05,0.9931045625212185,0.9491320751256569,0.754329967844795,4.473717811260896,6.649870889834218,0.9211685172425087,1.067270210960617,0.6566669596287297,1.25932892170968,0.833445554270075,0.6665690195100057,0.6295261676546917
41,0.0032422378741255617,0.0009280906835344542,-1.625047504400434e-05,1.1393857338982067,1.0930293183223778,0.7748391471582935,4.089269080698478,6.410748727334636,0.8415144601245823,0.6074103354180002,0.6684167106117298,1.2522686462482997,0.6368096855037848,0.4707828290616913,0.4817223728239414
42,0.0,0.0,0.0,0.9465598559696559,0.8821156644510859,0.7088918658655432,4.065019543944399,17.349738789206913,1.8529590891001118,1.6060878255488185,0.6425374456860184,1.5448993912965292,1.5231646550099278,1.9492602359405953,0.7635198845218181
43,0.07478560140442173,4.469303137616745e-05,4.4955448970068757e-05,1.059952444582579,1.0448061544295926,0.6425937198967937,4.777638478122993,15.407511422279496,1.296230909662011,1.445062335773332,0.6447042257417027,1.5140267276299422,1.0573096501564458,0.8358790762013304,0.7372253790950062
44,0.18960169555635278,-0.01750411590553559,0.00013197130361514153,1.0189988602395907,0.9376159081056897,0.7063212817795816,3.020233828616001,2.0900163207044478,0.6864066683433846,0.45241419150490736,0.6357360191111145,1.0374544756900161,0.5108883373842734,0.31205244854390374,0.7413437011505202
45,0.19397300143537616,0.02206918653228679,0.02730703389154955,1.1569069749456597,1.0547623715624117,0.7147509443772584,3.1068043234060645,1.9435071285370102,0.5871625287030448,0.43897860261925437,0.648888643467878,1.1383931586799543,0.48087064790543727,0.3300855832174343,0.6791077976762094
46,0.04792286227080642,0.01162989079523416,0.015260147141720432,1.1312215866611495,1.0873396500388472,0.7647158273325333,2.6685680400165928,1.6578912743629433,0.48784311221001764,0.3733348235849293,0.6284777104787076,1.0078579253996456,0.37510864562757035,0.17219361597837418,0.8884101476010944
47,0.019347035618386268,0.0020932948991111214,-0.004203788849836246,0.7193536237064216,0.6573867823642013,0.5472773637548382,2.453919730867251,2.8243010754604856,0.8980255918362542,0.5122127452627084,0.5978297680564633,1.1309977488122647,0.6931471805599453,0.2949156269946549,0.7039036462490899
48,0.02897892951062078,-0.0032842786778703548,0.0,0.9715469656984569,0.9484865007551054,0.5868796417278302,3.618916790084777,35.43835094750879,,,0.6468212168108125,2.1960252967607374,3.5110960791609784,inf,0.7586273013692794
49,0.0,0.0,0.0,1.1025382673226114,1.0353142033632907,0.655832785370656,4.593510096664976,44.900923067119685,,,0.6447042257417027,2.2072749131897207,3.4998464627319947,inf,0.9458077291887411
50,0.0,0.0,0.0,1.1452270733488246,1.117466586350839,0.6499468413585255,5.3026720431718655,18.034500616997448,2.8588619796639536,0.6897970936746634,0.663668482632973,2.1484344131667874,2.865539782194983,0.6964972674452273,0.8104353006661476
51,0.00025726877503064047,-2.2296627169322174e-05,0.0,1.1545402055877045,1.1148722085922778,0.6904013341836545,3.59237076826469,35.79349300340705,3.254501193620827,,0.6547956803312163,2.4459423797698596,2.1625667074837467,inf,0.8470177187825672
52,0.0,0.0,0.0,0.9000294659777863,0.8756474657720901,0.5871981124344618,4.200430590283424,8.440056508934168,1.0381149735626465,1.3829442742346088,0.6333676938231112,2.17742195004004,0.6964860818254599,0.8906532818861848,0.7017013622241635
53,0.0,0.0,0.0,1.009681013771254,0.9173931055459846,0.642754340713185,3.9632908804735596,5.3494946488412864,0.9617419947780725,0.8233284862991859,0.6509067234006624,1.9661128563728327,0.6055143036197331,0.8362592098203859,0.7114447741222031
54,0.032540323505543915,5.773668657631931e-05,-0.005155720702444865,0.9995329473936609,0.8934869551625646,0.7044303328486933,3.759480431448637,2.4679816529600664,0.7372882846050293,0.6914679378394809,0.648888643467878,1.8704419912625236,0.46202973548172144,0.3334772983393295,0.9014977885965306
55,0.0,0.0,0.0,1.3703419035218305,1.3116871946852442,0.8057504152366044,4.943735811881151,15.235069200830567,1.318416938716805,1.3829442742346088,0.6528756675646988,2.3025850929940455,1.325094741247834,1.3896444480051726,0.9162855160517928
56,0.002605675279345344,-0.0002779386964635034,0.0,1.0763706008408682,1.056032048572635,0.6978124011776663,5.152642944935305,14.266234099507713,1.4183695448860945,2.038174239544717,0.6602640781246099,2.2405497020745933,1.3871301321672869,1.3896444480051726,0.7671045275089713
57,0.0,0.0,0.0,1.3198629217841182,1.3163649102857335,0.8558596064982195,4.689768764359942,52.252664149787726,1.8820821631708806,,0.6811855325194978,1.8971199848858813,1.612776813699615,2.2005746642215014,0.5229215668166614
58,0.060620443467846355,-0.004854018998850218,-0.0024204342172913446,1.3923495364821814,1.3371456054906994,0.8382325133595708,3.578077115118443,7.520662860165341,1.0193570722494594,1.1348794575187249,0.6468212168108125,2.1565625956173298,0.8106902066147925,0.7973085115195621,0.7997113487236605
59,0.00813797548064653,7.289173015468655e-06,-0.0010109728156285408,0.913353095585388,0.8795313105698478,0.6009718864632148,3.9146817750219514,33.728810643797274,2.098309555388914,,0.6584896970785714,2.0999163948692217,1.6992740800623973,inf,0.7568861487286722
60,0.05092863684140262,-0.006086414738459104,-0.0020332417522343693,0.8708151038314809,0.7770490000507448,0.5615046882754416,3.222743792676039,5.739739474951003,1.072175336156618,0.9196746771702171,0.6547956803312163,1.6325359636800774,0.8523706861079229,0.6966198700389179,0.6749595252599799
61,0.0,0.0,0.0,0.8303531479625404,0.7907099691979685,0.546987928527793,3.72395581138706,1.8359010511600866,1.1862451656083217,1.026269330295876,0.6447042257417027,1.875141078167106,0.941608539858445,0.8142803031016107,0.5250502667889908
62,0.0,0.0,0.0,1.1991556894199862,1.1590167167745327,0.7182968358706877,3.939989211106595,5.1458908036565365,1.266287873281858,,0.6207552362147116,2.4079456086518722,1.1019511899336245,1.507427483661556,0.9285419673908432
63,0.05270078670762031,3.4386417020318416e-05,-0.003945712321120868,0.8057301735580783,0.7435875768120842,0.5747569398373887,3.7401394204130702,4.4820689525596205,1.0140320830215654,0.7974152416407843,0.6425374456860184,2.182730131185767,0.8983179878871062,0.755558247070519,0.8900510357520932
64,0.000400169483723364,-5.602372772127096e-05,0.0,0.9227081807420519,0.8506904559216638,0.6153404410183402,4.0077737780905505,6.253945189567869,1.095593414813483,1.2486959500463395,0.6357360191111145,1.9665097605256914,0.907398271339808,0.7571218892616621,0.6456732091609549
65,0.09301958128619965,-0.020154242612009925,0.0,0.9704059614500258,0.9489326045078326,0.5729270354510965,3.3790991604710894,3.556742108463942,0.9357977083381926,1.6024692462468342,0.6547956803312163,1.5493886194862772,0.7565353747732831,0.919640818759437,0.5571716790095459
66,0.0,0.0,0.0,0.8317247937680249,0.7993230884008173,0.5590433683551714,4.123280594254522,23.33923656993347,3.0411835364579085,,0.6584896970785714,2.659260036932778,3.0478613389889375,inf,0.9481026352482843
67,0.08388435922839867,0.008042917925435336,-0.00810920808265524,0.8593957198472549,0.8358287033857132,0.46760833287296316,3.8690910203342206,7.562205010605865,1.7033572881367636,1.3299107672026798,0.6468212168108125,1.6965098973209578,1.365124790012428,1.2166327130496437,0.5404703803445098
68,0.04149857114078795,-0.004703171395955968,0.0,0.9224447622995099,0.8863436205841833,0.6917633429127226,3.4502928898192247,3.4548284073647295,1.8859505045051783,,0.6619902821573977,2.205055156451408,1.7103067502422529,1.795109556113337,0.9172992230275828
69,0.0,0.0,0.0,1.1974506746216131,1.180182156387855,0.6904210603074588,3.451843822073412,3.0058095597025627,1.729276825528209,1.399528402250144,0.648888643467878,2.5682882587270512,1.3470736479666092,1.1019623755533916,0.8953019938441225
70,0.00213222677584799,-4.3502152364313716e-05,-0.00018393537039280522,0.9629653208650536,0.9505522124136127,0.6768370246510043,3.530710732596208,2.9504544649325806,2.361699206375081,1.0952622017828277,0.6668815377411301,2.240132078347496,2.0941631535051957,1.376176230954306,0.8295061017886413
71,0.11659623188531443,-0.01384747290867511,-0.0009213831301313837,1.3235096077116772,1.3141980251103076,0.7415306015790843,4.066991602789447,30.487500562042623,,,0.648888643467878,2.1005516900759584,3.882063241755041,inf,0.8215413332624933
72,0.0,0.0,0.0,1.7822376434080789,1.7552128176801376,0.9509897454435637,4.069152036393676,3.702373463034961,2.4815677485224854,1.0952622017828277,0.6584896970785714,2.120263536200091,2.488245551053515,1.1019623755533916,0.8693613322012788
73,0.022761334088448378,-4.569405723017957e-06,-0.0019680795486091748,1.7892846471935617,1.7734527327751797,0.9284222342667784,3.5546057399906856,29.83754662935523,3.237428870018785,,0.6207552362147116,2.463014703371902,2.802512840353144,inf,0.8898686818679604
74,0.0,0.0,0.0,0.812722182086122,0.8007613560383067,0.5674331817130257,3.8070845259389965,14.071864779762443,2.6708097481610142,,0.6584896970785714,2.336486644669727,2.272022442583879,1.1019623755533916,0.9228723208327116
75,0.0,0.0,0.0,1.582164427478296,1.5284105666576449,0.8089184360197224,4.881183227398943,33.55312751352964,,,0.6284777104787076,2.3025850929940455,inf,,0.9024669192526932
76,0.0,0.0,0.0,1.4000340959192514,1.3907168733091275,0.7177079988782346,3.441268807708156,6.515287581411959,2.4390081341036898,,0.684994737851132,2.5682882587270512,2.0402208285265546,inf,0.9098761475746918
77,0.7354744757751092,-0.10786958978034934,0.0,0.9534741934820224,0.9450256172140095,0.6666018202373595,4.241479998234402,34.205584547553265,3.6081194058798367,,0.6528756675646988,2.0923241675108497,3.614797208410866,inf,0.9166190896371174
78,0.03630895140649461,-0.016702117646987518,0.0,1.079440741714735,0.9072275425691539,0.7405766150841989,1.3670927097258376,0.48864542700179947,0.1911988824399296,0.049187442355239364,0.6619902821573977,0.7837528882115365,0.18717003931568363,0.04820065305063376,0.7271869693139797
79,0.026356708903473473,-0.01672403731274097,3.807789445285618e-07,0.6022706240527312,0.5687959346495485,0.48830865064048035,0.9678410293926646,0.39623055402476026,0.08504202357628535,0.025286766320838722,0.6713451011121618,0.4568461256415231,0.08558483753979867,0.02647506795750914,0.962791378383699
80,0.7257470131393106,-0.045963977498823,0.0,1.61592819576263,1.5934677267653046,0.827574623755554,4.65264977189281,78.91917723918348,,,0.6652988471865258,2.9295284730973585,inf,,0.9023032832704312
81,0.0,0.0,0.0,1.1789043191247228,1.1468565950304046,0.6511896562537249,4.044723784600745,16.29069799730842,,,0.6309483474627791,2.5257286443082556,inf,,0.8910497899624967
82,0.0010858129513753286,-0.00011220067164211728,0.0,1.3427512279811151,1.3029969012149805,0.7899693961305904,4.088958451126228,24.706856809432075,,,0.6790044388599258,2.2708711175045178,inf,,0.9285216022756767
83,0.28963557762021985,-0.021935016340404602,-0.003166733720014454,1.4510679445830357,1.4507069720154486,0.8603549100683792,3.7419866520372866,19.41913922242159,2.750011379733295,,0.6447042257417027,2.6106210557706637,2.2260609312021535,inf,0.9228090838078182
84,0.9069819062273065,-0.14564470286203915,-0.011565494217360629,1.6752687500453636,1.6599438659088197,0.9345274316283599,3.844412199018981,2.7700696634439184,2.3858058762778027,,0.6509067234006624,2.3843978848611984,2.269729145853424,inf,0.9578832108728735
85,1.0147524057057689,-0.16552807016378182,-0.017127362863256567,1.5603581032201155,1.5191757745103767,0.880977961642018,3.4335107154657623,18.38834755185109,2.6921155941106485,,0.6380535849069913,2.2871492848642063,2.2917035928065115,inf,0.9179353653873976
86,0.6664882982926332,-0.12035250079926156,-0.02627492482511777,0.7326364216207244,0.7232267810428833,0.42168399035762044,3.4119155831044394,46.138675475323346,2.7546923118138786,,0.6309483474627791,1.8110102488201925,2.5692401864524337,inf,0.6539040137853163
87,1.2740325705875148,-0.20007435196271606,-0.029251510743036606,1.545639599672621,1.5324549873188817,0.9046945543785142,3.585754368960984,34.89430381883121,2.875429445515242,,0.6468212168108125,2.2851818560953614,2.8345245330552564,inf,0.9059254740504096
88,1.0605757098928352,-0.10106099282933961,-0.026208092357800646,1.7120540966984428,1.6854865299148967,0.9539814719243065,3.163283305709353,6.95637966716943,2.421860759862965,,0.6153451465759925,2.654667424537097,2.3231780467361682,inf,0.8982427729473061
89,1.3050179631209737,-0.23238321327363448,-0.07253827626299425,1.7020681156575026,1.658394907450127,0.9567749054304414,3.281133894188491,3.4155696369449724,2.3430764460103504,4.62705746906944,0.6403206450210053,2.121467964936973,2.14168980405429,2.7749593278541176,0.9214429463233482
90,0.764390347554473,-0.08689902056615703,-0.03285546721737708,1.6998580819399278,1.6894966928441784,0.9517275322405373,3.195187721154634,3.7121651733435628,2.310091925454973,,0.6357360191111145,2.2032426496617825,2.0427002967114323,inf,0.905838051246396
91,0.8569342653048952,-0.09943175585887087,-0.04053417414092867,1.7001748970608894,1.6496276560176033,0.9546715580992825,3.3174004808548765,8.64502693501846,2.6155837763441103,,0.6180765742263259,2.3253989160597275,2.2405505567750823,inf,0.9095166793900052
92,0.9915493037497376,-0.16560501317965787,-0.04169229199291078,1.4877681949568056,1.455121357346376,0.9465264287860043,2.587910207936744,2.548376942952991,2.3543327666161207,1.6826075705478967,0.62595550513784,2.1754630855547066,2.0782680621788527,1.7332988023065568,0.9230088967134963
93,1.184113804115109,-0.1883940835437559,-0.012905263155812608,1.7318951678294017,1.7225541236823765,0.950965657626073,2.9351345183956736,8.80555487066206,4.371771010794968,,0.6380535849069913,2.4441486573158326,4.309455941839047,inf,0.904761972849367
94,1.4267806245579406,-0.1854814811925323,0.0,0.8811359971759821,0.8626025692265609,0.7168160514443659,2.749929620621399,6.631129396711282,,,0.6528756675646988,2.588343091737462,inf,,0.9276972891379701
95,0.7283510472841171,-0.09123354717084128,-0.12241609336583306,0.9762779187879704,0.9402921918741014,0.6103966038576761,2.5382070681011757,3.223913934488642,3.329170416436948,,0.6380535849069913,1.4869253379587084,2.7164903193177543,inf,0.9470284286425643
96,1.5354088936101005,-0.15733069604540176,-0.0013282229609752865,1.144754745470645,1.1330636568947012,0.7725999631582914,3.6523654511958337,13.699376282861953,3.201592531858853,,0.6468212168108125,2.9952879278457245,3.1089721134076016,inf,0.929748878978464
97,1.1309380521429417,-0.1865140275743196,-0.05475275688284132,1.3961193505129244,1.3578331953280596,0.9352222290553036,3.823520715921217,26.70344290181882,2.1674981441951626,,0.6547956803312163,2.1235095395139387,1.834557404415614,inf,0.9198647162718826
98,2.0147000051654524,-0.3736374379690281,-0.11660622995456534,0.9938921249066314,0.9683271371348275,0.7997747269691197,2.8332439844967854,10.02117229312746,2.902243314276267,,0.6425374456860184,2.3805466344637574,2.6919640633505857,inf,0.9471788141984714
99,1.218837640376513,-0.18487065037591172,-0.04670850129562578,0.7516261833766725,0.6766257952612997,0.6659937651609248,3.0098990644528185,6.10196526940978,2.914041111754427,,0.6233814453054027,2.6091102532473065,2.6585701438388405,inf,0.9550227683035716
100,0.7714241062818524,-0.10409441875125239,-0.04245454610763545,1.7590381343823276,1.7272882015825188,0.9689067252695709,3.444615672195772,7.645034380322567,2.6744967717911514,,0.581717464821069,1.9295666567153662,2.0786002092656823,3.194705463940388,0.8993745901974474
101,0.7443007714417516,-0.1362790522819475,-0.01754310714934781,1.3066009414895356,1.2669843338008686,0.7760194978464251,3.5977906350808238,9.699303894646725,2.705286297892317,,0.6403206450210053,2.124717886549471,2.387164365015063,inf,0.9005338931319214
102,1.261284087508227,-0.26066537808503354,0.0,1.73394106038575,1.696784950528395,0.9209478754040956,3.168504011152428,5.248830824906592,,,0.552929491858785,2.35235907428621,inf,,0.8879224456009157
103,0.835958264615461,-0.10310151930257351,0.0,1.7585363338008049,1.7225970475108572,0.9495803527396008,3.2133137659680138,55.208004946701536,,,0.6380535849069913,2.600242681801332,inf,,0.8753508784088357
104,0.3299538561733089,-0.026396308493864713,0.0,1.7507411329211309,1.7332854856039617,0.9103913646987364,3.144323432320314,34.62099032300514,3.0102332904168074,,0.6125606311107803,2.690210282973879,3.0169110929478364,inf,0.8470822004954626
105,0.16472584624631698,-0.014276240008014139,0.0,1.3195756854275913,1.277595291537278,0.742118900707447,3.0015496199532685,26.465408995142493,,,0.6403206450210053,2.5230932311732412,inf,,0.8974493306134077
106,0.32494569780495863,-0.020922180562934975,-0.013738693869593949,1.6480228677963829,1.603774900652155,0.9368432339948569,2.433179769453405,3.6443540439228075,5.889351556959477,,0.6097226960127671,2.4204931364635804,4.643266390995138,inf,0.8920332145488346
107,0.2781764352387945,-0.04176264094954653,-0.02191025567693668,0.25998205414125564,0.19801389169685563,0.37284994665462123,2.6953798035336654,2.666854910243264,1.9743428338887208,1.7911925736745646,0.6403206450210053,1.2384108983821736,1.7517811947962019,1.3189972175432396,0.9579408693297757
108,0.632194954400504,-0.04846827983737198,0.0,1.6688977874265785,1.6198458263125528,0.8835035071964409,2.9527262521234245,9.721507577167825,,,0.6207552362147116,2.837399873130059,inf,,0.888148094659434
109,0.07719182758121353,-0.006432652298434461,0.0,1.727454038584059,1.7338480773409146,0.9318763736532166,3.1394644014693087,9.064226791887346,,,0.5978297680564633,2.5421121235587796,inf,,0.889470691980883
110,0.2684429102633487,-0.02863391042809053,0.0,1.705527935972332,1.6466553628110536,0.9402399557999798,2.8864399483765366,10.759619668861461,,,0.6207552362147116,2.3920236556412866,inf,,0.8772055380223625
111,0.4329695389723247,-0.0461834174903813,0.0,1.6978517065555478,1.6543195070435335,0.9134129765651304,3.4879881336895195,10.798017708161211,,,0.6125606311107803,2.359625866695043,inf,,0.8860431428976774
112,0.6335821834110097,-0.09425909532556595,-0.002890172797455547,1.7740107794489919,1.7451268815280878,0.9605652163696202,3.2946607463620206,10.324515772998542,4.514290093306582,,0.6068309995095971,2.223157959362724,4.3481250829982,inf,0.8346330250108823
113,1.071610516044469,-0.19530337445028256,-0.03535089573257694,1.745188670078288,1.7160961161647317,0.9385420619568849,3.3250174461036828,3.422531623062348,3.174183328637936,1.0109430523638787,0.6180765742263259,2.1984252979127383,3.164134337363652,0.8032582989763694,0.8568237738399993
114,0.8754725144724219,-0.1268937105115705,-0.04528255066800581,1.3874659062507722,1.336446340368559,0.905789765222415,2.9586307201907553,9.132799098252315,2.517140123808387,,0.6233814453054027,2.057201799416392,2.424767952785542,inf,0.8997288527418454
115,0.7716477667886849,-0.10031420968252902,0.0,1.7327275332948893,1.7042490017955472,0.9585425566817491,3.5206288160287915,5.862901951940791,,,0.6380535849069913,2.3454925940053224,inf,,0.8579821466343631
116,0.3727970114229789,-0.05467689500870357,0.0,1.7457798895704142,1.7228488082247018,0.9475172271755377,3.7083214958327124,4.331725025865788,,,0.5783247308855777,2.0980129272652714,inf,,0.854897794356987
117,1.3654406706231101,-0.15019847376854212,0.0,1.4208428225791412,1.418402444308172,0.8531182899272756,3.2119576256885614,9.26372216827516,,,0.5978297680564633,2.6946405141922924,inf,,0.8567505070886211
118,1.0433832330487676,-0.12642117939191966,-0.002262752684095017,1.7396214694033012,1.7041655303426153,0.9440462094233671,3.2626148540714786,4.0570037197993605,6.603614392144221,,0.62595550513784,2.4946876616431055,3.8889967668230203,inf,0.8440187211145852
119,0.5874336812960804,-0.07669030228049128,0.0023648089387139568,1.067279710343158,1.024687796548932,0.6894199706688027,3.3418982608890344,1.5683904279635486,2.5989076777636484,1.0919121148975457,0.6038851895711802,2.0062736938442103,2.37220369131853,1.1826487890919377,0.9259742145063328
120,0.19918427359365426,-0.009959213679682713,0.0,1.6753056266527573,1.6513503637444953,0.9492044352786547,2.687326238006517,6.435251098647267,,,0.5915533975974677,3.1263472880257526,inf,,0.8869851576031142
121,2.8126235128076886,-0.5147050282502543,-0.05719508602064235,1.1356398811931685,1.12748387721391,0.7660705158371058,4.355895209167003,14.470355654983852,8.212244114879159,,0.5915533975974677,2.4954958513422687,7.813456809302024,inf,0.8997879821956479
122,0.24924274092904605,-0.021601037547183993,0.0,1.213345706933987,1.183879344228027,0.7870516007996735,3.2865152755908746,20.290073791384373,,,0.6333676938231112,2.521708956312105,inf,,0.8658701315613083
123,0.5693926429714249,-0.055007075155926996,-0.019013968430358245,0.7880121171449741,0.7292617856836718,0.5518338077999212,3.105243958934757,11.768008130292657,2.1245310984807086,,0.6207552362147116,2.278760065318738,1.9441757312763497,inf,0.8935034727157158
124,0.6493681699984891,-0.0870806941305989,-0.010324531369174467,1.5107544312744439,1.5062173997009327,0.8745790592742487,2.378176887103561,2.552612318968493,,,0.6153451465759925,2.3272193739524067,4.228315311440379,inf,0.8238725131791058
125,0.19469853509268456,-0.02725779491297584,0.0,0.9607241892622701,0.9374216469587976,0.6840156936540674,3.781836433289773,2.4907505040446822,2.100389556810966,1.177994925129469,0.6509067234006624,2.0779315711482362,2.019751892339379,0.919640818759437,0.9049929143226615
126,0.6181666717221491,-0.03577058838194136,-0.08711828097090905,0.9688693250413477,0.943846582495499,0.6143333696395218,2.598918137271267,2.114825494572048,1.4065433335001107,1.812731232660812,0.663668482632973,1.3825679793790768,1.1519491709622578,1.4742615235511192,0.9499110645424482
127,0.5688429965732226,-0.05119586969159003,0.0,1.7606967387362484,1.7172331761054238,0.9001537526046745,5.650851532803825,64.55872223454928,,,0.5883313578629602,2.695792303706708,inf,,0.9143252475344277
128,0.2749634979776962,-0.01833089986517975,0.0,1.7533252601315148,1.7295692101151396,0.9069778921575349,4.3387409372534345,92.66602065247464,,,0.5783247308855777,2.859842552861342,inf,,0.8890399125351446
129,0.008515423540801426,-0.0007663881186721283,0.0,1.7002951903544583,1.6698426413282126,0.9180861726745322,3.659165381492263,29.528542230236823,,,0.6447042257417027,2.4160026711407894,inf,,0.8918063180289265
130,0.15694165585973321,-0.020925554114631095,0.0,1.2508395063804152,1.2005898361101421,0.7432407633588952,3.9535327394358597,11.538167567609348,2.550437155597897,,0.6619902821573977,2.05139412912468,2.557114958128926,inf,0.9360287038518056
131,0.007745135724030944,-0.0005679766197622693,0.0,1.60619901413412,1.5863229167277042,0.8504759790923064,4.245477817912687,18.350206841586377,3.080556863117781,,0.585052858160615,2.6198867102729055,3.0872346656488103,inf,0.8861803375141244
132,0.019815953557777696,-0.0021797548913555466,0.0,1.1910595997461422,1.2050563655206366,0.7619854007552515,3.71583575426163,2.8004667544328563,2.7853692028541497,,0.6180765742263259,2.2219271899765913,2.3865818972770145,inf,0.9007121073380346
133,0.5554481446271985,-0.032776798158324405,-0.019065028673547448,1.0797987393489061,1.0662821954121193,0.6380310179009094,4.115004870658859,24.481636084262462,8.91491326103295,,0.6333676938231112,2.485973885748423,8.921591063563978,inf,0.825444258217118
134,0.0,0.0,0.0,1.7512411597286162,1.708230438609644,0.8815012765385611,4.183244929056274,112.75165031560354,,,0.6125606311107803,2.371577964480997,inf,,0.869621518351631
135,0.04127358478819236,-0.00577830187034693,0.0,1.1993988473223747,1.194538058368824,0.8140983649639945,3.632316716136749,12.411619502345841,2.1050949391809977,,0.6207552362147116,1.9859107217755885,2.111772741712027,inf,0.8421968530570922
136,0.004413609485356561,-0.0005443451698606426,0.0,0.9197961285039005,0.8808256244577803,0.5588552568494595,3.7702145637401516,8.215864888452096,,,0.6125606311107803,2.0970173169191937,inf,,0.9045415104095553
137,0.057298523232261214,-0.007257812942753087,0.0,1.2878518171722473,1.2704729480184216,0.841268949666738,2.997747779323034,3.586978132684692,2.3267475574108167,,0.6284777104787076,2.1081154022644433,2.2127116125373814,inf,0.9047281350927472
138,0.26942846218563954,-0.036735468058522264,-0.0072711807651321915,1.1440991941480116,1.1282301680482858,0.774792505695323,3.1892189727998783,3.131003193462846,2.2028414045646807,1.7095151604833176,0.6284777104787076,1.890843427451954,2.0057437698463527,1.1207370849487455,0.9217522648599388
139,0.1327461303851308,-0.016723806483501653,-9.070336528158493e-05,0.7309569917955911,0.7080585102693859,0.5193724258210514,2.539920361248155,3.3726643953608275,2.9137108502540077,,0.6180765742263259,2.0935855425767333,2.523882171221764,inf,0.9263622273770947
140,0.5519914947688492,-0.053650304589160716,-0.03834827787231415,0.7855720514087351,0.7509461938402279,0.554720397992935,2.0469292975948785,2.4416591135372636,2.225910110939117,,0.6284777104787076,1.9656367792393468,1.8668564705654946,inf,0.9297379069704527
141,0.04783404596614258,-0.003348383217629981,0.0,1.7014592433172329,1.6892420018850671,0.9080290592013543,1.9396073212493778,2.895307140393939,3.0033333123268107,,0.6068309995095971,2.6971102610638757,3.01001111485784,inf,0.8872530135965249
142,0.0,0.0,0.0,1.656264753584205,1.6228758986123282,0.9541352510810902,2.031225812616916,2.7451814443951306,,,0.6153451465759925,2.70805020110221,inf,,0.8848729784721648
143,0.06785795866159607,-0.006107216279543646,0.0,1.6674891227252968,1.6288952456389312,0.9607166802266296,2.2802986087205146,2.84770203595578,,,0.5978297680564633,2.4527621964614332,inf,,0.87349985644453
144,0.3918873411373226,-0.03634592531434954,-0.011986846759253579,1.0144979350984837,0.8760349861608739,0.7086039077733611,2.3385312926837543,2.34033710412943,5.924342394972045,,0.6153451465759925,2.218448213787846,4.5162879010626495,inf,0.9242994081023811
145,0.0,0.0,0.0,1.6512814569627623,1.643722544342594,0.9420622825021208,2.887373677238586,6.2395334941785086,,,0.6125606311107803,2.9311937524164198,inf,,0.8753066204437725
146,0.7248600797414407,-0.09451794381982051,-0.04554281839935858,0.7675695769073584,0.7233015110092494,0.40604547912393835,2.4572628642693455,2.341881010076583,1.9922614290443583,1.8655067794976146,0.62595550513784,1.5962475117484045,1.637459982790376,0.9253533824030116,0.8020013050263778
147,0.13626923218369158,-0.01635230786204299,0.0,1.683754984900589,1.6399614192777618,0.9683771949163407,1.913569683933897,3.253194931360627,,,0.5783247308855777,2.181548097951212,inf,,0.8372541858563789
148,0.18668697926601605,-0.026136177097242246,0.0,0.3143726890835052,0.2490202214087761,0.4869570834528715,2.282801627580084,2.643191581860255,8.274877439989309,,0.6584896970785714,2.0273974181239534,2.9865767772378167,inf,0.933188391519393
149,0.6289994423096824,-0.0947007297597111,-0.09190243812549469,0.2286284036166141,0.19054898656017893,0.32549260358420784,1.7662853147864004,1.9945952803852691,1.9173587263550629,2.4297937573849984,0.6333676938231112,1.3499410027653431,1.4276379276556992,1.1411330631579,0.9472550235043186
150,0.40117882638245134,-0.04878666783454385,2.9200572537194797e-05,0.3759772781255959,0.3124968778265161,0.497414317603336,1.7212768367639633,2.6266641950374803,2.37282172350331,1.3795941873493267,0.6284777104787076,1.9446775756527677,2.37447859498424,1.381298513926519,0.8344897977097833
151,0.10072385915294295,-0.008057908732235436,0.0,1.554267924138453,1.5100122773855578,0.8738008786179643,1.5954917065812328,1.8303754531257665,3.1277980092946795,,0.6038851895711802,2.572645564096007,3.1344758118257086,inf,0.8596857299263001
152,0.382319180203249,-0.050641596978267665,-1.7814131373951325e-05,0.17406567852275817,0.11218649997838719,0.39090992787333584,1.8805440439562866,1.941097765776503,2.1433862413403184,4.189344366354632,0.6447042257417027,1.803359827294376,1.784568819650434,1.82817175525961,0.8502748239076833
153,0.0,0.0,0.0,1.586523963966067,1.5584676351747564,0.8878900695235693,2.0317240858700956,2.4272250683708645,2.7047112998366956,,0.6425374456860184,2.3025850929940455,2.7113891023677246,inf,0.9041564390542233
154,0.0,0.0,0.0,1.6318604060527129,1.6081351149287781,0.8911391173628037,2.2550353542874544,2.81654756871667,3.397858480396641,,0.6125606311107803,2.3025850929940455,3.40453628292767,inf,0.8951179561236337
155,0.20642749071227368,-0.04919832128111638,0.0001756556128099633,0.5816404457503969,0.4509606452186526,0.5008088668110808,2.3844667501417853,2.8687724687863567,2.014146279792193,2.1908971901496557,0.663668482632973,1.4920500165635555,1.513732592843937,0.9384192943848888,0.7105260882205041
156,0.25108143498843993,-0.04295986568774908,-0.024973558703645364,0.6759969644467755,0.6056992372973766,0.6145286655941876,2.4840385154721605,1.7880643261390246,0.7979111405687136,0.47537673679320586,0.6207552362147116,1.2471509674944956,0.6445025045542028,0.3009816529537136,0.7290457047732118
157,0.11681703870813155,0.012183649983188327,0.002796783342079709,0.696511695451884,0.6672399103263035,0.5554702549693348,2.1980815851671127,1.6065214177461975,0.33175723608720614,0.20217122873174284,0.648888643467878,0.7543608647284344,0.27112488561557047,0.09020487985885595,0.7345717197515794
158,1.1476180775428566,-0.20594207400559483,-0.05537870063250933,1.1546298146711076,1.1279461246693006,0.7276864064616201,3.0729738461310463,2.6030354249717416,2.2915807639136183,1.7546881975811923,0.6333676938231112,2.0749184529522515,1.9031256535736887,1.683317652246309,0.7973912220566658
159,2.2442615536615227,-0.443574269383776,-0.15568662630925614,0.9536997635779458,0.9297996106930795,0.6579996513113451,3.5261903265295786,3.5075685874145504,3.0326155679177162,4.42411662507275,0.6619902821573977,2.3280168675862427,2.778762287062915,3.467572450607028,0.8855310471632499
160,2.1067848975454986,-0.30091134847429835,-0.42820582961350556,1.1202481807117661,1.1220522373681001,0.7601947019233637,2.834830909219924,2.5668214075509583,2.8247032561533447,3.126721502556613,0.5883313578629602,2.398239776577428,2.5478569963812565,2.4010251658072983,0.9388454414619727
161,2.015803260491525,-0.24842802163166278,-0.5128954469674966,1.2431001774643051,1.2158654797169386,0.7995129844513021,2.9679027605858423,2.6607671452403765,3.1415508907541936,2.4537154560091405,0.5915533975974677,2.3649334217623283,2.8835361390581404,2.151762203259462,0.9445466880167079
162,2.4653937068490777,-0.4012807386668332,-0.5048986211730333,0.8668030223245311,0.8614601447318715,0.6658948405538911,2.6778608143741085,2.581037318206635,3.0807216595487854,2.9244935786458557,0.6403206450210053,2.616383012576386,2.8379386024482316,2.695146796266302,0.9330976937687127
163,1.9662983456834746,-0.3394996123205096,-0.46419095649122455,0.9559433396968748,0.9119643260706021,0.7593507573325817,2.954030925135418,2.561790292822799,2.8170863715573664,3.445552378691876,0.6180765742263259,2.087025785038144,2.5566542557118233,2.851861903134289,0.9371457439010181
164,2.21119380983096,-0.3276898572269601,-0.5758122277834461,1.1584640376743982,1.1147176709624382,0.7992610107075199,2.856257899182994,2.683824788107362,2.9645026531182546,2.634658652832974,0.6207552362147116,2.3610384625744345,2.7257581924873855,2.428947996139956,0.9443727999460785
165,2.3124517253590944,-0.5814819590042835,-0.5083070198331888,1.2492733108901632,1.2061333743294103,0.7992630588509789,3.075101766088358,2.825441146724169,3.274356664627952,5.713611602836847,0.6509067234006624,2.4062187055460096,3.03008440397593,4.361823927356362,0.9380076591178087
166,1.7363930688720415,-0.27861108593288486,-0.39834396658389903,1.0957650456384205,1.0663646872540482,0.7433475217517785,3.362656879006563,3.16066687174346,2.453827539615057,2.5132977958287066,0.6684167106117298,1.9962448387237315,2.1571422641321525,2.0501711593797225,0.9373949194022402
167,1.8045191551307278,-0.32527061072301866,-0.38194748897067055,1.206931301017573,1.163485760392687,0.7847042335648003,3.20197269467669,2.9610937057997146,2.163562137598,2.6888176111848385,0.62595550513784,2.0309477177111206,1.9453175564453793,2.194857712325953,0.9217298699541105
168,1.6857073300750125,-0.23828181511759505,-0.3526855513934472,0.7939354633262714,0.763623663028806,0.6387976650250945,2.765761295283528,2.460217089441348,2.1837591536606378,2.016282989099661,0.6403206450210053,1.9523978151908676,1.9826663893839764,1.6886755624078207,0.9385155165374838
169,1.3329094594412085,-0.0808973273013951,-0.1462981860643719,1.0987445922618182,1.0516824685258954,0.7357714569565151,2.3865221230264844,2.3455372568408164,1.7299922472008145,2.767831104928555,0.6528756675646988,1.4802632186770193,1.5119198053658303,2.0785561941231117,0.9316343061513158
170,1.572725694369231,-0.16569264474751932,-0.16333658205822388,0.9549222939297372,0.9354954748010884,0.6930389185338597,2.465595469629453,2.356885575130146,1.9368815876316634,3.1339978700336126,0.6284777104787076,1.7181373293574413,1.6840605526382977,2.2982568025677876,0.9377713620314265
171,1.58048801891576,-0.22041213026843753,-0.230339815400672,0.896527936684407,0.8912917278776777,0.6787417196979988,3.1320415329937408,3.1853302334737554,2.239775151076288,3.0282528129367083,0.6125606311107803,1.9517717391021752,1.9810210278123568,2.526012292019702,0.9361164260231026
172,1.4345869410977148,-0.17695902167937322,-0.1111818004564177,1.0065184674536825,1.0098850616342474,0.7529212447838644,3.178852738424955,3.505730222726618,1.906979742933231,2.2636640402123187,0.6284777104787076,1.9005332107268509,1.6623990941208706,1.7443136924446165,0.9397059760966696
173,1.2846905070714807,-0.1567576322745735,-0.22667654796342726,1.0950421683279827,1.0694903278461088,0.7643338810445026,3.163811624936132,2.76175975839523,1.8883729123144062,2.0228407743571606,0.6566669596287297,1.7115321632092262,1.68467767694189,1.6941904224140019,0.9283469251265191
174,1.8967896526973946,-0.2989669818905605,-0.3958222653281271,0.9757487289069477,0.9561709477831569,0.6996280116956293,3.1668954026518414,2.8874159903293055,2.157114266290078,3.020122686853458,0.6233814453054027,1.8862166795809419,1.9075295849228318,2.4547633855940996,0.9450826280139711
175,2.614410675842647,-0.8978958006278304,-0.3056806493125862,1.1736472236243063,1.1564569135553242,0.7624193254626694,3.105853554789286,3.121247966236495,3.753492765043177,3.334393283821886,0.6684167106117298,2.9200065630258556,3.589718586335635,3.1060803307228566,0.9443897118647144
176,1.8931260186193004,-0.48955492489563834,-0.2835915791769479,1.2758046689794391,1.2513078848436219,0.8259112122032636,3.5953612469630793,3.56467522963792,1.9320253844093294,2.1894554563767503,0.6528756675646988,1.9351680525234112,1.7187733502292446,1.8564696789230055,0.9447868404831826
177,2.194385947119596,-0.17432430300363366,-0.5160414952092566,0.8221060011761919,0.7888397131011274,0.7712908874985085,3.1926478499102346,3.210547104414871,2.451602372141649,2.231539616133077,0.6180765742263259,2.4769384801388235,2.2128217741498872,1.8426073718225398,0.9406407745963883
178,1.864115763852294,-0.2729726445458691,-0.515063432891816,1.172706820085218,1.1657588293347765,0.8066080851842939,2.771802350769255,3.1355711030058875,1.9994637123426628,2.7141195543977576,0.6403206450210053,2.2617630984737906,1.6998003525144918,1.8662716723378978,0.9423784908536366
179,1.6352341144310192,-0.1842103034203607,-0.351662892819511,0.726688153620525,0.6907754986184798,0.651697164935765,3.0066079195784114,3.029271326551425,2.1999372438716756,2.848507671667934,0.6097226960127671,1.9390228102069467,1.9537423786167847,2.221494935764178,0.9336882854720684
180,1.7339933081805348,-0.33228226853888193,-0.3067685324657691,1.0590172249334886,1.0509299561722703,0.6889285013483238,3.2254951426896135,3.243305721688107,2.212144962807042,3.0436759392043196,0.6509067234006624,1.847906629851056,2.0037532258499993,2.628651408454142,0.9413546088094144
181,2.5320308748092377,-0.6578373021869518,-0.6521060800774319,1.123751014772829,1.0999805736507529,0.7123649602263742,2.3579302933039163,2.3686406118270167,3.1100970647937647,,0.6468212168108125,2.2457847679515965,2.8428120676143713,5.220355825078324,0.9221762861915107
182,1.7813334053604142,-0.25426259102771054,-0.5183623151449174,1.0301477410277318,1.008100367034116,0.6897572581212487,2.3661694279857657,2.798157438713031,2.540054919243822,4.766100853601478,0.5490601803369085,2.008589658485673,2.303082069729198,4.10016094754354,0.9400612934860592
183,1.2613116487487037,-0.07230598956317147,-0.2832976502671321,0.8676276759606941,0.8203342911556877,0.660304575886089,2.321671057880428,2.1295703088068882,1.7845818597938297,3.036188276661204,0.62595550513784,1.4086308626322612,1.5442548006531458,2.3234527965438545,0.9349734781712694
184,1.6727978534431966,-0.13776645898535378,-0.46363073033523167,0.539605328741753,0.5255941412677156,0.528767870332647,2.2336538265154826,1.973431971862532,2.304723603884845,2.6890075041332597,0.6233814453054027,1.5721421276904035,2.0344407503642583,2.2212522452715184,0.9383717902308069
185,1.2917891688251417,0.4120704599505699,0.12644976532640362,0.5839839041301698,0.570025884518517,0.5320103111618859,1.6457044253500266,1.4498752802932657,1.6653825545778222,1.9045940285182164,0.648888643467878,1.308017313871806,1.3485479445418955,1.309092962847076,0.9269776827093508
186,0.7602568203238513,0.039709886938461336,-0.12464379383632368,0.402570505102691,0.3854857851972641,0.4446313981204074,1.6474398478217112,1.3195921779962914,1.2234687969088192,1.051974489216712,0.6403206450210053,1.1077203076988371,1.0176488325369542,0.7852053249778929,0.9269637480839249
187,1.6705944591232174,-0.41976272945333104,-0.24763280570993212,1.1330205397833597,1.1193014021874097,0.7926196191644709,2.1493580436778177,1.7335446578118332,2.9043344346208517,3.749837928817187,0.6068309995095971,2.03196440847056,2.6822768725718937,3.0044442141560124,0.9099928644637382
188,1.8569283094476343,-0.3277582919525721,-0.31146832743178565,0.8450131304327383,0.8104812427666058,0.6788943976621548,2.325322226575334,1.7007079933678395,2.7831780427912336,2.369628393469031,0.6619902821573977,1.656413058079972,2.446635944772275,1.6697263432909055,0.9326748037834623
189,1.7166061052277135,-0.283489658223397,-0.3252878731679001,0.8524698180379792,0.8360947513006475,0.48922208333265227,2.1487572735463822,1.649788999167003,3.0189926533097418,3.3068122033924876,0.676637947632344,1.7725452503042507,2.662413447706398,2.4727965809714885,0.8697305847577319
190,1.4999227942351259,-0.0947231509354457,-0.12226031116450908,0.8548861785365951,0.848460441434697,0.6326967383766134,2.524155692049448,1.8574664745001757,1.5854260026733942,1.9666229893883438,0.6403206450210053,1.5322197027225544,1.3260721617101985,1.4492459182503894,0.895557829380132
191,1.528091808966914,-0.23186707039341953,-0.2661956608292061,0.7279490565925645,0.7230530479130014,0.5928616242080785,1.864757800847517,1.512803072261145,2.759344597201243,2.8649794511134483,0.62595550513784,1.6755183624740169,2.334485051314333,2.1558145204644097,0.919017993789205
192,1.5405874284154604,-0.21369365185572958,-0.20861112165936646,0.8833010860379539,0.8660936534682474,0.6313876358465815,1.741874776189536,1.784839470933831,1.811749913779187,2.1833178485762943,0.6207552362147116,1.715539443316646,1.6000920500158626,1.8003643164215735,0.924205444537876
193,0.8264606125563038,-0.05183184421517173,0.002711075718911493,0.8697681218666531,0.835482350281304,0.649303648680715,1.9640373496495998,1.5284437568064249,1.3077354458633754,1.206885370677826,0.648888643467878,1.2241755116434554,1.0221342733832552,0.7734875203099119,0.9206951923980878
194,0.18440423114205098,-0.024632288208544725,0.01883833982394624,0.6270126390535037,0.5618650494822465,0.4833039178587523,2.154138768514789,1.3643972167919873,0.4287010619041035,0.4620934982662774,0.62595550513784,0.765192324542475,0.3321208083940146,0.2237346244621494,0.8800452578534358
195,0.8949480657762959,-0.06473871764224526,-0.021386040690976438,0.9699281950819557,0.9475686835943237,0.6374595045748687,2.3941232560982297,2.2237404549172717,0.9601341136498522,1.008993347069167,0.6309483474627791,1.1060733868997303,0.7742987406849282,0.6732417202131324,0.7056614652840149
196,0.9689659055444335,0.1704642134342501,0.09427550324508027,0.8699925201968584,0.8386419922005564,0.655665908102076,2.048137182481806,1.217910893645112,1.09828501449593,1.3795941873493267,0.6566669596287297,1.1194274283820298,0.7745862748847816,0.5930285586516104,0.9592523252835611
197,1.4836319128749074,-0.2455249233294578,-0.09736950117631447,0.7693376127008589,0.721302896010187,0.6454510811632692,1.945051220435554,1.5066718170881501,2.2935538867488554,4.975927495338788,0.6668815377411301,2.178795441867852,2.077284043539815,2.2170115307740432,0.8464739054216199
198,2.167629242674123,-0.23121378588523978,0.0,0.6616548761309371,0.6377501329231373,0.44475709275049025,1.5418463912436127,1.2286946797604918,,,0.6528756675646988,3.83918568147588,inf,,0.9180430919422409
199,1.2130118158386245,-0.1859473439960062,-0.26958942599358804,0.34109599965040793,0.2965492013731502,0.24848857204484184,1.8924495571984477,1.3448598593384673,3.2437129748479347,,0.6333676938231112,1.2986091371420727,2.5416101361570895,5.957907763579139,0.8395726646890982
200,1.1344806611747713,-0.1507808802673557,-0.11309528851651131,1.0638163462058468,1.0077247552687107,0.7486933552716506,2.5867532279356342,1.9810287847365426,2.0414154905754347,1.9841394068400655,0.6713451011121618,1.712640264775456,1.7437175280639752,2.110565499099573,0.8111578772233823
201,0.4258155877265658,0.020073732764476937,-0.039424097180681114,1.253735156305169,1.2071901239902414,0.8564307818233104,3.4232220342537274,1.983898990833052,1.2843514065892134,1.116897457649095,0.676637947632344,1.494622238005519,0.9216293751330707,0.7093362773060541,0.7360715120712441
202,0.6618367855550734,-0.06364799853430494,-0.10525636866054558,0.7986203307312966,0.8008279244993861,0.6525711667891678,3.171241103596798,2.250631502746641,0.8812089176266392,0.5305652697984051,0.6008849035917525,1.4069506860455514,0.7884755093492887,0.460347861141999,0.9148392305266299
203,1.1167712356639643,-0.1792372555357873,-0.09539117738906178,0.9702889955744194,0.949803478912244,0.6671767480455909,3.3557523910527625,2.1431656990868215,1.900746057493124,2.8555007071589045,0.6602640781246099,1.7859099444391633,1.637192272611042,2.095584773929316,0.8220818335021355
204,1.4792989127206142,-0.26877578058430623,-0.07146296934143503,1.0764013265476249,1.0532289909690031,0.7334947201033069,2.3630234641694146,1.2658766647689497,3.5792891175637207,,0.6584896970785714,2.215795962921655,3.275566923783312,inf,0.8014966579812675
205,5.0892885130629235,-3.3452221315670077,-0.30210130279475444,0.9253585382201605,0.8688925555955589,0.6952624825094523,0.7655354903891347,0.33372563378963893,4.437442961938647,,0.6740851607140061,3.497708282042999,4.220977213155467,inf,0.9458773720112006
206,3.4519086690479015,-0.07856859812131001,-0.07418143707037239,0.9347042621508248,0.9134016144639286,0.7123618977639593,1.1823021851142193,0.3183599751835662,2.6556906059526764,0.9628719247165278,0.6357360191111145,2.472319534282529,2.2759514953462356,1.2793965661431779,0.9002225666129907
207,2.588228553069892,-0.3752450820773229,-0.32247184580731164,1.304294363292179,1.291980835127034,0.8553740222393607,3.2175307697035493,3.2387255560685295,2.5137780006079664,3.2851605438541256,0.648888643467878,2.263043918373513,2.337691670546713,2.3070196900619115,0.9090670281272447
208,3.42659020477882,-0.5192638610730629,-0.460908055947608,0.674441412382956,0.6164904794112324,0.5925739728108345,1.889215739598024,1.3126343661944784,1.833844320928491,1.078142534173789,0.6008849035917525,3.2092005593447825,1.6910866775826079,1.0476921982408527,0.8512814647419802
209,2.203192128396748,0.19829228511967423,-0.0013739278966780066,0.7446989969341247,0.5817563563389638,0.7057196368312406,1.9314025963853672,1.8013709390437,1.312191155555729,1.3182469157858192,0.6380535849069913,2.3938479188410335,1.110490221740635,1.0259307372333049,0.9470687522435158
210,1.5741797882937112,-0.011412243436607183,-0.15357505288185025,1.0700845677649595,1.0185469027375231,0.804817635217221,3.2251038746847405,2.6245135818410636,1.7903353317114115,1.3820663764947156,0.6233814453054027,1.9972268355293221,1.563357131644292,1.1561387047202247,0.8541416084129111
211,1.8161504691176111,-0.09635576260546852,-0.18087727773403817,0.7604718455884483,0.7053547230847254,0.7511055230857717,2.558280916421221,1.826125157922172,1.0035954221033858,0.660613478766743,0.6528756675646988,2.109763301566225,0.8583538049547927,0.43541633493868553,0.8830718407588889
212,1.95422865479289,-0.14350276995177969,-0.15701811300684443,0.928592381659433,0.8805890229758496,0.7731163995925544,2.1920633515431294,1.430284532375346,0.8727304277843879,0.5135469473947665,0.6038851895711802,2.1951267792540734,0.7873602675498971,0.4689515512949318,0.8891659732426515
213,3.1128116568628204,-1.1313553259678168,-0.7707284133882712,1.0267757303786782,0.9948332420374051,0.7957319452657092,3.151635713650221,2.5537498605187885,3.597722032024011,4.637690725370809,0.6357360191111145,3.1587742156159893,3.3812562832408304,4.174387269895637,0.9235648981765423
214,2.4460235229252185,-0.5483569956247043,-0.6411041791168927,1.4313651495614803,1.4011351629739288,0.8392517474886199,3.6423748215792044,3.528586968469482,3.194608329310185,3.251396364250918,0.6652988471865258,2.7509577021134866,2.966247792874855,2.6946271807700692,0.952171727929287
215,3.0229948941324483,-0.8604685554158744,-0.8228655705877328,1.106381885359578,1.0608619099991419,0.7599234878138321,3.251523960666336,3.3135826110222366,3.3085039702098356,3.590612086817882,0.6447042257417027,3.108776554863201,3.025788835885454,3.0757749812275272,0.936853247540276
216,2.1565781758832823,-0.18524701308433977,-0.36290873153161596,1.27995027095294,1.2420669794113497,0.8703729364495021,2.656163730094333,1.2036183822106588,1.5185671183816174,0.8195026393782876,0.6528756675646988,2.5684331967662932,1.4464842318244855,0.7927770215087866,0.9411350335789804
217,1.8944681994819625,0.15356108566072324,0.05395299810233367,0.8017279061472188,0.7369038179287873,0.6085962202674446,2.129074966776192,1.2149008972842266,1.4487493587124367,0.911481513599291,0.6619902821573977,2.176442038153691,1.3495629941018124,0.9559647199464308,0.9112592621330798
218,1.9890661573659323,-0.09118508880260379,-0.37747097701367205,1.1686064824284952,1.1636097040491609,0.8083726661894762,3.0043805890659554,2.2342643947857104,2.2008373220458664,1.6689459880234032,0.6547956803312163,2.293295046086953,1.9809739483293807,1.5423089743852116,0.9257950006550245
219,1.6986249142829262,0.2794996982245659,0.04421859845278475,0.6366479975992541,0.5995781178805546,0.5882482236648645,2.069526339928389,1.5271549614440572,1.3753977364124952,1.084084286277299,0.6125606311107803,1.8471312447630415,1.1889601674825294,0.8093119058411794,0.9445621105427338
220,2.7148502525039055,-0.001776908695241719,-0.5744595203872447,0.7233774229479919,0.6926026915747328,0.754782975862156,2.0966322258909735,1.8728955796800117,1.7444669475428356,1.0692096642792392,0.6068309995095971,2.8867782223860345,1.5718895046130552,0.8804716340692019,0.9379330546694458
221,1.9822549026287475,0.06603601488707889,0.008783358441108557,0.6266768997822265,0.602214765370295,0.6758383956206866,1.5703316197830788,0.9917829271692007,1.5060628299060659,1.1327903666257706,0.6584896970785714,2.1886613466757314,1.2744114387045113,0.9917635193072911,0.9511869169677494
222,1.888945021524688,-0.27083110164815094,-0.28256676087216215,0.5565314128793359,0.5155080961819973,0.5898564286224108,1.8877238668174614,1.4267953370826967,1.8971264732086037,1.4092573791728857,0.62595550513784,1.9457657150419632,1.6385535435849161,1.2071805055527056,0.9575215010219503
223,1.991062603915651,0.18178875907947156,0.0042198564860636,0.6011899669259717,0.5772357355888008,0.6340411622007638,1.246098640762483,0.8656355913578075,1.569574560917417,1.146803942465063,0.6509067234006624,2.219470186283539,1.4370496450570611,1.1717939059617009,0.9461317841504693
224,0.9268771048577543,-0.10240442390852528,-0.022460666736031476,1.175339876141414,1.1401292503612996,0.7806828503691162,2.719981054211063,2.608627160200425,1.0319696200271773,1.1256502545293958,0.6008849035917525,1.3794732335517432,0.8770768098692909,0.7914116350499014,0.9551038438714925
225,1.0826832635437862,0.216344063144154,0.09246366056120037,0.6728897218785738,0.6096763402958413,0.5289274483797559,0.8873140002354004,0.5413552222392997,1.0931688463903122,0.9275478197433958,0.5783247308855777,1.213237814509413,0.772025500915166,0.5408820823800189,0.9438531795456508
226,1.2354583467165994,-0.08381899031195439,-0.12375170909614319,0.9859414835807843,0.9602032568698541,0.7004477624043527,2.474030502946414,1.7198622479885035,1.4637431442408486,1.5363261193431046,0.6284777104787076,1.5784777193525243,1.2500466352175603,1.2349677441692515,0.9140840180835806
227,1.4773779302539376,0.30948113932113874,0.23187513584709207,0.5255908848276468,0.4510678851064497,0.5411644991955088,0.9531936437732467,0.6738094377031467,1.066837637901274,1.1210791519106287,0.6547956803312163,1.5973995540076469,0.8321354624675994,0.7198665712995371,0.8846274257732908
228,2.5068281272151802,0.701508706732985,0.2392051939476647,0.6140730091512222,0.565616072200035,0.44997610287741757,0.9886659601965109,0.7783013392809284,1.8028586971308314,1.0689978553746697,0.6668815377411301,2.5013070711557814,1.3598116044105975,0.6712141864694465,0.9102251076718273
229,2.422008337629687,-0.2852815535136968,-0.21185692459427774,0.9628240190967428,0.9453557078574966,0.6787329378854826,2.5085883700357745,1.5798585596068495,2.05035852170186,1.2999585629299362,0.6357360191111145,2.3170221407918152,1.8701689717966374,1.111126253959584,0.8527662221396382
230,3.1779604520561056,-0.5510067455398597,-0.24522116043292064,0.6169103155997555,0.5267445094919281,0.6991345222128389,1.709266198204622,1.1773073771989613,2.0653690788820143,1.0666925435654298,0.6380535849069913,3.1030700513488356,1.8229177686871354,0.8361302316331934,0.8178704708332568
231,2.5828001999538386,-0.1579440104240244,-0.17267968084600205,0.6913117196174252,0.6469336636755616,0.6393546258933441,2.198314235318414,1.4832191167450528,2.131058387629803,1.620632228540087,0.6097226960127671,2.6726830572649187,1.9849506982589133,1.4667274650505813,0.9293440569471602
232,1.9906418521965108,0.14069527031751616,0.018122547964301017,0.6639613318159587,0.636430750894734,0.6466216591507024,1.8503348249995355,1.0723066925634066,1.0987035825385474,0.7612786552501656,0.6380535849069913,2.2344073684639354,1.0302215704162005,0.6940199078880656,0.9110970220301122
233,2.503822120641068,0.375097836454402,-0.009480054014161965,0.7211578530882007,0.6868729773117676,0.6624833038671043,1.7565196156534415,1.0292263295639976,2.1485948395505052,1.0465969186855033,0.6528756675646988,2.443253001187888,1.774389777378706,1.176207014703006,0.9311143718501124
234,1.6633058793453255,-0.07378335237658895,-0.09934798850380733,0.6485766147953828,0.6151536077121362,0.6354153020488101,1.7049821295006726,0.8079626003209037,1.3405931943820482,0.9795418123479126,0.68318204999448,1.778316893531566,1.0642175349504384,0.6815841666926579,0.9518276160308842
235,3.8161827971891897,-3.206411620583421,-0.20271167823892142,0.7885349280636801,0.7765552815138441,0.6835218198655112,0.8763391139915205,0.49805972085691375,4.277997096095832,,0.6509067234006624,3.485303890959155,4.051060047445357,inf,0.9586743121938763
236,2.0411978581453747,-0.12740644794841094,-0.1199524045640632,0.8709858831577788,0.8673205570760519,0.6939335595537504,1.8335325317303477,1.1807692403265846,1.3926886401562142,0.8305176996089648,0.6357360191111145,2.1079324698574577,1.2284139394850817,0.6835093008888223,0.8980510474037525
237,1.0397782251129983,0.064253598572929,0.013176136051461174,0.9369114387696675,0.8852753914069741,0.7258689617487554,1.6063287163792457,0.834573901139958,0.8615445263021034,0.7535194580041619,0.6547956803312163,1.4188175528254507,0.5989228225369743,0.35932882889285644,0.9363701207607972
238,1.5983563229125062,0.3166299329907112,-0.15286977926449374,0.4327889371445444,0.3989679917465997,0.48423837334077213,1.2410931525974311,1.0942888404273838,1.7764266014165588,1.8907645792621561,0.6333676938231112,1.6516497612434098,1.5218809803769513,1.4473172570869601,0.9385614729090134
239,2.0600257493035317,-0.12174577252868324,-0.6433608011277812,0.9906290522908594,0.9547586054797156,0.6854121086715617,1.307643504167179,1.1329205015179804,2.4416513045157227,2.8406120946651536,0.6566669596287297,2.0514805632835134,2.1722136709664364,2.3880801694657117,0.9446250904887317
240,1.874418608725607,0.19990110147408324,-0.04321259353792595,0.5156198287750643,0.4869929367442097,0.5189857738338568,1.4064129005056527,1.1928011563834389,1.7313615099081845,1.8175964122184034,0.5748741956352443,1.897194061703575,1.4126403139446075,1.1980074663793465,0.9321874361371024
241,2.1654874536641877,0.2935151129337976,-0.49019406445925684,0.742832619839964,0.7255468824664891,0.6179291654454467,1.0834052007471027,0.801351406988237,2.3854442583560216,2.5015020386209588,0.675384900321601,1.912120825899239,2.001570236629604,1.7349721129062785,0.9088427861206961
242,3.0590908029587793,-0.24064265737730284,-1.6355997017707484,0.7957235272204818,0.7751070674636806,0.6662337952752742,0.5515610314454819,0.5476629100576019,3.3970416485638357,,0.581717464821069,3.121043575631166,3.1805758997806555,inf,0.9120565479188397
243,1.7751047029486011,-0.03762142236659405,-0.006362835747238282,0.5817427728441622,0.5296046439274609,0.470242448717112,1.2847408035803616,0.578558599153892,1.0827189788261251,0.374879911317865,0.663668482632973,1.728096331126438,0.9494246649409493,0.3005896761367843,0.9096482141441801
244,1.3623934784880902,-0.19552191088271756,-0.04516760365017839,1.0145448206591519,0.9008088747324228,0.7081280284315397,1.618148149887666,0.4794317390838485,2.9069895179686576,,0.6528756675646988,2.599494794547865,2.7419620646607896,inf,0.9209037267905634
245,4.655605785828108,-0.4095484995689205,-3.0045624100383583,0.6512950792752691,0.5367450348134417,0.5982992007336806,0.823517800192346,0.2786304186966341,2.494758149208182,,0.6233814453054027,3.326399171586969,2.4753637114294356,inf,0.6943511950513724
246,2.244787185671815,-0.18374170585613347,-0.18683207421106973,1.0694848148818321,1.0654642691110838,0.7471186581392136,2.8091621794579154,1.3054109728405678,1.9086196880645656,1.2692594208949037,0.6602640781246099,1.7753613234184187,1.7404989665638764,1.428675202409437,0.6360240457130897
247,2.0131329229664665,0.062417880670558645,-0.1672264259450923,0.9891724053446258,0.9529483559339097,0.7111773072025313,2.312301383915659,1.2367383504461094,2.1568623757766083,1.995339815254418,0.6403206450210053,1.979294593074897,1.859374692830509,1.7488127330546341,0.9453533042791268
248,1.4886337530263805,0.13600999954289605,-0.01663619481762546,0.793347618369133,0.7607131833022395,0.6529920617889822,1.8240574112306507,1.4545774385370593,1.5094721754795142,1.3930761285045243,0.6652988471865258,1.817077277212345,1.2874782906265576,1.0921909280012794,0.9416013035918488
249,1.956623617039113,0.2419924018373163,0.05160533504875042,0.7523035425361165,0.7208811701060771,0.5774773415348797,1.7896358681287825,1.2381416546437352,2.01540263274009,1.9631999681769976,0.6652988471865258,1.8821948833662012,1.712991859957591,1.4970202044662753,0.9246726367643591
250,1.4422422275024833,-0.03281143155122235,-0.19808226930764988,1.0420559669520595,0.9952320098848739,0.7312223202765551,2.5738109411173786,2.0683789040744593,2.064423607404876,2.5765806183872826,0.6125606311107803,1.6905877141916834,1.829017898520774,2.1103070133772883,0.941410187122524
251,1.3778064517665147,-0.14630320814076836,-0.23962282471813817,1.0575560662434513,1.035797859247716,0.7414128850611681,3.3942470410488546,2.5004237804273806,1.6670242855112813,1.5038124695999813,0.6403206450210053,1.7402428664423475,1.4216751819961944,1.1325047921667726,0.9318950961789397
252,1.145890717318804,-0.09130930592960856,-0.12297081901407309,1.1578949959392544,1.1384671777228004,0.8162655547559557,3.1462902539305273,1.295105451153606,1.778875434165713,1.4448218092377225,0.6509067234006624,1.7537574470950474,1.5463886904973798,0.9869744393274867,0.860834759094736
253,5.005229092654813,0.6189543660416845,-5.624183458696497,1.5396686253281637,1.5259661951882175,0.8203942626218711,0.32386636290096477,0.3031966772528069,0.7301738122636452,,0.648888643467878,4.9973900673462355,0.7231995256263472,inf,0.9339945687671567
254,4.200295775665411,-0.3096692602129125,-2.966561444806108,0.9931737886014416,0.8032903958672762,0.8363582616121537,0.884178174651051,0.47285478793598634,2.517837985352017,,0.6447042257417027,3.5947821307348207,2.311524608032854,inf,0.9497069253941748
255,4.345503908691532,-0.2547855317347021,0.011060995791563055,0.5917590678902017,0.5491520530234111,0.41765218408951504,0.5232978925298174,0.26843468049304564,0.799016326972875,0.4623314806699931,0.6380535849069913,4.17700179590311,0.7912127823091936,0.46808853130963596,0.9562742170983226
256,,0.0,0.0,1.3752212584474626,1.3317579296307862,0.7818000466732268,0.19505041990011246,0.22289207699800637,,,0.6380535849069913,inf,,,0.8774539843064693
257,1.4677481093499305,0.15197152998168517,0.15803658737394777,0.8298394756377532,0.7304923870687042,0.6415773692708551,1.3359101755545477,0.7968089861927261,1.3726861926975151,1.3765029947796539,0.6380535849069913,1.6855992733996645,1.081847137659202,1.0203943244708655,0.9392218990047175
258,1.7591325775408946,0.11676110974397624,-0.2354797043183141,0.7163152694101803,0.6778056274032114,0.6358286787172946,2.069316181450918,1.6282885967410325,1.8692054382953824,1.9511972096488777,0.6447042257417027,1.8436845420929744,1.5997246883784904,1.431821426618588,0.8995416960651356
259,1.1798473923708799,0.04096415927984953,-0.16255919542058272,1.0912646850115564,1.042904749823005,0.7633616218214322,2.6762859886763732,2.325440592540798,1.6255809861636283,1.676570947798632,0.6528756675646988,1.5758419630055849,1.3953061049178677,1.247249142968627,0.9317741940426689
260,1.2210685317969177,-0.05457553590441966,-0.03176507171801801,0.6641287030457083,0.6156765108217135,0.5988985251681578,2.00252719306194,1.4025033825097508,1.4491151534408204,1.2385036680780424,0.5677978065141052,1.5590088803024922,1.2155373120880824,0.8845587330221307,0.9453413270233106
261,2.240228972609158,-0.17290477896511303,-0.22955192202299635,1.0261589743039252,1.0111120259391526,0.7564382129540866,1.8064724071343334,1.200481076100999,1.8151956469448085,1.2757140568619347,0.62595550513784,2.376351243233655,1.600506623532779,1.126258280123987,0.9393230651232599
262,1.9398044034227622,0.05099580920705549,-0.08043214270897758,0.6233311791439701,0.6056915522134022,0.4826733346028581,1.5627839631269582,1.193555091402677,1.3545673632220256,1.0930769373938387,0.6097226960127671,2.1919385729069822,1.1591996088824363,0.9057253099304571,0.8972425106784889
263,1.9301009834750928,0.13845451074550397,-0.04360732409838319,0.8113613342043792,0.7478819447255164,0.7694725437622368,1.803374905142835,1.0946628173407635,1.4102552473730976,0.9004580745403185,0.6125606311107803,2.163789801249982,1.2908083571392885,0.8780035929570881,0.8733314692139609
264,2.6810833681317807,0.5396283952709955,-0.33514065275196403,0.5804582657383015,0.5446627146817682,0.5587089486609307,1.5990419183690783,1.4549036368190529,1.9168327709358124,2.275485960310788,0.6233814453054027,2.557477342622836,1.6087213233672486,1.3469634490574671,0.9490554715473088
265,2.0246377223466228,0.19434244723422278,0.03897796797644526,0.8204998544592144,0.7850173261577026,0.6886633910022066,1.2547137405095663,0.692125032954098,1.0159832818703778,0.8422220524560391,0.6447042257417027,2.2874775663137816,0.898339654651998,0.6627094729032389,0.9493129351176927
266,2.6517161385681463,-0.06335768132788999,0.17821346546927508,0.9315712966188764,0.8689959128185842,0.8179902423913201,0.6825108647028985,0.47675918049221033,0.49795236351317457,0.5625066608877839,0.648888643467878,2.724857319418591,0.46553903412774084,0.49493385105646276,0.9423816247055177
267,3.6100636587102612,-0.9518881350672621,-0.6540097990510793,0.6358225083360473,0.5983542360543318,0.5427030350463209,2.03859185305391,2.109776934213537,2.827735301717091,2.013317947438471,0.6468212168108125,3.2950371858337646,2.6031394268506602,1.820508882514041,0.9247360047933783
268,1.9581320109263995,-0.3622443664868911,-0.29818313663490703,1.155408049360878,1.120576525640627,0.7705420454104275,3.1060627989738685,2.132004111823238,2.8513760112858018,4.96033148284356,0.5978297680564633,1.973041566447347,2.552085911867208,3.448450266512701,0.8779302606656187
269,3.8873610012890683,-0.36814075101349086,-1.9969895663996025,0.7449506028943855,0.7009283060188111,0.6183923099458124,1.569092145668843,0.6301082072238147,2.8436432682491044,,0.6619902821573977,2.630317852561858,2.5408775065468396,6.236369590203704,0.8547147862513217
270,3.600145440967903,0.09424450008748764,0.2888136023466372,0.13417498074283643,0.11492812151020136,0.21156970451880683,0.5159888387906291,0.4614745620413907,0.5557314178426623,0.4770367599022663,0.6380535849069913,3.544682914670912,0.5364164208011681,0.4287606707116865,0.9543167650536489
271,1.5246815007645775,0.34808454549391254,0.24175069532858773,0.39641185538116785,0.31326079003317425,0.36853598973380003,1.2031151806873392,0.7702692600906136,1.1350460620042726,0.7887337984376681,0.663668482632973,1.5983331327019947,0.9052807445517016,0.7534831604347023,0.8262950809366615
272,1.716867145812893,-0.3076635686369993,-0.22746395556945812,0.9897138122662659,0.9777964183948782,0.749729348366707,2.3373225171676837,1.9966858645917798,2.5986689351503216,2.4130979919120272,0.6584896970785714,2.025711219258868,2.368837940413904,2.0501711593797225,0.9382562575805067
273,1.6498488620171006,-0.132716101900344,-0.3781946330541324,0.4907159900896255,0.47001998800502526,0.3937254241396366,2.1842972748340688,1.8333672037731654,2.0882462671460726,2.144217712163071,0.6380535849069913,1.648294247536683,1.8265496742937708,1.7081625982065884,0.9060448296574989
274,1.2331209659504478,-0.12102331505715036,-0.11079330685664138,0.7790421005637234,0.7661734192548976,0.6486281514362903,2.872342749054465,3.015815895448112,1.838755057965493,3.25723214571502,0.6602640781246099,1.7764111922812555,1.6004188329326055,2.4323129651001665,0.9063509802024069
275,1.4745075617778685,-0.10578978188456245,-0.1444995713581475,1.0540521787756645,1.0321573939938566,0.7287338578563505,2.594457234955427,1.6423068199788764,2.2460585137265157,2.4523270280296154,0.6233814453054027,1.7758205054265526,1.9157291772432627,1.707202081199992,0.9158017165580977
276,1.327896857370516,-0.0037952345466442106,-0.09375090776367456,0.8968471785906362,0.8209052199576676,0.7007858563907323,1.881738251415467,0.763033905292331,1.0838785250237264,0.4659263613137711,0.62595550513784,1.6775977976171599,0.9663827422451046,0.277881885125271,0.8158674261576571
277,1.7936020742704746,-0.017355556465081023,-0.15581994807587518,1.0142742440797976,0.9671411249466111,0.7462271858609452,2.227122648260139,1.2187484774869595,1.6198261436697743,0.67584084675997,0.6357360191111145,1.907843948248857,1.4784648209195477,0.636645796967023,0.857756821984873
278,2.268837748472121,0.9012355488745882,-1.3936414277788658,0.6674704583554917,0.6054574628888899,0.708296677456927,0.7587279411071381,0.4630456395807929,2.5965672842050544,2.550777168852272,0.6233814453054027,2.119708134908391,2.264988728321369,1.9108802977260984,0.952512838655245
279,3.669381903333779,-0.9678927849450694,-2.5355960788778233,1.4555431828399366,1.4479899087354553,0.6810585367870926,0.22224459666239219,0.2883690304811043,3.579409850412257,,0.5915533975974677,3.139346069244896,3.370379080116595,4.897839799950911,0.9465107706624134
280,1.7406377283430965,-0.3884062128219287,-0.045041833169741446,1.1553240914488978,1.1047967269814354,0.8179520570033627,3.055389397757735,2.2963429912961866,2.455325298770977,,0.581717464821069,2.652142569163914,2.257140230672054,6.498282149476434,0.6409878230755823
281,4.772538626900698,-0.05906368624783376,-3.7748756773623944,0.4717797974606965,0.3122136990553113,0.47790601581365355,0.6373838637059969,0.3469036310340531,2.26445329245673,,0.6403206450210053,3.8532301255866543,2.2660677930312123,inf,0.9584588299435797
282,4.077959598715146,-0.1630484193276307,0.15021473511103078,0.4767175655707214,0.35299822991250024,0.6323026119226233,0.5447086809794898,0.2199804160624933,1.2843063787845366,0.5890728427642048,0.6380535849069913,3.559802411838794,1.227689330943252,0.6564938629119097,0.7924637443689885
283,3.3337220464941915,0.11107529725823007,0.35824267307502167,0.34076602459371574,0.29739061535867556,0.5140267632506661,0.35844011566377854,0.16484122694070247,0.6626420419483586,0.6510691677077304,0.5978297680564633,3.239929234066033,0.6599456374264653,0.6596848032435405,0.9571696798445716
284,2.2608172900925934,0.041796256693491074,-0.04733298962306853,0.8658125017899343,0.8124018440610282,0.7499032141577963,1.109054503755505,0.6572016062469728,1.6355267751969693,1.0883291658835959,0.6425374456860184,2.526145397804598,1.5245013091517834,1.0746514954600144,0.9484516396369146
285,1.3177823258149741,0.042025526623248766,-0.19901057420518126,0.9686778430510524,0.9140367817367714,0.7200143149468505,2.535102212450351,2.1063859508463163,2.010039003272695,2.3242719423057934,0.6425374456860184,1.5107999425371008,1.711136115627694,1.7672639552113958,0.9227125251942445
286,0.680155699292682,-0.09959712942098306,-0.04782668925155783,1.1387424057035735,1.1212579240356357,0.7981360227763671,3.233018660030517,2.003685970840057,1.5691244567443563,2.9283570734709006,0.6652988471865258,1.6709587690823509,1.2064967635472674,1.490449066820708,0.9015809305160488
287,0.34803409676971186,0.06201541341608763,0.0008359857336657228,0.715658801909826,0.6873635352981948,0.5366800672439757,0.9557545242598801,0.39195957570809037,2.9911118012500864,1.6799535893309199,0.648888643467878,0.6454793390807685,0.15031598955129014,0.05598292411028206,0.8295773032060951
288,4.391809612515625,0.5983000202704143,-2.314150356362892,0.5020095215699085,0.4777467215657527,0.2611674226134582,0.38152079959324814,0.33172259977750934,1.463610724974325,1.4719675074803418,0.6233814453054027,3.926009247402886,1.4224325063277194,1.2969492607840407,0.9453723335544316
289,1.9679409163198487,0.3588440796627055,0.2392267896239968,0.21103373620254542,0.18865234663752978,0.22774272109342536,0.6881014089226658,0.5061586046129983,1.213030027432026,0.925398664720719,0.6468212168108125,1.8975645281250315,0.9942082106867614,0.7009887810112497,0.9193149578057919
290,1.3896391496826106,0.18310114166547165,-0.23611304083953444,0.7961014301340102,0.7642427236009848,0.6762626366548984,1.5792824623832873,1.4013785556792553,1.6654462396035514,1.5191869393002597,0.6468212168108125,1.5618654205436684,1.441227207416615,1.176809822623464,0.946223972931075
291,1.1108673688811426,0.10864941896278812,0.04282201131045249,0.7618333147040992,0.7344486497350062,0.5862579886271083,0.9917659417570961,0.6538690389299957,0.9959387420807373,0.9914304813041951,0.6309483474627791,1.344384958042681,0.7670289628804275,0.5139816020569132,0.9481913768886826
292,0.7085197112613048,-0.04777382514635092,-0.07830045360730348,1.0602571288330727,1.053691412291462,0.7557846221869036,2.3446161818513325,0.8914526563858938,0.716381692987844,0.41848121281830075,0.648888643467878,1.4108147663165844,0.5695258098765694,0.35960030334466075,0.941426284307852
293,0.2779794741047253,-0.026647473151732576,0.008151163703554593,0.6291985838438281,0.4685486764879272,0.4606661471501638,0.6467434913628805,0.21576330461889037,0.6038780222962677,0.12309136269012423,0.6425374456860184,0.46897304936454615,0.16228494979444655,0.08188782790764247,0.929308476606288
294,0.5355142005753772,0.015272347983555201,0.01747001761638589,0.9772266848260617,0.9297878268995187,0.6999320430525725,1.336791360938191,0.5447516499223348,0.9363482848893674,0.7541996985757897,0.6207552362147116,1.0272222925814367,0.6038933373655606,0.35439041374447994,0.9241288737712741
295,1.4887294818491452,-0.19551381357805353,-0.20441312570925524,1.0019327883500284,0.9974305438656981,0.6403900261446537,2.0245152556522483,1.9674081481494468,2.059484688048633,1.8238539197952441,0.6468212168108125,1.7551061515800195,1.8264147842134175,1.4927643853792747,0.9379864706315068
296,2.0736697044162624,0.5923482853824273,0.4089800966157928,0.3175025880884312,0.25037911569863935,0.4189357626533109,0.2777332623977789,0.23592746262056608,1.3581469446941894,1.7866636596713505,0.6619902821573977,1.9974724854793802,1.0018216796409714,1.0330150061822965,0.9432551567284081
297,0.3249194017003664,0.08269681990097574,0.0029402152489705347,0.8807750821698038,0.7797468599818753,0.5526962960826957,1.1625000785046937,0.42886040766324585,0.4869873759643253,0.24493229216289797,0.6727386042041725,0.7989769420988705,0.3415343097009452,0.2009372215282398,0.9577013080348307
298,0.8353772680608552,0.07827544384307739,-0.09354506779929961,0.7815114670037924,0.7366445409933371,0.39457638725660765,0.8262356003606633,0.2971864052179579,0.45771949310872845,0.16583800756250053,0.6309483474627791,1.058302425264611,0.4261684418727447,0.13991149268256722,0.8806409894072623
299,0.9363325758208386,0.13886033453515267,0.0021987622367500848,0.6654616928512856,0.6428873058696121,0.5857132739815489,1.3422292870582266,0.5492887208002131,1.1451963364641196,1.1266094730612584,0.6822068148872973,1.271498498675579,0.8765550346541908,0.649192246576911,0.883608247756834
300,0.4065671199715252,0.02802320760748056,-0.00808162820486999,0.43814003149833536,0.3957585357737041,0.3820602080109116,1.782792600425279,0.6565580257957326,0.6079905723040379,0.6116423754750563,0.6547956803312163,0.9701311270195696,0.4394091159327154,0.29250040660790044,0.9358776548468644
301,0.7637230953265671,0.07318987931192494,0.053272161714841726,1.0842840770482443,1.0696542772395043,0.7403412610894446,1.3157531180080084,0.5923506802838792,1.0390202429420918,1.0427288759852513,0.6333676938231112,1.3754203645680123,0.7008262862153044,0.4780815337831887,0.9454441509599841
302,0.4606828297929212,0.03061577640054558,0.02530494368582359,0.7088628041976526,0.6980218230655144,0.6053761076144212,2.5031398882104847,1.5483369713546695,0.8814626388860906,0.9699632387657141,0.6566669596287297,1.1556765892897873,0.7041476108523971,0.6135492138321428,0.9461142448351144
303,0.495930506663251,-0.0499594464075534,0.0011078649671331653,0.8466001840222108,0.8234810852862989,0.6509141921639278,1.848186301472959,0.7324119267197733,0.8154451267139513,0.6899305392783994,0.6207552362147116,1.0953509459657382,0.5667261954594248,0.3020535537436785,0.9254796063864196
304,0.4833654695959263,0.003216992026830068,-0.007548102364193732,1.0987417316197114,1.035564920072526,0.689888481087801,1.2387682399169648,0.4851470721615585,0.45129971958938736,0.4333408325144829,0.6180765742263259,0.8988874949754707,0.2776502997755971,0.1300831576469815,0.9301875396146444
305,1.1081781433353448,-0.04364957185036056,-0.09535812551915507,0.8594588010747876,0.8448719811233503,0.6273963891952361,2.3900246514568657,1.2854464917355597,1.1655237860800045,0.8000158437840459,0.6528756675646988,1.3586791940869172,0.9121919234176006,0.582783057456484,0.9444865189691342
306,1.0349427687521913,-0.011203403625698882,-0.07834280187618181,0.9693649544828011,0.9444973482588035,0.7312414096305132,2.811617410200967,1.8124965460856233,1.505224000159603,1.2132014289894497,0.6602640781246099,1.7050314657182308,1.2792115077880044,1.0111616408609618,0.9387434569626618
307,1.8392411048423383,-0.08348791306406089,-0.3315212797697341,0.9312435392525484,0.9141257883541959,0.6591146765979058,2.68424829806725,2.2727886172894083,2.3852221948270067,2.3980882824031204,0.6425374456860184,2.0890879187316416,2.136885085968896,1.8440538649105471,0.946598801705461
308,1.6063476867216526,0.05845264425242158,-0.09376044754207191,0.6686149310852246,0.6344727297241549,0.6056840401355068,1.8759449401135577,1.3205967607388356,1.5150415693170385,1.074032477068085,0.62595550513784,1.8102629407926145,1.3275450609868042,0.9512173989650816,0.9442334918605764
309,1.6518459167656392,0.2305133922226097,-0.07391085231363848,0.7368497109308256,0.6868124857815021,0.6491498988103745,1.582589257381949,1.1767600346369882,1.9781312038781045,1.5545675373161933,0.6284777104787076,1.9030635387867294,1.6804553996693807,1.324258970200438,0.9486591668417299
310,1.1696078020676455,-0.004129909586396474,-0.10422271035034364,0.8857689213420625,0.8481107731249514,0.6155208433836796,1.923094618311793,0.9973443785526432,1.478370477236643,1.4708160968753,0.6447042257417027,1.6776572736334738,1.1946781217765923,0.865267558428759,0.9513040887584753
311,1.968438526049526,0.1316672256984479,-0.08973454951138304,0.8700882090050199,0.8367631974105764,0.6634169739310378,1.6083537360856208,0.7823442266917167,1.7076433332518062,0.8494542175468577,0.648888643467878,2.1290053383590757,1.561653475654938,0.6922571048447522,0.8870325099448818
312,0.9756493989504634,0.22656631286705253,0.03730994598571036,0.7131052633255952,0.692727669829075,0.4137914447887271,1.6122401148602787,1.1872168272399315,1.086200405183427,1.180093700232151,0.6713451011121618,1.1492391385124998,0.8465968193125394,0.757560345044048,0.9542716493565155
313,1.4961846139703334,0.3453790614726442,0.23860900734504376,0.4581677251338348,0.43230803305779997,0.4696368480509968,1.2027267181264205,0.9074337387430065,1.450346837371942,1.762537457214592,0.6233814453054027,1.6359530180898554,1.1976604059877003,1.2376658652135488,0.9198005069767728
314,1.2521096101823639,-0.06591647595178607,-0.12794321927793806,0.9039318374906059,0.8991008240750926,0.5485666642524868,2.124536426384995,1.716374914770435,1.7150648725663946,1.7596600840786345,0.6403206450210053,1.6560637537741558,1.4652317427551809,1.381518682821227,0.9275415984321447
315,0.8808154730201567,0.0577410145021956,-0.0173924461006687,0.5334709609053047,0.5055397412979137,0.5279186800344431,2.5087273994945654,2.1840587899796775,1.5459790072569015,1.4356008554078992,0.6380535849069913,1.4113614882765326,1.302539126503853,1.0006385861141283,0.9413721921331708
316,1.1400253247708545,0.10492443671049467,-0.14538752324840476,0.7668556299345417,0.7263415525402498,0.40038912075261684,1.7337560833020962,1.669436070819874,1.4120224818219158,1.3711799537961529,0.6447042257417027,1.3234238970830163,1.1829107001186043,1.0189154331305135,0.9410191708158431
317,1.5279799944609007,-0.023799983897156984,-0.16824686900246877,0.8658605793569686,0.8510963229960077,0.6078659814666053,1.7674345391610065,1.2709372520326443,1.978284067551651,2.076717516288911,0.6180765742263259,1.8137324500384626,1.7263439305748107,1.4993013823486365,0.9528173969670604
318,0.6552817878601033,0.09793784502553288,-0.04743787513184333,1.1063119064401383,1.082773308452789,0.7416930260569586,1.9754935495971349,0.8124849866831709,0.9848762871209938,0.7672500785035961,0.6038851895711802,1.1755293307722097,0.7408112286132281,0.4397625230182696,0.9200469937074722
319,1.2058423737836588,0.09741137450879889,0.006976753275119152,0.3667480660207617,0.3430552717426304,0.46400406888872253,1.3726889869924985,0.9463356586734268,1.4647066514577765,1.3476050870815248,0.581717464821069,1.3799589169398807,1.248048576488793,1.0276521228051188,0.9413476630257849
320,0.7256215040017122,0.1033769383996554,-0.020773265586099376,0.3824327600310664,0.3551656982697529,0.3991152479899024,1.6146917802592626,1.0353625336647767,1.0477061722745256,0.8396782629353657,0.6509067234006624,1.0931936626412508,0.8273086824795296,0.5705565241524179,0.9328558136020773
321,1.757843671621689,0.3749780230290505,0.061393720302848065,0.33724959989125003,0.3186962744902258,0.35120307490743574,0.6752681770671238,0.41722458930542505,1.5452904459743741,1.6060155345509837,0.6425374456860184,1.6484675327356726,1.2359221534829448,0.9604940163719002,0.9500454731347577
322,1.695267036363428,0.11926054113987017,-0.10228614128068658,0.49267087903998547,0.43393554752456087,0.4987197308692576,1.120692926545041,0.833084398710435,1.78256322679783,1.4553342709595543,0.6528756675646988,1.687039158457652,1.4793496403597906,0.9729531293353938,0.9464212789070897
323,0.79842577776045,0.0927042239184116,-0.0018665937826306545,0.5261567536317384,0.49211037096525373,0.5218596398618485,1.4943268916513794,1.0423137758459142,1.0459343269211254,1.2523788129580669,0.6468212168108125,1.1282470937978004,0.7822208391631389,0.7977489486983697,0.9359399149217318
324,0.6657790168764869,-0.02397275784072017,-0.049078889007732995,1.226310572093892,1.2078421811883568,0.8400819389350497,2.4035451433649717,1.3802263692748982,0.7703622454670745,0.7144764128441903,0.6309483474627791,1.3151940821471784,0.569192502856142,0.34247279746258963,0.938453304164772
325,1.313655406317126,-0.3468117470523071,-0.025413557560431954,1.0473728950953403,1.0300901089804415,0.7795522725636129,1.9644686130112585,0.6474906226800954,0.6130042709716435,0.7039267526694215,0.6602640781246099,1.303097658163786,0.4641643394638814,0.2896790342614958,0.8781248632094012
326,0.4007475697110125,-0.11196051870221468,-0.00205223114270206,0.7436882856266206,0.6982823394082083,0.4754620703053845,0.9900649926185406,0.27700938669769903,0.2195500962004681,0.1681542818394907,0.6380535849069913,0.5747519866316634,0.170999288559694,0.09221617509337743,0.8053534347873887
327,0.14557742774888824,-0.01590024502614007,-0.015177026686524077,0.8572019313327142,0.8000741440219307,0.5948667299110535,1.0102174895830702,0.25479680722179543,0.13423555158325842,0.07647548234278113,0.6668815377411301,0.5720511205160606,0.13505976706127104,0.07336287115806985,0.809850040631093
328,0.317985560519517,-0.010064477097682129,-0.013152047161582137,0.7938371858720297,0.781726216685482,0.6228397564915242,1.917390082423324,0.7835363772401285,0.41125751586917436,0.3468019956577497,0.6097226960127671,0.8348387612680044,0.3563640754244662,0.2866221889397377,0.897054922989079
329,0.45276939533713334,0.13289521476916671,0.0836936217486492,0.8901682776898203,0.8643575419165619,0.27472464030464,0.7040367396139525,0.5171088073263859,0.5599189327469741,0.5629677670752549,0.6403206450210053,0.608356786646829,0.4124923135555587,0.3246872684453352,0.9449296107243288
330,0.34607373619701914,0.10548354899523804,-0.044634980465200425,0.8482916313146268,0.7954780223129453,0.6770927211559699,1.8827907318674473,1.4669411746345,0.894238537083415,1.1496204325181925,0.6233814453054027,1.0716458404382954,0.7635780002038438,0.8448869917708293,0.94353670484842
331,1.4192518919867516,0.13920748053931908,-0.08421030547675712,0.6235254368696245,0.5900571155829525,0.45349658851630675,0.8324339644217499,0.5055469521889704,1.4712292923681491,0.9828803451595552,0.6684167106117298,1.557952969745592,1.2013905257441686,0.810272537797358,0.9375541898461619
332,0.6830320289558849,0.14483704062204333,0.017238959815366495,0.22068435247514884,0.2151333796897813,0.1178561358465652,0.8533555233532507,0.7213646034168637,0.8958845524871203,0.9190599196548324,0.6528756675646988,0.8742428224280947,0.6922952556907849,0.5781889302595857,0.9166372998254548
333,0.939501520177849,0.013403911312013628,-0.06923720112979359,0.29963016350741184,0.24907731499748886,0.3598401344506996,1.4538436061292999,1.2252375373951525,1.3717222196459087,1.5256071684623378,0.6447042257417027,1.2086131838824383,1.140248568116741,1.1206144704162706,0.9442349933019548
334,0.8003976979260387,0.04050566106268716,-0.07772734215569754,0.7484162251857436,0.7199638268602886,0.29804124319945136,1.623016624416391,1.4259630446291833,1.4444284798492126,1.6220904671793512,0.6207552362147116,1.256943918721968,1.212745765261172,1.303054587583719,0.804801884574319
335,0.3656828251203555,0.1003074361143331,0.04462570169809693,0.5020311902563126,0.4865698773132665,0.32119563610497137,1.4934559589027636,1.2965669985386472,0.46658572759834466,0.6523949954591726,0.6380535849069913,0.5231231515763969,0.3443509614517992,0.3575710132039673,0.9339850910129455
336,0.6924545792288105,-0.01324418200877081,-0.08457122376051882,1.0433220458933816,1.0370110090548863,0.7128248858723849,2.45069558203442,2.1524242241399967,0.8597720940803353,0.7618409164767894,0.6284777104787076,1.1710396226036959,0.7134201019132793,0.6003136008257904,0.9345989675933165
337,0.5924712514023673,-0.08149256510460254,-0.04431940292089642,0.8969874770869216,0.876961795085121,0.5013057957554495,2.7064771871674216,2.516858309845237,1.3053622646000025,1.8443177562702577,0.6652988471865258,1.3457924178105607,1.0975884851489413,1.0175664831084275,0.9330883345229853
338,0.6195914223324376,-0.0040846834419241695,-0.11292892975228584,0.21741154249979314,0.19119063448676582,0.3360652338064914,2.2790904909195233,1.86105537728257,1.4425882057911497,1.2247244451483805,0.5915533975974677,1.2658088077169958,1.2386205085598687,1.0375638753507475,0.9209015025292662
339,0.40870384014468186,0.01626778502559445,-0.03873489779741446,0.8755683910622466,0.8492845594916657,0.612258164863677,2.767992881337657,3.008770337934571,0.9627159209518734,0.9120211751389302,0.62595550513784,1.218672916068551,0.7287272313721275,0.6332834577410905,0.8852687279414689
340,0.7996704287507663,-0.05660881196973294,-0.1028952067908138,0.6640472134824328,0.649584323829439,0.5617675084366335,2.193968450818745,1.6068871491491978,1.1463168169105151,0.9646806478783335,0.6357360191111145,1.423004450749795,0.9760915426250945,0.8315150877117322,0.9388104112249167
341,0.9075625599234852,-0.09085842090658683,-0.03313337898644672,0.8573527849707253,0.8657251151834334,0.6676789872804637,2.610921956748041,1.7637968099488428,0.7043010078886653,0.6951705282343725,0.6068309995095971,1.2965349116907154,0.5855140288848005,0.4927484865324543,0.8659380566997884
342,0.5843384677789898,-0.029290902640650054,-0.043935905768513354,1.308480698666113,1.2942258570737681,0.8331763486911216,3.830003648147106,4.176007300139707,1.7145786011148458,2.7519023064944776,0.6447042257417027,2.0914241584500077,1.5065994662089839,1.6441234704219905,0.8608808694330264
343,1.2779061949622237,-0.04937797936918731,-0.1037853825592045,0.971840868282259,0.9717319219493077,0.6551893053272323,2.869971336386073,1.9685884096427033,1.2738746578352529,0.9401943705171183,0.5915533975974677,1.3168512206488643,1.0324761348973133,0.9508187820462501,0.8628242932590747
344,0.24442199042956106,-0.013628409890490217,-0.0017214970754623332,1.1922456962692152,1.157398356339565,0.8308891870670492,4.047071695185011,3.689450175916008,1.348718614315899,1.5601583161848402,0.6668815377411301,1.7076634488749531,1.024508694347667,0.8959258386314576,0.6064121144730877
345,0.411663429703232,-0.02423982864193218,0.03850147932296728,0.9361470078556893,0.8992517855984008,0.6887025362493103,3.24513721494756,1.1191082358407884,0.6289751345186183,0.4615723645229474,0.6357360191111145,1.1633997296725493,0.4396696163106751,0.26542718946521304,0.8869905782707572
346,0.09229824106593507,-0.002486783546408952,-0.002330745677175179,0.9091987273661558,0.8692611446841687,0.6493395409154622,3.359815168082803,2.75435890434933,0.6222102383502703,0.5928450816116783,0.6584896970785714,1.0134748886993177,0.4974257334250821,0.37195126750699437,0.6758527900606082
347,0.6636522598053931,-0.028547292291910387,-0.0517529798173883,0.76714538761377,0.7517069458110501,0.5765696903955959,1.1878364775951202,0.9041748891296428,1.2474856038299813,1.1321020284137748,0.6207552362147116,1.370158579210487,0.9824340853594294,0.6667494746232084,0.9437528787618031
348,0.16159459411068025,0.008761331999911068,0.019193412940223892,0.7320961557911417,0.6957748619338217,0.589252791418159,1.8624361552350102,0.999985427918783,0.3576168856086382,0.2791004305815115,0.663668482632973,0.6631138415221102,0.2895815722458448,0.1807844102292305,0.7957874265829534
349,0.4014964251143745,-0.05879136379845015,0.0034476587541897308,1.000224206818874,0.9797537558960804,0.7130867598029977,3.779407130547556,1.2390400563844826,0.6152059632447421,0.35575815388034265,0.6468212168108125,1.2111839272739602,0.4078554879719956,0.20187427141245054,0.7916727695474887
350,0.2332986644947832,0.0572103357032223,0.008641695257213172,0.9547860813513858,0.87539172202235,0.6326009364515794,2.5372881233082407,1.440994497449819,0.580037202041222,0.48308172994764037,0.6357360191111145,0.7496469877994302,0.40726554281688765,0.2245933137717755,0.8655266813112678
351,0.13348899622725335,-0.03513585764099343,0.0180388898064386,0.6749831091447491,0.6471338082760751,0.47187438502280477,1.6429652325761066,0.9305697026702671,0.3231734642011438,0.21349765568803192,0.6547956803312163,0.6219227268318013,0.22551588420105043,0.08712924564165536,0.8156302148897381
352,0.3679400402443255,0.006474190848146932,-0.005541672983964546,0.5953459852544137,0.5360874537692404,0.48776495934474384,2.963159641801322,2.299143661905623,0.8135020836185064,0.9055681421069057,0.6403206450210053,1.0481726919100403,0.641933123591515,0.4526305765505945,0.8471265809215903
353,0.9298939318566183,0.035573443660053494,-0.14143545409619074,0.7507247622100317,0.7451956213720297,0.4398902107688139,1.9653392750051821,1.8836553015926556,1.2800086648213858,1.523570673229735,0.6284777104787076,1.2753892452067137,1.0983338756206713,1.1014796741452657,0.8983623225380948
354,0.764712409943299,0.17007791012751267,0.0511682062330967,0.37922852095395165,0.2866629225737147,0.32243879969743344,1.8448638252297345,1.690927979850357,0.8570133257888369,0.7693317868047979,0.6447042257417027,1.0819190657264492,0.6770505806786148,0.4641883129576598,0.7709969065827182
355,2.051607060267512,0.639788751690114,-2.458880345127308,0.32263165612361516,0.22881888132031045,0.38970924830875503,0.4289685255763848,0.4406005153264274,5.532748427929817,,0.6547956803312163,2.017991117141498,3.7619527184802672,inf,0.8942183425187521
356,3.425041045299015,-0.3082536940769114,0.0,1.0521080599448485,1.0225611960522978,0.7775223536913515,0.43031909781243816,0.7186417526258743,,,0.648888643467878,5.538268036178628,inf,,0.8677334492263542
357,0.21818406122180634,-0.0254293980580544,-0.02624851662441141,0.6597270888416251,0.6473772299708589,0.5652271281846861,1.353836412070557,0.6369333235395194,0.2990940003454794,0.09926883120097202,0.6233814453054027,0.7293963132350664,0.2794666832894353,0.09543207527910634,0.8529800947886571
358,4.019972132077078,-0.8457051582207518,-2.2305556201010632,1.4623451210854335,1.4471090832453841,0.7239688001629306,0.1055128737932564,0.1442905524551662,3.0540524454192473,,0.62595550513784,3.721861888077855,2.9150184367688827,4.770684624465665,0.9340138001239847
359,5.703782474656201,-1.387920402166342,0.0,1.4505153101982238,1.4488994602014829,0.5633171987603472,0.08982105586139609,0.10690677874197126,,,0.6357360191111145,7.117105508164011,inf,,0.9153939627932506
360,5.7037824746562,-1.444958226912904,0.0,1.3865735822707888,1.380560311202135,0.556601986607615,0.08014833104928985,0.09692024674736949,,,0.6425374456860184,7.076831609026071,inf,,0.9300416197817398
361,1.1562930356583683,-0.023213065129621457,-0.09207888740501957,0.9962841167333539,0.9818831907176846,0.7373124427067894,1.9278641530087255,0.3732385755398848,2.271780938181217,2.7332177661796684,0.6233814453054027,1.2244022947264095,0.628878031149896,0.20235788739804306,0.7863745840513481
362,0.18373702389276036,-0.002477821771194405,-0.034778596330013734,0.7514551927586568,0.6228043735732134,0.5176942946861945,0.6208597274924141,0.14391352929391488,0.8115245636960622,1.5346534075176999,0.6425374456860184,0.40718324993553445,0.10856186210161396,0.03777540099735111,0.6857248958107347
363,4.320603848958723,0.5695793274777579,-1.3005046508207458,1.4266234163860272,1.4014560343361482,0.7162219083319994,0.11123850816781553,0.1476563913562589,0.7681649786407521,1.3904051034535423,0.6699045166045591,4.30836320575931,0.6890268615869253,1.1952391243571814,0.9465456842510275
364,2.7398692534098372,0.05966588366272996,0.0360506238255196,0.9202419725590191,0.6606111641970647,0.7464139032716214,0.7245098431562429,0.22715898855369077,1.187227016961957,0.5409030230817391,0.6309483474627791,2.7653262689219402,1.161246517520937,0.561308313022114,0.8682805057687264
365,2.413562764473751,0.13467869290936507,0.13547225399822427,0.5718703244118706,0.4214193287710865,0.583219621273428,0.6170633049463341,0.20311539912200693,0.9549213131658163,0.6472004200801663,0.6357360191111145,2.448639010617459,0.9435986296732246,0.6533167577619852,0.9068524129919223
366,0.9641852997945195,0.03148364575161311,0.05171319644074224,0.7714500295143255,0.7098448815964808,0.645214040157283,0.9841674358417575,0.39175022624956257,0.7225600925498858,0.4990282278619019,0.585052858160615,1.3356434952675909,0.5160075312010699,0.2643622954427353,0.9292748085551031
367,2.7330199085387883,0.03813473584392302,-0.14511199924467877,1.237234335849808,1.1839519923642128,0.8045583404844612,1.4053721204413159,0.7186470245900425,1.6093670239788123,0.9842814507051804,0.6284777104787076,2.829276658536354,1.5752228319895865,0.9439422632046651,0.9044298408848503
368,2.368533343546783,-0.2794186762044071,-0.8804237201564937,1.5997361759941306,1.5871098009930533,0.9238395801838579,2.884274778109635,2.6106343601125395,2.1984991029956853,1.3046311488758713,0.6333676938231112,2.698099870249042,2.0933998939305427,1.3177478185847806,0.8973839050642809
369,3.680342387590858,-0.8021938000613509,-1.5395254171590012,1.4601729575101587,1.4143005549255494,0.8713749764237425,3.1497931192300683,3.2393918612685417,3.2420191884789484,4.297364919433606,0.5947193981915972,3.8548028650982546,3.110110827723831,3.7495040759303713,0.8816802140670092
370,3.394996728650484,-1.3081291775173318,-0.2535693176618907,1.611635458891562,1.6036811054090547,0.8575867207521325,2.9847601560951182,3.1206016393230382,5.0080516630978895,,0.6333676938231112,3.8278861262219466,4.535156385367032,inf,0.8884360639300513
371,4.151508412936067,-1.8932974285501032,-0.6839173448445495,1.5773330190898711,1.5511642259804077,0.8966530816193803,3.012347373800553,3.2843528656619094,3.9257603876397096,,0.5947193981915972,4.009390856341937,3.734612446840819,2.9704144655697013,0.906966229024317
372,3.5806663802630454,-1.281296200381272,-0.5442204018257646,1.4290345734469045,1.4070103111274053,0.9041512359658137,2.8022324653498836,2.2774173849523955,3.1432051508502203,1.1660200870512676,0.6547956803312163,3.826865197087839,2.995732273553991,1.3268709406490897,0.8873935355734125
373,2.7838250245009344,-0.2246270486174602,-0.43254657417080056,1.5476054679953157,1.5261898233175666,0.9362218732418971,1.8581221688402605,0.6932125107103162,0.8369406844543128,0.49680706918774686,0.6447042257417027,3.0111843781129126,0.811099492560364,0.5145569713788488,0.9106377867123184
374,3.9498861724642857,-1.6672686676112534,-0.386672142070175,1.0086842212502205,0.9806379897068254,0.7399894202301495,3.2480225569756955,3.4073455553919514,4.343600133828272,,0.6822068148872973,3.966244559594785,4.074024559731143,inf,0.9299529094538497
375,3.6504258885495533,-0.8744716255731715,-0.2005607027898677,1.137339134259454,1.0998220054545234,0.8032885235741406,1.7809280809915826,0.655450627043979,1.0573390750887628,0.90029481723011,0.62595550513784,3.7981984113581904,1.001365912658125,0.8554279864704538,0.9189054271748177
376,2.829549582162809,-0.759627630934252,-0.33292144531759227,1.4876338896788879,1.4503872747569821,0.9110167666759714,2.8233556256243793,1.6068222655896784,1.964384027753478,0.8922990609935302,0.6509067234006624,3.190396353546332,1.8610609350701788,0.8070315758006714,0.9213389031144945
377,2.5965803241328778,-0.15652627501514083,-0.2967122486335032,0.5755500269119459,0.5470982920796414,0.6851990696021527,2.7307479605143845,1.6928615702855523,1.3962207136408966,0.66536188830231,0.6309483474627791,2.8238352340959203,1.3589763094485108,0.6372033909431749,0.9369860789542613
378,2.9878596804759283,-0.1023622747076196,-0.31241434696259374,0.6586256751256496,0.6301691246407901,0.5441948513853577,2.34387053784046,1.1590600639923871,1.3322143196942773,0.510750852309658,0.6468212168108125,3.011635845389204,1.2901429744419266,0.4883831515067943,0.9404740840678396
379,3.647637624396136,-0.5708975243446179,-2.0536424147094916,1.4117143522286435,1.3781500422910455,0.8791374290222786,2.9014592944667035,2.4091890384085604,2.766350963720253,4.949126883830696,0.663668482632973,3.678709125459859,2.6412594886201592,4.394449154672439,0.9105546850270316
380,3.060287950249929,-0.4513882097706714,-1.0092121050268776,1.4806032691113344,1.4808903791054175,0.8880063074352839,2.928682770826819,3.11956192817673,2.8235298284116936,2.0525386605917526,0.6233814453054027,3.299242659139162,2.6402621490381093,1.7544880744308233,0.9305527011135042
381,2.7209073954293213,-0.1776163206006196,-0.7371825772061555,1.4257269983637753,1.409531218489812,0.9048155813748959,2.5701885076321394,1.2399292942091864,1.590786479574176,0.7399240137947515,0.6584896970785714,2.963157527621817,1.5306700710309002,0.7610046559555802,0.898681396360204
382,3.085011060049424,-0.7559566965216824,-0.3269108797317739,0.8956779516282052,0.8742885610488236,0.7917056785117715,2.7569994649604372,2.1127061716257143,1.5170908071354265,0.6639741509373226,0.6602640781246099,3.3270179834879037,1.464481780691681,0.6422555732635561,0.9254576254518192
383,3.1430408809868973,-0.8718099125925196,-0.42376651249110886,1.5524328694189637,1.5629570163460855,0.819566326958626,2.6073897920642715,2.7550829397733643,3.247499723289717,1.3408081623141703,0.6068309995095971,2.9772376909178266,3.112207264550359,1.3478280802920946,0.9059272108207292
384,3.3580079021728215,-0.7602229872274411,-0.43876131706220667,1.4881140721153463,1.454304727418166,0.7712454347232117,1.6521494523625537,0.6569941144202418,2.0511206282693184,0.5973387533761669,0.6619902821573977,3.365830237824864,1.9347118237452836,0.6389627466071232,0.9264886523331655
385,3.6638854019051355,-2.0038813043008417,-0.19444993684223982,1.1427282174760198,1.1120692762691036,0.8669675429288173,2.7874241656605228,2.0747437123633885,5.064843517121223,,0.6403206450210053,3.851136979872149,4.666056211544088,inf,0.9302662103596352
386,2.4821645249654805,-0.14986902354459986,-0.6526767382051024,0.7121716278693155,0.6861230915738403,0.7693018575262878,2.7039819874792914,1.8089045744622254,2.0676594422266144,1.1408427383691262,0.6233814453054027,2.7651497931427826,1.919785361314171,1.1542852910943513,0.962732912797137
387,2.8741404549256386,-0.8616424717956248,-0.527710354188933,1.581982801385355,1.5559421148133457,0.9138986680548505,3.0818633363756502,2.807875576528133,2.701086234597272,1.4189865890599875,0.6333676938231112,3.2487624586184003,2.560380531695627,1.3217558399823195,0.903808311361651
388,2.9681642339873817,-0.7053753744104123,-0.7723189446709818,0.9209785486186688,0.900102128295414,0.7944352880118881,3.004817142513391,2.446001709457073,2.920345006084599,3.037822263952859,0.6380535849069913,3.238795125637132,2.770607122157517,2.402430427963762,0.9483857431665329
389,2.8465395087923606,-0.639090719576461,-0.5732687450038212,1.2369400217692537,1.219584082812054,0.8685282087428666,2.9398735160649965,2.6469153959023886,2.3952084294025515,1.8739385849315255,0.6713451011121618,3.1737962400953044,2.2323538312559474,1.6447060512715583,0.9410224431683221
390,2.401059975530299,-0.8080114826202422,-0.3934840114412721,1.2587767615292622,1.179612287837942,0.7807046448318063,3.2600299648652067,2.9993706406772063,3.9508988426503056,2.514574120188311,0.6713451011121618,2.731489432835973,3.7416015833457377,1.9900349539642512,0.92253618476332
391,2.6235580234702605,-0.5977442643659829,-0.8391350076346107,1.223811312676642,1.1891053563209268,0.8999022993618854,3.183782302295192,2.1498681571236653,3.7404288156397523,3.334393283821886,0.6447042257417027,2.93307051242928,3.5841453086613684,2.810907586541918,0.8969727627638874
392,2.704463864728729,-0.2246813641126757,0.26319495704230955,1.2330138930591472,1.1782230511328002,0.8569313674219009,2.300855105219632,0.8573992949633769,1.3332002074956049,0.8760519169744441,0.6153451465759925,2.839298487712164,1.3147960789157107,0.7734258207578745,0.8530542312778706
393,3.12458863273855,-0.7744458885209358,-0.10338745742061861,1.5322962423633903,1.456572091969617,0.9084907708614359,1.92877054206072,0.3861435243202913,1.936537917459997,0.44969780341939286,0.6309483474627791,3.094448246493149,1.8914944350127356,0.46061692818324446,0.8790800806660434
394,2.593603342370371,-0.5591691024630747,-0.1552031982482336,1.5064005026513732,1.4378314957978928,0.9127534352550433,2.6304397242571684,0.8497050893168634,1.9257731931502793,0.4794763147207727,0.6180765742263259,2.8577109756566164,1.87277051240865,0.47860474475482767,0.8727975829074595
395,2.300030173868184,-0.34572013965255244,0.04981222485199255,1.3617060464634405,1.2826724314454905,0.916279747064409,1.6209967133500727,0.5041840919239322,0.7740306587992439,0.5005315557408376,0.6380535849069913,2.515228409674389,0.754356085185874,0.5158058596345168,0.8900325077179788
396,3.1601976541120833,-0.7902910226431186,-0.23666344401324801,1.6092114639048596,1.5551292574892548,0.9095602223624428,2.7447633933271236,2.3402783074183118,2.46524393064936,1.1522752646246361,0.6284777104787076,3.4591796642005024,2.3686554591256774,0.9745596399981308,0.9101121897627913
397,2.432465322719266,-0.23395620903462988,-0.47089007387228454,0.9220305051571729,0.9076906222665261,0.7442623144201594,2.9977552049426106,2.27200692036167,2.47505256083855,1.527422401437098,0.6584896970785714,2.7667391974508897,2.2539464324988674,1.4310522617613841,0.8231722978647275
398,2.426780879431224,-0.6435257010916552,-0.5619045229788745,1.6542554705558201,1.6225843459166744,0.8930640225708133,3.3875799409853755,3.069363235713891,3.647341786465414,2.259517275052607,0.6468212168108125,2.848270581877529,3.4473065790783295,2.2216160304603787,0.8890583009986666
399,2.1436645059090917,-0.6453793248144913,-0.11969795372941233,1.7743852593386469,1.6981875850364236,0.9141772770991516,3.603647648827241,2.280344787131359,3.1166327764492117,0.936803121628476,0.62595550513784,2.5871608838267566,2.8289395183776636,0.8498009906053222,0.8244655855262597
400,2.6877472726973823,-0.8531312054877626,-0.4018175233736216,1.3607565147352316,1.3303180326442934,0.8843297808892111,3.137729041917761,2.8340499880970165,3.348264078773533,2.6788771714795874,0.6509067234006624,3.1698211454214693,3.1378773760667342,2.1041341542702074,0.923697461785642
401,2.8899960950784114,-0.33660287396631383,0.07188443933472932,1.2459059826948746,1.2125899618273643,0.8873933334409996,2.2732242835934104,0.8432689674593474,1.447697693153939,0.6342077876899616,0.6509067234006624,3.0956753910820436,1.4376910627770645,0.6397877697349228,0.9094374995103277
402,2.1846922599215315,-0.3570103069891224,-0.09674962946678045,1.336554497245869,1.2979191648433568,0.8990654878596703,2.534135689561704,1.6050249675328043,1.048489946028325,0.6556279266644089,0.6873705427232264,2.5061983852556224,0.9988791268939249,0.614926796853131,0.9125751161732257
403,2.3843007598193826,-0.4345413063009682,-0.08796801150439282,1.514079149184214,1.481486446597872,0.911193658957802,2.6762467119258266,1.5048088671349982,1.3054603576377153,0.7831374490626647,0.6468212168108125,2.7207977739247124,1.2560600928417212,0.7548838609111204,0.9201573464211851
404,3.461106104949944,-1.9553615216432048,-0.2637026628468909,1.5868004880224522,1.5631212981068512,0.8894489215510814,2.96896938915367,2.236769423399593,5.005930851850402,,0.6403206450210053,3.099119428926642,4.842709617586033,3.4657359027997265,0.9192909907167837
405,3.0649554833128083,-0.45770498311215757,-0.12360721852374201,1.3781693956782541,1.3505391433250697,0.8838807242551325,2.4204165389694996,1.1716557943281978,1.9766575547318443,1.1381388323927792,0.6153451465759925,3.235965468966939,1.904398931804101,1.0910508159675332,0.9279756304423596
406,2.5949955789598653,-0.6940663521762226,-0.32080142821665536,1.5297405954347565,1.5201377944780707,0.8580341449747418,3.1912492621664925,2.5087113997180643,3.254117792459618,2.122613197949445,0.648888643467878,2.92641352924343,3.1245651453969594,2.060749408667683,0.9139245588169489
407,2.412739953052033,-0.5094213729349224,-0.1947735407679948,1.4701311016898955,1.4584977235002616,0.8613183212625005,2.9571287010331777,1.5422079479940147,1.864332852408478,0.8621618645324803,0.6468212168108125,2.7623304080152806,1.7972292667207583,0.8294120600801285,0.9115827678435989
408,2.242192827658416,-0.5376110654118621,-0.29038837934333395,1.4952236292628054,1.4816024069897824,0.9220214618507968,2.7979175560130707,1.5389815702175573,1.8330360598190616,0.8492474281961225,0.6097226960127671,2.6160789225634,1.7457094498694905,0.807451951840004,0.8989679496912748
409,2.477827540333012,-0.9933581531052212,-0.24832691914226973,0.8627790936525646,0.8014412201514675,0.7854769725135791,3.807080657614562,3.3865933924283547,3.158509517223666,1.944907996399387,0.6403206450210053,3.071893634519555,2.951176252003758,1.3414437949545388,0.9073157544484078
410,2.6345022759851293,-1.0280439408067976,-0.4384956594915913,1.6926436604046136,1.6513265526714207,0.9015153131416022,3.2781269799692687,2.627892439386999,5.676185632398798,,0.6509067234006624,2.7802625352161345,5.491808198167118,inf,0.8881696750485425
411,3.4795563173997563,-1.1080203298499973,-0.19234848108637226,1.0341088934392824,1.0213326863161563,0.7706266562839279,2.33358910041411,0.9618567179984501,1.9002663779909004,0.844853012186778,0.6380535849069913,3.751227782882219,1.8127927493988232,0.7315566286748165,0.9376086675595929
412,2.706917912361833,-0.49224339378393234,-0.2529777018808175,1.2450606251748237,1.2149063897766064,0.8902796539552754,2.4908688896148883,1.335789152284614,1.671693322638066,0.7801924159603553,0.6584896970785714,2.9334880489697928,1.5514330088667216,0.6127256132493711,0.9170335496581289
413,3.479185437348973,-0.5856783489021049,-1.7105840397482173,0.6052022665923898,0.5759052974304295,0.6389838584175209,2.9183393367479566,2.8147653787432265,3.345909578911375,,0.6447042257417027,3.3454473665576634,3.2663270371579975,inf,0.9338037911912669
414,2.5703450775497694,0.10866264392486924,0.5895941867948924,1.042890504134787,0.9464963802386807,0.8736303612131202,1.6940215651760646,0.8253605659685468,1.0579322007843668,1.2139642306486251,0.6309483474627791,2.7154105555085026,1.0287467289104202,1.0772360100388048,0.9059341966571387
415,2.525407056272972,0.2328904836267922,0.4456287408210615,0.5469833619706004,0.4742785121037003,0.7349397967732584,1.5712182763475266,0.9674557219518525,1.4037524220088975,1.6655223862150113,0.62595550513784,2.553471041656884,1.3354866908402656,1.3830423257335134,0.958101789443463
416,1.358828218874844,-0.22645791277016702,-0.07148164495066056,1.4106124544972394,1.132406085110825,0.8775114502588203,1.451707823311979,0.3312316292315618,1.3773864770631454,3.0327435328738432,0.6668815377411301,1.747615000243871,0.924746358449832,0.5504109364536208,0.9165746364806758
417,1.3503889347933418,-0.29066042168320566,-0.010097343924925173,1.6131374885472503,1.5291803850477654,0.9322000850858946,1.450638398442622,0.2526466693918492,0.6804441958814896,1.2698053287474473,0.6447042257417027,1.856120228388445,0.510233311955746,0.26844619901842653,0.9150861887356692
418,4.770422482583844,-2.0805873139348607,-0.7816661756154454,1.4596444806858417,1.4278876028737173,0.8947592969506202,0.28402053551394646,0.4020862731716229,2.9812112935619357,,0.6038851895711802,4.95393995041971,2.7400529321883837,inf,0.9467859716334847
419,3.941579577697901,-2.4024264806138027,-0.15960024488983304,1.542937172788595,1.5126597441692669,0.887402773669351,0.1570296544240443,0.20071909226744544,5.021797409693558,,0.6547956803312163,4.076504644093769,4.623010104116422,inf,0.9425589243579383
420,0.3058244783673061,-0.048569825484286205,0.008721768985056333,1.0242894748744922,1.001321495781199,0.6740695565924074,1.3285054825376224,0.1971899110215305,1.56485508584383,1.2670362329902891,0.6509067234006624,1.1168780974750023,0.20437786746566625,0.04960258804938292,0.8748135127505869
421,1.7619337053704478,-0.31510089184750956,-0.1708690069811506,0.7038420050731133,0.7109777355275515,0.4919442258680178,2.722462476820157,5.0113316857297185,1.8884096613299297,,0.648888643467878,2.032049179377235,1.7301180705065333,7.645397699428633,0.9370664880934284
422,1.7338717628591258,-0.22109934911931883,-0.3731170661836609,0.8401678927780996,0.8029018361980199,0.6018664083108441,1.9979452664266248,1.4008666249472281,3.250158495878165,4.878623818248517,0.6357360191111145,2.1667923702160174,2.9641290897547403,3.791736839553644,0.9021644187385687
423,0.9209222789984084,0.35323416566643384,0.016819663329866397,0.6999793344194875,0.6744222476242503,0.5674834535237493,1.9015687385265576,1.1529516000424633,1.393320629363212,1.6132413879040655,0.6357360191111145,1.0036354977650224,1.1080537914649342,0.8178391838674021,0.8533026336097156
424,0.3851491280839269,-0.032505562875051075,-0.050696196249854664,0.7735385032843245,0.6400216731370565,0.4941170597247766,1.5135264530721169,0.3782806362965081,0.5142869814813343,0.4908921741748898,0.6233814453054027,0.8868937550233676,0.3720046635780844,0.17183558395061257,0.9025554946847687
425,0.6366809469817253,-0.031510416547682746,-0.0711511677149642,1.5892656362922875,1.5557785365321344,0.9441959720835339,2.5606791529199757,1.4365577424895095,1.6581391638429424,1.7928204277168582,0.663668482632973,1.7447486649587003,1.3861671589318414,1.2573524717068159,0.9196582231317822
426,0.6716104881366771,0.15094254188976647,0.06423862408020681,1.3425268499349148,1.2963200412673999,0.8607749153597969,1.2769407723302255,0.5895007049172356,0.9880515507138117,0.9973970951970063,0.585052858160615,1.2545256321857627,0.639414229471268,0.491061123156107,0.9267087751002259
427,0.4835901063702788,-0.01157099969557604,-0.0069200080029118705,0.758692787138713,0.7351922877161995,0.5685340811619372,2.5291828299323997,1.023532722605772,1.1173301958205941,0.876245623693705,0.6153451465759925,1.4678901260145616,0.9323077958464844,0.6351996080853762,0.93246601299165
428,1.277918794836286,-0.04892753524443827,-0.0916144829773452,1.4312171969218184,1.347088379520085,0.8754018356240163,1.706352322556411,0.4476718058640645,1.0742912938597677,0.6346194854398038,0.6008849035917525,2.0037158311517005,0.9805271423545349,0.45951402257471596,0.910398005272901
429,1.3838454954777877,-0.019069484108083956,-0.11724354327719069,1.5899450274144926,1.5705632875130715,0.9085577800811404,2.2096726350561995,1.123556405199425,2.189467443885514,3.7300872212531133,0.6357360191111145,2.178795441867852,1.9535971879917784,2.9313668975990876,0.8942093905560534
430,1.5985448906079776,0.414866306075216,-0.03454706868058577,1.0222097626845654,0.9710580739598549,0.7377360978991403,0.9569751442606267,0.40405656464575823,1.8578962858233803,2.088245554445237,0.6528756675646988,1.8132555295729418,1.529672943965238,1.3541133663217944,0.9004437521317419
431,1.339188490541449,0.4389140783645934,0.5472429939471815,0.9911115563778684,0.938771287055042,0.6830835069471285,0.6001824153261117,0.2663084635464874,1.2478373060446444,1.988566872254842,0.6333676938231112,1.5785315827012216,0.7835676378252318,1.0304688344376476,0.8988226242235612
432,2.190518000725888,0.10095378084450113,0.24998281478267392,0.8352573058721444,0.747323689361089,0.5892087638479779,0.6416940128524137,0.26458796923817296,1.3698107781840514,0.8888458943099756,0.6468212168108125,2.1055573888103956,0.9783991181584345,0.7378196206115378,0.9351053448862026
433,3.785540362421703,-0.3693980957676466,-1.663859911258279,1.1325983082165936,1.1105665971699055,0.69944933872049,0.8512980499261564,0.31253830663667903,2.324328386372592,2.2750817915937187,0.62595550513784,3.268416270428337,2.1911136897034194,1.6713688701645908,0.9067597603215213
434,1.4681351456876468,-0.07783532142807037,0.03484779016583661,0.6144539773879297,0.6131387464278062,0.40768729999514486,1.572671005062058,0.5694830896013112,1.131188175926418,0.9679485085771564,0.6652988471865258,1.7417636829068153,0.8776653265418666,0.6607313771706396,0.9585261804773642
