,eda+bvp_XAp0,eda+bvp_XAp1,eda+bvp_XAp2,eda+bvp_XCond1,eda+bvp_XCond2,eda+bvp_XDist,eda+bvp_XFuzz1,eda+bvp_XFuzz2,eda+bvp_XK2_1,eda+bvp_XK2_2,eda+bvp_XPermEn,eda+bvp_XSamp0,eda+bvp_XSamp1,eda+bvp_XSamp2,eda+bvp_XSpec
0,1.3007820434160562,-0.14527855078362945,-0.010815294426297294,0.8399473894841061,0.790658732539201,0.6550867713323275,2.7028604983709976,3.1619320698205513,2.435178387101132,,0.6727386042041725,2.872138989635105,2.2255076814507806,inf,0.810477818810265
1,0.7182408436188208,-0.08015381657304421,-0.05391780756913567,0.7150033285677774,0.6774222771968776,0.672220729984462,2.844807987320565,2.429855020163583,2.4447738637126784,,0.6207552362147116,2.0839851817297084,2.015036970043503,inf,0.7823368441279558
2,0.27429264411989696,-0.03015740897057781,-0.0009290906963438445,1.2494866163931897,1.200570527891648,0.839904353286441,3.3539496545232326,3.0366717534467895,2.487882278957614,,0.6566669596287297,2.284963491644226,2.408430927758704,inf,0.7589056392427704
3,1.131646996044547,-0.17530357172716884,-0.035937200867813275,0.9862623877988224,0.9587429008154909,0.6947952587951822,2.9612040267468487,2.671140501121272,8.747088360511079,,0.6468212168108125,1.9606516057103487,3.7735900764305605,inf,0.9431019860096457
4,0.756465258827192,-0.0507604764500901,-0.0734142572261768,1.0336971161060389,0.9757542012513418,0.7631068731481223,3.521210025451227,2.5477439050504813,1.6025898343400409,6.774357452165615,0.6509067234006624,1.630945325385262,1.2558328970007728,2.896769220739029,0.7420721289937463
5,0.5246195277549534,-0.056121628907255944,-0.05715008997241747,0.5808811031857561,0.5257714736559727,0.5421428973501285,3.280338254179067,3.118052843270017,1.0527310030744301,1.840635300288046,0.6380535849069913,1.211892975127076,0.8257670325378049,1.020420594657393,0.7800677822022116
6,0.6335530301178458,-0.0019658272164143897,-0.09409320742050875,1.3016057848320284,1.2704803834479979,0.8178106870254,4.045360399807837,5.267929572258816,1.0782415211748695,1.312592498428953,0.5883313578629602,1.3094156278977147,0.8353113804807508,0.8673605082017957,0.7871098610741006
7,0.4937389675479661,-0.07373008133685859,-0.01372366080688086,1.1012116662239715,1.0491441002608632,0.7460207224584817,3.7774423859824133,5.643765132973575,1.2672582760751365,1.5026790476016947,0.5915533975974677,1.4735481917414512,1.232504006698086,1.2427500584919056,0.7468770397630111
8,0.46870769591108014,0.014915025541633528,-0.03032825802489353,1.0526442537230851,1.0568348124417681,0.7384579556013056,3.856172779250562,15.150747861372833,1.3213693534125086,1.6402237027138176,0.6547956803312163,1.5952611021988918,1.1563927363854503,0.8557480403351,0.6857020101054427
9,0.28911164857376054,-0.022147780323347042,-0.02155707583865711,0.9936683256433196,0.9877381993186234,0.7497460118159261,3.501664923282444,2.7693883524759166,0.9283941838299895,0.9323944236212148,0.6584896970785714,1.3794732335517432,0.8470771731663049,0.8151094653918983,0.6343032998574626
10,0.18847134759858578,-0.019067930259577384,-0.013589156967233283,1.2691475318958731,1.223596582348121,0.821720038162533,3.7606779703016873,5.623810630901829,1.38812724825677,1.0706347164502608,0.6403206450210053,1.8165987592417006,1.1309784724252434,0.683872240546716,0.5252832651884155
11,0.1755009992201908,-0.01896018782416056,-0.019065028673547448,1.179391686858345,1.1567150700962021,0.8221118774143382,4.446522431203654,11.992068140784717,1.4287347841827998,1.6092044798970941,0.6652988471865258,1.5605419337574007,1.2560218969940442,1.1021481628274978,0.6943155999145181
12,0.4486981199030582,-0.05967784882358081,-0.03570433544971737,1.0625536177288655,1.0459959311676947,0.7696647977502773,3.4963353443222096,2.691670436757007,0.9774790345545523,0.988662221415008,0.62595550513784,1.4283671375417983,0.6787425503521608,0.5786899042734311,0.552238631563443
13,0.4498968816398732,-0.008819996953546377,-0.06654058481329207,0.666977163497844,0.6485095735763264,0.5716493773293866,2.66026765865324,2.1476155555127185,1.5559202339197309,2.526598313155113,0.6425374456860184,1.6804566441145994,1.4560714394048477,2.5705932924022683,0.8474050971626378
14,0.4333255386823849,-0.05747688317613656,-0.017641996636772902,1.069803964765694,1.0729119238327955,0.7384136334337355,3.695973775041329,3.4244393950324423,1.6566257244547777,1.7909048235849272,0.6207552362147116,1.554739311578502,1.5665561849508347,1.220656089185348,0.8146674848287497
15,0.6262628003381765,0.018153520799702644,-0.058295799797235315,1.0185589149254628,1.0054169768317938,0.7450211576170336,3.2594083631716124,2.5719887963560084,1.5220617566293138,1.353153414620413,0.62595550513784,1.438945301838492,1.125726316418371,0.9293723137716444,0.6739482862927276
16,0.38341659479223683,-0.025257326075315722,-0.005213162961480236,0.8347831615408307,0.7891254284742856,0.6378244054897422,3.386247852949956,2.8594615306052114,0.9194016024619662,1.1968277830793894,0.6233814453054027,1.2975918223582072,0.7808724192571694,0.8708086242009491,0.7514793784413911
17,0.13630651847457478,-0.001583927205027133,0.009987307745795995,1.2761839377009585,1.1326682391524925,0.8231395546959456,3.4942578540277878,4.473157803556457,0.8243585771805012,0.8223230663731581,0.6180765742263259,1.3904808901937336,0.6981583767290451,0.42961736254677585,0.5613550442344598
18,0.1785464499881123,-0.004607054215261967,-0.006969359267066037,1.0514049020872986,1.0264874934163621,0.7766400967745731,4.091587250234007,5.276521980462668,1.1913390580420555,1.3264024585994834,0.6528756675646988,1.6019658975953994,0.8078332797057955,0.6746428844234725,0.7432665981897917
19,0.1455914366770578,-0.008673408972564647,-0.001411244180203504,1.2156492074087806,1.2069913689797476,0.8370023769872209,3.6112496779832495,8.034349176970958,0.9381655395493148,1.0256320831817516,0.6180765742263259,1.248389213986338,0.7868015515026486,0.7456093559778875,0.7757072801742878
20,0.100239313422427,-0.004103413061335905,-0.015610318578408073,1.438506973106605,1.433097446328604,0.8956949449703933,3.307642279896032,2.4558473437332724,0.8983530311874877,0.2989307849876517,0.6125606311107803,1.666596326274049,0.7679975096403622,0.3855058689964218,0.7894447738530735
21,0.6469133682022372,-0.042917265098523644,-0.03956832944499908,1.0227979349858558,1.0017938214048436,0.7268095099273151,3.1533022036361102,2.6227440979406382,0.6777379575539896,0.5690146311287906,0.6528756675646988,1.0726846666581942,0.5404266511422151,0.37401442174240895,0.8989643948579614
22,0.040712635960299046,0.004227562463442861,-0.0030239466075350756,0.8967401983813909,0.8471908712135364,0.6044065924667704,3.183515894036949,3.5045108703938586,1.1709131752672461,1.2903771033997489,0.648888643467878,1.3843407151739406,0.9996954842290983,0.9892218135698752,0.587477914896924
23,0.05935135186617478,-0.003111601952385839,-0.006264705830266685,0.9168374143275488,0.9059571311646305,0.7065840105410586,3.184592185267325,4.09528316575302,1.1808265146755834,1.5023853989607412,0.62595550513784,1.3799147541558516,0.886659901315161,0.8750829596856422,0.6632134987451793
24,0.17042915768952543,0.008352247417892582,0.015560399551736659,1.0997542436841525,1.0467727513347056,0.7537458267077385,2.726392414414671,2.4330407661329527,1.0062512490550508,0.7557828191535695,0.6333676938231112,1.2713796326572526,0.7918386648312329,0.4808723456529626,0.9149596425006973
25,0.3868027867428709,-0.032896464488141916,-0.057278293920594706,0.9781914178922037,0.9622141230384829,0.6968920537603092,2.967834350322924,3.2135878752125713,1.583389933926474,1.8581080619163814,0.6509067234006624,1.5624483101026037,1.297588247997488,1.2457060490743783,0.8286521317081718
26,0.1900393767640239,-0.027718981762023198,-6.896561057780429e-05,1.023113961890874,0.9824242516736222,0.7561461253857916,2.971385808682429,3.223477791148423,1.5886290506778846,2.333103112409101,0.5978297680564633,1.7753613234184187,1.4365940586052082,1.3518596182825504,0.8613111354687952
27,0.2645070253151569,-0.05243194360276093,-0.015446913204518482,0.9958524047131904,0.9788413121265508,0.7278967819881896,3.1357138349637594,2.2584959735375247,1.3733343874296244,1.5123738464150218,0.6333676938231112,1.4134143618790318,1.203120730387405,0.8970847188100061,0.7913322990594802
28,0.34723628286066466,0.006087566746357451,-0.046257190125185296,0.8743690366210043,0.8686846263140556,0.6680792926671018,2.807312358433373,2.039498809584079,1.01078432636423,1.129665886360641,0.6468212168108125,1.3325640386989228,0.8677653535907753,0.6062528398767832,0.78528074607047
29,0.31410151455798996,-0.022564340160620776,-0.020824340164480745,0.9281850180282074,0.9061393739665377,0.6854346252506333,3.2565820768769442,2.0537321532761763,1.3827881438671548,1.47079591877874,0.6233814453054027,1.7404328420627144,1.182875416079715,0.9010091668666109,0.817075978462309
30,0.23236618924122956,-0.02665629228817971,-0.008198636098004721,1.192269407380784,1.2005702173830681,0.8008859227355721,3.0239618269711186,2.3102658138992203,1.3202737995417784,1.7013980053531434,0.6008849035917525,1.9822745010505374,1.2536909679164014,1.3758937051719493,0.8269962159073361
31,0.4424204035028768,0.003268666338316406,-0.051060649549679704,1.0434964267486366,1.0552284944936556,0.7230485983808084,3.7087184808276157,11.741160142941157,3.019242046934769,,0.5978297680564633,1.9813876545377826,2.699943892415873,1.9813012739954967,0.7968948032550258
32,0.5174454176753852,-0.029045984047673723,-0.05251927204514485,1.008434763622721,0.9853288432602316,0.7407639689535082,3.178193277675745,4.639945295462012,2.119027422526279,4.2527241388109855,0.6380535849069913,1.7643388736520629,1.8451134468305517,1.3460636743925616,0.8799942573985091
33,0.1922841603821926,-0.026863841424941467,-0.00034209536509832716,1.2311426911861232,1.2291739663583348,0.824793041802788,3.331714425013943,3.289058931449766,1.4364597220457491,1.8487316764324404,0.6425374456860184,1.4783121888902477,1.1645746863055493,0.9235783086944857,0.7572645217490644
34,0.19069446643174315,-0.027968521743322327,0.0,0.9296962053039991,0.9124440401561971,0.5850243442912659,3.1157692494085016,5.303108440682141,2.329775396763354,1.3829442742346088,0.6068309995095971,1.984373815507442,2.3364531992943833,1.3896444480051726,0.7165493749824535
35,0.5847237259896687,-0.027398895962457107,-0.008258696852518926,1.2866701726648326,1.245512851811163,0.8298427284883274,3.3262144294984273,2.554364209163241,1.3590236130042506,1.2771917142479465,0.6547956803312163,1.536135820470163,1.1180577078413363,0.6189038507233403,0.8814064604748169
36,0.19465419462498193,-0.026889381101589543,5.214934458195632e-06,0.977241785129345,0.9581136662993432,0.7233368636540556,3.506275117082546,8.59457036406966,2.2195534228192826,,0.6447042257417027,1.8714522381373035,2.00616934057351,1.6245815225470182,0.7105610742220548
37,0.1098118546553452,-0.0064232806544718135,-0.0030921023535171593,0.7177808525179238,0.7039180289165577,0.6129009830253818,2.8146235380382194,3.361905313507657,1.1795616898935808,1.4494674697515477,0.6284777104787076,1.325011132702992,0.9612632614667382,1.2041185662968958,0.7625082113588634
38,0.23807121466666642,-0.026962072828674726,-0.019065028673547448,1.2213396990903511,1.1944660008705612,0.8239825249195104,3.5186761400206406,2.1647781677343954,1.1133286608856385,0.794359771693571,0.6403206450210053,1.7087059140927694,1.1078579166586755,0.49601235925718223,0.6202442984249749
39,0.2229224744675131,-0.012494851399368057,-0.015365893716217643,1.324671741628193,1.3002064818459074,0.8591864060741838,4.0019285491242576,1.831130200014289,1.3414259189651445,1.3383433023412508,0.6233814453054027,1.8106704941198155,1.060290870256526,0.8878637959798182,0.8222297033949454
40,0.5578966207947479,-0.0393958882279081,-0.05353201440105858,1.2203800409126413,1.2206810008776292,0.7718037884807333,3.362210242490667,2.5088946284921514,1.7635296484497938,1.0945187073247866,0.6468212168108125,1.7404328420627144,1.5681853583063479,1.3010063359684094,0.7903388881210045
41,0.0,0.0,0.0,1.2692886643088133,1.2541419987678424,0.8056081486311374,4.244299099665014,2.5298917932700844,1.6342698881352822,0.5562657010501406,0.648888643467878,2.120263536200091,1.5074162980417887,0.47335371613101757,0.6019220887450921
42,0.1529919260074178,0.01824897411269294,-0.01530325160390466,0.8295678438034176,0.7176600653048285,0.6734665833343173,3.048169751917541,3.7769475646530783,1.306441966505236,1.703220606100694,0.6547956803312163,1.301136552779584,0.939308727011199,0.9027563397899521,0.600200596546492
43,0.1673362036393311,-0.019535624744821824,-0.00037714066478413636,1.0190957319178227,1.007115067801828,0.735610278664702,2.8982625547759415,3.4056388261946555,2.509742112963048,,0.6740851607140061,1.9232358320164409,1.5498156534136982,1.816416265840915,0.9394950867121761
44,0.07341106307527744,-0.008389830809260385,5.252095786830932e-05,0.8649860108025573,0.8447079456567912,0.6840042868388835,2.830919568455575,2.6487396414510016,0.967867634175387,1.022639682534393,0.6125606311107803,1.2953573661277886,0.8197343816699085,0.584824953407791,0.7677326979882154
45,0.9288846947551554,-0.09914307138959971,-0.05996796464273095,1.0122154364334068,1.0166351304277779,0.7437311241835125,3.6021676673518273,2.467370089221445,1.83765797371198,7.668845828767284,0.6068309995095971,1.8876831705315449,1.4380975718458562,2.498287898153302,0.7239567677958958
46,0.0328179146261027,0.003473185107602094,0.000151683257398557,0.9350793952870882,0.8887961419297646,0.7306517623914413,3.417096180755415,5.7923203176442275,1.1445925121767964,1.3829442742346088,0.6125606311107803,1.3777972308659443,1.021054054322235,0.8839706437386549,0.8063691241393895
47,0.1734698597954087,-8.197940002711152e-05,-0.016670462805493474,1.090204441335211,1.0843638948130638,0.6601878451601488,3.5612120336470303,2.6583637689886728,1.404445116475055,1.307558754797577,0.6153451465759925,1.587948255813421,1.1559018494199764,0.8440785417114126,0.6684899041372678
48,0.40826295519377587,6.607350661726186e-05,-0.044513495309185504,1.2129182100856197,1.2103042010882494,0.838683123171612,3.6241250872411594,3.71995412041999,2.0745990612623806,1.60742472414366,0.6008849035917525,2.015069701099364,1.7432789283924055,1.2539547217051836,0.7232269016682672
49,0.00012387015094067873,-2.2296627169322174e-05,0.0,1.0022198722255573,0.9934309490514636,0.7552726826523026,3.017218717110757,3.5115844943839054,1.4205723234256826,0.4821577288964189,0.6447042257417027,1.714921892503467,1.2841492823160388,0.6319587463076561,0.8743990006060385
50,0.24934029441659622,-0.054557667758118614,-0.00024903718437031754,1.060691352481899,1.040686157531768,0.7519083190331646,2.970042502865953,1.9027772093245967,1.2430398950314883,1.5105114065042702,0.6038851895711802,1.563137617905819,0.9857743618580936,0.8997264764983791,0.7349743977423084
51,0.5466946405224863,-0.04720623843905418,-0.03701296495612949,0.9794631503547985,0.9247459104700896,0.5667334916938215,3.0682709054345754,2.9350748594329397,1.3085693760591808,1.4729327277798276,0.6584896970785714,1.299464482081499,1.0408224780965583,0.9777955147735915,0.7976563665630652
52,2.077897889984168,-0.29412186524230505,-0.26040124362818223,0.7913374329817471,0.7273026243742792,0.6969893140709955,2.8699636626665095,2.1147341053621367,2.1976600731364484,2.3367699038858003,0.6097226960127671,2.0155699095299684,1.9286319942624128,1.4570098859182883,0.6558674536202951
53,1.3876302018252287,-0.17663898524065652,-0.18124532723693432,1.0448700814558394,1.029434636265842,0.7073226057335478,2.6964633604806436,2.418121812109172,2.0803743256796245,,0.581717464821069,1.7719568419318752,1.866229497866543,2.9251915230553927,0.7602841676120178
54,1.0226814983528636,-0.07109444739818183,-0.0004932574865186255,0.7434803658571787,0.7181226747512217,0.6448056684638056,2.0953199057546747,1.9665595282060715,2.6847780084952757,,0.6097226960127671,3.2396455863545865,2.6149597780361984,inf,0.9317297345783269
55,1.0107754473384012,-0.18711065566587246,-0.08954213206877754,0.8629144419202215,0.8352549492294432,0.5761558706699588,2.92866865641612,2.2764167383212084,0.772503333378811,0.49612880416988214,0.62595550513784,1.4817289931125122,0.6541183045488038,0.3399014143419187,0.8670867122518348
56,0.1438284272664152,-0.024930260726178634,0.0,0.9856272116997361,0.9749137351968535,0.7266836040849736,4.055495649354451,3.517655046792819,1.4288453280006763,0.8704450099105885,0.6684167106117298,1.7883652361600393,1.2796988101464177,1.0329695040664402,0.8361494462722913
57,0.08404893285071896,2.320222222521734e-06,-0.009353327525408767,1.0067746442070575,0.9562316471665726,0.7164043937044176,4.112326918824145,4.432519489522806,1.7738112813839684,2.1830393386790887,0.6309483474627791,1.7402428664423475,1.6986563824038194,2.119340920519376,0.837357759394239
58,0.0949234618492085,0.010004677869608306,0.010168649242898654,0.870834144379968,0.8094196001767068,0.6509125581096435,2.2949076284204724,1.8849282187392133,0.6084652734061194,0.6336902169048467,0.6207552362147116,0.9375994928204064,0.44891711521672295,0.3380827793484028,0.7123380320456163
59,0.11475412500844111,-0.01579683806895412,-0.01028777473429433,0.8052252372366677,0.7652852618869538,0.5128020560815333,2.413652894959299,1.9235031962740319,0.9861153037171816,0.8033460644876493,0.6180765742263259,1.304693893026403,0.7804527809044659,0.5535329492466701,0.5779108215375223
60,0.45845587719875286,-0.0058144493339629955,-0.04029638557420945,1.0060773272733226,0.9864554424319187,0.6628356830948443,2.809207404330155,2.8756076394971593,0.8157318954209213,0.8075315758999078,0.6233814453054027,1.0802813319833862,0.6924601314089069,0.5769352371356031,0.601483425959958
61,0.30236000741647856,-0.007330093292054939,-0.04484584589229989,1.3151248446225539,1.3239305237602903,0.853610451287303,4.0324007555457495,6.254315614905028,2.7948818258100867,,0.648888643467878,1.8502363989870307,2.4597796997105785,1.4699277369241557,0.6713657346598698
62,0.0,0.0,0.0,1.0770775789956781,1.07449107805089,0.7048385193705657,3.5153766648494806,4.588083756051942,0.9828793116074592,1.275465693702335,0.6333676938231112,1.499089855265235,0.9121946546521517,0.8142803031016107,0.5465616063608405
63,0.10407245785406764,5.28739344386811e-05,-0.019132824541017748,1.2141955571387981,1.2188855740785753,0.8021601785472559,3.79685967521556,6.861627755554835,1.905476941166027,2.0765094276324048,0.6425374456860184,1.7151071177069726,1.5085021143004758,1.793715050239604,0.7425165697393641
64,0.2360454722865775,-0.00011405235654035617,0.01183262918824099,1.0835364738936524,1.0435233688894434,0.6393455884599173,2.3920531576179993,1.670015874750435,0.6743288948836235,0.5379611791005249,0.6068309995095971,1.1331347227065327,0.5013931034538066,0.34847286203632405,0.725506979471861
65,0.06810857327851935,-0.0062396347630943386,-0.005204410722576098,0.47293744624731227,0.40765252175470373,0.49326535137476846,1.6234450673369052,1.752483283720398,1.0032773503202386,1.3020411783782204,0.6068309995095971,1.3417034777920154,0.7653148316580549,0.8505621981395444,0.9093888239576782
66,0.07096624956351702,-0.007681356270129946,-0.004856014486091396,1.3033861015734418,1.2815299065138417,0.8746134999486117,1.2754373175238378,1.5244387922245133,1.441158852205406,1.2326360583088953,0.6684167106117298,1.77437807139728,1.2771018468936417,1.0495536320819754,0.7809548361596077
67,0.0,0.0,0.0,1.5285804642976204,1.4935028458655095,0.8984938832206453,1.351379716312702,1.5391714367796443,1.689293132422924,1.2619705777594428,0.6468212168108125,2.0661963149298153,1.6950149119365872,1.2561130553806499,0.7513086371336767
68,0.0,0.0,0.0,1.3169001380555554,1.287584285986525,0.8656178578796047,1.3809264853751404,1.7584326192945243,1.970742124756495,1.6060878255488185,0.6403206450210053,2.120263536200091,1.7950983704935697,1.795109556113337,0.7690542746668688
69,0.01615775677717893,-0.0019927900025187347,0.0,1.3653581847147342,1.353028895861295,0.8741890738229914,1.2704983323367418,1.6673651352230483,2.496729996262163,,0.6380535849069913,2.1051012884604137,2.2157257263414114,inf,0.8001651035286653
70,0.1319017099159174,-0.015336559164734287,-0.001810663124334975,1.478243407808562,1.4624086083246868,0.8881803498159336,1.2718898462628307,1.6165970236686633,1.5440462867655758,1.3829442742346088,0.62595550513784,2.0769557449452747,1.271016875479583,1.2638865537140302,0.7942404065571214
71,0.04751660875240181,-5.912217257349542e-06,5.214934458195632e-06,1.4902205937731452,1.4864703841709015,0.8546054641904034,1.429762465860953,1.9542660053447132,2.7122384551457586,,0.6403206450210053,2.2950579376849825,2.609716965711796,2.268683541318364,0.8233836229931927
72,0.0,0.0,0.0,1.5245564001016165,1.5202920178795003,0.8782501254167749,1.3292174693735446,1.7058477369322531,1.9425712477897987,1.3829442742346088,0.6284777104787076,2.371577964480997,1.949249050320828,1.3896444480051726,0.7820856572650342
73,0.0,0.0,0.0,1.4594648483163868,1.3745951623217567,0.894277027469184,1.4695728882573689,1.7919988803153066,1.5836261553165272,2.1938744904509373,0.6357360191111145,1.91959284073794,1.3896332623854053,1.7080981791237073,0.7971162904515966
74,0.0,0.0,0.0,1.3263246479339432,1.312954599997063,0.8219368094429093,1.4490251852748826,2.055434052020648,1.809039855165276,,0.6447042257417027,1.8119621765455745,1.6979346220399218,inf,0.827350177340319
75,0.4043156024063599,-0.01289709176971729,-0.07002022097084148,0.28922259120732874,0.2147918029264683,0.2403018718936624,1.6995591994726291,1.5385380681212681,0.7493709758398365,0.6903147063140834,0.6180765742263259,0.7506821358709719,0.5328550954612074,0.4452474387344874,0.8838325310443891
76,0.061552083985570036,-0.0043050591310129,-0.0009626378510746297,0.6085954224440339,0.5893304765739136,0.5268513730179712,2.4969217665136023,2.345041586557401,2.3898619463004636,1.392927718218792,0.6153451465759925,1.914303821986149,1.9988309122946877,1.5437876624438387,0.9111569034865222
77,0.16542884948875466,-0.01433716695569207,0.0,1.7694062574023386,1.7370864365221341,0.947192725323205,2.9655824048609274,4.541458951926218,3.5810199970000474,,0.6309483474627791,2.5265623250568328,3.1805590508648827,inf,0.8498062067070019
78,0.40408262456647787,-0.04243435373409769,-0.04240479786136672,1.1133763640534275,1.0656570959682428,0.7197725751137436,2.826758761423805,2.5971281659703593,0.9668185325506445,0.6821081674313149,0.6468212168108125,1.2348903069607375,0.8075552165879283,0.6241428877459497,0.7086798124731122
79,0.004550339538478166,0.00046777905187616795,9.436712404943667e-06,0.7193078115750607,0.6705419505835836,0.6280493437913666,2.9800918858473207,3.843736811600513,1.9398785501008904,,0.6333676938231112,1.664950622364359,1.505399623598554,1.5702579109202826,0.8212365497594173
80,0.16351153639836888,-0.004635948628282351,-0.018473542350747413,0.8643589422127929,0.8352798231915421,0.6414268988300119,2.7138412207458575,3.402881859976693,2.194107873605226,1.6060878255488185,0.5947193981915972,1.8968977873513597,2.017906861038663,1.457278868397623,0.6963402696593696
81,0.1674417123517951,-0.019739386104995187,-0.0003536193772202253,0.572576458056807,0.5354946371202703,0.5101911236971397,2.123743061532817,2.950389171149387,2.434805053035006,,0.6153451465759925,2.1570427877033875,1.9609116401578468,inf,0.9097847975380203
82,0.3091191976068306,-0.03348523491961375,-0.019065028673547448,0.9136357198245966,0.86373210198356,0.6702820600725298,1.5676935053190832,1.6194354438675647,1.2745591847820887,0.9420772390755283,0.6403206450210053,1.871019150213687,1.1968060330795718,1.0332083670796386,0.9191575911383254
83,0.10890536164848771,-0.0254112510513138,0.0,0.37453890608529783,0.352990942343928,0.3762905758252183,1.9575475987181412,2.007154362198081,1.27246484866552,1.3316509798470582,0.5883313578629602,1.483539745558726,1.132539177004674,0.8971679629073784,0.6162234378504999
84,0.27451848552914104,0.0031569210892727836,-0.03111261440791688,1.1646701790502072,1.1270314389314067,0.8138975962734339,1.9262149529858552,1.607257044594835,1.7083881483019259,1.5007273098909921,0.6284777104787076,1.7948308477525412,1.5465265335535971,1.082417602748129,0.9147126408450694
85,0.5431769458744058,-0.0601809416839279,-0.0355775397327939,0.752320324088222,0.7056230587934057,0.5207747997594884,1.9970511078115047,1.799321423275595,0.9923384639183787,0.8889618183455934,0.6038851895711802,1.1217103399140866,0.8459910791438839,0.6040711637516916,0.858693510843119
86,0.1263521913025495,0.013241325223902527,-0.001482131234860025,0.8946508763197739,0.8501087667773121,0.6138524640042944,3.13579657876387,2.5102589348153956,0.9700743826148576,0.6520871074489782,0.6068309995095971,1.3568650170958874,0.8280358105515001,0.5681467393855583,0.5569628693341043
87,0.0,0.0,0.0,1.4868272867864578,1.49171217132902,0.9077605551560769,3.6473640477913705,2.6145839696671103,1.0396025156740611,0.5829490359054225,0.6468212168108125,1.7719568419318752,0.9907255548234,0.4628824162637222,0.47636979675165975
88,0.15852530883198043,0.0432523286131843,-0.01145098424470821,0.9370540985642963,0.9268124833659406,0.704941745882181,3.7419894234301228,5.232924378410216,0.950942319459925,0.7505200777594114,0.6125606311107803,1.2230423670462867,0.7846368084066584,0.5443649253225465,0.6962392945828746
89,0.37583432728297755,-0.03779179652271229,-0.03587333021197688,0.43411623687065853,0.4235291264626583,0.40815963038837466,2.731496378208201,2.277734072228903,0.9914311411456193,0.9161950606218933,0.6357360191111145,1.1593181637855046,0.73876524801004,0.567020610696276,0.6117828347700728
90,4.637362868770276e-05,7.463307910509765e-08,7.538631337940465e-08,0.7518105966526439,0.7126695427623224,0.5381530289094101,3.00750596882123,2.9095962247690506,1.6330298458481527,1.2506066265292126,0.581717464821069,1.4271626530081487,1.1446099298015135,1.0596768894039976,0.7577528461759617
91,0.3197289266266595,-0.03753093579413731,-0.012701200753804598,0.6778058807483474,0.6518451143371151,0.6070878163319898,3.8897687207105927,17.21005791877644,1.6063767503732593,2.4815565629027185,0.6684167106117298,1.6091601732294265,1.4376315039380398,1.4254028261298255,0.7045321367330893
92,0.06925516283075718,-5.749958601147104e-05,0.004696895796923704,1.1075603701805898,1.0860409641643538,0.7752693635958352,3.1385265521951236,2.3072126024363824,0.9018950606814732,0.6105443464296136,0.62595550513784,1.1812333173564464,0.7161089144466736,0.47650019941037575,0.6838580296529201
93,0.0236091693754592,0.00728396520251806,0.007410507263472371,1.0586091503547412,1.0287659500613207,0.7516122871210872,3.027279078368425,2.18862686062561,0.9545313676983828,0.9008274416954661,0.585052858160615,1.2026773474962968,0.8349826601685841,0.6601098840297728,0.7082541628923713
94,0.0955573599976409,0.005783526479905626,-0.007431560937936885,0.8153474937615177,0.7409580920360159,0.5902550647333561,2.1647984110123355,1.9678870283862855,0.364549759497391,0.2677866521705011,0.6309483474627791,0.7810316658704655,0.3372392604608286,0.19704734599260082,0.8277980082907144
95,0.25760258999127933,0.0715765174509512,0.06381406360503708,0.6829295952050055,0.6735367531625296,0.4753261883422024,1.9695197536456777,2.2615275969799393,0.48584908919706205,0.5330172757411555,0.6468212168108125,0.6911713560096939,0.33267365408542027,0.3558931124255523,0.7145243760274882
96,0.009268765034827738,0.0013740169181570105,-0.001699697864928376,0.8792102435782453,0.8443970939172147,0.6134806153218438,3.45763125966962,3.076942450837805,0.7557046270985537,0.7093801528917376,0.6180765742263259,1.0965144905859636,0.6427157816302509,0.6279526029305611,0.6547203569941421
97,0.02534604249333366,2.019777410374249e-05,2.029579399783453e-05,0.8038787095512888,0.7784440822273575,0.5839341858215863,2.381944917066815,2.213634467896698,0.5550299412357517,0.4252437173441672,0.5883313578629602,1.0027568030245884,0.4693859752213399,0.3250983545513654,0.7982599688011053
98,0.11131952128242872,-0.00809391664880884,-0.014321050686728232,0.9003699839953089,0.8941346835632324,0.7258163285956297,3.1940638341807097,2.075666347385132,0.9913877533530224,1.4098830263398465,0.6468212168108125,1.2697961010516083,0.8406087843320508,0.7991496919292794,0.6917522583753969
99,0.020300336878563575,-0.00476761039553582,-0.00017213824491465,0.8371643046238073,0.832166449421681,0.6627687018608017,3.3759564965761957,8.15373034027396,1.4527872303828315,1.2103412256702075,0.6528756675646988,1.424527118018265,1.149283607875742,1.0572191952331547,0.6902104824607129
100,0.15685796198294877,-0.009184535793397584,-0.02636993558940414,0.8709639031233669,0.8413477045281176,0.6539090001677978,3.7706498547454936,2.5562656752309305,1.1231085586484375,1.4309378160405548,0.648888643467878,1.533609199382312,0.9910089506419164,1.239943163727456,0.7910098716322429
101,0.032935659126931124,0.0007927922784334157,-0.00714108403187581,1.126124689968777,1.0932640014203558,0.6503339841040143,3.055558866994664,2.5696186938097036,0.9476289905414315,0.7530745145396159,0.6207552362147116,1.166141945461709,0.7062492937919367,0.5082755225452315,0.5066343780887663
102,0.07342478250996802,-0.0173771985273591,0.0,0.9641650035654249,0.9568342825499744,0.7097392509051276,4.141937488659548,11.680790625449397,1.5365878450429211,1.6063187630812426,0.6125606311107803,1.4578142323066359,1.4160937995588636,0.8906532818861848,0.7962016576494522
103,0.0,0.0,0.0,0.9156996409297422,0.8879345459501021,0.6984972147795546,3.662178031554358,4.387000488349173,1.9602708248891996,2.076091454794554,0.6068309995095971,1.6607312068216509,1.743805076106019,2.3059351798793277,0.812797017505899
104,0.020668811461799354,4.671158891421216e-06,-0.004551809680487279,1.1048494685562296,1.0597812464226934,0.7860457189472668,3.380103336013793,4.494113426218842,1.4750596375893417,1.1567205779992342,0.6584896970785714,1.5260674146678894,1.3351339659284955,0.9033599331552995,0.8320179772344444
105,0.2736826192122038,-0.022124588752807997,-0.006927682839142579,0.7454891320583712,0.6752483657255487,0.5727932167741961,2.3234951596260167,1.6648906457042614,0.7467554533839759,0.42583559114930464,0.62595550513784,0.974537973566183,0.6097738159206971,0.46621840869853576,0.6593542121320953
106,0.0,0.0,0.0,0.5996830967053572,0.5745595819148077,0.4347872805861994,2.7926770249282242,2.046800982716481,1.0921909292722207,1.1783873675867385,0.6425374456860184,1.3470736479666092,0.92606052346996,0.9524306415824279,0.6444551132849673
107,0.23780031260162132,0.010957401150072085,0.028959270819072555,0.7396273067707979,0.6568240352149665,0.5863540494117442,2.6926267778410957,2.796961947184397,0.7024218598907948,0.9996970378856762,0.648888643467878,0.9625092056757693,0.5423685112712738,0.34260590105337346,0.8505481756884261
108,0.11200132001020582,-0.0068565941607365444,-0.012556967974365797,0.9799518358985412,0.9720076198507572,0.706315852037036,3.3243248642391703,6.9200051737619965,2.1199201439143747,1.0952622017828277,0.6207552362147116,1.7887639602482566,1.9691083653526313,1.2594519566461646,0.8518023238271806
109,0.24374988099084507,-0.02070917062021014,-0.02060870514212355,1.1783948017756665,1.1707642644546614,0.820265313039711,2.9088942529144126,1.9367785277731655,0.9621967447271137,0.660348541845721,0.6425374456860184,1.4352512058464215,0.9118664610644148,0.5510846701005168,0.616150894284302
110,0.21391124513811727,-0.02684707702317215,-0.012504233270378327,0.9578195035986136,0.9574879191082769,0.7009750728567529,2.9889409622593552,5.2091236652239505,1.15930911077836,0.777811111101596,0.6333676938231112,1.3481425951555144,0.990760760512643,0.6632942174102642,0.7468763399364804
111,0.31695935560009264,0.019563426072654877,-0.03517872740130189,0.6652237715592054,0.6013799515894895,0.5588708980830215,2.4839189267708615,2.5042981805021314,1.4177283535427336,1.7348090310679714,0.6309483474627791,1.4493051609292946,1.0653736471923758,0.8722869912937605,0.8870880848200485
112,0.0001290675031936602,3.008030763647742e-07,3.038467115427102e-07,1.0336426709259312,1.0379731773460983,0.765880177524138,3.025799086015673,1.5172048100796096,0.6166476839778882,0.46471542876260874,0.6509067234006624,1.0595197888620134,0.520682998303752,0.3019191221426808,0.5404272795950336
113,0.019675860205185063,0.004755257051146644,0.00010253977797618392,0.8499054362921766,0.821461495410237,0.6643478095694728,2.9773075607401758,3.772422141578347,1.1267851996192433,0.7346849978530503,0.6403206450210053,1.4377280162347401,0.9928167188672494,0.6787295798511302,0.868217733654508
114,0.12105861722441016,4.1373737210886885e-05,-0.013664296911883771,0.8699061134543191,0.8658787921298646,0.6536364890589292,3.1385165779878554,2.2706872373621003,1.0689189979336755,0.4649799018024241,0.6403206450210053,1.455144385667095,0.8501109358828297,0.4602474543003709,0.654017129178224
115,0.14534624933577178,0.016837426073011384,-0.004631318339847722,0.8710314099156051,0.8628743463449918,0.6894689820447467,2.9961239051490045,1.3169574848965895,0.8341147450869116,0.49540423401095113,0.6233814453054027,1.310980766814361,0.6613418061927853,0.3916652222071751,0.604027311283489
116,0.0467982388414349,-0.014491309925401619,-0.00017213824491465,0.9768459016891714,0.9440138980720849,0.7097489653702257,2.6330138118154975,1.3153707435002948,0.6917198665895665,0.3071130108617346,0.6547956803312163,1.171900084437942,0.5658763775920586,0.28381554666306086,0.7906107374278302
117,0.34780080903614424,-0.04755022067416409,-0.019101750178288128,0.9666455035373217,0.9787311320872143,0.6517617743250528,3.161490001982932,2.2195946106182287,1.362495808254353,1.2475440021794697,0.6380535849069913,1.4433116084537112,1.1331257058466069,0.8402121719207589,0.7865005254800868
118,0.010106161337547513,5.057044068589207e-06,5.053448324863867e-06,0.9999560627211913,0.9513023314433994,0.6507468153568159,1.8972968945540507,1.2320208157740962,0.3460155840060657,0.23816844494134748,0.6180765742263259,0.7393074725433613,0.32117444076348095,0.18138507699132028,0.5844005497022546
119,0.022379525137154035,0.007187016918661029,2.5665406684515293e-05,1.0121423038793198,0.9801189503831244,0.7445425663447529,2.7504583193042698,1.7933058084237672,0.6000071851641412,0.45434396894566514,0.6468212168108125,1.1486782663415938,0.5112929953933567,0.33121523218999827,0.6366828641102878
120,0.038044745786203184,-0.00458884697026928,-0.002354986116962615,1.0270890947573057,1.0011645836209229,0.7512183428743612,2.967178455664768,1.4160880107638145,1.0150815055458366,0.6896684514927145,0.6528756675646988,1.4273941720053165,0.9132389886262592,0.7683922433059468,0.8786228015178905
121,0.03344624309059926,-0.006800736095088515,0.0,1.0788403816601246,0.998331859108949,0.7783112717120657,3.6619101708722908,4.6854591529733085,1.2035417203478391,1.3299012803737187,0.6547956803312163,1.6072735896047239,1.1554088071505515,0.6452039730576767,0.6700010565994997
122,0.00165791724652049,-0.0002873723227302183,0.0,1.2312059634392727,1.212196107339342,0.7481530288729795,4.3384809767769745,3.7445171599647056,1.3813516102724015,1.1753049094563641,0.6380535849069913,1.7541426056567482,1.1803900480251863,1.166500896690963,0.5560043155461536
123,0.0076457066688669735,0.001844298210408853,0.0018341547105111549,1.2178754893259496,1.1866115233685746,0.8518175733893177,3.5747279767682683,2.4810046583020933,0.7289459796080078,0.539401894998136,0.6447042257417027,1.43301333834527,0.6863247003338783,0.3829182494439652,0.765210580567437
124,0.47108421220398866,-0.0861093241673141,-0.03358468649367549,1.1754381209338347,1.1441072081897967,0.8108956087187289,3.081418653442264,1.9918748898360241,0.6661994228971407,0.33170024706525236,0.6652988471865258,1.355786710364132,0.612550841030812,0.2632714528031062,0.886478126253053
125,0.06903368682125242,-6.619417222042054e-05,-0.002727949897256856,0.8841683243437611,0.8567920699746037,0.6975360028606638,2.9818031431401555,2.8097449481772716,0.9270546846474617,1.087518775359185,0.6125606311107803,1.116538677201565,0.6537202605804874,0.7165161230659753,0.8465594376466251
126,0.21691685451060067,-0.03097411105766687,-0.008383079639540426,0.8578577388098534,0.7789884658750432,0.5701260478531629,2.491174183362193,2.2223435168578702,1.2742979075826226,1.2780692018153081,0.5641709578113449,1.3264752924324423,1.0338566227739272,0.9383088781306935,0.723086213016635
127,0.03605370227788245,-0.005167697326496485,0.0,0.6398064185888169,0.5698547738415665,0.533814827579549,2.439076109968014,2.3914980895328606,1.7842053471826709,1.9425600621700312,0.6097226960127671,1.9703280771527023,1.7908831497137,1.9492602359405953,0.6994168905729908
128,0.2810666127665361,-0.012665056750820067,-0.0047558395312947074,0.6866736433234543,0.6711173298825397,0.4863733746821178,2.6085612984410727,4.906356586996976,1.6295364809960347,,0.6309483474627791,2.1249969433393385,1.6023923655364731,7.68017564043659,0.8623963797987144
129,0.002340616012641111,-0.0004135088288999296,0.0,0.8463818102871102,0.8254617831118165,0.6217016984459386,3.1152759058925263,2.8837757456728466,2.1729898588675254,1.0986235494855325,0.6380535849069913,1.735694245295106,2.1796676613985544,1.1019623755533916,0.66977057817541
130,0.24799054237635657,-0.019012608248854004,0.0,1.422178506408834,1.3672839115924678,0.7915259038650436,3.967717190836673,6.315154507491229,3.087855055767055,,0.6447042257417027,2.612588517623631,3.094532858298084,inf,0.8679924632485297
131,0.0,0.0,0.0,1.284689640149877,1.2761472976018595,0.8208413930065529,3.138506385503088,3.0821098700652,3.1747149290824312,,0.6566669596287297,2.5257286443082556,2.488245551053515,0.6964972674452273,0.8375686044175256
132,0.05889620933889142,-0.00706754512066697,0.0,1.1386437152322202,1.0687490650748765,0.7778610837733427,3.099031109558416,5.019907637138601,1.9459939550673009,1.6060878255488185,0.6403206450210053,2.145011705889285,1.7703502008043757,1.795109556113337,0.8073140433271089
133,0.0,0.0,0.0,1.6474339090172974,1.6209338818007084,0.9396025689049866,3.607751010872398,9.687766027467376,3.087703552092801,,0.6333676938231112,2.6127400212978853,3.0943813546238306,inf,0.8860364915389325
134,0.4272094357782446,-0.04550000990664335,-0.020005436912687486,0.8076374851206266,0.7170979525709082,0.6118969520911838,3.1590595119918743,6.594338534240954,2.323519195922705,1.6481806193729114,0.6309483474627791,1.993141528760752,1.9637626243401107,1.753567309706135,0.9196378143339358
135,0.002673025908322265,-0.00040095388624833975,0.0,0.4448819137655455,0.3653924982616341,0.46973977177184906,3.127364884104216,1.933201280555148,1.7213603515036746,0.9774791661264444,0.6652988471865258,1.899641680207176,1.7280381540347038,0.9841793398970082,0.7177161561485045
136,0.02736840798062062,-0.0007437216205229498,-0.001810663124334975,1.5233363216243205,1.5017234572989384,0.9233443760415984,3.4552181982429797,6.918137951390265,1.9201795574748977,,0.6333676938231112,2.393969654795898,1.7910292756943333,inf,0.8969253277852949
137,0.0,0.0,0.0,1.6019706419906758,1.5940867688629257,0.8622317868106206,2.815114569973959,3.527974861083592,2.1561453480878576,1.0952622017828277,0.6284777104787076,2.445685936634719,2.162823150618887,1.1019623755533916,0.8754613451520821
138,0.0,0.0,0.0,1.556584051800995,1.550457045738933,0.923582940765702,3.0128071598671964,3.839583177940472,,,0.6233814453054027,2.5257286443082556,2.488245551053515,inf,0.8797764368516983
139,0.038703361050468225,-0.0032252800875390186,0.0,1.1092870907937744,1.0875404649740095,0.6873618215021039,3.105610507150232,7.244927696121657,,,0.6233814453054027,2.5100193506030757,3.19710202531864,inf,0.8068403193915558
140,0.03621571307147865,-0.003138695132861483,0.0,1.5168845884394948,1.4826861992728744,0.8928957331037701,3.1174755937917227,3.3062544952402964,2.537869313891127,,0.6566669596287297,2.469427078939614,2.5445471164221565,inf,0.8870650636984111
141,0.028666019150617526,3.962422078159465e-05,-0.004052866901868049,1.5014593838177908,1.4603916845901517,0.9057971537847431,3.0608426740750905,4.803709773305146,1.9257641294734174,,0.6447042257417027,1.982919974689214,1.6082279909313872,inf,0.8913555287491094
142,0.922011714470372,-0.11211358497636018,-0.035234375185312264,0.7803383306540993,0.7177106554388812,0.5639502984862929,2.7783906342859246,2.8674252415803476,2.021893861153796,2.990142594067454,0.6380535849069913,1.8823408474592935,1.9379135958304934,1.8835280313664142,0.6405743931508978
143,0.0423916684498443,-0.005369611336980279,0.0,0.5873767234753612,0.5030457399112787,0.45745670151556733,2.7183900971790047,2.734503369739051,2.220834098325088,1.3829442742346088,0.581717464821069,2.093315113945708,1.6678961129206946,0.8506479472724855,0.9069119945828483
144,0.06707756673556795,-0.008496491786505272,0.0,1.7391988071895548,1.7129922412033416,0.9269108634824136,2.6315634368267604,2.3207313160235845,1.9783979293402456,0.9129406449888731,0.6727386042041725,2.1126077316163405,1.8027541750773204,1.1019623755533916,0.8715591759121466
145,0.2690709945717219,0.03232067873226696,0.06711270622009388,0.4912499349693358,0.44582090362987203,0.43006722031076305,1.5446392107589386,1.4015469579645239,0.5149055776906322,0.4858290625682155,0.6125606311107803,0.7258770051828642,0.36347826222256874,0.29409868704710246,0.8381485644211182
146,0.0,0.0,0.0,1.022840333064095,0.9235940148515706,0.721695237840966,1.559219696538475,1.7515688016333344,1.5602252973791415,,0.6309483474627791,1.6784307839210517,1.4637412345391272,1.469687155678709,0.8946084771929007
147,0.01943405551501443,-0.0016842848113012507,0.0,1.6148323369591293,1.5912329890474166,0.922528438785387,1.7570275654717145,2.1975662226567603,1.6299457376428659,,0.5915533975974677,2.4610599233137203,1.4543019833799404,inf,0.8219299584047602
148,0.04810977314166461,4.7005849711088087e-05,-0.0045372513429331185,1.6024965906005877,1.5963785058970361,0.9382315716173046,1.6817430286465902,2.0953638800338386,1.510322055774817,1.7884093823427731,0.6447042257417027,2.3983620483878143,1.3267204543900823,1.9853889600291008,0.8128900092598802
149,0.0,0.0,0.0,1.5861800941353985,1.5608585541843782,0.9404254159419105,1.8667221869289867,2.1722541183215602,1.670637532306157,1.0952622017828277,0.6233814453054027,2.2380465718564744,1.677315334837186,1.1019623755533916,0.854497495379987
150,0.0,0.0,0.0,1.639480502636737,1.6143950675919534,0.9655489719848979,1.5588658373199087,1.843720442674697,1.9062036036189238,1.3829442742346088,0.6038851895711802,2.4079456086518722,1.3532656182145304,1.2561130553806499,0.8373570696479335
151,0.015260183123120127,-0.00122081464984961,0.0,1.4607173631913843,1.4304898629354361,0.8760760126940813,1.6399800282911852,2.127737680122604,2.468707632792881,,0.6153451465759925,2.53858876003786,2.4753854353239104,inf,0.8213674130540823
152,0.0,0.0,0.0,1.4670971754756037,1.4716995070986147,0.9124268876802609,1.761765843362744,1.9075221965762013,1.9425712477897987,1.6060878255488185,0.6180765742263259,2.1484344131667874,1.949249050320828,1.6127879993193823,0.7700311128217273
153,0.0,0.0,0.0,1.4464807007039309,1.4122547900531397,0.8346730675683578,1.754457469924907,2.0759457617952535,2.299246191728531,1.0952622017828277,0.6357360191111145,2.3025850929940455,2.3059239942595604,1.1019623755533916,0.7691936870762695
154,0.08791908489875114,-0.009378035722533455,0.0,1.5685693231439601,1.5127648706413621,0.9081531474798699,1.6165384815952015,1.986404934164168,2.0462875553351356,,0.62595550513784,2.26786165693566,2.052965357866165,1.3896444480051726,0.7983881833438888
155,0.0,0.0,0.0,1.3582753633176907,1.3345321874634675,0.8604698083156479,1.5234670306988516,1.57057274727206,2.5993507841788692,,0.6357360191111145,2.4079456086518722,2.200563478601734,1.1019623755533916,0.8041372596851647
156,0.0,0.0,0.0,1.4733755154268446,1.4454654936350413,0.8896128241057826,1.3288084719942446,1.5394060011582817,3.3288656089096893,,0.6284777104787076,2.371577964480997,3.3355434114407183,inf,0.7868604472782719
157,0.01730956802175597,-0.002077148162610716,0.0,1.4559007490597704,1.4237572273952963,0.8967051651937984,1.2323442209925846,1.389293150155814,2.1804626557385642,,0.6284777104787076,2.133686556532232,2.1871404582695932,inf,0.8035276977333785
158,0.0001675055975583575,-3.3501119511671504e-05,0.0,0.6487932550971665,0.5825329724595678,0.4918620882413333,1.8071645970975831,1.961743555360923,0.9553447644703372,0.6472374792558676,0.6068309995095971,1.6096045929911993,0.9620225670013667,0.5738949453528949,0.8167088995294673
159,0.010627102544504686,1.2509005213625496e-05,-0.001641998062037677,1.4733045784464172,1.4364422397463144,0.9164852716983116,2.2259917301622525,2.3449571939578404,2.2074232577416795,,0.6425374456860184,1.8835824032149067,1.7938077508512738,2.033081308740817,0.8258063258458015
160,0.4591842701265407,-0.06355441379850538,-0.01909875482427195,0.8063570404031739,0.7476043313372924,0.3494368005814243,1.6278291580387618,1.8403785939800639,2.1874382861349226,1.6808167229010058,0.6233814453054027,1.8288384774694757,1.79967782691737,2.081955158420152,0.8161302633904858
161,0.0,0.0,0.0,1.6733663925529634,1.631746027743485,0.926889542800655,1.2716609318213545,1.8149258512514388,,,0.62595550513784,2.7593434954897607,inf,,0.8615192003085869
162,0.0,0.0,0.0,1.6857022210111559,1.6520233134682354,0.8887538960583633,1.6410516365971148,2.382584848456542,3.2547576367559676,,0.6309483474627791,2.445685936634719,3.2614354392869966,inf,0.8217874194744885
163,0.11190232859282372,-0.007460155239521581,0.0,1.7205905372518548,1.6868754367631287,0.945053622046339,1.4845788580156212,1.9038524654450304,2.2535512324664015,,0.6309483474627791,2.7537451603643395,2.2602290349974306,inf,0.8207658904823317
164,0.02518155384481202,-0.0022663398460330817,0.0,0.8826244874309813,0.8479190524730753,0.523041868689721,1.3825857905621557,1.8257947524534082,,,0.6125606311107803,2.4263862009759922,2.5875879943857782,inf,0.8446168791944344
165,0.005881340541740471,-0.0006077385226465153,0.0,0.6862457368408543,0.6682680541925601,0.3857940842296092,2.62242694555207,4.677504198804803,2.73211027402481,0.6897970936746634,0.6207552362147116,2.2751861188059315,2.738788076555839,0.6964972674452273,0.6746785649998783
166,0.0,0.0,0.0,1.3393438779663736,1.3099819740880398,0.7861802576164002,2.5154588645196405,3.222511908568733,2.7047112998366956,,0.6528756675646988,2.3025850929940455,2.7113891023677246,inf,0.8590038352951517
167,0.0,0.0,0.0,1.6541729077076708,1.6420863670490347,0.9382646554478153,2.3958440164569375,2.9631361294145098,,,0.6380535849069913,2.6127400212978853,inf,,0.8623158558591831
168,0.3764621591874965,-0.027215137143014104,-0.007921331047818902,1.6186894870663682,1.6033065798541335,0.8973478936850134,2.252833515459484,2.4641214045944757,2.4738259782842142,0.70473513078353,0.6038851895711802,2.5185323774376607,2.228457422035056,0.9634816633342814,0.8703084582840431
169,0.26200423122068467,-0.027198114536816028,-0.00014618268810835645,1.3368418242642215,1.3334540724864028,0.7166381661437208,2.1314607590164534,2.232034814183098,2.4221393806059273,,0.48319206230712763,2.332357251327716,2.0417012136969888,1.5160535878229897,0.8728254555770805
170,0.5483538147392493,-0.05061617371088816,-0.021256750167447276,1.465439008672905,1.4210647685724875,0.8976840910870055,2.1129631216082867,3.0380217015626845,1.3541342049882583,1.676663876104511,0.5202020156036558,2.0534706136915233,1.2222695506136834,1.4472130573392683,0.8638941079709056
171,0.0,0.0,0.0,1.5986865258291387,1.579792386421719,0.9103472809727708,2.4006599156303707,2.85741308483152,,,0.5713653840954815,2.4079456086518722,inf,,0.8172307833465435
172,0.260460877095882,-0.01998835444283987,-0.0008485157248306904,1.5564157436651591,1.5551120632236142,0.9116699229248585,2.2668559055739506,2.490895576228348,3.348904194572852,,0.6008849035917525,2.6226373232540796,2.5101656048163834,inf,0.8484778295245102
173,0.11253642867040145,-0.009378035722533455,0.0,1.6601910982868555,1.6269245529034406,0.93724815129047,2.2580062550880404,2.3209483280179737,3.177211809281018,,0.6180765742263259,2.5232317641096684,2.490742431252102,inf,0.8378783598546939
174,0.04560464131199022,-0.0033443403628792825,0.0,1.6310989671015346,1.6206168565271102,0.9112651719702419,2.2628457641942754,2.7079838791751647,2.1164499460164303,,0.6509067234006624,2.6419503993976865,1.6788766154041388,0.6964972674452273,0.8375866708432512
175,0.0,0.0,0.0,1.6684961926242377,1.611918949974864,0.9103981903744377,2.53931468817483,3.2197202494836423,2.299246191728531,0.6897970936746634,0.6333676938231112,2.70805020110221,2.3059239942595604,0.6964972674452273,0.7949833806695897
176,0.00608546378316717,-0.0005679766197622693,0.0,1.697698058732821,1.6749050179533131,0.9123685268943061,2.3280468264719443,2.3042388758831325,2.6301074782742453,,0.6528756675646988,2.3771889145564957,2.6367852808052743,inf,0.8160683980025725
177,0.0,0.0,0.0,1.5972636746548834,1.5885899269708839,0.8759957208284821,2.6959277602370277,3.88488497697563,2.9923933722884763,,0.6180765742263259,2.70805020110221,2.999071174819506,inf,0.8234025465544985
178,0.07149253054674194,-0.009770645841388067,0.0,1.4561214735247625,1.3801965505959728,0.9162104901483977,2.4661972225843525,2.3346888229444485,2.5882607094140906,,0.6153451465759925,2.0135705753084863,1.7476406515579164,1.2561130553806499,0.8708017764316268
179,0.0,0.0,0.0,0.6264291836866366,0.5994775243956164,0.4069856030242277,3.1234240982504873,2.2527872400603366,2.2171127626894127,0.6939689812440699,0.5978297680564633,2.0928645620119766,2.004818901475639,0.5141757106512727,0.6583970645078122
180,0.016290865046427357,-0.0016290865046427357,0.0,1.384830986404365,1.33391815254754,0.726443083453438,2.78438262469136,2.257004035273075,1.9964504814667021,0.28545117986351404,0.62595550513784,2.3176987308040937,2.0031282839977314,0.291032159337063,0.6281104037929609
181,0.004431387137159031,-0.00026588322822954183,0.0,1.6424044538452975,1.5958010823538253,0.8813947796826581,2.423377885510987,2.4797780097903908,,,0.6125606311107803,2.817679072502724,inf,,0.8578186208510346
182,0.11372650682743224,-0.0179806870956965,-0.004006437557607067,0.8419656464469932,0.8142340677436313,0.3776090192046907,2.1068668004179587,2.029104117711228,2.0016593674052316,1.2884628686199686,0.648888643467878,1.7121476235930064,1.7811650469769547,1.1185465035689268,0.8586328895016891
183,0.0,0.0,0.0,1.6938337930926586,1.6610907187730288,0.8955452804974283,3.1632137219792726,7.773353293501902,2.299246191728531,,0.6207552362147116,2.3025850929940455,2.3059239942595604,1.1019623755533916,0.8891943477787035
184,0.1644580012050016,-0.013704833433750133,0.0,1.1906582778218426,1.1567140786863772,0.67293686700532,2.521634932673357,3.3568146807656354,,,0.5915533975974677,2.532697313624349,inf,,0.8901868896597674
185,0.5572762297501396,-0.07076099234743354,-0.022118379277589723,0.7292329223077993,0.6733067212113019,0.30743773508215483,2.234361957193128,2.465944643793274,2.349444207394608,4.40083175131168,0.6403206450210053,1.9358608132023118,2.139334930181028,1.6352757194236578,0.8350919842506878
186,0.0,0.0,0.0,1.7354586015272502,1.6796570798566048,0.9052205998095324,2.1509230916712556,3.128955589912062,,,0.6125606311107803,2.5257286443082556,inf,,0.8415030411916938
187,0.11214944489978008,-0.004743336618205521,-0.005723944905773953,1.6896391693541801,1.6634162994524915,0.879123535167624,1.869140689582307,2.366246674765333,3.264327087772118,,0.6602640781246099,2.436116485618568,3.104980406760537,inf,0.8391214316693065
188,0.0,0.0,0.0,1.728891360539098,1.7010968220835634,0.9277346475910957,2.005716901375054,2.3241811301306408,,,0.6125606311107803,2.5682882587270512,3.138833117194664,inf,0.8571578224182761
189,0.0,0.0,0.0,1.3756651098054355,1.364669566616166,0.7238079674460923,1.9493777693636734,2.1141297679244992,,,0.6447042257417027,2.6127400212978853,inf,,0.8450672564964372
190,0.07675283643313485,-0.007675283643313485,0.0,1.6571322418276373,1.6262142730943165,0.8953332542322593,1.7377710685083736,2.2900988459166047,3.3673992729119324,,0.581717464821069,2.333044300478754,3.3740770754429614,inf,0.8299025002420268
191,0.010332678305667746,-0.0007577297424156348,0.0,1.708273910593858,1.6694350429323506,0.9456115489661792,1.653410362629686,2.159230878878865,,,0.6068309995095971,2.6220254217511263,inf,,0.8408377891520379
192,0.17607902324700592,-0.03431911574660681,-0.0008966889027943779,0.7056196950708093,0.6447196734218453,0.2935527346887564,2.164437421411088,2.383824982536933,2.645609823001333,0.6897970936746634,0.6566669596287297,1.6685393892694627,1.8696238474658502,1.4791610455117394,0.6375802325666532
193,0.0,0.0,0.0,1.7357414560238158,1.7410123031815883,0.9502387348625996,3.3756412717139805,3.840260866278917,,,0.6068309995095971,2.5257286443082556,inf,,0.838751048397636
194,0.0,0.0,0.0,1.7107828185594673,1.6491980173568985,0.9417442237896981,3.036799817335706,2.2455086895325342,3.2547576367559676,,0.62595550513784,2.445685936634719,2.5682882587270512,inf,0.8567871781813584
195,0.13185882352884884,-0.016702117646987518,0.0,0.6719746304206055,0.6208486078849715,0.3399039773602822,2.491416652149949,2.736489971846928,3.5243775663893397,,0.6233814453054027,2.0926843980622953,2.5158246891913105,1.1019623755533916,0.7954063462557208
196,0.0,0.0,0.0,1.6745959660969576,1.648677380942231,0.8611880759570028,2.473713331118799,2.729755954402974,3.132155314663635,,0.6333676938231112,2.5682882587270512,3.138833117194664,inf,0.8776248507302267
197,0.0,0.0,0.0,1.7331430500654073,1.7032998202854595,0.9530115424758233,2.51079632852426,2.8645135700751094,,,0.6357360191111145,2.70805020110221,inf,,0.8689523034326758
198,0.0,0.0,0.0,1.6755549593468737,1.6491538842093754,0.9131546221866081,2.3649773792373106,2.353212276280136,,,0.6233814453054027,2.70805020110221,inf,,0.8715044734584747
199,0.030809306971190848,-0.0020539537980793898,0.0,1.7116979382654613,1.6780901499046563,0.9005202261533977,2.334846191106402,2.1049942298431064,,,0.6153451465759925,2.7313188280415646,inf,,0.8566888543920573
200,0.0004319108748069693,-4.4630790396720165e-05,0.0,1.327088472603626,1.3094482067330269,0.7182814679658157,2.1375317848065905,2.273771932871637,3.4302181031699766,,0.62595550513784,2.27022547022071,2.7437487251410606,0.6964972674452273,0.8554585933466873
201,0.35437243524117285,-0.056875202839441044,-0.00023295316849493777,0.8076721015425952,0.7446095099089491,0.355392346774361,1.9812624004941712,1.7471074662856114,1.2462651677648426,1.133634604751051,0.6153451465759925,1.5321682769427998,0.9642712886589248,0.826562968475374,0.8850812537871456
202,0.29146674218395147,-0.023807244101020832,4.5101702762985474e-05,1.4088890442479287,1.3925790602210846,0.7506221140897077,1.9635471555768331,2.5984981262010582,2.4636071768396715,0.7623510639616509,0.5677978065141052,2.4711352457040823,2.4158085760496237,0.5857269319391084,0.8733746595847298
203,1.085617663692486,-0.047537760590697475,-0.08601221909526882,0.7102795618088837,0.6290994507995296,0.4779206966172519,2.0513355276207483,1.8986972521782497,1.7870410928777125,2.406232976392347,0.6125606311107803,1.4579097159312668,1.5322823772471088,1.5940867337783393,0.7883030660461171
204,0.22222307826139914,-0.03175272437024704,-0.007648256194386489,0.6884500534077617,0.6169273699955478,0.5006727041170166,2.3618804503084974,1.4480175559920836,0.7629880827260543,0.3457159549571828,0.585052858160615,1.3938338226775149,0.6730644929831302,0.3476120035056241,0.6444189801742507
205,0.017628917743833235,-0.0013515503603605482,0.0,1.6692346539510983,1.65068322193457,0.9132591312865098,2.5324929418550997,2.2328961216560965,,,0.6038851895711802,2.582887058148204,inf,,0.8538000334176494
206,0.0,0.0,0.0,1.5508253989515373,1.5072991446464714,0.8894178349049688,2.304424787768069,2.508468892059691,2.1561453480878576,,0.6068309995095971,2.445685936634719,2.162823150618887,inf,0.8559495863778724
207,0.0,0.0,0.0,1.647824610915418,1.601605535906488,0.8986290553400824,2.3471615569839606,2.2295020799713487,2.88703285663065,,0.6403206450210053,2.8134107167600364,2.8937106591616795,inf,0.826527605699806
208,0.4095714712437317,-0.03767869888850696,-0.018779164496195398,0.6647818774083869,0.5934291723723145,0.4829579617997323,2.127861868984682,2.0506050488459717,1.3536652269075755,1.2026273956930322,0.62595550513784,2.042188575236687,1.03789195788745,0.5829146068337697,0.6591271930235325
209,0.22066899102888118,0.061139863477323336,0.002420826198225756,0.7790110991007472,0.7591970258303575,0.42884165843028504,1.1823641883445388,1.019296799406811,0.3238110452129653,0.29955363362884047,0.6284777104787076,0.45056708202058454,0.19905243431349393,0.14992575501568664,0.9097226870769245
210,0.0871776647990122,0.015773118654818154,0.015600819461557891,0.5999824410586854,0.4713908642682229,0.45271598045303846,1.7911435193134453,2.14120215144632,0.2827592502994708,0.24047751150689056,0.6180765742263259,0.6226680067603025,0.23328572635631065,0.14589488711918847,0.7674178063213768
211,0.060055944209939614,-0.005405034978894565,0.0,1.3425456595954017,1.3031170244754984,0.8650543718887318,1.6299565706238188,2.103998680060635,4.913431172468152,,0.6207552362147116,2.4444047064786707,2.5695694888830998,inf,0.8117934173750627
212,0.0,0.0,0.0,1.379592565156057,1.323389581487698,0.8392948775799735,1.545277748416844,2.5383787965188773,2.9737869988921735,,0.6125606311107803,2.0402208285265546,2.973753366835216,inf,0.7876332429607132
213,0.11027048695696484,-0.02472694234678872,1.836854123333869e-06,1.3754755466850725,1.3616919386300022,0.9033626009388025,4.107535794675259,6.559605487079096,0.9926423871477535,0.4672108006640915,0.6153451465759925,1.5291900975913495,0.9227977054395414,0.4907304352374832,0.640755670427156
214,0.13078471321644433,-0.03138833117194664,0.0,1.2327113125856233,1.1928740152868473,0.7946879579648854,2.886838926901295,0.9232542600209657,0.4716053423823555,0.24125268305672393,0.6380535849069913,1.4677936846990274,0.43266520145236853,0.1990946640113773,0.7701501621694946
215,0.6997151929648162,-0.03539357538047572,-0.053748183203658415,1.027855992024139,0.9919220504407323,0.7605583920335296,3.520566467401343,3.1476504940580763,1.4127361494302109,1.0896918653176337,0.6584896970785714,1.5765405685099898,1.15375524153954,0.9357355499810444,0.7251190440095148
216,0.4336239685436123,-0.0370788495080987,-0.03877906643663267,0.6550335056686314,0.61102143131498,0.5968334668939353,3.0341248497882294,3.834739471316643,2.063331848179643,4.202419903043965,0.6125606311107803,1.5175173091429763,1.8317203335884682,2.318534394401724,0.8438315199190669
217,0.14487243015612666,-0.01613466755680026,-0.01996763473020114,0.9359309312144501,0.9400241227916831,0.6241049217928167,2.684101982323534,3.0562409495740828,1.4615917208556402,1.7404549892207373,0.6008849035917525,1.3964344877609176,1.1287387552556378,0.6435905404242976,0.917579408304782
218,0.09250237434094623,-0.021583887346220784,0.0,0.6083087516500507,0.5841697776549767,0.5136137172982685,2.379855031906929,2.8493894828051296,2.609960963290885,,0.6008849035917525,1.4810446976657015,2.280166529200701,inf,0.9383940972223986
219,0.8014443624469155,-0.057856747794314156,-0.10602738886831062,1.2192645904580073,1.1831270832176521,0.8424033611636487,3.6352319949214995,3.3804567587133936,0.9549778421780533,1.3800762312246528,0.6207552362147116,1.4218985108186302,0.8376270927149685,0.7040622166938251,0.7302215090389769
220,0.3562552904551085,-0.050522346391654906,0.00031624500926105,1.3357171637738983,1.2489137788676554,0.8707712058377223,4.055645173544284,5.964571568332316,1.164350509717746,1.1458914665662536,0.6447042257417027,1.5900711099432503,0.9733017131241831,0.8066489411262723,0.8587669073736051
221,0.41478723641281146,0.03169609256751649,-0.03351957054883978,0.8367580602501856,0.7902526201425424,0.6584574612945159,4.231763792381418,3.1783383208121068,1.0328212622685589,0.890249795962264,0.6509067234006624,1.2964130323105245,0.8887841648129766,0.6885141198795565,0.873298307816383
222,0.7950872775545923,-0.09597071513851659,-0.059537456224934324,1.2711422523013762,1.2762885304022582,0.8415401911094662,4.497731470324861,12.863361012906484,1.5685086582290213,1.4844369075856882,0.6468212168108125,1.6307182977436714,1.3307199085863533,1.0510191964198916,0.7676429134346966
223,0.6559213024147145,0.07836379044808922,0.008615550566829666,1.0518982846893183,1.0260654675986032,0.7348410074451752,2.7760029878071886,1.5249968192066472,1.2425611353345398,1.2908358307335597,0.6528756675646988,1.3244260685381983,0.941184421664486,0.6790062825458762,0.78299522936382
224,0.7263100137207351,-0.11655350961907071,-0.04376743347603035,1.2016577165315379,1.1611750499284612,0.8123266452355044,3.2350721210661724,2.773603001654235,1.5340550220048486,2.7737546413942162,0.6233814453054027,1.4623598034244056,1.277353078186646,1.4585118110984412,0.7457784397624836
225,0.6058773468350892,-0.08174476131604512,-0.06463920824696365,1.211682194988254,1.1845772802020147,0.8032599911421185,4.325139347162919,3.502076440930633,1.4333292571173648,1.387226979830722,0.648888643467878,1.5330943458467665,1.2793908733923267,1.3515667554078274,0.8371750742851933
226,1.0336495797192813,-0.0483271471311042,-0.13848171123988975,1.3011340209003028,1.2799767486535418,0.8209435817687621,3.2571580153082498,2.5063175631853944,1.5162660168236124,2.1025207989437686,0.6447042257417027,1.4654818790169113,1.3310353034076292,1.511020600258602,0.8151688597312697
227,2.412716329888928,-0.39577130880483774,-0.31874670689787044,1.1203758369317145,1.1060293149789362,0.7440704797409864,3.3114889802448855,2.9072989294008877,3.2629089875795994,3.9682976308189706,0.5713653840954815,2.083538812932403,2.7815541758731945,3.7698832382670235,0.764234687779392
228,1.1022516364049313,-0.13866261368415983,-0.08045570823878942,1.258610324800457,1.2287715121185259,0.8600555067360838,3.394055120847448,2.207197140310264,1.989351169093343,2.1351203761406006,0.6619902821573977,1.678728447266009,1.7102110370006445,1.7920887957582832,0.5295590767344046
229,1.3903100781291775,-0.24528248897149757,-0.06685757468261885,1.2125177618495955,1.1965584772827784,0.8040339357410141,3.961557303314272,4.135724493630981,2.62920995232295,4.362747678696458,0.6468212168108125,2.0996442489973552,2.315824272899159,2.1880753826826314,0.8921747990534926
230,2.1490224794935044,-0.5626003910969528,-0.15374043540088192,1.2426554435363908,1.2194972771007748,0.7713912860506617,3.9516291012545492,5.832892762838448,2.9555931719916737,,0.6403206450210053,2.212845958239176,2.7747240629260834,inf,0.878443654354383
231,1.4958533509113425,-0.2625953085839053,-0.03657536159836324,1.1661149284614862,1.1243023134735493,0.7501223849844608,3.709220702533124,2.4880328405623335,2.9213594582516103,,0.6153451465759925,2.3927529616174557,2.725096416785949,inf,0.8955296363711837
232,1.3882273588948686,-0.2064581045416554,-0.06655994270766877,1.0841416275440845,1.0664968213704484,0.7955842045915114,3.751694657845933,2.407376357310441,3.305954889946344,,0.6425374456860184,2.301918648450885,3.114181753753535,inf,0.7782428355401216
233,1.0125653358883848,-0.16271036043049453,-0.036427488960887815,1.002302708970122,0.9433416701437635,0.7888082155005036,3.251655745985605,2.0054585145364205,3.8239182042013877,,0.6447042257417027,2.2786515760319483,3.6864956627586603,inf,0.8055461416678662
234,1.8139840744428326,-0.34242396327511904,-0.1594449639873979,1.0959961710432808,1.0767584091053528,0.7958027351905862,4.415818015805619,7.508649436882341,3.4704448873937226,,0.6547956803312163,2.155890713843242,3.2778646235998985,inf,0.7390611110107997
235,1.26715889715951,-0.26957595229163883,-0.055110865236421294,0.8823377624217535,0.8559598002881115,0.7358744071562392,3.539612617701004,4.203919920452181,1.5697658685417044,8.073227596987712,0.6425374456860184,1.7511935074813934,1.4827959551968555,5.870990393640108,0.8034062290929345
236,1.2131412567344042,-0.19132647151355692,-0.06662127757689779,0.7725852021357373,0.7475694915415717,0.645391507633151,2.9506114227612916,3.713492221195567,2.299757150848458,,0.6713451011121618,2.1570427877033875,2.134940035424561,3.1643384076030263,0.8657609442452415
237,0.966660216769641,-0.15490960462465683,-0.07909868572199973,0.8599490931043118,0.8374916037766624,0.6854243136451567,2.5804561686534937,2.7105742376209068,1.4464968104552567,1.9231065677181707,0.6153451465759925,1.585233223737283,1.2553964422640675,1.4006693091774134,0.9270671536410796
238,0.538566981491837,-0.07987574411260098,-0.03144697415061862,1.0081978506032871,0.9708104246367796,0.6184699541588208,2.904917995117742,3.569506075489803,1.1943781304997836,1.453770055079678,0.6468212168108125,1.382125286025528,0.9478310037646497,1.1582524688616074,0.6170313295590945
239,0.2100140174922711,-0.016911576429553314,-0.025012540774924215,0.7809010397357821,0.7266163489236627,0.3830469134514865,2.3688874942956732,2.512777253824896,0.9306305725222487,1.086538940456579,0.6447042257417027,1.169070518983365,0.7872491774600024,0.8102427757265109,0.6516796539599359
240,0.12820873996411325,0.00210284708642261,-0.0065436334689011125,0.9781635617786529,0.9141513797443132,0.6927426195249775,3.665447107670237,1.5048411671522972,1.2315883411185629,1.588600848903034,0.6207552362147116,1.2634476244547892,0.9259079945027351,0.9004431636355342,0.60053418403128
241,0.0,0.0,0.0,0.6870905546061009,0.6017360341396772,0.5925985963019487,3.2548282618841577,2.3805410561887745,1.03639466546321,1.2917072915589143,0.6528756675646988,1.2039728043259361,0.8922306589515553,0.7810546554732903,0.8272118071886
242,0.1294831421597011,-0.02319416421047192,-5.6019910192611256e-05,0.86728407311133,0.8304684007168347,0.6095816332031861,2.396190448340581,2.748311327101664,1.5025126958735529,1.6911659819428886,0.6380535849069913,1.7659617764069144,1.4590439088368232,1.39246202855476,0.6786733602655621
243,0.03457293351893215,3.331549095592773e-05,3.3523256119298225e-05,0.4152554885334208,0.39674420332869226,0.38265208694994685,2.498340982219472,2.4585684000388617,0.756581733332253,0.8394157983570377,0.6357360191111145,1.0325748914068027,0.6345509868198409,0.5521398299864563,0.6691855258868669
244,0.031095402664132174,2.589369275772177e-06,2.4566050458481314e-06,0.8570837002899585,0.8580236783139111,0.5027213622702776,2.3760350874618523,1.8395368101810985,0.6545580754439893,0.5673207875865304,0.648888643467878,1.0740172418127294,0.5472121397744029,0.4129414093127892,0.6430002464800119
245,0.3488653093397188,-0.0038551051039825146,0.015272307515608749,0.9390002684736719,0.9354912698961512,0.6923208248501765,3.2990801045260087,4.442996591266315,0.8365703205839015,0.6623237131967793,0.6652988471865258,1.249706533045492,0.7232551197086015,0.49018350525239424,0.6323369727943923
246,0.05063283179004041,-0.011334007980581954,-0.0004803194370941428,0.9780484142124465,0.9708229032424843,0.7228179233074572,2.126219947756477,1.4219809093020706,0.8971127665788944,0.6605082736066257,0.6008849035917525,1.4711262966365881,0.8392669788052691,0.6920279862629303,0.9339781492799828
247,0.00043144029517854166,-0.0001231437286890755,2.2615894013821902e-07,0.8173430448470619,0.7833525405484709,0.6139738875950949,2.306825780321393,1.1854346804210687,0.5435969967153909,0.40184610974590534,0.6357360191111145,1.0128628186593989,0.4748984136319391,0.25260828055442097,0.6044041998635593
248,0.2969230978807506,-0.021942430748361136,-0.057155746350931756,1.0515892212147266,1.0381056825068704,0.7699254393256645,3.7266084249929596,1.8288987042879379,1.303504005601936,0.7369268273500009,0.6652988471865258,1.3430646009285707,1.1732639188677696,0.6067322022575656,0.8498762923804632
249,0.3916428158351082,-0.03984617431997031,-0.0009403782648575512,1.2223022772668348,1.2006155751423984,0.8363093027797146,3.615978146055848,1.9493894489098533,0.8706612873208487,0.6978032940373381,0.6566669596287297,1.4926924519097104,0.7298499334107987,0.4977491022040546,0.8574939083393632
250,0.07740408666572851,-0.02010206560571648,-0.0013130650384684081,0.7674685812418077,0.7175951286017761,0.5879123828603445,2.4586775022702034,1.6255391612241215,1.1079267680370442,0.9667937738073046,0.62595550513784,1.3211310352134775,1.0665279190272472,0.7578631511047365,0.8954807652496267
251,0.21036085653866268,-0.014085871041065831,-0.018824956278676398,0.9261273120663498,0.9133664474324604,0.690339286622478,2.8107042885252915,2.405357083581507,0.7739658206051914,0.8029246322684052,0.6333676938231112,1.1241352458991956,0.5861671317525922,0.5376893167380848,0.8487080446067353
252,0.004475075069840714,-0.0012530210195554,0.0,0.9520140144904059,0.9335183713217651,0.6419317672721331,2.284028179014632,2.2967120003269312,1.4525547931264682,1.8692235957765784,0.6333676938231112,1.2767028089342483,1.0631227370009932,1.1734213395355366,0.9247604732079231
253,0.02949456863143857,7.201451050129187e-05,-0.005872613008017545,1.1748834102626056,1.1822803363493974,0.8101698825898254,2.5331421390550957,2.632404826610602,1.3446497330198932,1.1256762945007535,0.663668482632973,1.640412716733531,1.223706670018568,1.0545926068268439,0.9101184017626414
254,0.020216682636106438,-0.0017400791136140598,-1.2078973110575195e-07,1.013727726592596,0.9630052500090526,0.7184680979469843,3.2466324425204016,2.8971461878215723,1.0282103259754791,0.703720803322403,0.5947193981915972,1.4002129997459856,0.8934123518765883,0.45299244262889476,0.8557166661566451
255,0.24467779566631617,-0.019111972935137785,-0.019036446598043488,0.8070431449496668,0.7767681116782432,0.5381293096791717,2.898504455148174,2.1986008126540995,0.8200537802746972,0.6763203379714523,0.663668482632973,1.205826372975259,0.7192359435672164,0.6104361193615853,0.9293775595640029
256,0.15705294126671848,-0.03113321935522749,-0.010783907441485255,0.8408652904467903,0.7753242722285444,0.6769304937394826,3.3453438022306052,3.161739116470556,1.1432142541244794,1.2585850762258184,0.5978297680564633,1.3493840070997936,0.8075627237378556,0.6163533554726779,0.7598334336059881
257,0.0217742195004004,0.007384131049583584,0.007514428235407709,0.4225802946498237,0.39364734564382187,0.4632498387129353,2.974412932109247,1.7359885805535265,0.8553350906533029,0.7901542130211713,0.6284777104787076,1.107518498139106,0.7446989401260631,0.6664528416756405,0.639011458835457
258,0.0431748811353631,-0.014391627045121034,0.0,0.6097987615274116,0.5497121494494435,0.5438197468976504,2.7838955659213687,2.0137278294008985,1.0365675584457865,0.9129406449888731,0.6380535849069913,1.1085279534554862,0.8144037885479684,0.6094858904555975,0.6320629592471634
259,0.012894524541683515,0.0041701793435618825,-0.0041261379678673975,0.6861332844072263,0.625186744733182,0.5698431367124298,3.5160307885688855,7.611742279419702,0.9700670336384722,0.9411115219555694,0.6333676938231112,1.1468576012961043,0.8089121049546526,0.5243484268054465,0.7121604179704886
260,0.028148417837408457,-5.354618565038549e-08,-0.003437258681673583,0.9154202794028732,0.8845476336182746,0.5880202688104452,3.0401714514844502,4.442420114714256,1.4687986200221514,1.3829442742346088,0.6233814453054027,1.4590562311287538,1.1689512622999199,0.8436123525300275,0.5182224423612549
261,0.05220213372003902,-0.0002497608028669898,5.273470398746774e-05,0.8957365642798222,0.8707593293464627,0.6485154155919802,2.582345602408623,1.7654653035038779,0.5222536326830003,0.36463952712242514,0.6180765742263259,1.0040599717268868,0.4835045166751736,0.3310181948698703,0.5826218951468345
262,0.48378712656051137,-0.052228511193399954,-0.024130309214464053,1.0887523758785504,1.0520754848839016,0.7695614212457705,3.488768662531201,2.681035259594576,1.0837874408530928,0.7661369963251399,0.6566669596287297,1.3866055206361034,0.9203223217920794,0.5721084058042364,0.7044171663783386
263,0.40187108537114824,0.0218895409492878,-0.005999096675704196,1.005206700882071,0.9749047577747606,0.7415066551271897,3.4200071493330713,3.4989785410184004,1.0331403429376604,0.7266903215100795,0.6309483474627791,1.3728298601666014,0.9119153146991134,0.6104381400276722,0.6716861266137022
264,0.1757711543885442,-0.005263391692607436,-0.013003178421089875,1.0342908536443927,1.0294265223380292,0.7361346625933706,3.305024162487939,3.10296559973847,0.821219911310383,0.7179432340835065,0.6233814453054027,1.385761169958232,0.793427044891889,0.5338745280756336,0.5076072215331745
265,0.09824775086463246,4.469303137616745e-05,-0.016746810678363686,1.3395526372491957,1.319023168776077,0.8106890007784574,4.08690578305162,2.336154736259254,1.7115928512716465,1.5007273098909921,0.6447042257417027,1.7916261447828206,1.5169920555862417,1.3032409737698258,0.5519498063804059
266,0.17786899054194763,-0.013513316637536018,-0.014337211456204056,1.1613610815456863,1.1374742116758898,0.748807779138015,3.145630468188788,2.191636509655884,1.1809980778098539,1.26486855360969,0.6380535849069913,1.64178894265176,1.0654282721465582,1.0454306866657634,0.7910596813520655
267,0.18223337688938304,-0.0303497832120388,-2.244626952503948e-05,0.6647199539753272,0.625597345333909,0.5745244329951767,3.6483860683047338,14.433596774682364,2.4819149104770224,,0.585052858160615,1.8322343017937732,2.084243053983753,inf,0.7920449422503189
268,0.377697206911755,0.000613446940836565,-0.037352863379518646,1.1446889192493603,1.1224505989055247,0.7586956905465111,3.510383897128292,2.694673619450258,1.8983447195713108,1.246062794724804,0.6425374456860184,1.8595387916493444,1.5978762700110396,1.1345098975776868,0.8029187690590291
269,0.07670134282816962,-0.0061700176154299395,0.002822556321277262,1.026840332556767,0.9984881496411127,0.6838167656628841,2.9385617351160143,6.110762736695522,1.3176956536308573,2.315654646912809,0.6447042257417027,1.3705960054017932,1.1354661864589985,1.3461208132113374,0.7210555739327946
270,0.12624155964161082,-0.00022304725167863332,2.493906259291856e-05,1.058560369656629,1.0354959648772468,0.7495645280961198,3.55580020878418,3.39215733436482,1.2973613778691209,1.870239880506337,0.6668815377411301,1.4286453016604208,1.1883461684948227,1.0144580020584166,0.8788443243402548
271,0.46364904029687803,-0.05004788686796064,-0.022156245836680695,1.0153515854618247,0.9389829150313463,0.7411832377688045,3.990206858147898,10.317990732035842,1.5661130443591746,,0.6619902821573977,1.5599072817369446,1.333067862029335,1.8694988360404785,0.6710555891567628
272,0.2447920294012456,-0.0015701844796091394,0.014384095094615697,1.2665722978689835,1.2362782303003415,0.8447882821052263,5.033449651831036,6.494543838439158,1.1372429668988333,1.1166759312290757,0.6333676938231112,1.5693094917138897,1.008297413363031,1.0322560087187913,0.746818927429388
273,0.4442206594874376,-0.048546337571900994,-0.01962644351552211,1.0869674310063762,1.0846116563804749,0.7569857753939568,3.915702391667704,5.057590005116272,1.291660049801142,1.2815717188852283,0.6180765742263259,1.5171119790467342,1.0647461968177165,0.9373722727092975,0.7673215072232816
274,0.9942101720167948,-0.1632896924584552,-0.103480822985322,1.1671769220240713,1.1329293309709567,0.8220323811792001,4.208413300274822,10.605503251302016,1.7709598427364046,1.3217625994684736,0.6668815377411301,1.6907684860881715,1.542375310577734,1.2616783321533203,0.7900544488558259
275,0.9828229120288373,-0.14839287865323364,-0.12073526951971195,1.3730567655471142,1.3464340888496444,0.8911024827828006,3.5856404921287317,5.582078241029235,1.7570504672902822,1.3974280881960248,0.680118107274185,1.7581312882480709,1.521438605292386,1.0726822124321933,0.8224595470500844
276,0.22604669742013342,0.008412737806172063,-0.03827897583515429,1.0240147007996965,0.9963855119642296,0.7509190295914322,3.1810411294142806,2.211744308484955,0.8288533455319476,0.7197164471924349,0.6778444222523095,1.126463216823886,0.7023060780380697,0.47559515803216723,0.8006161251745348
277,0.6064851034207372,-0.10018111871490733,-0.08628373990261715,0.9719750966014702,0.920439675946481,0.6980346419024079,2.7187617470410697,1.3870378622277406,0.8256892584706519,0.5537548924348537,0.6425374456860184,1.3227563403159028,0.6999268675453241,0.3860034160153642,0.709994941001369
278,0.3610010662750051,0.008082981067798055,-0.013476017834622052,1.1958501290942496,1.1716693751422191,0.746679827152078,4.643979862035867,3.2524219520346156,1.5585666943208725,1.1276981946437712,0.6447042257417027,1.950989694798612,1.4333505697971205,0.8947287390366332,0.7271022246816576
279,0.3504007817858419,-0.0680506815583736,0.00441599174972921,1.063995903704382,1.0582584346181816,0.7446315952629495,3.1251978205507047,2.862276030177016,0.7129276011909147,0.6550255871555163,0.6509067234006624,1.3085517324987368,0.5470709303962712,0.3466144562647557,0.7684278401894662
280,1.0876339317342845,-0.1476666340852611,-0.11283712463056106,1.1090021437304463,1.0918561886380247,0.7645427168331114,3.8118313215057387,31.448372524538478,2.2852680720745595,7.166491568716034,0.5883313578629602,1.942427332220215,1.9657143264999586,1.7279821674622127,0.7406544843620038
281,0.8785990967655115,-0.15883928196438157,-0.09017522647231171,0.7117210941893051,0.7007052353356036,0.6193730565419293,3.5385992000201587,7.376219482892175,2.328040801733243,2.448154130951034,0.6380535849069913,1.594111519480255,2.1369797834429907,2.363267667347369,0.7233698483925777
282,1.4445623235138798,-0.30642295243659246,-0.07397845942206262,1.54185892708203,1.5123399934300383,0.8658243418186838,3.0271768438996296,13.023225032028806,1.978141581712113,,0.6403206450210053,2.3039193160071822,1.814035111854052,inf,0.9251679075361295
283,1.5235084128799528,-0.32364538648733887,-0.10438875539923785,0.9565514420329683,0.9074389113413405,0.6158453605809552,3.052313822150402,4.851197156413199,1.80909342437671,1.8876637230133375,0.6233814453054027,1.907469654723508,1.6314584004047268,1.5605384526746366,0.8231748163378985
284,0.8172096973277924,-0.08640706528894869,-0.06373848103991289,1.2437103792973587,1.212205475838922,0.8004060333945507,3.649366603309318,2.2774286188810318,1.34651367863852,1.219468362947156,0.676637947632344,1.7356312154504538,1.2016225283458413,0.9949719689493703,0.8615898598679198
285,0.6931412200106276,-0.0762827286204916,-0.030741075288867062,1.2057423260181208,1.1968586173367062,0.7175704042059001,3.761458261097783,4.583878911104517,1.7254846778448265,2.079034654885061,0.6309483474627791,1.8959355014782215,1.7279888516129274,2.0765303314723775,0.8711178181926147
286,0.5509772331100347,-0.06663564294173521,-0.022128265879286818,1.226356806971363,1.2063756785219666,0.809887156711843,3.879317786579147,2.2450912077217975,1.2562375374283565,0.9720861776113622,0.6528756675646988,1.71869489837105,1.1255569239115617,0.8780695190539572,0.7738307091386898
287,1.155640345680583,-0.20946301093704553,-0.052482134083886654,1.2664363903759135,1.2291698968088274,0.853081857381623,3.737659594178831,3.5617820885709004,2.5615360644810994,,0.6357360191111145,1.992407942714894,2.1420644105979862,inf,0.6585194199960205
288,0.47646688120146174,-0.041024559150714825,-0.04382994271159659,1.3223779408365526,1.3265220037459762,0.8577049272021533,4.58047018110936,6.922035213956448,2.0374597072688334,,0.6584896970785714,1.7446850618421261,1.9441943922718101,7.025538314638521,0.6336438647686965
289,0.6106794855592766,-0.08104458071742049,-0.028052038653250302,1.104190078608834,1.0439605813448987,0.7033355579027873,3.871780311484956,6.831318065814189,2.0805290151890836,2.1410093390382747,0.6619902821573977,2.0912442537989873,1.8472368105921804,2.018045431355534,0.7818263960034377
290,0.6466986949265691,-0.06474514942126669,-0.025792667868452968,1.1687135443183991,1.169047081353326,0.7920404526709282,3.914567317711927,5.704262498659098,7.729083293457691,,0.6778444222523095,2.285509492203791,6.557106099647075,inf,0.7854031010718436
291,1.0685667507004015,-0.15778512976370124,-0.024633605332420067,1.3079813713520687,1.2960129199316686,0.878048640123433,3.7162410672413424,5.003723931122638,1.5433998196190881,2.0222553932641705,0.6403206450210053,1.8598242001421843,1.344984367514581,1.3494572884695586,0.736340196093334
292,1.3123136903596553,-0.193724277039714,-0.09935911380727563,1.1298737815176063,1.1121496636596435,0.7165423759541173,3.9282475873402847,15.567064218972614,2.4135608679018588,,0.6309483474627791,2.0500121976558328,2.1083376945421803,inf,0.7241216676442004
293,1.070830531022164,-0.1623090932858354,-0.1257422575232684,0.9629000186521355,0.874422492466891,0.6675392000397306,2.929798242272242,3.678399052037213,1.43806382404231,1.7090323973131596,0.62595550513784,1.4948203755135974,1.317109956076005,1.419380085705656,0.7665532596820557
294,1.1898841258484263,-0.09119592426126016,-0.07349924816081348,1.3627412279851951,1.3372798204563026,0.8571876475489534,4.186248222843546,9.292170246911025,2.1733325076658176,1.4408128097772275,0.6602640781246099,2.086309516765064,1.979771580184177,1.296478538327149,0.8888943744285653
295,0.8989322236478264,-0.1264531213404158,-0.06961632342719679,1.2664018058284878,1.2388575349325062,0.8517950605719313,4.448770980477751,17.455548567419676,1.8903354530735725,1.6626622320945066,0.6380535849069913,1.9747212309094329,1.8219909280077187,1.4267038994577672,0.8142009231572271
296,0.823721467354384,-0.17833305964423343,-0.022687954906080204,1.1183715925999795,1.0709155296542487,0.7867693886707922,3.879440741244193,16.198426879330572,1.702965417055709,,0.6566669596287297,1.8734757988480448,1.549285760729951,3.7506968851371467,0.8444356130641135
297,0.2531824475691363,-0.020806190159920912,-0.029830299353906346,1.1500551892043547,1.1410089311802936,0.7503961449038894,4.147289624365423,15.29428955655792,1.5818534250837575,2.4084342980737556,0.6619902821573977,1.7068057633478915,1.5043223747294836,2.499343324729623,0.7986169501404895
298,1.0572931086631279,-0.16988138333514466,-0.06101654805247631,1.044035906324738,1.0222645754350057,0.7441498101933146,3.9518220823702817,7.460644273110445,1.2026437999271233,1.1446766468610536,0.6699045166045591,1.6096601593513393,1.1393856624543905,1.194009292870145,0.7798224980519509
299,0.2500905212703796,-0.0030014032509494137,-0.03166058820372514,1.105462686514637,1.0928080157678584,0.7499150869647662,4.286909702425972,8.112044204788218,1.4372887618319874,1.846884872323878,0.6684167106117298,1.6042292787267152,1.263598514734555,1.0695130199511658,0.7418183665699434
300,0.35392707692781045,-0.027084939398367223,-0.01750417107110374,1.1768925992301187,1.1497730905764434,0.7986279933737948,4.045387374839396,7.848451719403101,2.1241136891551933,,0.6180765742263259,1.8008674882587823,1.8539326522022912,7.752764808851328,0.7898742260543838
301,0.6720435219816809,-0.04326149752726577,0.0033588347917847816,1.4002872367807466,1.379350427785762,0.8597552863298368,3.173874275357144,2.6732032817798155,0.8200225778127299,1.3554634060030377,0.6528756675646988,1.2338975994606352,0.6968940784629771,0.7252987842478867,0.874454759332578
302,0.6164644912621092,-0.05651331233297817,-0.015590940699460022,1.3032494175276734,1.2970791380394586,0.8597009468639143,3.8046146053492853,3.419834230192448,1.1507862324768452,0.7550744377055518,0.6584896970785714,1.7168375427107958,1.0502551990251978,0.8626795812375786,0.8719434105345583
303,0.23871093392716905,-0.03812629712689805,-6.745230144900366e-05,1.207287142034554,1.1821478885849321,0.7893024829665712,4.703951794172259,5.490429318717591,1.5217749292558678,0.9129406449888731,0.6333676938231112,1.876083551140773,1.2676332668027228,0.9573167324294015,0.5984937218614998
304,0.07323215286667534,-0.010740715753779051,0.0,1.323756607803509,1.3307609996895293,0.8749548963688385,4.867351670586115,19.93761809886387,1.7511956058081992,2.0041678715595217,0.648888643467878,1.9417300091376835,1.5681667894478128,1.507427483661556,0.6821922044789611
305,0.0,0.0,0.0,1.4232972973250937,1.4148602883629473,0.8908833544282798,4.347820561430801,7.911471114475893,1.6060990111685858,,0.6008849035917525,2.0149030205422647,1.4949937780432316,1.507427483661556,0.6873814840724669
306,0.05608903297162927,0.00011317531566422227,-0.007404749601976027,1.3907745681843515,1.3603498126420543,0.8651940126717569,4.356024789395096,31.311716159256587,1.8502327452810097,,0.6380535849069913,2.0634807072866237,1.5517353179127409,inf,0.8169481112552585
307,9.274725737540552e-05,-1.1129670885048663e-05,0.0,1.279210601633179,1.241535786103916,0.8105122254651681,4.427372820562807,10.415580130474456,1.3828628629748247,1.0952622017828277,0.6584896970785714,2.1203561330796425,1.389540665505854,1.1019623755533916,0.7527576772368026
308,0.0004454691630025233,-7.869955213044579e-05,0.0,0.9112000724988462,0.8667546051728304,0.7055861187735003,3.871439497816441,2.610758650253647,1.6639275707810581,1.6060878255488185,0.6652988471865258,1.7339309096155826,1.6706053733120876,1.207322891211218,0.7313963136184897
309,0.6160120211865829,-0.046306508542017316,-0.08644559413644724,0.902225528675467,0.902916754463114,0.6969641290750409,4.230808178555895,5.3126333752131165,1.6664097724815565,1.811092335817602,0.585052858160615,1.5298055453490054,1.4679287308756588,1.1073342493604124,0.5714666803389787
310,0.020285322792824335,-0.0026370919630671636,0.0,1.0064765792964456,0.9518282597899173,0.6582219717656356,4.34765096512607,13.614483442823001,,,0.6333676938231112,2.054337089787672,inf,,0.932767514744268
311,0.34137504963689014,-0.06380172944165176,-0.0055885998944219,1.275929000656955,1.2680508760957148,0.8648970767925444,3.2196088576952855,2.715728277503998,1.0230840580291267,0.5251753231191147,0.6778444222523095,1.6754590135318943,0.8481884645725365,0.5482461564151241,0.8138303052346788
312,0.8945461574854958,-0.10364767652152361,-0.016724301498918653,1.2211045757767152,1.1956139720240884,0.7959845613819031,3.446705230081771,8.82278191860083,2.391957046893453,,0.6284777104787076,2.1183209797407536,2.200835190896254,6.395261598115449,0.9457750027377541
313,0.14864591284482906,-0.02229688692672436,0.0,1.0540997579224078,1.0153841171438094,0.731293150986709,3.035124606400057,7.595967834555519,2.1571448484209412,,0.5713653840954815,1.933860812535645,2.1638226509519707,inf,0.9242314258453367
314,0.04471917293935131,-0.0046209812037329686,0.0,1.1821212245317274,1.1410367529153362,0.7331167299240441,3.7052219597217637,19.650156876650538,2.307544994543226,,0.6153451465759925,2.294286290179351,2.3142227970742555,inf,0.8146513029898291
315,0.0,0.0,0.0,1.1521310385491503,1.1288926419160168,0.7125321019288596,3.32687111175007,4.083453502730808,,,0.6309483474627791,2.4849066497880004,inf,,0.8737843447859767
316,0.14605015339967523,-0.01784071400771196,-0.00017213824491465,1.139552074684516,1.12054735923535,0.7730041414632446,3.2894799573016655,3.867891481623821,2.5729597014921644,0.9944743938394445,0.62595550513784,2.1296593911737958,2.495713502131815,1.0850985695013868,0.9264247855550092
317,0.02265103006930944,-0.004077185412475699,0.0,0.8880639525714196,0.8845008169456361,0.5352212868676665,2.763273266400777,2.874172174797358,2.178458647051849,1.7884093823427731,0.6566669596287297,1.7302254571107825,1.8974543771310972,2.082791628565118,0.7130311355171581
318,0.027177547761223872,-0.004438999467666566,0.0,0.49725760836762223,0.46500511131432803,0.4390560291350029,2.8796553409891112,4.040852086360088,2.262028803911715,,0.6125606311107803,1.8289768570448712,1.9322343698215312,inf,0.7314344113017177
319,0.00602429078994551,7.769563063562924e-06,7.855435929417752e-06,1.0838570648967105,1.0678517950550128,0.7440021686444425,2.9737052881824253,2.1041452203450954,2.1700229659295918,1.7884093823427731,0.6008849035917525,1.7386611382330397,1.9239010075635232,1.502779538060674,0.8954709677575085
320,0.02463976966787698,-0.0008900649387185103,3.302807982687693e-05,1.077033352698531,1.0494591298697837,0.7538381945438133,3.2679988707321876,5.163323533790139,1.7113073615467331,0.8781711671810634,0.6602640781246099,1.6102715931826779,1.3834626777086403,0.9121962205376709,0.8074834100360386
321,0.1092808168346305,0.005074449930777134,5.542309816244581e-05,1.0766085936729393,1.0723411409514667,0.6667447130425062,3.5445008201953176,2.443373379244064,1.4792463995377028,0.9529898736381466,0.6097226960127671,1.6567624844419224,1.3784038583574756,0.6644370746775139,0.7840177364991715
322,0.19786334397110866,-0.021388030583925147,-0.00933643856691618,0.8682548796449401,0.8145088666025286,0.634826903519939,3.00010364617373,3.150536221294136,1.792684783545417,1.4488666618018913,0.6509067234006624,1.762394860598151,1.5447051976848887,1.242950828483972,0.6780082080634902
323,0.0008331019289847993,-0.00013607331506751722,0.0,0.9292298821083705,0.898226421162667,0.7001190901294906,3.2017313004446395,3.7001903711808173,1.7137494855993614,2.170565164453913,0.62595550513784,1.8127788364521304,1.6971179621333659,2.2005746642215014,0.8743160211983254
324,1.1628410234854496,-0.13634611452169412,-0.07289006752057692,1.01313680019693,0.9949740556238286,0.7068077919729974,2.9146831633655097,3.579118935223233,1.5392168431836843,4.813321212309134,0.5978297680564633,1.6076617130328446,1.2913472382589837,1.212820925271292,0.9071839718527528
325,0.009532102817842137,-0.0016771096372229512,-0.00010221622210758093,0.887722607997972,0.8646325139836589,0.6938416337469048,2.9640605346489313,2.3135739263687283,1.8994647395182347,2.9482908513571235,0.585052858160615,1.6866189777737786,1.6253472701604341,2.398505214872785,0.8974044577447122
326,0.10163199777284061,-0.01908031065270857,-0.01855656057575104,0.859146622252043,0.8382463896147371,0.5981065201549888,2.1229199357855655,1.7868118287502828,0.7526044929261009,0.510705574604909,0.6602640781246099,0.9547139853052028,0.5402054736863057,0.33682901845290986,0.656703744530244
327,0.10195933347081333,-0.007949884999027657,0.01069889734519807,0.6236452226838107,0.5684114135744399,0.41207911643031936,2.0983843173062517,1.9887619176532887,0.5678464684225399,0.5928280483162691,0.6068309995095971,0.873976517933964,0.4629775658062522,0.36722194993269364,0.7721669845437622
328,0.23247046297715462,0.0196076392126375,0.0021902919908695917,0.6161972846383685,0.61645938155972,0.4495484660584365,2.412261643797572,2.4766389100877926,1.023588869964666,0.9267214079583537,0.6153451465759925,1.0391805348986978,0.774551915139765,0.7147778372316698,0.8056509721628132
329,0.043498375463790165,-0.004725890934510067,-0.005380464398786567,0.1963043554646035,0.13215612828975998,0.3221970720912665,1.8073699260243876,1.539601934638352,1.2044639231269414,1.0135916596105217,0.6008849035917525,1.3991769869509043,0.913346214748778,0.5209012757547322,0.6626364552973293
330,0.06607018329214805,-0.005390345322109098,0.004360825163046759,0.4896718266254335,0.39967597968086055,0.4480968728484828,1.809659617038193,1.6362541289418044,0.9526868147940841,1.4490472521255777,0.6528756675646988,1.1264974921576454,0.7509651192633814,0.6355692020928216,0.7286376944795239
331,0.10929136092339713,0.01160326339458017,0.00886198750791485,0.3697289172453472,0.26637329988121977,0.27658310514538076,1.5116681814125288,1.3556333591190008,0.571378505032035,0.6062797442577614,0.6547956803312163,0.6195663314381452,0.39201235826502245,0.38624858723044725,0.6397660957316077
332,0.2218875253908761,-0.009083666594768055,-0.007901966237359946,0.8255417531290389,0.8084468597845728,0.5578918828117383,1.2608929243093556,1.4579672166175073,2.0555228445901617,,0.5713653840954815,2.2619764545659162,1.6264385370766625,4.4746275199464005,0.7956349513316678
333,0.16427254932374954,-0.027454922248750093,-0.004746604542369861,0.44091046806668754,0.3764915790218727,0.34745048382990773,1.5382913948409263,1.6532689481906153,1.546353632334359,2.4621384770456167,0.6284777104787076,1.6886013771254287,1.4849293644949324,2.0707194036574,0.6851225736006443
334,0.4192744763213891,-0.05680354000325816,-0.029801323589640938,0.476077348602899,0.4253347302721945,0.5330098903063921,1.1843121063169861,1.4739144367318109,1.7904976851653547,2.0901199692395878,0.6008849035917525,1.720555710221723,1.4585653560866454,1.4372224202778483,0.7830926778469706
335,0.7916694474535343,-0.09652010814806329,-0.00304463867856895,0.6152204283008963,0.5804505459678477,0.5617804378934799,1.3190462026956942,1.414991978013595,1.9302749236805328,,0.6207552362147116,2.0916040954725355,1.4179211630752482,1.5162236733585202,0.867818335231542
336,0.6291580715133402,0.01959479563991323,-0.05695606390806285,0.7118890509343105,0.6799849748915882,0.3696328805687758,1.53424378843499,1.4315127476015919,0.5176674845293866,0.5319467784587097,0.6233814453054027,0.7273016377767556,0.369113067347867,0.31012771581511966,0.6102613250221223
337,0.06023745184963529,-0.00886241986985265,-0.0005309786549119316,0.48139217548408136,0.44922385372452583,0.44385997948410044,1.8821049769572171,1.902860390841558,0.9165287963247458,1.197541652661644,0.6425374456860184,1.16489455146209,0.6367132538207795,0.7378254305264995,0.7199567171206515
338,0.11598602259816507,0.01556716850461377,0.0001853148159457127,0.3899834876814828,0.306516248797405,0.4759386620711954,1.588858242982552,1.683818953177391,0.7912604620699175,1.0318862795190002,0.5947193981915972,1.406814579156064,0.701941350192547,0.7370249452196783,0.7817440305484022
339,0.15805867298947127,-0.00011593623027945921,-0.012164240779360867,0.8147284046140885,0.7265212544842459,0.4454262300611175,2.2724291236205625,2.2898774480122306,0.9617523089280821,0.9511395610164637,0.5713653840954815,1.072132655863731,0.6898091449551418,0.48101262822352087,0.71893308977237
340,1.0292609005962314,0.028003174368049277,-0.05224817627607864,0.44859068071577,0.30282605795446416,0.4597250206537696,1.2475736217868723,0.9902760038496246,0.6959369043673153,0.5393858172249001,0.585052858160615,1.1371452383848935,0.5917020314501743,0.47369140232492035,0.79841728925078
341,0.27100142903699387,0.00036225698087909153,-0.0004100815803094737,1.292560850507727,1.2607627588154902,0.8701971926737982,2.0573681048227623,1.6091306064718292,1.452781720963172,0.7789313551031642,0.62595550513784,2.079086049319178,1.2803297983280226,0.4705152690624737,0.7922401124588592
342,0.49829592694307207,0.006457714590190844,-0.08442862596657225,1.1326430938312162,1.0301186632356307,0.7956042685303625,3.0923752907759203,2.120673713843167,1.0036510061899977,0.8661784806239774,0.6284777104787076,1.4269311875996205,0.9190254435369984,0.6973332331842587,0.8397507466099035
343,0.4462263826352785,-0.013667197715459461,-0.05738903452270616,0.8889730048090798,0.8739484474534428,0.6644778726526239,4.176008957898058,5.478997755586307,1.6183776806800936,1.269124944612582,0.6447042257417027,1.7109785725446192,1.3837149824251673,1.1282422416253008,0.8905059561549219
344,0.1273192812956527,-0.02310260462286375,-0.002785649240585632,1.3341751245669327,1.3092008546845055,0.8741770765166549,3.7916554316296525,1.795534421248563,0.8857486721256391,0.3427310865858733,0.6528756675646988,1.6344138985042775,0.7608958308053747,0.4247899756011807,0.7863707054091301
345,0.22269490195983357,-0.018975642610795117,-0.01442859268317992,1.3406488336141653,1.3396375550319475,0.876732125325867,3.798971135846042,2.6310112775863965,1.1191914066157402,0.6897970936746632,0.6233814453054027,1.9421948371596878,0.87381183878117,0.49656951406776917,0.5075020399445647
346,0.24916465239718733,-0.007512194835593233,-0.03639649572257394,1.1793071087760372,1.1168308584123123,0.8238840850452108,2.9029981642855263,2.325240593217237,0.6127705146885014,0.5589514807596373,0.6180765742263259,1.1697145261612583,0.5362954730580858,0.44166279928762747,0.6870652075905002
347,0.13881782109156585,0.019478939800128776,-0.014372608555820447,0.7195945036903151,0.6476676138564641,0.6041403795557224,3.317122107298697,3.35060590103852,0.7511490596340911,0.7042639272355492,0.6403206450210053,1.242598139196491,0.6794218871990599,0.5333278211509048,0.7765443325209926
348,0.0001392762418932118,2.2427543482240054e-07,2.2654021566901304e-07,1.1545292487850556,1.1180420764807604,0.8171531759175212,4.343267341351037,4.117448917974947,1.2761191470668642,1.3889902296310228,0.648888643467878,1.4272552541749894,1.061391715228734,0.6576498293310304,0.7067770917188579
349,0.014423218774536263,1.5358294708357582e-06,1.508601414374356e-06,1.0268783148480949,0.927538418655037,0.7351500223768124,4.145965632630015,7.882038968492015,1.140999202803632,1.4207962102645117,0.6357360191111145,1.3429794764339462,0.9522990413776615,0.9037946797604135,0.4781481642623058
350,0.12551671940806128,6.73887202944437e-05,6.761578231738452e-05,0.9241717586649694,0.8958892272965028,0.6062963673830979,2.8425510246763825,1.7106564994805238,1.0567046435968088,0.7282803637422034,0.6333676938231112,1.3471591217048553,0.833601729600699,0.5849184626332921,0.6310390455822258
351,0.24044607544530203,0.0024290227984971394,-0.013597787441480456,0.9414455990258396,0.9236098704792993,0.6566667998012595,3.2292515927804164,8.179775297284388,1.5931702004125081,1.7101266525827554,0.6357360191111145,1.7090741026094471,1.337717574558019,1.2085044161123966,0.6978253511018985
352,0.01711433940185437,-0.0036510590723955985,0.0,0.8865632813645402,0.828040666152226,0.6697642778588714,3.5635482962055756,3.022227188617107,1.47655218865238,1.367352436135075,0.6468212168108125,1.5572672252903932,1.3772654283915413,1.166500896690963,0.7406355930695686
353,0.026661513299966137,-0.0038692466814314055,-0.0014630559785618218,1.2548039325687788,1.2405649221799016,0.8450012659323749,3.697469898936008,16.97256910954351,2.4565657294951144,,0.6699045166045591,1.6304345856527964,1.8108905871001384,inf,0.7648353729332444
354,0.09385843725078935,-0.014391627045121034,0.0,0.8734420202126993,0.8331321376968462,0.6841263062229923,4.326986315333502,13.840306651258887,2.0846828313860173,1.0224397420827782,0.5915533975974677,1.8968237324766637,1.8643874943897385,0.8506479472724855,0.7053274716212445
355,0.06309714524884107,3.24454027399515e-05,-0.013072522087500439,1.039466057956113,1.031562157392132,0.7281580530396156,4.016098756955082,11.565584065397118,1.8026056727511524,2.3019070183865744,0.6097226960127671,1.5925807953676774,1.4740509279438465,1.257545378375583,0.623201326204598
356,0.0579512100602215,-0.010238047110639132,0.0,1.2176242804364925,1.1891250141710876,0.8358631675101268,4.02773716929202,6.202174572409037,1.2406235512765798,0.7587899651616147,0.6403206450210053,1.7517698210118966,1.122138210853603,0.6393388536052786,0.6844795962026561
357,0.007605402646053394,-0.000988702343986941,0.0,0.9818217607342811,0.9659163938966725,0.6740480863417501,3.8883947366864358,9.804747734063687,1.707709647666679,1.9425600621700312,0.6153451465759925,2.046823776668694,1.7143874501977083,1.9492602359405953,0.7559527701408161
358,0.2706380315390001,-0.029708179926317912,-0.005345935264277289,1.1754754349740255,1.1751301272713177,0.7996546683214694,3.9268063521380854,3.454185607269199,1.687640072189676,1.553366010069455,0.6233814453054027,1.7529234454428568,1.5590428024913559,0.7890673024386845,0.6221127638060585
359,0.04514653514103116,-0.007544929690589326,2.132952712831631e-05,1.2016216979056056,1.1694897296272637,0.8222606914431223,4.002752166370683,4.738156574118048,1.1306998332820704,0.7804580941913011,0.6425374456860184,1.5206133654163736,0.9891325743852722,0.6005246392438396,0.4819567525121753
360,0.0,0.0,0.0,0.8037916172919645,0.7252081020444574,0.6258637176800186,2.807880262626597,4.048651927218526,0.8393782963058382,0.9139434864568401,0.6008849035917525,1.171182981502945,0.6441180963081441,0.49397300333375316,0.5090318419095123
361,0.06071872078322775,-0.009310203853428255,0.0,1.1350742981988982,1.1469350997841985,0.7900085533091622,3.911174124617756,4.014605601180257,2.1945521206138654,,0.6447042257417027,1.8964535403427207,2.01890836635094,inf,0.7670691879687096
362,0.0024788885239627727,-0.00036357031684787337,0.0,1.2007135668748985,1.1864173781533942,0.8209509332602571,4.2447522910380355,60.242549809523354,2.169730693486428,,0.6333676938231112,1.921944087602182,1.8392671392642204,1.2561130553806499,0.530226318303187
363,0.013378359824756337,-0.0020513485064626385,0.0,1.1535309822764326,1.1540791349314257,0.7417872686483166,4.015426558955379,45.86419191367672,2.205594635647076,,0.6425374456860184,1.8854110253095104,2.0299508813841505,inf,0.6427427737363405
364,0.3069357732377627,-0.027221956227697137,-0.03211895993160365,1.3616248561118949,1.341381840273824,0.8798437615253955,3.4625505906529943,9.556266245766121,1.5274172201914424,1.0158202611260043,0.6528756675646988,1.726471229199938,1.3938169642978653,0.7984238000811394,0.4926138928635331
365,0.0524164149156657,0.0039265848042839575,-0.005716765916247776,1.01001077286685,0.9456385355745531,0.6823936840965812,2.5709706461612116,2.134393345633642,1.176934885020912,0.9341922260519034,0.6207552362147116,1.3887417980963697,0.9367707995413808,0.660929629009148,0.884905339069239
366,0.02424328262102904,1.5358294708357582e-06,-0.003799650106765385,0.9141284293931226,0.8704887443408553,0.6731867282200868,2.4551514277155255,3.477376213852237,1.5578016048310357,1.2699086726728992,0.581717464821069,1.8682086413914611,1.5047252749978346,0.951243185297811,0.6508939481609343
367,0.029214390792152607,-0.006232403368992556,0.0,0.8371154364179357,0.8083892558408887,0.5126512923132404,2.9385608241725225,2.25047464334901,1.421908451454935,1.2926566574224634,0.5783247308855777,1.564039737948957,1.3098682939165427,1.044803961713443,0.6002216439973268
368,0.0,0.0,0.0,0.7608003010903361,0.7254666759198011,0.5800268693188533,2.691791271952967,3.217683763148811,2.5356349697927616,,0.62595550513784,2.0661963149298153,1.8491655917638454,inf,0.7356792155055265
369,0.03898449365405878,-0.005106913427315258,-0.0019102954304153223,0.8773446344066161,0.8655713305040253,0.5707305699812062,2.169302849809307,1.7897497426095423,1.241085630189083,1.5450025775394807,0.6068309995095971,1.7422076903988073,1.04506610949379,1.1314381936863451,0.7536325101018302
370,0.014478127762253176,-0.0025578025713313946,0.0,0.8413325201061397,0.8070152854079691,0.5147640338170074,2.251738542518364,2.5160949877703764,1.5584990475203369,1.008250824793198,0.6038851895711802,1.7440492530719789,1.3240147932344781,1.2561130553806499,0.6868941781681795
371,0.2714088599933931,-0.05947806777891619,-0.016734800090202773,0.9954530504298509,0.9071304598279928,0.5761114439794632,2.2643387429253643,1.9458225529625404,0.8269585871529341,0.9744460465010985,0.5978297680564633,1.3130852054791493,0.7932936885574936,0.577954780448251,0.8870712569011284
372,0.17984538849061224,-0.012764997204838296,-0.01087321389553372,1.0818085575604053,1.0421754367635898,0.7671835277802723,1.7290105156448674,1.8659305184969952,1.4665584887226695,2.3025739073742786,0.5883313578629602,1.9279610904084565,1.0593621935641586,0.8088939479361661,0.8179512985346702
373,0.21536775634456792,-0.04228356546272642,4.046861308450514e-05,0.7023267434389665,0.6555156736869913,0.39755937804461755,2.123205825666302,2.1091265202108906,0.9553465238089737,0.7133365936866094,0.5915533975974677,1.3230483415694116,0.7926884189205397,0.5367210671885535,0.7244032942519899
374,0.06866157695337471,-0.013522829163023498,-0.0006629732293504038,0.9475581436413472,0.8778344993387839,0.5975952857950616,3.4295296150083883,2.643720221802665,1.7200227574868998,0.9703862191739516,0.5748741956352443,1.582525543105416,1.3675962191965227,0.9798389438128746,0.7082460108498242
375,0.08771313595582947,-0.01725025007131313,0.0,1.14794308403546,1.1437373156063868,0.8171700025119959,4.378346489491434,6.561712529325057,1.1531928284602848,1.0952622017828277,0.6309483474627791,1.6568789870342369,1.0057199511640558,0.968430982928869,0.6521339914007778
376,0.04750175863516139,3.598646563050811e-05,7.391971947304579e-06,1.3231877050053968,1.279721748701059,0.8593505694714919,4.525227565739408,6.831050490385282,1.6906058632448204,0.6907970220142474,0.6447042257417027,1.7055817729870026,1.196457789776844,0.664818934799156,0.7681576689262112
377,0.3092445333114791,-0.045355864885683606,0.0,1.401695998009336,1.4020079427827166,0.88068857257208,4.159966895491399,47.34027910170418,1.8825516016688177,,0.6778444222523095,2.0261325024938137,1.889229404199847,inf,0.6338924132778582
378,1.0731765256168346,-0.16660659758659405,-0.10681639840239798,1.458573111657821,1.4303435859464022,0.900549104331238,4.4875819960235335,5.23498737770628,1.4849265168513939,2.559260817565817,0.5947193981915972,1.9206540096391571,1.472905944893787,1.8719675891921017,0.7633898329939816
379,1.0877080934174863,-0.221669236906364,-0.06369575702618828,1.0501007632433734,1.0353731739718224,0.7540359736475535,3.699443548387494,3.724805991646453,1.5406194075528006,2.292700664108553,0.6284777104787076,1.7144281262917314,1.3469692286565362,1.7089095630796773,0.7205326253142531
380,0.1353558307793719,-0.007023173334907505,-0.013924948454427238,1.1376914363734396,1.098495993633492,0.7578859688405427,3.856117158184164,4.963272191769734,0.838415805513702,0.9878046718409087,0.6403206450210053,1.3147388500744255,0.7620395741859267,0.5667332557042866,0.6350755427199013
381,0.07604808750737986,0.0009251588624555364,0.0006836825780165354,1.1618036067250257,1.14954916564778,0.794721350796866,3.39324328305032,3.1728734435580517,0.73795376942001,0.8208888864659434,0.6357360191111145,1.2893693242831659,0.5366365836734803,0.4374653151984994,0.7236854044325125
382,0.1143371738493993,0.02763744918726896,0.027777817671679514,0.976737300344824,0.9484210924051274,0.6639440400155475,1.742430469245519,1.3242052553720391,0.4903058848807734,0.5272352583132124,0.6652988471865258,0.7760216717281401,0.1939922048149652,0.13391250694877332,0.8143084341982773
383,1.5357272987999508,-0.11530239605380269,-0.028032151834192713,1.2661780560524312,1.2434988254611756,0.8423837618768383,1.0605203644465664,1.4602759612451948,2.638077548198867,,0.6309483474627791,3.1460385009159344,2.1770270353212964,inf,0.7919470562894683
384,0.907392183126665,-0.0642811027961196,-0.12533089806328,0.5373411262005562,0.5173501368512128,0.33455910375564374,1.2953921761294493,1.5746468304305663,1.504467843476436,1.7459626880779469,0.5677978065141052,1.521020117506586,1.169190165467293,1.0404175205204431,0.9477205189504809
385,0.5543149396887622,-0.04801861250270704,-0.02101124346082606,1.4438935469304277,1.4139462025663512,0.9244605146346434,1.2139831912771872,1.4313299198920375,1.7313472524950724,2.0252254751231376,0.6333676938231112,1.9371706720019126,1.2624473362618738,1.0875025686561282,0.8112585724867932
386,0.29486089884465877,-0.03420960865374047,-0.0049456461854987446,1.3704519292039483,1.3529188404669534,0.8440097519096955,1.2575414316400217,1.5793969475215561,1.865497717664053,2.218833986406768,0.6125606311107803,2.128071718647903,1.6104649420748167,1.302557840858245,0.8315272470503868
387,0.6408993971625717,-0.05357909354096835,-0.04824729315032977,0.7345870469204454,0.6658155805247391,0.18607445541575993,1.6310573771662424,1.6256229120421908,1.0171034310507365,1.2300331806590716,0.6403206450210053,1.0435560829200312,0.7992160183305548,0.8013647741079711,0.6229774175399917
388,0.1787977795663956,-0.013509671910778741,-0.029952439732815812,0.8140372432255433,0.7957283404412643,0.5447522979453646,1.220207260885062,1.4368934260581583,1.4002840908766383,1.2190472561242094,0.6652988471865258,1.4683242270704562,1.3441609921686373,1.108466416933354,0.6685252221895079
389,0.02668834000894675,-0.0036474064678893893,0.0,1.3934570563958055,1.3114079462457937,0.8407400421473971,1.5362202075045035,1.67399244139405,1.7519096426845584,1.9358486275820446,0.5915533975974677,2.009335216238801,1.6183446180030785,2.082791628565118,0.7976554106687408
390,0.011269157551135577,1.172665271850738e-05,-0.001551844851373703,1.3529924928311732,1.3079438984971814,0.7972108651353214,1.7576956929567211,1.7601714650498825,1.9005292578649355,,0.6333676938231112,1.9992757646565658,1.5527445067401733,2.1584511914102587,0.7746561952536413
391,0.01915003404938168,-5.761504653081437e-07,-0.0003441731737163856,1.3730807042647728,1.3444118160936747,0.8699254303238773,1.6870293766873499,1.7479777201369904,1.6103963844280595,2.152913132819872,0.6619902821573977,1.9337839692574728,1.5346221620981326,1.8501139425099506,0.7806580009680792
392,0.049221023386996535,8.587363013127375e-06,-0.005915110169452712,1.2879237261848366,1.2276212560381798,0.7789399281874085,1.5234716276880325,1.8670193052339485,2.1705601841004856,1.3829442742346088,0.6180765742263259,2.14358902817031,2.1354799754620557,1.431402459174632,0.7774022034255164
393,0.018733707582701223,-0.0023104906018664843,0.0,1.370641378906289,1.3494721931294436,0.8627497832550395,1.526553081238314,1.6896390135929942,2.447473793128238,,0.6125606311107803,2.1064702140677554,1.8088916926259053,inf,0.7666920312408696
394,0.0,0.0,0.0,1.199857491860316,1.1952321878188423,0.8408650852055114,1.4425727882183488,1.5361210292105747,1.382955459854376,2.561599270576255,0.62595550513784,1.7525387560747736,1.0642108619507773,0.9478116957261333,0.8008842903055411
395,0.030322165888067496,3.264577540678694e-07,-0.003436838591735051,1.3187978674540475,1.2980051595961668,0.8763910113121763,1.3863575259579248,1.8481959255686817,1.7290230879926902,1.7715455762907681,0.6333676938231112,2.1965248222219462,1.6609047846020268,1.8530418559830246,0.7573610794614023
396,0.0,0.0,0.0,1.3013498948308668,1.2365497167151038,0.8556529052029507,1.4516729699179822,1.5938322408338235,2.682238443984637,,0.6740851607140061,1.91959284073794,1.7080869935039398,1.3896444480051726,0.7752825099429597
397,0.6334598839009397,-0.06778236065363,-0.020325003237990635,0.8661851841342876,0.8120591683153348,0.5495730734496941,1.5897104524808134,1.671580948495538,1.3827616648268553,1.5789675193296244,0.6284777104787076,1.636752013680815,0.9642391151279873,1.0715776264808188,0.8674291076935311
398,0.0523739581039972,0.0067386597080415014,2.2391008827685188e-05,0.7565524538718776,0.7178124541341916,0.5902883235346342,2.068590755496571,1.6298551056079291,1.4678608353758156,2.1400549778765035,0.6357360191111145,2.0891776732530856,1.1957192527129092,1.2402305523485602,0.8379562809500795
399,0.025625597700744362,-0.0010852943333190044,2.0043745727548693e-05,0.8209849645675114,0.7676513202893803,0.5682216190905485,2.7186779791179085,2.489241383029412,2.028788987675846,1.7292816886226121,0.6333676938231112,1.9390228102069467,1.9210404562904884,1.0007162720544434,0.7506473852445658
400,0.028377854361712255,-0.0014188927180856128,0.0,1.6552573388548473,1.6212505887856905,0.9404420719758468,3.294273924559217,7.592198582725482,,,0.6207552362147116,3.01911463378889,inf,,0.8425248685518264
401,0.0,0.0,0.0,1.6212569553902703,1.6071240114122418,0.9371981267954697,2.7135597861423637,2.7525154804392633,1.4435800816708106,0.46665354236045353,0.6207552362147116,2.17742195004004,1.45025788420184,0.47335371613101757,0.8863814163827327
402,0.0,0.0,0.0,1.6680491652721423,1.6392994943453922,0.9392649831039966,3.244249779475729,2.8774894224470664,,,0.6309483474627791,2.445685936634719,3.2614354392869966,inf,0.8654949351642099
403,0.0,0.0,0.0,1.7129448009404662,1.6735089167512078,0.9644258601947057,3.131096903454236,2.7257533530687725,2.8588619796639536,,0.6180765742263259,2.1484344131667874,1.949249050320828,0.919640818759437,0.8531651557657288
404,0.0,0.0,0.0,1.6795713015462872,1.677035215935711,0.9558059952653041,2.828076761758935,1.9462693943912739,,,0.62595550513784,2.5257286443082556,2.488245551053515,0.6964972674452273,0.857695112691594
405,0.0,0.0,0.0,1.5598000644591574,1.563834888263871,0.8993036334179206,2.8607538698935646,2.6666536604581745,2.1169246349345765,0.4021150212228825,0.6403206450210053,2.4849066497880004,1.8359203650138247,0.6964972674452273,0.8313075324271675
406,0.0,0.0,0.0,1.716478998311272,1.702862922939266,0.9414373200418504,2.655360160194733,2.3198159213326526,2.3945563715328557,0.6897970936746634,0.6233814453054027,2.6127400212978853,2.401234174063885,0.6964972674452273,0.8408056013179462
407,0.0,0.0,0.0,1.726201718060297,1.7021594834702432,0.961153455858986,2.757469284981737,3.527351358695954,,,0.6357360191111145,2.5682882587270512,3.138833117194664,inf,0.8423752401813843
408,0.0,0.0,0.0,1.6538661035571072,1.6226560500028935,0.9294562812052228,2.7346429225710938,3.451083746904601,2.2302533202415797,,0.6333676938231112,2.371577964480997,2.2369311227726087,inf,0.866582589258349
409,0.0,0.0,0.0,1.7429781361191425,1.7271967120701814,0.9690972568591556,3.1227083925221915,4.65591871346821,,,0.6528756675646988,2.5257286443082556,inf,,0.8701816813575598
410,0.0,0.0,0.0,1.7266425598732278,1.6868774221501923,0.9347474540575104,3.230843576713005,2.755658927456969,,,0.6153451465759925,2.5257286443082556,inf,,0.8366125871739246
411,0.0,0.0,0.0,1.7165669198614375,1.6772872326148494,0.9347411636953024,3.037490263919115,3.0488047089798305,,,0.6097226960127671,2.5257286443082556,inf,,0.8014419766081878
412,0.23765760311067505,-0.019012608248854004,0.0,1.6897948886818226,1.6686160887623158,0.9030967124303303,3.161686446822142,3.9733626841729066,3.132300231698886,,0.6584896970785714,2.5681433416918003,3.1389780342299156,inf,0.8763712544256251
413,0.12662729115355764,-1.2297998367183718e-05,-0.013072522087500439,0.7589232606060884,0.7106748216607384,0.4726555080556962,2.9152765251134043,6.294898303500981,3.3880972339469793,,0.6403206450210053,2.3023628954595243,3.3848902772454665,inf,0.8095850553276001
414,0.0,0.0,0.0,1.7447334769161962,1.7205204930892233,0.9289677961880622,3.1458665997038735,8.584798526298922,,,0.6207552362147116,2.5682882587270512,inf,,0.913936140802898
415,0.0,0.0,0.0,0.5254663893018687,0.5027166387177932,0.36324115239167415,2.9535390793621144,2.7485554635594602,,,0.6403206450210053,2.0928645620119766,inf,,0.6315402146732542
416,0.0,0.0,0.0,1.6541520144802786,1.6012584450291378,0.8916699577996291,3.2528254095617806,2.6341409398867213,3.0411835364579085,,0.5915533975974677,2.659260036932778,3.0478613389889375,inf,0.8793524621996338
417,0.15658235294050799,-0.016702117646987518,0.0,1.2403369177452968,1.2032949057792035,0.6998236189162689,3.1448503198100948,4.557944498264048,3.4308633338623267,,0.6180765742263259,2.2695802395283597,3.4375411363933557,inf,0.7856878278238464
418,0.039931430838761856,-0.004126247853338725,0.0,1.7508845634391639,1.7199953413125064,0.9003693600375041,3.831273770095317,7.728274729560169,3.4074787237736315,,0.5947193981915972,2.2929648496170554,3.4141565263046605,inf,0.8717987647028814
419,0.5420476331957065,-0.026263842279811003,-0.04259782257481813,0.677507197628334,0.6500710956142761,0.5805734475926774,3.382698170277714,2.6885388433380197,2.2560253028628754,1.4004685440598859,0.6097226960127671,1.9693721302942755,1.794709911940926,0.8994237207658534,0.8465129000269136
420,0.05468407766996785,-0.004557006472497321,0.0,1.6308461753536085,1.575285294915937,0.9171282413834788,2.458464824116486,2.6148217361920656,3.176102854357279,,0.6233814453054027,2.5243407190334075,3.1827806568883084,inf,0.8530082233651566
421,0.0,0.0,0.0,1.6635440962579617,1.6248304372686293,0.9266647938692313,2.381931196736524,2.628933621411515,1.7545190162868591,1.6060878255488185,0.6447042257417027,2.336486644669727,1.4247245821966754,0.33982232350649494,0.8423549814025066
422,0.0,0.0,0.0,1.6441231026447938,1.6262143922479255,0.8944857758105712,2.4662799615486826,3.445576287470221,3.2547576367559676,,0.6233814453054027,2.445685936634719,3.2614354392869966,inf,0.8375978190448989
423,0.0,0.0,0.0,1.6477698345728458,1.6190328311466946,0.9042744266688845,2.6985219046567086,3.219741099823143,2.88703285663065,,0.6333676938231112,2.8134107167600364,2.8937106591616795,inf,0.7882767807824701
424,0.08720269008383236,0.00010380029474684437,-0.007080015501453433,1.633164411511362,1.5961022558764124,0.9378869542299498,2.365451619124952,2.3047515696931,3.1375033074635854,,0.6309483474627791,2.562940265927101,2.392575728948075,inf,0.8315393661876
425,0.08345422647975112,7.331431587013267e-05,-0.005915110169452712,1.6471486547556085,1.6224142103306358,0.928633268350754,2.452133264990301,2.8148412323604384,1.6147283378666402,,0.6068309995095971,2.6994208744041557,1.3647178457608793,inf,0.8009475591344897
426,0.0,0.0,0.0,1.6570024431406447,1.6487704753584298,0.909584815274864,2.4901144370330544,2.4316905222302476,2.299246191728531,,0.6357360191111145,2.70805020110221,2.3059239942595604,inf,0.8588334251212062
427,0.01912143203771999,-0.0015934526698099993,0.0,1.5422574757748866,1.5043091042650474,0.8632936902906332,2.474670821553396,2.419013889122511,,,0.6403206450210053,2.5019849913227517,inf,,0.8314774127944298
428,0.16280987386308118,-0.0019954876006428573,2.394803974355153e-05,1.6603678857855306,1.6127636190178123,0.92161953347864,2.2296532357329335,2.2120409543776387,3.067191582363663,,0.5677978065141052,2.6332519910270236,3.0313097704758962,3.1780538303479458,0.8221986175895134
429,0.0,0.0,0.0,1.594311506624551,1.595009335834116,0.9281356432052706,2.488088042903425,2.496622111872798,1.34039584543558,1.7884093823427731,0.6180765742263259,2.5682882587270512,1.3470736479666092,1.795109556113337,0.8399376640338128
430,0.0,0.0,0.0,1.601565280599453,1.5687394542301907,0.9053760726016209,2.5364738809548784,2.5898164505249652,2.5993507841788692,,0.6207552362147116,2.4079456086518722,2.6060285867098982,inf,0.8334812332424142
431,0.23765760311067505,-0.019012608248854004,0.0,1.5827172171508286,1.5474344273083078,0.9009529559566243,2.335390198805603,3.091317869244176,2.033687943030776,,0.6309483474627791,2.5681433416918003,2.0403657455618056,inf,0.810798665164239
432,0.005836792315407009,0.0006708404351075585,-0.0006614534258910379,1.4775154346431492,1.4527021485842566,0.909153591176028,2.3215926079626583,2.3768616424798363,1.3204888648687003,0.9468807687268146,0.6153451465759925,2.182730131185767,1.1598839263774912,0.7953341421409746,0.8319452739072654
433,0.2495849512231713,-0.028286294471959413,0.0,0.9247159362844185,0.8828171573715649,0.582705604063734,2.5980384633219047,2.048561558140863,2.340921155700224,1.0952622017828277,0.5604843169999094,2.2609101290223523,2.0599168857794727,1.3896444480051726,0.8178755205877389
434,0.0,0.0,0.0,1.741184166305085,1.689258445382665,0.951222889039587,3.2242514844349266,3.043565274701362,2.9411000779009258,,0.6125606311107803,2.7593434954897607,2.25463069987201,inf,0.8902241214851915
435,0.4791405170686864,-0.051218433837666937,-0.020652643722636026,0.30000103923565824,0.28911245760983073,0.42589096592483827,3.621456869144351,7.098031737627499,2.070668444412489,0.9183359888846208,0.6233814453054027,2.0216759048296935,2.051559694182172,0.9440886832351868,0.6679437356188842
436,0.0,0.0,0.0,1.4945957168186652,1.4553827800667127,0.808861101034463,2.9828156517245827,13.510272307868096,,,0.6207552362147116,2.4079456086518722,3.2991757672698436,inf,0.6923602876916294
437,0.0,0.0,0.0,1.7474649443603725,1.7203092904535042,0.9617968437354811,3.1719245509520064,17.313188498823678,,,0.6547956803312163,2.336486644669727,inf,,0.8740461926765762
438,0.0,0.0,0.0,1.7386554348534153,1.7027949562918436,0.9267794662236658,3.8179627091039574,18.417434725289237,,,0.6125606311107803,2.659260036932778,inf,,0.808926192404049
439,0.0,0.0,0.0,1.6558229882889313,1.642306267109798,0.9050173068173808,2.8585133227274473,2.2339180252396784,2.635718428349744,,0.6180765742263259,3.0647251450409425,2.6423962308807734,inf,0.8492383549667696
440,0.03905578623775442,-0.003254648853146202,0.0,1.659832252218967,1.6318120929142383,0.9257887286968962,2.408996793747412,2.3133581470820817,3.1902874893492355,,0.6008849035917525,2.510156084041451,3.196965291880265,inf,0.8504474128940985
441,0.029549847440179022,2.010295629350199e-06,-0.003941989954319887,1.1594641009302211,0.965959538258745,0.7979915711828602,2.3975402473083025,2.656571032489591,1.722145089452089,1.9425600621700312,0.6425374456860184,2.0323883348832843,1.6858055068994273,1.992277621024286,0.8806450134391052
442,0.0,0.0,0.0,1.5854549418628487,1.5723832210852509,0.913497240138334,3.3369786370623817,5.455303331596849,2.4390081341036898,,0.6008849035917525,2.5682882587270512,2.445685936634719,inf,0.8408911652494007
