,eda+bvp_XAp0,eda+bvp_XAp1,eda+bvp_XAp2,eda+bvp_XCond1,eda+bvp_XCond2,eda+bvp_XDist,eda+bvp_XFuzz1,eda+bvp_XFuzz2,eda+bvp_XK2_1,eda+bvp_XK2_2,eda+bvp_XPermEn,eda+bvp_XSamp0,eda+bvp_XSamp1,eda+bvp_XSamp2,eda+bvp_XSpec
0,0.07385779235923076,-0.007975689057271793,-0.00014866810224359133,1.5572787715778444,1.5151054072472263,0.906429957243699,0.023465297995137333,0.027836519178616584,3.6436152753480253,,0.6468212168108125,2.2398189749686397,3.51175416352391,inf,0.9336412682117127
1,1.0350510968688276,-0.13925874021166812,-0.08366445858786752,1.2182360111764916,1.2070732864090459,0.8296023816094173,4.5258550958829655,2.723800320621076,1.8096215103501174,1.475489089218509,0.6425374456860184,1.81012712658624,1.5778250283258948,1.1028977740466583,0.887972124644886
2,1.0432150359634191,-0.08502713001841661,-0.14484946409937957,1.0765471454933766,1.0387289868783616,0.7942298805100241,3.405125970680732,4.4640096776419735,2.137908921856661,1.4387512181970918,0.6284777104787076,1.928648874624175,1.8197447070221688,1.4647659765613859,0.6866228394763026
3,1.2559846508414396,-0.26818548593062996,-0.05236531820790421,0.8483476756890339,0.7880352415309329,0.6430883666324378,3.605381044364871,5.233418402080204,2.4287980604753794,5.161888086102689,0.581717464821069,2.011741357204686,2.051104537958044,2.1972245773362196,0.8648291197410508
4,1.6117432831253826,-0.41201982819511157,-0.19846611482956072,1.1799935251592197,1.172827611659921,0.7841599801923798,3.5425067271803354,3.425426333484408,2.002405924725873,2.0039513979143426,0.6528756675646988,1.9942021040182316,1.7378168427563225,1.7406518069182604,0.619591046126247
5,0.870134685012181,-0.05242150489786701,-0.10689354419725663,0.9164271484934031,0.8255828318884246,0.7315342744983225,2.7398621194930173,3.0485975205958558,1.4820712329209647,1.3002040569128173,0.648888643467878,1.5935098841078263,1.351106888640734,1.1767564618614594,0.8485404881987945
6,0.3780672766159728,-0.06108134300451762,-0.013271888063290365,0.7506673022909707,0.7020842124793376,0.4897074410804481,2.82422771091387,2.4266274520466413,1.5229143148476059,1.0994027866267033,0.6357360191111145,1.8020792016349099,1.4834113723152749,1.0386865277369222,0.6804134112669241
7,0.6938839370857781,-0.05218083637665008,-0.046866055603144316,1.0246254868964002,0.9825984544070985,0.6752362173745095,3.059095596932858,5.786098106093212,1.493869974115936,1.187199963553267,0.6333676938231112,1.5000853755067365,1.3068647742503559,0.9818724218848964,0.8005244351689813
8,1.232733154165466,-0.17663452423587264,-0.14069601689628464,0.9712974388415141,0.9221355355532511,0.7346603350708061,3.6132401152055897,21.418700802047027,1.663370260881861,3.063045460082213,0.6652988471865258,1.6504914152318104,1.5061923893799427,1.9611655737916518,0.7087104288820397
9,0.360308908936755,-0.04329682453766089,-0.045139125506006045,0.916156250551715,0.8857813146514186,0.7222849173305312,3.6152571532391637,2.9952127505565502,1.023176704102748,0.6390057566351677,0.6425374456860184,1.4424650276487516,0.9005948979110123,0.5622224450721549,0.7205041408315599
10,0.07748505766479523,0.005249947171933365,0.005316036758122252,0.925328716304172,0.8907467983259796,0.6964560628986471,3.4854557035093756,4.350557285325452,1.1361096311851966,0.7057154256552582,0.6403206450210053,1.5183791814871337,0.8159259363974534,0.6277774875655779,0.7915004414122622
11,0.7319240226991491,-0.1339768616143327,-0.08078103981560682,1.1097791436947302,1.0906854539811732,0.7904999994690709,3.8915680587545114,19.84122914624109,1.583494440892483,2.8609631847557884,0.663668482632973,1.687039158457652,1.3884580835652016,1.6948096760050915,0.5837648489576112
12,0.04866053249468049,-0.012916291317552727,0.00023164789064094964,1.1628743536297261,1.1028022148659906,0.7874389080419706,2.008421153692184,1.0499064156783877,0.37678408245329587,0.24866936070499343,0.6038851895711802,0.9105572000263945,0.3186574417603579,0.12463404174283063,0.7450346521906669
13,0.00735297442340437,-0.0033333484052766476,0.0,0.9212918411051063,0.803234645215591,0.6300860590257864,2.068047486656245,1.4861727207272342,0.21470647369189313,0.10234784585192382,0.6584896970785714,0.7958938313902155,0.19272867323640558,0.04902012371847035,0.6219736697757209
14,0.03556467304699047,-0.0029719204590322344,-0.00023526186528042073,0.558653499148466,0.5037355684011225,0.5183346564500945,4.247176066293305,13.021883935559096,1.1094339231377446,1.4088054128489451,0.6584896970785714,1.3870946812906597,0.8709420354423171,0.9250966593582675,0.7838736221679945
15,0.19078669644346402,-0.0006785127951903919,-0.02721310114026309,0.7097314495834058,0.6813490067312421,0.4677038851802463,2.1354095083672004,1.5996381907605421,0.5472457786641712,0.45559276340541127,0.6357360191111145,0.797175250983993,0.39971160695245717,0.2912679782960088,0.6310186607141814
16,0.08893330128554401,-0.016825965908195472,0.0006347964958238177,1.351058116808096,1.3347131393438743,0.8428429122925608,3.1103689452364636,1.5470743494774455,0.45959240171338456,0.2629447143332644,0.648888643467878,1.082804558462596,0.36692670857356485,0.192344627897404,0.8286338258707392
17,0.45077246675092214,-0.06433892222345237,-0.00539023398423806,1.1561427368183876,1.1318274369375247,0.7886817690493284,2.9927211581166238,3.0860353087779653,0.7339631120912523,0.654120959772232,0.6447042257417027,1.300606081259585,0.6460154318662743,0.5007324806095569,0.7061817919667319
18,0.3632939422788676,-0.0670462498214088,-0.006823518441960943,0.8321304170606086,0.8396443992042121,0.6688595085673074,3.884667215524437,2.9067966634939832,1.4814709349174002,2.401245434881308,0.6509067234006624,1.7307270874197713,1.218970136561208,1.1513363263919179,0.7264332107937599
19,0.13087280458150619,-0.007038329625338992,-0.02936635752332411,1.1151332479813547,1.0906929244209789,0.7813744408186087,2.948912414917146,1.7455591768186514,0.7006437261624743,0.5797992249343045,0.6699045166045591,1.0803795204070499,0.5566008950334514,0.3256464605363924,0.6380582763603737
20,0.16856098774490355,-0.01607102205910462,-0.016664464860281673,1.130188055606839,1.1149192548786733,0.7102848690054525,3.095506109397533,2.8289702477980057,0.46085790838412466,0.359705399110877,0.6425374456860184,1.0223922627567006,0.3837420596896092,0.24795234165667243,0.5827396112822782
21,0.6371057383732949,-0.10519396609654094,-0.06657932147723572,1.061935865052034,1.047349458356955,0.7217577374091864,3.157251609529229,3.84346247064377,0.953750429897246,0.6493293438328789,0.6284777104787076,1.2859865890987159,0.7275007673023866,0.5321605886760844,0.8503594209791339
22,0.8752824611596096,-0.09988860737019714,-0.06507701995437072,0.8568742400829483,0.8065681940330723,0.7115032765720187,3.7607865042070454,5.293987600227828,1.4433562455499855,1.6194512196372772,0.585052858160615,1.7633015964115706,1.2640360165577516,1.1993961372985242,0.8685237451680817
23,0.6015617046800036,-0.03076953803942689,-0.05675648533098196,0.653650628744733,0.5734866085353709,0.5324288587589449,2.6701354450391417,6.054674375019301,0.694102600099863,0.6186035715457733,0.6097226960127671,1.1486081794337992,0.5329823531441246,0.45397466437156786,0.6184481847300202
24,0.34021450464064423,-0.00855759516653301,-0.021448320520336114,0.9940083583980482,0.8728177380412323,0.6853363037991073,1.9901133563721285,1.5986626084735551,0.6043457378065442,0.33457858788230993,0.6403206450210053,1.117761129729093,0.4588869598820165,0.2630419133744955,0.6775358634390855
25,0.197290653021744,-0.027144744370663422,-0.01396384888335031,0.5186644001602366,0.4723773511844914,0.49694665028106044,2.0238226242486888,2.6457792750017908,1.024149324554891,0.9573524445474572,0.552929491858785,1.3001574404298235,0.8448542654594616,0.6818220312028918,0.8423562759600208
26,0.20183725496823304,-0.042800531491017854,1.2179681144496891e-06,1.3280857549794665,1.3045255911920173,0.892011414477434,4.36015609255984,2.038947935016135,0.7897648714003639,0.5364425154523261,0.6566669596287297,1.5681360330769945,0.6946943013572188,0.38789480004872745,0.6642168782624246
27,0.6940910444166003,-0.02247328074009941,-0.043423880685628496,1.1870970279828272,1.1072136043594534,0.8218496506875188,3.3229555966813296,3.4943727894709373,1.1263577023766014,1.1751437702642487,0.6602640781246099,1.3468172705776906,0.9126019103516466,0.6303527568948598,0.8934607395395515
28,0.46759444363131153,-0.053435639590565465,-0.03820713073453692,1.1419466127160103,1.0728831545499766,0.8017994757723085,3.5617151084921823,2.459207626995282,1.1757176671690015,1.0703813765722234,0.6547956803312163,1.3804006520826761,1.0453569738521908,0.7646387276114648,0.6824557041593848
29,0.13094257557711267,-0.006413461472904846,-0.012354974359814638,1.4221512662015816,1.404803162777419,0.8299640150619972,4.421107854675978,13.328017860827185,3.3145027109170297,,0.6425374456860184,2.0225992271767352,2.914166218353065,inf,0.6264852105439358
30,0.040350876213306054,-0.0034792966579490813,-0.004052866901868049,1.3782137922214601,1.3692885744191652,0.8794355473727388,4.676416345003827,3.3571478875521663,0.9264532249214736,0.8673387930354769,0.6509067234006624,1.7057041046282342,0.8969355820661079,0.4687744464973969,0.7863894360739544
31,0.4576411943328171,-0.13229321026336605,-0.020050247641162464,1.181325987272957,1.152295213954707,0.8060657933814724,3.0806819065130764,3.1761698508808758,0.5888550652633282,0.3499747701681684,0.663668482632973,1.2056037632462946,0.48215611596327573,0.28648115961380494,0.7903909675562159
32,2.2167310424938975,-0.2680157508845803,-0.2889658919377871,1.0999856496026161,1.0681632298234693,0.8207987221989855,3.25636049283876,2.2079292735287273,2.7781272753936213,2.4328677954283746,0.6602640781246099,2.333044300478754,2.422948775243921,1.8393875182173096,0.5493460419586851
33,1.4941312516144354,-0.10370240690034127,-0.20227469582243585,1.0604178845783576,1.0170956365301127,0.7724289032875828,2.654162206365757,1.5513221302260454,1.6391384030774656,1.3199127652430847,0.6584896970785714,1.867057893278283,1.390327786351793,0.759997841455896,0.8633917321303186
34,1.2463337368825183,-0.06868977757866579,-0.08363565771264292,0.5334253106945177,0.441225981615199,0.4802774301296337,1.964177871809755,1.179407641006046,0.9954068811727691,1.4648884045891615,0.6713451011121618,0.9947328692920816,0.6199967975877874,0.5222468301109935,0.8499899279843134
35,0.5895462719331926,-0.025721142599832242,-0.066910427652548,0.8873058581128046,0.8405868144075737,0.5700935049598668,2.405101098380405,2.6877496792055307,2.206127498787138,,0.6566669596287297,1.5243311258035421,1.7110693713969563,1.3554285715169352,0.8822650345836703
36,0.025147514333667586,0.0031861991930836817,-0.004266419793142184,0.7444914128415634,0.7200283751693526,0.29902774901671086,2.14251077863791,2.204311314682321,0.9625151619532124,1.3364773612035232,0.6584896970785714,1.0489653487786958,0.8394518744907943,1.0816473035359229,0.8660661825015592
37,0.1384133124909126,-0.03330454568125327,-0.011287732699700596,0.6818169280130839,0.6121888580670832,0.44907876844376443,2.3124448351184825,1.6396715778308364,0.9527984904124136,0.9597298952518285,0.5915533975974677,1.147907580392987,0.7612100147783709,0.5220587321956744,0.7108576634385209
38,0.1952349230223398,0.016232199044231482,-0.00717591665028712,0.9333498548609038,0.8997835723176835,0.6334993252264783,2.565153510313793,1.3193894920030638,0.5698003920907306,0.4453073650473794,0.6713451011121618,0.9725965680852499,0.4517920297896562,0.30546080156926986,0.8515359912314212
39,0.166409242931104,-0.013854684638829821,-0.012496822274179961,1.0614554393732143,1.0413855653251203,0.7626786135364169,3.440651959628815,2.3662605546561952,1.0459601611964233,0.7986808808419528,0.6357360191111145,1.3681052352530596,0.8042316265753808,0.6036353557592281,0.749293577110452
40,0.28919623383377885,-0.014109216358267465,0.007092765900593337,1.2070364584631843,1.172487704036006,0.8444480011724029,3.4530653843939905,1.5853005967492577,0.9552545599098899,0.6592108037653326,0.648888643467878,1.3630119564976713,0.8173555037721253,0.41643956201643173,0.7034453535211918
41,0.4382270289057627,-0.03857603669241592,-5.87960867895615e-05,1.254099279213772,1.2130989365478428,0.7962308686063753,4.419200332145899,6.025967095840455,1.0654083463832624,0.9298562555631742,0.648888643467878,1.6643635267096162,0.9152934596241947,0.5754618727316386,0.6162168853582314
42,0.8476782160366799,-0.13455373368177542,-0.04571942347733415,0.835798693881035,0.8160170425351548,0.6649276109558694,2.738265908249441,1.0333690288808914,0.8805839032847153,0.713010417249791,0.6425374456860184,1.4716586105207734,0.7428138602249994,0.5760539521806759,0.9075924459239593
43,0.8763288172705797,-0.03908915850116604,-0.06000680235596892,1.3323280734109662,1.290346978455538,0.8659353608055471,3.7529249738985784,2.5497790913832157,1.9560120111344756,1.336510601213015,0.648888643467878,1.8910642836386655,1.5054772864872958,0.8195940491500616,0.6405681848441096
44,0.5843338606284574,-0.09849557218566127,-0.02115556053117966,1.2599965675460325,1.2377568864433293,0.8538630735985688,3.8450778194595445,8.425064265308102,1.1339655552263395,1.2007808465598198,0.6403206450210053,1.5214779114564414,0.9737484707384138,0.7610052292171146,0.7112470922454974
45,0.5603194919806123,-0.035295029489395544,-0.022557055536358277,1.2026540175204852,1.1594244660405633,0.823692543039156,4.6667838270212565,18.733154370259,1.4617840079155635,0.920386884293814,0.6509067234006624,1.7162810080521496,1.3713229193737242,0.7671989376723812,0.5982212726818391
46,0.06596003456493325,-0.008707749477560554,0.0005323134787473208,1.14052508017592,1.1179848918436268,0.8130228259645546,3.1714460896027323,1.7415270451440148,0.6472904020980883,0.5030329064953963,0.6380535849069913,1.249318906092813,0.5219192399144942,0.38177817666459196,0.6445231269277213
47,0.3522218421556158,0.018745689832050452,-0.013709916651853407,1.2059073440663224,1.1735966394409953,0.8186534711204618,4.660379015560261,45.539125260658444,2.0897804426898494,1.8047062928412876,0.6333676938231112,1.8161204701409903,1.750344713749292,1.4292814977122226,0.6221115826624668
48,0.14493183745240354,0.004816807312421768,0.0017085617991706228,1.1052280846555458,1.0611913801659467,0.7811606744730911,3.167451559581099,1.4078693775100453,0.8713566668804983,0.589760078721917,0.6207552362147116,1.3564766927107086,0.669655809783105,0.4372736158481843,0.7102943280001354
49,0.1909391807156268,-0.029387212804184777,0.001815961974989455,1.2119582398628066,1.173377772793491,0.7904922585857284,3.089541104014577,2.440628075389779,0.49123260413184316,0.363584818421965,0.663668482632973,1.097679390619509,0.44384030163263505,0.21706293228135368,0.7039226316724142
50,0.12170468834065795,-0.026494458621149394,-0.008154237755917528,0.9824564863277354,0.9761049224473564,0.6589205303903541,3.514924401524154,1.3276387216379004,0.8052121501030957,0.41185364309099276,0.648888643467878,1.181088510492348,0.6695013577995541,0.3945652428018671,0.5029694379081824
51,0.11363092420135981,-0.007850903499473968,-0.012937353814061185,0.6717948049690503,0.6217286682856609,0.482667961330293,1.2554328960801406,0.6603235526728122,0.14504087609753089,0.09028617350550949,0.680118107274185,0.4993912461403276,0.14496577025018567,0.08933441948501326,0.5597323415740579
52,0.109863473101584,0.028478689062332016,-0.002731325513310054,1.0312374659632015,1.0017658340607032,0.5905986746391463,2.2795650668045404,1.4758865025805106,0.49556981025970065,0.47650008968731533,0.6713451011121618,0.8552217643494537,0.36759412777796213,0.2873801856570354,0.5702381258230053
53,0.01533988687050172,0.006091620220893169,0.0035976557641720017,0.8442296491294703,0.7683118439654394,0.6313963705203618,2.3830405003655986,1.3060163070950574,0.43350548399828276,0.3137256839185732,0.6509067234006624,0.8561891226219437,0.35093679569540076,0.21072791171031208,0.6730629495839451
54,0.1744519656071108,-0.0011574345359880722,0.01710894867195417,1.3057975294769895,1.268569701019173,0.8160233297166029,2.6547960842003455,1.4902382552512297,0.3124325147494015,0.24063940711943244,0.6547956803312163,1.0224231503105632,0.2390610713301879,0.14846551241082478,0.6457702566603388
55,0.21481798099097352,-0.031332304001567765,-0.024770281872011572,1.2448790975032007,1.2387975660413657,0.8368705108130136,2.343018630231142,0.8105128275021225,0.508007331041502,0.20809333078213088,0.6357360191111145,1.1093025598763004,0.4308166082472392,0.171597593430979,0.8349708895208694
56,0.6959073319036397,-0.17770683612245078,-0.015643306346888007,1.1696733915861635,1.158963997862248,0.82595683324809,2.946747925900427,1.3966149287106422,0.5294083352626271,0.5121284938359618,0.6468212168108125,1.1875163647741165,0.489130297353434,0.3859596134839077,0.5853995624352705
57,0.10740698098469476,-0.005700201407026021,-0.010772718539627487,1.4183071649391963,1.4054589644904065,0.8905849774188632,6.983128489624199,14.924747445529082,1.6592059661282748,1.1629570344882176,0.6602640781246099,1.846990330227474,1.3963489668191011,0.9438518155418775,0.8873905696719754
58,0.03159820316967903,0.002465923594054049,-0.0026319655954106895,0.7674629483418756,0.731485457110449,0.6003313607212323,2.1592483889011027,0.8916596368344316,0.433785979424384,0.2735590248795358,0.6468212168108125,0.8783796365798712,0.39502264246684643,0.2643353192221915,0.8488223081982641
59,0.270632227500145,-0.022400473745708693,-0.008887682572206748,1.0516780476852214,1.031229690460543,0.7197347802698494,2.229151232234155,1.3979449584547372,0.40519932399486985,0.2562515893610322,0.6097226960127671,0.9679934667961888,0.36339192216197375,0.19718963941851186,0.8357722399759178
60,0.19023876751613839,0.000746748466805211,-0.02259261323293963,0.8094966921548598,0.7372296120808068,0.6103126697579518,2.4535340286671876,1.4915788871847142,0.5569415631705078,0.3782401163408079,0.6652988471865258,1.1509938943498643,0.5161319838767792,0.36094681636426357,0.8511284829027415
61,0.13115178394757498,-0.01954270171842021,-0.009234519575927783,0.8571859148629164,0.8097650845464076,0.6227908025804961,3.386279710992003,0.9830962892171273,0.8406071084301574,0.7143900013010047,0.6684167106117298,1.2517246188780777,0.756699435566478,0.5480502072028652,0.8413529368235324
62,0.06885380047556437,-0.0072150128028799845,0.005578947463169885,0.7325992310528331,0.7060699205204992,0.5734993923356376,2.4564223497945967,1.6844326690072058,0.4842944056946754,0.39044333511427726,0.6425374456860184,0.8039794290045637,0.3466983819668985,0.3040857492518907,0.6411812711143267
63,0.2990871917901517,0.020286552577429506,0.005557778398395635,0.7988950969215777,0.7710275831996787,0.5809817740599474,2.396667127899119,1.5334309582664218,0.6211804357421531,0.5927704761574514,0.6602640781246099,0.832920234107944,0.46004570757795926,0.34327235869270994,0.7401304387491984
64,0.15411429708360705,-0.03118534258973927,-0.0050122484172468035,1.1387273800014464,1.112128579449739,0.7045012106950204,1.5483535018863817,0.566602654594833,0.30251627758457783,0.2057287186387409,0.6699045166045591,0.7512236627545334,0.2453436004240691,0.12007322800889846,0.8287315045467977
65,0.07449863635941487,0.019018947407057923,-0.008880818918109719,0.76996058242153,0.7111657099888921,0.6345005172828305,2.1777235756750777,0.8286208415324041,0.5152474238005148,0.26579067277658464,0.6619902821573977,0.9557536965901992,0.39358747753676543,0.15628742514204605,0.6733534087519476
66,0.0629675313439608,-0.016723964967509188,-1.0825843854873814e-05,0.8707237050762983,0.8149175481944885,0.6268374800260862,2.951409321191666,1.866777816392072,1.082734093555752,0.7415044169040111,0.6547956803312163,1.3345878187976978,0.8467634093822315,0.5855647257893172,0.9321217216143274
67,0.03195341631948263,-8.908961991744256e-05,-0.006727639194905519,1.2722218383340966,1.2201198349379676,0.8455324974487192,3.8839447645226426,11.5248819710189,1.1517602197520675,0.8825282275813389,0.6309483474627791,1.5593258710067526,0.9641830165631899,0.6220132177755184,0.7551491269646353
68,0.042280797219741546,5.130592678424979e-05,-0.012351709160368013,0.849232710145104,0.835465584198774,0.46057304751167877,2.595783381595579,1.171128003210041,0.7594251721291716,0.5761341369464587,0.6333676938231112,1.0649518771754964,0.6454119538485643,0.4314260394240579,0.625302799350178
69,0.1026048057529961,0.004469846112138253,-0.005161244799259661,1.174676453426733,1.1251693286560873,0.814749883410463,3.0754652728009972,3.395943131755349,1.6013264179012225,2.224030815455498,0.6584896970785714,1.8650472649978873,1.2979209279320176,1.55998502871457,0.9338527520203496
70,0.7663567168163353,-0.028064718701523772,-0.09974484350116289,0.9854416617344053,0.9391449187934108,0.689696645085421,3.190536287395027,4.390562862867874,1.2107379565179839,0.9980329254834149,0.648888643467878,1.4228200424693407,0.9517385501497944,0.6778616172314286,0.8465609474610569
71,0.24093354990987922,-0.037402862050304866,-0.00370027321321776,0.9936870295000477,0.9542653052277282,0.6935052858477709,3.3979320811797433,2.1463994316965844,1.4910939877328975,0.7411085817175697,0.676637947632344,1.7342455630274483,1.1261791185007644,0.5572408928412501,0.8112537602999088
72,0.05084826683450777,-0.0022496839852566876,-0.001985762628146981,0.9698251944118984,0.8869720504284017,0.7415119539213122,3.5478861763831397,7.146668062779915,0.7044237496770922,0.8305920444993184,0.6528756675646988,1.2605823492141668,0.62790830897366,0.6421109508623031,0.8167890892676242
73,0.09626819557824473,-0.005484753864607192,-0.003363355094405729,1.2891635663827488,1.2684928229880845,0.8189585898778855,4.3660670006937785,20.67453420841794,0.9976349986702712,0.5711404819769874,0.6309483474627791,1.9733612850976607,0.8772130029244378,0.365804656647515,0.7842171066606275
74,0.001086190883070374,2.4176583608043504e-06,2.4427234326194884e-06,1.1190770820054445,1.0994648855413345,0.7293321020552367,2.466541410259758,0.9600431762521247,0.49694984671263515,0.28585105011502765,0.6584896970785714,1.1301029557594804,0.45150364352603134,0.23910119189843576,0.7946085908286894
75,0.30577110972342797,-0.001978154117273964,-0.007683321225513448,0.7023623984372559,0.6556719941165942,0.5511062237679734,2.488309761928915,2.1394571480954423,0.9198960044491525,1.0986901409285565,0.6602640781246099,1.064694070464649,0.7338886241115316,0.7008286414147016,0.8380939562425471
76,0.035096532213744806,-0.004445560747074342,0.0,0.8307487166445364,0.7960409507931453,0.6121950019905742,1.8074107885763528,1.9014759362566604,2.5094170717387025,,0.6447042257417027,2.0924142129838743,2.5160948742697316,inf,0.9249216551174938
77,0.5112265155155937,-0.04620720227724988,-0.015677618911461688,1.181601131541324,1.1422979290908897,0.8318879228426712,3.7562594494817687,3.0779813611705285,1.1054831175228508,0.8335708174772566,0.6447042257417027,1.6354967356431094,0.9242771488244427,0.5329588855602938,0.7138054269235173
78,0.48181128771749243,-0.04053677124137202,-0.058943612116824216,1.0875951317988366,1.091839742973673,0.7848785411557534,3.1450044730553914,3.7438152197298913,1.0514847968909533,0.7004419097947667,0.6509067234006624,1.345963153682582,0.8711580553680938,0.6170592691957462,0.8227860875635424
79,0.16542322281224436,0.0003718099663371499,-0.010148944761965081,0.9956675911478138,0.9339505425924689,0.7207304915647395,3.429352163133804,3.74388695208089,0.8081240252381665,0.5283220196453662,0.6284777104787076,1.2794149994927946,0.6589128568233973,0.4402987007545986,0.5807887169278702
80,0.15156732307937287,-0.029292863694241274,-0.005938182602120963,0.8580873126346653,0.8225741411103004,0.5299565714896719,2.8640252426148805,2.126803483207239,0.9780601568000629,0.8632077386365672,0.6468212168108125,1.1697145261612583,0.7950500332234026,0.546896827712159,0.7628275801776302
81,0.6831368898385989,-0.1030406469348087,-0.03469684103110462,1.0535708648659603,1.0559200162122027,0.7469741205056554,3.100786954697579,3.0605623774960735,1.3434320226812586,1.8933081976911865,0.6468212168108125,1.7522182946075222,1.294573382559944,1.7053329217772883,0.9432324132883761
82,0.27681226859465435,-0.044098491737899245,0.00017689817345560577,0.9346516737589148,0.8864104632688125,0.6408044934431317,2.390909374891331,1.5511966565440165,0.9536355724918144,1.1825401323573639,0.6153451465759925,1.3267265066357397,0.8190447891115639,0.6630204751564381,0.8753367413984943
83,0.7543031296872899,-0.11888317380445862,-0.05460654602361806,0.8971341369441798,0.8772028824397309,0.5914396332316583,2.559802102124563,3.092944538745671,2.0569221898782843,1.2257231104876813,0.6333676938231112,1.7213010055794935,1.6739143044051144,1.6221089722624444,0.7421874387217082
84,0.7470492028263431,-0.13122207702029257,-0.0754871795109224,0.8362786707746057,0.7756845062826245,0.665294489816037,2.5579802187139298,1.8132232183961778,1.0307869139177033,0.6106333434173414,0.6509067234006624,1.242598139196491,0.8267610671418323,0.63969149509747,0.7486121116346082
85,0.6308239243057299,-0.09302502385531013,-0.08430051856710793,1.3198016047717493,1.3248797268643073,0.8799353678839866,4.012290606196777,1.4987648494438046,1.105988296717015,0.44840685433691596,0.6207552362147116,1.4727240891182782,0.963519388690441,0.4133702876152776,0.8575303595736602
86,0.7036455068381836,-0.05831375646796047,-0.0605669934638977,1.17326997113974,1.1375479662591603,0.8010530427047353,3.3331697354426555,4.183172572230609,1.4076754221138275,1.226102052162266,0.6602640781246099,1.6175820975730948,1.1995391985834774,0.9421806222539101,0.8722284845289716
87,0.3490194605730504,-0.00045406367886499654,-0.022290859003378155,0.8731853429882019,0.8162438660908881,0.6622650375431642,3.3450330000764086,3.5561913819887874,0.9898248751633442,1.32462172675953,0.6447042257417027,1.139156543983691,0.7668920716464918,0.6356400482568021,0.7236702595724346
88,0.19961252378732752,-0.008701668056551884,0.00036963854727325995,0.931768026344295,0.8861349569018966,0.5458438471252904,2.461667359909889,1.6582134693743757,0.4722930112890054,0.4844203789160943,0.6468212168108125,0.9745085301931481,0.3959999746617108,0.34342609890989084,0.6755302360076787
89,0.15673321960781036,-0.03074519968476825,-6.772048115691861e-05,1.2690399334102733,1.2302817644836774,0.8462500310078929,4.4842176840397245,18.111351350715765,1.2058505127354988,1.1623666461904885,0.6547956803312163,1.660789688063809,1.051770668516287,0.9188891156335639,0.7667285980916871
90,0.2423407927320032,-0.05413909576866399,-3.962249376475782e-06,1.2246573803686682,1.1897554304982405,0.8373325024103093,3.5291508316407714,6.6346307511533364,0.8002155257772593,0.6224107749423583,0.6699045166045591,1.4199660541576216,0.7536396575799638,0.48058781657391386,0.6822686471086331
91,0.02544553385192834,-0.003043525972576338,-4.588245555442244e-05,1.3546810673274372,1.3083935246230602,0.8721941613810564,4.400862351108417,1.7346351222424596,1.3030137826463568,0.4347635067198238,0.6447042257417027,1.7517057697708818,1.085125221197253,0.6058830708969543,0.7405473896063943
92,0.0050750933610634996,-0.0015225280083190499,0.0,1.3285366066016855,1.218909422645919,0.8198460624474423,3.1491175852440842,1.9182454001686766,0.48511599871411204,0.29239847868694036,0.6547956803312163,1.2080552000494917,0.4215287319665044,0.23073992908094285,0.8405067343502454
93,0.0023715614104894488,0.0007375822161810956,0.0007340977514355535,1.3296939150273117,1.3109771749882948,0.8724613808569349,2.8997541792687658,1.1129455372408161,0.32306356985700224,0.2391687267690948,0.5915533975974677,1.1841338668683536,0.2801460600338544,0.09657948397305058,0.589385294319112
94,0.00700738621169183,-0.001214216033121458,1.0374939384125235e-05,0.8624224547742031,0.8628211081368107,0.6873823993133769,2.411208083045071,1.33956930107825,0.40155506523324513,0.10728482209487265,0.6468212168108125,1.0001253419534557,0.3418332053463832,0.11061807661403204,0.8074971414592713
95,0.3708066365165635,-0.06533682412980768,-0.007905024740732791,1.1210934516897646,1.07089530619946,0.7953636932483372,2.6537043699620892,1.9208610397123906,0.5504446330488403,0.5171382807416127,0.6333676938231112,1.3203401758411573,0.46212924647980536,0.359888253574417,0.7081962264114915
96,0.5903995968928387,-0.07953480755329816,-0.06798098281607823,1.2252695059647898,1.2006144254695716,0.8405990197484388,3.699632356229146,4.535496091881903,1.1897968567809905,1.0123832357958176,0.6584896970785714,1.4409617624621989,1.0456797246195182,0.5629604963850047,0.7074308554752938
97,1.8025347278431623,-0.31012566227710936,-0.16429698977251772,0.8460121980672431,0.7646979845617107,0.6663953480177475,2.6979060300456545,2.312121416128949,2.2806267666115216,2.5938708668135346,0.6357360191111145,2.271194097536394,1.93519996849433,1.5880427768936083,0.810741757259238
98,0.6372560997155874,-0.09367820496373229,-0.02551023571935751,1.163022390366076,1.1416745515159117,0.8046674918963417,3.4554500414252884,2.77581063138539,0.859075689496877,0.4255543382538682,0.6652988471865258,1.6078835655018633,0.7139976164339118,0.3230377377263452,0.6513980587678725
99,0.8096944955588802,-0.12081737748023157,-0.03576123963190604,1.2888424956538282,1.2748165073117033,0.8547532014479697,4.161644713507643,9.735595855193152,1.379215623067286,1.3402912508774658,0.6727386042041725,1.794296016880052,1.1617882843814942,1.1191114421217938,0.7690186601797052
100,1.191248708573222,-0.18277933748529912,-0.09663983559737357,1.214202682788152,1.1500780499891108,0.8150382649003183,3.359965773398724,7.3154042140845625,1.5397545907872103,1.3558945026954472,0.6207552362147116,1.6420758949335648,1.2680904902907795,1.2453446122352438,0.9104818605749038
101,0.4211755432473302,0.012514147418871413,-0.02334334273842445,0.9313433063492924,0.8821168412018808,0.6969139396223539,3.8348390361517164,2.6976000627289256,1.1835835417137692,1.4544111871222667,0.6509067234006624,1.3107746874730855,0.9726615866821993,0.9230170307143588,0.7978524853407677
102,0.8491248681424092,0.0015564633408371442,-0.02254436671719101,0.8796921340218333,0.81389797528037,0.6378517857026861,2.009809147331023,1.0373604909414955,0.9481042478615898,1.1608203589566972,0.6309483474627791,1.006580203221616,0.5519533793507169,0.36060481598555266,0.7927780265695901
103,0.3822259454251734,-0.005158763714700587,0.022303950757773083,1.0083956084465082,0.9980822649558715,0.708320492348211,2.6195507044336495,1.336739788888932,0.7391103850954757,0.641875052095918,0.62595550513784,1.107350354611395,0.5751362621389182,0.3748021202883896,0.749675662304202
104,0.3089820720931153,0.017675323607824575,-0.05332491987477215,1.119821141223712,1.0941529464505027,0.794641016786127,3.380760201130592,3.0386923886515804,0.7147803265017665,0.4623869796768017,0.6309483474627791,1.2936949227646786,0.614748186676459,0.3929205076362273,0.6389060705796445
105,0.4638294971371775,-0.029454999070265234,-0.03484864012302884,1.1570101848514562,1.127654208199092,0.7958835868711728,4.037935284300872,18.0160834917318,1.4172019302396954,1.3483505213314733,0.6468212168108125,1.832928746266126,1.1980853414325048,1.0733808103769715,0.8343925467527101
106,0.08254947996525377,0.010909096001486323,-0.012079479113871713,1.2540312602625099,1.240265639212717,0.8366349325102457,4.680529003393603,5.318874624956854,1.578110974628417,0.6897970936746634,0.6619902821573977,1.8197475057682237,1.4849283089033096,0.6101288337184895,0.819843082399896
107,0.1135715407909318,0.01075213730633777,-0.0010972780516793346,0.47039263768868894,0.31206007750072684,0.33205492078366317,1.9221367014034132,1.6567254393393374,0.24341207332378076,0.1769728498327768,0.6468212168108125,0.42633130078954923,0.19383393817659142,0.14287998452961537,0.9303721175136109
108,0.0,0.0,0.0,0.4768043233294326,0.45719050446402026,0.42762691674005554,3.542477509675818,10.660923756730538,2.9411000779009258,,0.581717464821069,2.0661963149298153,2.25463069987201,inf,0.8728122290935614
109,0.0,0.0,0.0,1.7032886433604992,1.693239727356349,0.9423763503803965,3.024596827473419,2.2560747794590226,,,0.6584896970785714,2.5682882587270512,2.445685936634719,inf,0.8862844562033305
110,0.10591385166119967,-0.009270086419059003,-0.01614009837139431,0.5464581072350898,0.45663395045465255,0.5534823704071367,3.2917183277562527,3.536078740396347,1.3567788622268024,1.047372494008331,0.6602640781246099,1.27491201314357,0.9548357558982093,0.7338400511856444,0.8754757900454577
111,0.5515249842983118,0.027297704662606337,-0.06990000836451282,0.8451977637471456,0.8399636221299251,0.6819934562570853,3.426686843786667,4.096058003691609,0.7852281659170116,0.8113475102146288,0.6233814453054027,1.2724499358137542,0.6611035390321875,0.5669406982837722,0.8999858342549787
112,0.11406935308595265,-0.0009203325797352314,-0.010486602728860032,1.468328279922112,1.40042938995707,0.9011059773606035,2.6968228077233842,8.07501201371822,2.663773557877223,,0.6233814453054027,2.343522834953518,2.6489451551872887,inf,0.8202608837625243
113,0.06872019543146257,-0.007788288815565757,0.0,1.313622667687249,1.2937153662857515,0.8216352532272594,3.001245424529166,3.4917715178520488,2.3985968315276347,6.098093058644421,0.6207552362147116,2.204349902278808,2.404159184974798,1.1019623755533916,0.8133186516412476
114,0.035701379931228676,7.507165741644714e-07,-0.006823251666587395,1.0998661720880476,1.0644233026324008,0.7509101824904275,2.329706080695649,2.5167242827746157,1.8487099192425274,2.1894052092686405,0.5978297680564633,1.6589783579942365,1.7352434099314937,1.2254981990770923,0.8127378590231903
115,0.00045424644098327805,-1.0979523537770649e-05,-1.1090747252008139e-05,1.4086836460399836,1.3756189713867095,0.8457493405814654,2.4282827878670723,3.158296006817363,1.9976905470108781,,0.6097226960127671,2.093315113945708,1.6698090738101286,1.957465405216746,0.8269468564892115
116,0.2514244758917454,-0.01138397008531325,-0.04781215004975724,0.40426291563730116,0.3050749413417368,0.38159603528469177,1.928893625568902,2.427324291204158,0.7016792068646331,0.770183120902012,0.6233814453054027,0.8791019963196628,0.518365665398353,0.3845395160673608,0.8119327632824392
117,1.3330876412569594,-0.09218002623818469,-0.11001796145375464,1.0774182332591329,1.0592932447209058,0.7407771087500259,1.6821107376692737,2.2451839157469764,1.3476515631144177,0.7935855046195851,0.5713653840954815,1.790160747864358,1.1978238388988072,0.925706475765678,0.914066310659461
118,0.0,0.0,0.0,1.1497874650379585,1.1274592417564584,0.7344947035485544,1.469557526424578,1.6498572629644244,1.5894503857490487,2.3356862588244804,0.6284777104787076,1.7719568419318752,1.0447927760936757,0.9478116957261333,0.8171140017963351
119,0.020728533748454903,1.0807347716130025e-06,-0.0036631216969986455,1.192081830434201,1.1838635221268687,0.8076936882693365,1.2471640150363683,1.4401748964158592,1.0386050495342292,1.1205800097671177,0.6207552362147116,1.7461489579760026,0.8548421708327996,0.912255756661976,0.8422107084860069
120,0.005970510755054618,-0.00016638125403866766,-8.72815377028725e-06,1.4549682734155973,1.4398646536692472,0.9138705011102881,1.1400267425379595,1.2596799248621509,1.1118026893538056,2.7047001142169282,0.6509067234006624,1.8805906829346708,1.0051916226276867,1.4891583827220383,0.7336268037537975
121,6.183150491693701e-05,-1.1129670885048663e-05,0.0,1.2811918742098105,1.242256486980129,0.8156429196305706,0.9614314972530985,1.1926185639662474,1.5876881422000517,1.7013980053531434,0.6125606311107803,1.7148601583922642,1.3532038879141928,1.9492602359405953,0.7695877465406429
122,0.008968894902604293,-0.0012855416027066154,0.0,0.9571975275366938,0.9441198504777147,0.6892687477945538,1.053440766852733,1.25554373972614,1.2877487229755094,1.7661455347473014,0.6425374456860184,1.9500520482226484,1.272162677911067,1.3896444480051726,0.799500815667318
123,7.419780590032441e-05,-1.1129670885048663e-05,0.0,0.8738289976321811,0.8352566558266048,0.6295198581979846,1.0529918000240353,1.3069898631747352,1.7722010558321135,1.3345511884097705,0.6309483474627791,1.897194061703575,1.6127027368819211,1.507427483661556,0.7771915521504985
124,0.2522065786930761,-0.03358554228378024,-0.002116255078978375,1.245088721978585,1.2338001551949405,0.8627332800302122,1.0629289619118403,1.4142039925948184,1.5454319356208153,1.5051767054405338,0.648888643467878,1.9533376648841099,1.3504305714464995,1.4784043449738367,0.6972609256609528
125,1.2413586723588153,-0.24453157003187204,-0.12862927644183997,0.7307433752988011,0.684864556717448,0.5498378247405679,1.1425023612512784,1.3246568957227474,1.0647647539194083,1.515685502820809,0.6447042257417027,1.329368072984461,0.9335690477171398,1.0866170278087162,0.857247338300562
126,0.12160801666605173,-0.012566161722158678,0.0,1.3422583828389707,1.31306139675188,0.8638162865946982,0.8805535358995115,1.0610697958291047,2.2776820138126905,,0.6547956803312163,2.3241492709098863,2.2843598163437195,inf,0.7013801152158725
127,0.4286863108013629,0.066924127115773,0.05983233824265821,0.576461882421219,0.5476747920982976,0.5200041270666401,1.6508366234791707,1.4279743323274805,0.38751736582514223,0.3640054036170303,0.6153451465759925,0.7240417634482382,0.3200192106153678,0.23319962603216207,0.8920037209411855
128,0.03405297800428062,0.007931957906124786,0.001845686913842133,0.9833271934478431,0.8556527109510776,0.688038195150016,2.844541414810222,2.157144285890957,0.686440290927589,0.8098742131031093,0.6403206450210053,0.9623637574768888,0.5355327802243042,0.431823164622063,0.9152985370837742
129,0.03465935924829434,-0.00287408970682542,-0.0007073774154983278,1.6858001659379485,1.653446279094298,0.9689186382815457,2.3387339280720942,2.891264231798998,1.6137364382977972,1.0952622017828277,0.6357360191111145,2.2949476658648345,1.4938749057771543,1.2285017106050637,0.761984368595059
130,0.08906409498418073,0.005024512098531542,0.008667764738941614,0.6560463278605391,0.6294905214865856,0.5850708720555733,2.447921913948067,2.843663250601311,1.357695048567375,0.8968928324541976,0.6357360191111145,1.8330676930497314,1.2460461894433106,1.0092486080515113,0.6767505918568958
131,0.2988534949712165,-0.0422287941934005,-0.007580121635135586,0.8329128242591792,0.805845463592209,0.6221915586203731,2.186033407274857,2.5206555256597927,2.2242352479160163,1.6060878255488185,0.6357360191111145,1.8667704130405696,1.7480328154553069,2.0956682343111215,0.7626725367618246
132,0.1224402667354752,-0.0029742193388380862,5.273470398746774e-05,0.718847039080633,0.6890927868464151,0.5986907960245322,1.9730736489804586,2.6429894757818726,1.7584703310957668,,0.6584896970785714,1.7447486649587003,1.5641734405942842,1.3018191254845621,0.8297042104443514
133,0.03959408482436955,-0.0008837056505352266,-0.0010814497415233305,1.1569110959652062,1.135301249900169,0.7239113174276691,2.4922015731164273,2.51970402314039,2.014031716644014,1.7462058243208234,0.6153451465759925,1.7395465977811206,1.6713644760686737,1.5044140404421364,0.8227079210215471
134,0.0,0.0,0.0,1.440521973393611,1.424642682738957,0.8793148624595776,2.104577545041324,3.019517329242773,3.5230216233506466,,0.6425374456860184,2.17742195004004,2.4310871372135665,inf,0.6780351343670785
135,0.1295099285316173,-0.01114866542035553,-0.01793276909305274,0.4025484572600011,0.32181601455322567,0.22903903872337716,1.1005434121254214,0.9638436437201778,0.3425471722256582,0.3063602281677206,0.62595550513784,0.4660647302370941,0.21757226032185906,0.18447222794455892,0.7094750864240356
136,0.16956663280201495,-0.008780856093287655,-0.008153047669586619,0.6389761047051082,0.5976810144534129,0.5706188002612599,0.4380397481225968,0.5191539102093072,2.325401149205382,,0.6566669596287297,1.9887480630654135,2.0734520458301198,4.013160330241664,0.7994872208537364
137,0.02842259140300823,-0.005874002223288368,0.0,0.26334616000293776,0.23297485106903895,0.43367747526732964,0.4281785055869351,0.5310654670017141,1.4167291573509448,0.8931246396767868,0.6180765742263259,1.5954802202496179,1.221269397775933,0.9478116957261333,0.7996238810860954
138,0.038653591039357456,-0.004961752450778036,-0.001702763815809872,0.32036688462053936,0.2754587306403499,0.3930193291771605,0.47635817654390444,0.5792615477594557,1.348478796043207,1.4087375126621935,0.6207552362147116,1.5535828166801133,1.1985934424646518,1.4320930106053225,0.8114924873875465
139,0.016442498896819924,-0.004210588078488704,3.3032157203500764e-05,0.23293085381488063,0.1691405056053354,0.09885397516582545,0.9869513841031747,0.9891142292079123,0.5788988873580025,0.5583652189324233,0.6425374456860184,0.6907278871893703,0.46167203220846353,0.36724807236939805,0.5595855144988842
140,0.0,0.0,0.0,0.6643848722507553,0.6271795345855169,0.5990856516910931,1.7165846081971305,1.599197629998477,1.9265709064433576,1.5007273098909921,0.62595550513784,1.5766480896111095,1.8278881933165605,1.6127879993193823,0.777488125987966
141,0.0,0.0,0.0,0.44042845283144105,0.38902984113262895,0.46895820369437097,1.3263470120148944,1.5257923482694544,1.4109598091545728,1.571394488097825,0.6153451465759925,1.455287232606842,1.116339927385724,1.1929341537591183,0.7517361214922575
142,0.0,0.0,0.0,1.1191929476809257,1.103660623900836,0.8131848740335568,1.3982562329447448,1.4729019479295362,1.8915539112075423,,0.6233814453054027,2.0149030205422647,1.4949937780432316,inf,0.7215978371458612
143,0.00011944621697851164,1.4964235571730459e-07,-2.244626952503948e-05,0.8757435734218707,0.8607969920301102,0.6517421016297701,1.6422950907721736,2.0268597879735073,1.6239984619654861,1.295932897244979,0.6097226960127671,1.6785498386268296,1.3899921049408137,1.2556351581194636,0.8086090991150707
144,0.08990942833330894,-0.01378502463116718,-0.0029980686577171568,0.685894961058833,0.657150684534855,0.6018964358731133,1.5366140336657466,1.9105369172471558,1.6790057993146672,2.303906352608057,0.6309483474627791,1.7141813345826804,1.1951693899112872,1.0093612690849751,0.8467783261467469
145,0.012865218733368556,0.0028615087195803177,4.411686020559108e-05,0.5849308765062281,0.5597210652490968,0.4070486506882181,1.7405613105320716,1.48165622364906,1.0359695907164723,0.777774152494292,0.6284777104787076,1.0125569240682888,0.8149679016065087,0.5364629695395239,0.7017417154764091
146,0.0,0.0,0.0,1.1363687859987845,1.1135263320441513,0.7901154224278014,1.8088514374404026,1.7634600080181784,1.7371272735749899,1.200622717440654,0.62595550513784,1.6607312068216509,1.5614835193120644,0.878818824239182,0.7612505512330411
147,3.629240505994129e-05,-1.1129670885048663e-05,0.0,0.37034117318545484,0.32971757206166163,0.2518759140394995,1.8338298567766098,1.6407309403235482,1.4631194773272935,1.2601844098024466,0.62595550513784,1.1820301301476093,1.3895970298449567,1.3470848335863765,0.9179196495575402
148,4.637362868770276e-05,7.463307910509765e-08,7.538631337940465e-08,1.005114600712211,1.0058751705656643,0.6225086953504095,1.3378040228252475,1.2564846488782746,1.6131851124023635,1.2704513599750016,0.6528756675646988,1.4271626530081487,1.1890683030029023,0.6966503446025364,0.8703723795585548
149,0.0457406460031863,0.001659608351305842,0.0028222522790684115,0.32653121558277415,0.31653611264742765,0.12340086601564905,1.0393054677811842,1.0398809408428697,0.9504723813558202,1.0464720376133958,0.6008849035917525,1.06109173792093,0.7191344954934521,0.6116759229253761,0.9307813405229908
150,0.4952409552915437,-0.04142181713183968,-0.016340731071125242,0.7025629003174756,0.6434170535924321,0.5463921160736542,1.9275830688772813,1.2110020513565578,0.7353303161111132,0.4883726695109902,0.6038851895711802,1.1095721289044518,0.5489393211788863,0.32174862701538726,0.7672815206445457
151,1.072620978558196,-0.1412024390818437,-0.10755275835763212,0.8794700996304741,0.8503160088178306,0.646681055999493,2.026102086001114,1.7311968403104636,1.6504266452248717,1.5374754414513563,0.5158180382284114,1.9601781208530182,1.4043659431611017,1.1564892427677718,0.8861780370232394
152,0.4032618034726482,-0.04339520137133368,-0.017841344964425614,1.1060188806870608,1.0666587653567565,0.7598522360949634,1.852443734474983,1.8469792082997956,2.304341801262906,1.1415237053685425,0.524519217297268,2.0429596183247902,1.921526956639097,1.5214999547046997,0.7728383233591026
153,0.15848889941305871,-0.027105333670125843,-0.00036607556147100266,0.8048940038679475,0.781968662087941,0.5433568929880916,2.030199208202459,2.4798690623903528,2.486912755287845,,0.6097226960127671,1.8049122558063555,1.8358121564205336,inf,0.7816579335603963
154,0.0017748693269676158,-0.00013607331506751722,0.0,1.3621780283370557,1.3131757027003617,0.8165959805869406,2.0848410007628546,2.745494790735412,,,0.6509067234006624,2.5700289032048356,inf,,0.7173851249198181
155,0.00017602600396833296,-2.2296627169322174e-05,0.0,1.3488809172366376,1.3163275375496837,0.8860715885201977,1.700086696533705,1.8188289416073278,1.719217038038101,1.2217188466926057,0.6207552362147116,2.066371768917457,1.6948394579489452,1.2561130553806499,0.7230592762355447
156,0.24205068543400443,0.03836499562563131,0.004774589014985148,0.3859449718024294,0.3273316172046215,0.2601002161152072,1.3033688718354413,1.0657767767962376,0.3501890886566722,0.31709271544967055,0.6380535849069913,0.5755814524637568,0.2892243367218899,0.2221085217366535,0.6941247575103244
157,0.0799299435162617,-0.018861152059408783,0.0001073211974823296,0.2520696153350063,0.1815645327035346,0.1986950598151957,0.7492846541698933,0.6073810788578597,0.12191151205379515,0.09271795095863598,0.6619902821573977,0.34749498675487533,0.10254916475125647,0.06237533437610286,0.9161539671713193
158,0.13149298377588128,0.00011078471616882135,0.017526127590973335,0.6562245991402954,0.49317910468140536,0.2959734151885619,1.5440239218489469,1.2841061994388852,0.4543419899350971,0.4853631735399039,0.6447042257417027,0.8707863833696944,0.3750506250549404,0.25984166971861306,0.6799204992067779
159,0.1524919319656301,-0.01795716765720366,-0.017624283134776698,0.2984071630395868,0.28092008841147326,0.4568416721654558,0.7314883793542882,0.8978685157382059,1.562395886047711,2.6357072427299766,0.6357360191111145,1.498990357727717,1.4786837285712444,2.039650195948091,0.8250839070577055
160,0.26917766504555746,-0.0036329270650340556,-0.06465229607715181,0.12463234025682716,0.11590822642080158,0.1160485503050259,0.74823299751582,0.9678824524889607,0.972839690416959,1.146295929080161,0.62595550513784,1.026260619817276,0.8382129216995844,0.9054520633034372,0.9123994113703646
161,0.12194078470870394,-0.012764721525569848,-0.0019414636493196823,0.7233835617950328,0.6979251635559768,0.3432261661528417,0.6042849939063913,0.8388351363919015,1.6144284390482444,2.4150093367040664,0.6097226960127671,1.6676557107530934,1.3026254303713733,2.077709939515558,0.8603670999674472
162,0.040749396880081945,0.012824397645809563,0.008692530605271122,0.29474661112781414,0.24400468576272213,0.08412952182365957,0.6781457146414384,0.8116969144231098,0.5098744210598005,0.6041050314222063,0.6207552362147116,0.536067461226807,0.3581356741833431,0.29033021576559886,0.9443588820357364
163,0.07596755937201223,0.017290539810084535,0.01988635856387324,0.335546419962534,0.32613211309018836,0.2637930150553464,0.7291500053135795,0.8517315475086901,0.9718904043115992,1.018096714017133,0.6233814453054027,0.9992799057486252,0.779958282925758,0.7273688880929561,0.9015204406515289
164,0.06966867936681094,0.006064625483036178,-0.00391557110277449,0.6845052171898364,0.6151320643259676,0.2579635689869036,1.0896835723156633,1.00169667988924,0.4131997047257224,0.34180406311573386,0.6425374456860184,0.5240985052193867,0.3045884325862011,0.2543473208992034,0.8242789048673739
165,0.00013377976301593304,-2.2296627169322174e-05,0.0,0.5108857144389347,0.4886663098466213,0.4982200013680298,1.7459126007363681,1.8660887940468913,1.8291092202597832,1.3829442742346088,0.6509067234006624,1.7918928114510673,1.7180039871344288,1.507427483661556,0.8407768522959255
166,0.09748630696291515,-0.005080753096025511,-0.011265258301463861,0.5693355355200428,0.5334260973982531,0.5327618744258551,1.5863265106717457,1.8326075293384354,1.2521209123654877,2.116043505806269,0.5947193981915972,1.6357818877737023,1.1598252936780393,1.7142528247320248,0.8514622737742912
167,0.09114468180740337,-0.013671702271110506,0.0,0.6100823055332052,0.5664238290359195,0.5432874225578794,1.8336255584292769,2.169921278119241,1.6953633001584787,2.0600776275442536,0.6447042257417027,1.941652558802672,1.462883724124998,0.919640818759437,0.7020721502755851
168,0.06684584033380805,-0.01091815392118865,0.0,0.661260439286563,0.6550721021317756,0.46263383362467986,1.7384718261866314,1.6592936155805966,1.6624793446046935,1.5007273098909921,0.62595550513784,1.8407396514497736,1.5637966314778964,1.6127879993193823,0.7275577138301894
169,0.1461993855353191,-0.006879688879993642,-0.016286185089089262,0.33713994354455146,0.2853709659607471,0.43883353949170045,1.9986023760129565,2.292646619490185,1.2838040499953818,2.561779637490355,0.5883313578629602,1.4732572544363878,1.0534440850086582,1.2804612753669562,0.818969804660408
170,0.0059445788442023025,3.881954462521672e-06,-0.0005587093132547365,1.5298286285396965,1.4854349284187542,0.9085530724794717,2.4611733491424364,2.6050896785554856,3.323374369135405,,0.6652988471865258,2.3770692042552817,2.716947698780025,inf,0.7926857018263886
171,0.2852725962644479,-0.018971317495045607,5.273470398746774e-05,0.820989867473376,0.8083183250087845,0.6421811713973512,2.7011079091075754,2.609607210076121,1.3317498809179584,2.3059690382901077,0.5947193981915972,2.0661085994786825,1.338093291203772,1.611445945237346,0.8753805349024851
172,0.08017086224025555,0.012182177060774891,0.016916085094619372,0.8497656927323263,0.7444952058923038,0.6335083464550465,2.1708084605176334,1.899161794053863,0.558738261235619,0.4106462622243532,0.6097226960127671,1.3440014489296392,0.4714361476529931,0.2317303845469081,0.8602965056434053
173,0.14214993742088888,-0.016175719011240437,-0.0018299397287388213,1.3927656776138608,1.3080397225109393,0.8393563776384267,0.9650919120657706,1.3857740846581013,2.6030196200707594,,0.6008849035917525,2.1258345812495465,2.3063164406069037,inf,0.7381120119925573
174,0.001046717808211671,-0.00013607331506751722,0.0,1.3788524015250267,1.354254326168198,0.8521065087355878,0.9721700672342548,1.1557794219521158,2.56058428884071,,0.62595550513784,2.041246995881867,2.279580018919958,inf,0.8000418966922634
175,0.4090748611100026,-0.051417409066748535,-0.06687366887455239,0.17406567852275817,0.09507064531201459,0.23999421185779227,1.351074989734107,1.470048742498884,0.836529071539015,0.5015775397996498,0.6584896970785714,1.1484680203530133,0.6613196513944328,0.4597925677809135,0.9406336112296871
176,0.0,0.0,0.0,1.6231338005672447,1.5910456906146304,0.9220946828802966,1.5143928763043,1.9259145858028301,2.2302533202415797,,0.6357360191111145,2.371577964480997,1.7261054990066182,1.6127879993193823,0.8471025374514355
177,0.3413286745443582,-0.04364544339922761,-0.039808602250307995,0.5688141866280298,0.5541718294325655,0.5237899903037604,2.0084442577191317,1.6948531782035432,0.9815938619505878,0.8377030063500092,0.6233814453054027,1.317763818712782,0.8275326657630783,0.6903977121296089,0.914666886821141
178,0.0,0.0,0.0,1.7023537509788707,1.671798161445423,0.9389965159597407,3.291525505041355,4.45724644889732,2.2302533202415797,,0.6008849035917525,2.371577964480997,2.2369311227726087,inf,0.8074724756562239
179,0.0,0.0,0.0,1.3206407802135267,1.29672768187743,0.8108645650947746,3.239575500915059,3.5997728144478183,1.8212103907855313,1.6060878255488185,0.6425374456860184,2.2697952701710546,1.6455666365226058,1.795109556113337,0.8147836727939972
180,0.0006966450799144643,-6.734235772506488e-05,0.0,1.675785301809071,1.652275725658938,0.9702685022006459,2.417085612915693,2.9784503484214646,2.2646547469589122,,0.62595550513784,2.3371765377636646,1.7605069257239507,1.6127879993193823,0.8375983450771427
181,1.3781782734350678,-0.3248599941188459,-0.16581214464725957,1.5543105743583026,1.5119546562213386,0.923653640110024,2.5844766181160286,3.5197051710155325,2.5146635492652556,4.26568328345349,0.6309483474627791,2.048890782830526,2.1702614299849228,2.9399174944475948,0.8788187725188045
182,0.5929927588364026,-0.056273680472958165,-0.0030255954106820915,1.5133876536797342,1.4766931659337312,0.8670718962222055,2.5186963015861026,2.4691645809233638,2.818237905843331,,0.6309483474627791,2.542394529660628,2.82491570837436,inf,0.8491849700703831
183,1.3061928291949805,-0.22805833241722223,-0.12461373146542248,1.5984390683345315,1.5733050782291966,0.9033608487915601,2.703109184434057,7.676922824099453,2.315872120472392,,0.6125606311107803,2.2108165308556864,2.05946998119633,inf,0.8668654166130687
184,0.8180195205685374,-0.05977327699451823,-0.07929004150213312,0.8632196127556789,0.8217437084475017,0.7095911145431522,2.932702132048312,3.6303083367192848,2.896577296599425,,0.6153451465759925,2.2957198240853187,2.397674595317612,inf,0.7638594445958895
185,1.2251344793881898,-0.22514348895429714,-0.028359351095210865,1.3979595397781588,1.3764756083539051,0.8352280506787159,3.603327416783658,2.8147341127837904,2.8238925345118333,1.9521133801206574,0.6008849035917525,2.4285263163518924,2.6800893861045667,1.5894190455436086,0.7467677133320839
186,1.0024291944011852,-0.16550054522482135,-0.03632370508719125,1.621962744181519,1.6211431368902824,0.949926721156277,2.689778314555993,4.466731604829956,2.4460940804931752,1.0121061216291862,0.5677978065141052,2.0723555952903503,2.3891953629228246,0.8456950390791633,0.7996984334352538
187,0.9216073743732907,-0.15336285309642225,-0.03027937852372386,1.4411901330003487,1.328812024872045,0.8793431417635377,3.044002544332084,3.579618115895893,1.8894968940354169,1.9894823405381927,0.5883313578629602,1.9317114296555002,1.6863989535702288,1.3063472146294743,0.880396424971833
188,0.12369494602115541,-0.011832459519850132,-0.0013616680557397795,1.4244461199914,1.3538698985043978,0.8543757290227347,3.548630934148293,11.525682757008283,2.8776516409091726,,0.5915533975974677,2.312635428847547,2.884329443440202,inf,0.8326632893871689
189,0.0699164772321623,-0.005453476939047878,7.855435929417752e-06,1.5504316629049355,1.5134235218548007,0.8912130258890979,2.8420743063008005,6.610536918320154,1.8844880367087742,,0.6038851895711802,2.4296611755620217,1.724433391065853,1.8781919750003624,0.7693817628409051
190,0.009385830484915317,-0.0010950135565734537,0.0,1.4240697239212299,1.3798193469472024,0.8758638356507161,2.7524368455010784,2.498671148025042,1.7578072487773664,1.9386495942109647,0.6284777104787076,2.156466584864052,1.758895321829609,1.795109556113337,0.8246315135991853
191,0.017500991062375487,-0.0021584555643596433,0.0,1.5776317619465425,1.5644311195308511,0.9407473308218189,3.2576236599067037,5.356728451648449,2.496000135815568,,0.6380535849069913,2.1058311489070087,2.502677938346597,inf,0.8011451340069472
192,0.03710943606405054,4.140231379214099e-06,4.13048253019091e-06,1.5576492442225593,1.5270351071194874,0.9391566828619823,3.1360775652252566,6.107798510137055,2.1793918634897915,,0.62595550513784,2.1132511435600407,2.145968061852294,2.817612403613736,0.8265031118317964
193,0.0,0.0,0.0,1.6105780159925016,1.5973644242199916,0.9177562685420424,3.136598765796382,3.010413670253454,2.3945563715328557,,0.6357360191111145,2.2072749131897207,1.8904085502978945,inf,0.838112764138357
194,0.005625674003096503,-8.909098278070556e-06,-0.0006661717820935098,1.4805634527603506,1.4675045689293418,0.9258225747262474,2.995123757713112,5.045778944921317,1.629164284099582,,0.6233814453054027,2.125369140235791,1.2004116021416098,1.2860784317614868,0.8696746495268072
195,0.5430109503740841,-0.07023022905714177,-0.00017937758137574243,1.4570474694286517,1.3992385494023927,0.8889432420952736,3.064454871254201,3.036815103976753,2.1579822842257474,2.2393145677350876,0.6180765742263259,2.2093983782679283,1.4317496730248183,0.9887703043845391,0.9000583381656814
196,0.029039330164539724,-0.002516741947593443,0.0,1.6201058536745399,1.592914321814393,0.9324655951501947,3.3385417541884874,3.5038563021118088,2.5410152071659056,,0.6357360191111145,2.4662811856648355,2.1422279015887704,inf,0.8428058140642215
197,0.0821967174088788,-0.010224429712325327,-0.000735132608858512,0.7243207120938189,0.6255831216741782,0.6041581508736174,2.344195864440693,3.3709042910888942,1.7235445939640406,1.913474153352378,0.6309483474627791,2.0600747391889858,1.7297306335149112,1.2275189095431556,0.868188852684394
198,0.0,0.0,0.0,1.5974625757360585,1.5897174741998155,0.9000881174031184,2.401180865603703,2.4776936236099347,2.635718428349744,,0.6153451465759925,2.371577964480997,2.2369311227726087,inf,0.8246048626818033
199,0.02082469127006906,-0.0020130534894400092,0.0,1.6818099029692086,1.664976990343409,0.962882251321929,2.1607995413997316,2.4102365438581526,3.3482012737878577,,0.5713653840954815,2.3522422996028287,3.354879076318887,inf,0.847202632497232
200,0.9760036216755372,-0.014528409832334999,-0.10189875152634298,0.9607026106591121,0.9641252328994401,0.6754835539552411,3.1334415635787964,2.811240220616845,0.9075754234501539,0.5883309121958454,0.6447042257417027,1.2235710080735889,0.8211900261361615,0.6237479922719271,0.7898992500012362
201,0.3689523098374238,-0.009647650857829163,-0.056569246369187934,0.5668749211042996,0.5435403713708179,0.5640633262868263,3.0433750492718112,2.4685040094599184,1.8487110509468856,2.333749524842728,0.6284777104787076,1.5146329107157908,1.5575005607158146,1.5241870992795037,0.8231437390005095
202,0.05081054923642209,0.003624143209722191,0.010258490911894336,0.5582844521090928,0.43586320693083946,0.46435357111277653,1.9575607524654384,2.041455498434743,0.5350584985845054,0.5736039351862274,0.6333676938231112,0.7993722673825998,0.42016548921439006,0.2985878559053432,0.8183807754234603
203,0.0905684969864311,-5.621604634315977e-05,-0.015642323431304898,0.8023385516286111,0.7879423684521044,0.6426984343770101,1.2187547704542236,1.2438178149255485,1.5158484454091616,1.7043136988817467,0.6357360191111145,1.788830429722175,1.4146095870161863,1.1207370849487455,0.871103416653018
204,0.007556180501832552,-0.0013349252219904174,0.0,1.4739013052764478,1.4545694246847471,0.9318776331520024,1.1503335164292903,1.2659141653820623,2.308068785105038,,0.6509067234006624,1.739736441160903,1.7701603574245932,2.2005746642215014,0.8118258259396586
205,0.009023701055900885,-0.001173081137267115,0.0,0.9245146008830788,0.8825276824058678,0.6038557107938843,1.1846138695762698,1.2938798943739578,2.553974539037181,,0.5915533975974677,2.047856745685396,2.272970269116429,inf,0.8572528754071533
206,0.011361851831294588,0.008463900555582342,0.008641077243408287,0.795448274712534,0.700143073033031,0.37296887062104356,1.4146571658378224,1.2652542399328133,0.12430644030133041,0.1522828114992707,0.6602640781246099,0.3189205067079786,0.07422085171135387,0.06908812352568174,0.9229249728451312
207,0.6734170138764394,-0.05723461025713486,-0.044324003555000456,1.2699336232152714,1.2664444903964345,0.8133441139361125,4.312820531503551,18.699671107940624,2.0384746656701744,1.7873090151915065,0.62595550513784,1.8780438378250675,1.6152688327448936,1.3660331759800688,0.8549695043171466
208,0.48544344287612373,-0.04761455519805198,-0.00871723749001288,0.8772492352278826,0.8381063087307902,0.7009127406173592,3.2576230451345,2.3203561062493483,1.1154108987964568,0.9179308900198101,0.6684167106117298,1.5826337096820493,0.7612364479956548,0.39429566732912946,0.9231825772726212
209,0.21826073417856698,-0.0252461736548212,-0.021686300964455642,1.2548966645258646,1.2184882462151658,0.870493459487641,2.910867854217641,2.38673076787567,1.0578530234949017,0.8171648453120273,0.6566669596287297,1.3736194724202961,0.8514903084054588,0.5333569061904709,0.8105406446905331
210,0.025673917617988883,-0.005562682150564258,0.0,1.115942244355905,1.094471503352309,0.7766081981119358,3.59118443872295,3.219381955087301,0.9302066618388055,0.7725021582548169,0.6528756675646988,1.547089287369565,0.7588347068899952,0.5713341244912212,0.7895861416702344
211,0.21613284676577593,-0.01686968680012358,-0.008320270372353701,0.9197160703671545,0.9012870918868067,0.6929877157282209,3.045918405858955,2.931205977366967,1.6048418315441122,1.627897999991428,0.6233814453054027,1.5684026073328317,1.1529017094477942,0.9194200954462631,0.9248659401855258
212,0.05223487117481652,0.003778870993336571,-0.003990895316342755,0.6501172643769426,0.6274368239519804,0.543267920747239,3.382164914026391,2.883024920240644,1.2075588465236318,0.934613119554883,0.6528756675646988,1.452671608716374,0.8544794479984498,0.5804246138793396,0.8896728920760937
213,0.17503436616117082,-0.01894818254714551,-0.002056521481101928,1.185710781742636,1.141739401796921,0.7141829616063414,3.4413186551781014,3.598568900319833,0.8679220907257195,0.6320557212518331,0.6509067234006624,1.4917536470874422,0.7980249118593851,0.5900489850736662,0.6869524407208001
214,0.0,0.0,0.0,0.8435358955532534,0.824932260752545,0.45006540067381784,3.3600696006768236,5.088268214013493,1.4351412130249461,1.0222505707009584,0.6790044388599258,1.6262450307504817,1.3082876229314528,0.8300286600697498,0.7988621832517779
215,0.0,0.0,0.0,1.2121397539025838,1.2079118061599998,0.8209543035773578,2.976557741200736,2.230477434707823,1.3278956826713486,1.026269330295876,0.6284777104787076,1.7334905611040792,1.3345734852023778,1.0329695040664402,0.8532850507994048
216,0.2668741450135056,-0.02197164021920658,4.040487650134976e-05,0.8948241831838268,0.8763605951118372,0.6326032064704864,3.4217335773562607,2.4625150477782056,3.653189522630762,,0.6652988471865258,2.0472540507599244,2.557916135228167,5.703782474656201,0.8111559579155788
217,0.10253556383668287,-0.016289813984577912,-0.00042624352650859863,1.210144897414744,1.1855334607849128,0.8125258339316993,2.9404980678922823,1.6312152680790133,0.8333066901882732,0.49599747875331424,0.6668815377411301,1.2374146915485684,0.691004869105559,0.3843281079376308,0.8646995466570216
218,0.11223069293694321,-0.0005244871021726355,-0.0005592742489422264,1.136451812654163,1.111856655128304,0.7888789519059146,0.15021320241179775,0.14120115736567884,2.014923549432075,1.9425600621700312,0.6125606311107803,1.7396098749032984,1.4963555940636404,1.7796823669528612,0.9523887660569575
219,0.11897065619476699,-0.013483341035406925,0.0,1.428719490275596,1.4206012809117132,0.9117697302578749,0.03653325538123165,0.04480976817380998,2.0914016777034905,,0.6528756675646988,2.222747534567305,1.87493592892031,inf,0.9478361538566117
220,0.32251593921924687,-0.055078204045945114,0.025778590921231845,0.7245233027173302,0.6354436821021155,0.5940485515006407,2.250246719786697,1.6072738397841255,0.2849020366438353,0.2884192709764332,0.62595550513784,0.7686133395893003,0.20689675194482593,0.1259729805590039,0.7946419448274762
221,0.7550905101966693,-0.054314609087871446,-0.07793416008714159,1.1649724713277012,1.089722793009674,0.7872996200842584,3.7317340532838217,4.119605016808384,1.706247272365283,2.1689950467130794,0.6403206450210053,1.772741463392293,1.6089801417692056,2.085672091430472,0.6513743535514783
222,0.9722663129811692,-0.09422585410535333,-0.12868216022473644,1.1204213248059114,1.0962837124153817,0.8025293069752543,3.5527008649614618,3.066943371869373,2.282609532398913,,0.676637947632344,1.6647157427390868,1.8838222268217777,3.3372384027024973,0.7875006628213959
223,0.9965613933904337,-0.1576473738601054,-0.10229487277796809,1.2478500391592813,1.2067471736163105,0.8194373155402074,4.244897604169668,6.422828846763499,2.095628391392309,3.4181052216771586,0.6547956803312163,1.7861087977192407,1.8554630721854866,2.606937780193146,0.7335068797473936
224,0.8724786298385899,-0.12654899538607361,-0.015508390131432986,1.221364654773446,1.1934322139906621,0.836680468385686,3.3795618023536296,2.7687991352375345,1.3728399345078817,1.0571779518119946,0.6684167106117298,1.6291872078191183,1.2192751469998366,0.7948065880429289,0.6159900536860261
225,0.18868101821872338,-0.016282992891916356,-0.010484042372154442,1.1578204459163295,1.1112768316503747,0.7805399804254015,3.855573836092456,2.685678235763219,1.1281330724974659,1.1114652036236634,0.6425374456860184,1.4230966676439953,0.9832452892733418,0.9678889765150039,0.7149219807906024
226,0.5676993854806169,-0.02042507885069411,-0.0660420249984802,0.5044453672142684,0.42170634690535547,0.464624705265295,2.2877315198382178,2.541419308810174,1.5105428357369817,2.806648041036266,0.6602640781246099,1.3086751004437889,1.2482289298514615,1.4823212327057707,0.921045667050255
227,0.4111207623524073,-0.06047102569133463,-0.0005439476408159102,1.1077070979154255,1.0723219157518433,0.7710435717625016,3.2444560406730907,2.183877921897757,1.0103373316153221,0.999672247606479,0.6309483474627791,1.3841633001109366,0.7194798636037524,0.7011015082140388,0.7987035333261769
228,0.42746123770643296,-0.01290071184771957,-0.016932790811567185,1.1787112533603656,1.1549689793528235,0.8240523335727332,4.261032941648395,18.707489950880536,1.5241963783449588,1.739792329295376,0.6468212168108125,1.7416368598248444,1.3574825691017978,1.3135955345526893,0.8610158254555791
229,0.15856020266334003,-0.031984217699044505,-0.003936373080789959,1.086264571884125,1.054218097284417,0.7776490919539036,3.3353069059050355,6.344361352739175,1.0526556317587472,0.5668568194858964,0.648888643467878,1.5118575840952364,0.7977521238357739,0.47190764505307253,0.6109743097314232
230,0.20461380901217746,-0.0108291825125119,-0.006299709833742756,0.7388698704766673,0.7154916892067429,0.5037703363384717,3.0668430349723637,1.5865584069860863,0.98686331752934,0.6084854653196695,0.5883313578629602,1.4512477831317419,0.947236552018683,0.4507454794145646,0.8092531965549444
231,0.1059657811544238,-0.020486717689855268,0.0,0.9874369322161638,0.961728715511616,0.7285926442744375,3.502942754280821,2.1438585709766316,1.1868572365306673,0.26530729074515513,0.6333676938231112,1.6799796017680453,1.0314095005996795,0.36002503082401427,0.6763026934669905
232,0.3802126678637015,-0.038044513877998655,-0.04692278642180047,0.9684861981776923,0.956702588934711,0.6763127482880437,1.9416000693467292,1.8397926623498608,1.3989410817128367,2.103983947234599,0.6403206450210053,1.529959466490378,1.1398320224947418,1.468156710719113,0.9317768947190875
233,0.07368377109021348,-0.012526241085336292,0.0,1.1618387359098108,1.1500976039664041,0.7841195922002195,1.745622632364863,1.7547415499892571,1.5112553891759033,1.295932897244979,0.6584896970785714,1.7912929114164124,1.3508791070437665,1.182005083226928,0.8168244147062744
234,0.11788475852022523,-0.00018948188475600633,-0.019065028673547448,1.1305120550999266,1.132130332113755,0.7785731417541703,1.7976756127939075,1.877679228067184,2.4464714563515204,,0.6207552362147116,1.8339713180373645,2.0808333303526583,inf,0.7937002019952945
235,0.48618931510845265,-0.09155656402401846,-0.0036887113721943907,1.1375674540898086,1.113623716689274,0.7978650430860411,3.5146455129784537,1.9374437193522027,0.7036164772510477,0.40586341930707054,0.6509067234006624,1.2857052103409554,0.5465985142026808,0.24980804569207857,0.8983923808932693
236,0.15195960518279364,0.00015120884204086055,-0.008210115104111668,1.0086347614133049,0.9687313014096987,0.7054044982770178,3.4160640843065524,2.7404460578069076,1.0518915083430829,0.9505602029113752,0.6125606311107803,1.1089993815545967,0.8099118733339419,0.6770014462768214,0.8222885319418782
237,0.3786511158236248,-0.04690415885364156,0.005392189499063421,1.2334057798778824,1.227841581293852,0.7815327715625987,2.727044965398524,2.4372880060740685,0.5870389399217014,0.38642988427131,0.5947193981915972,0.958763393551711,0.532990253535731,0.3444454635727867,0.9127115853677198
238,1.020633699982614,0.040727742577359616,0.00705362375078078,1.150046417399579,1.0797025376681733,0.7928568396806416,2.6540369749978105,2.04539987696151,1.360701876309844,0.8721602704989402,0.6566669596287297,1.472869469652081,1.0083107983951056,0.6561155698285912,0.5183242499779768
239,0.367453077113874,-0.04129979611675047,-0.014886401556434333,1.1466490250395116,1.1227415074989222,0.8127676793698683,4.497876872374777,11.669696737309247,1.8709143264658568,3.8876678964188613,0.6333676938231112,1.7644037392182,1.4054174062032694,1.4936846175795855,0.8609344358708731
240,0.6927376307857834,-0.12362874172085442,-0.019067199760277088,1.1912271578902671,1.1429394327251716,0.8095178294662074,3.6103286002474104,7.251973907348935,1.5631939793235952,1.3027864750929932,0.6547956803312163,1.711470637999252,1.2132855467587436,0.9636588068845834,0.7785756177865132
241,0.709080918720042,-0.08685292086565602,-0.08673670561330271,1.4406854690771747,1.3805482994085174,0.9113534897950845,4.1726747692005395,9.245013184135964,1.7335425336984258,2.141873894448472,0.648888643467878,1.6382375584632107,1.351954534715165,1.3794668926868445,0.6543721845574342
242,0.8360939753295437,-0.05139748123049165,-0.09663664864274712,1.072990878028632,1.0059669049713218,0.7187261509541488,2.6732073464687605,2.55863098288631,1.0423234221392783,1.1123344320424893,0.6284777104787076,1.2314962718597333,0.84972462972018,0.7486203565762191,0.7135514220191985
243,0.446578548041812,0.05584971447897824,0.03830129386585146,0.6073365463824913,0.5494214804890146,0.43388422297658163,1.89339755076227,1.4868991974278942,0.661424590756264,0.8078189452925324,0.6097226960127671,0.8173004632241723,0.49462881594041147,0.45429240627563255,0.7444757227654281
244,0.4318731800605054,0.01858946072208678,-0.0005825487525167872,0.8677055995923038,0.806097745902369,0.6330279345092404,2.8103503363983022,2.3326559833126286,0.6827465195409103,0.5073156222526127,0.6425374456860184,0.9798815540721117,0.48290995579861956,0.350736517830472,0.7744277356896835
245,0.14941138338639384,0.021226919817342725,-0.002291886526868514,0.37943480340877395,0.3286617131742526,0.41511292877692263,2.1340659382992486,2.084197753966142,0.8580970351371879,0.7630303352250807,0.6309483474627791,0.9826382957506724,0.7156915486875213,0.56717357365132,0.935395339617263
246,0.44997185196979034,-0.027025513172282023,0.024002121022337952,0.6792457360166189,0.5545058695679436,0.521167589879703,1.9392024474364509,1.7565682285601343,0.4757231841450986,0.456426587658419,0.5947193981915972,0.7040957873025021,0.3133974500808156,0.25523437153164735,0.758873561697484
247,0.3631262913642207,-0.024329929697843977,-0.01341651916533372,0.8437493593446974,0.788284746013218,0.4810350244325383,2.10339299614391,1.368272854679161,0.5974963133593392,0.5220106470488183,0.6309483474627791,0.9950934678896545,0.5144991095747297,0.3693964743765979,0.9319184807774106
248,1.3353848536408508,-0.16751671414284258,-0.2117707443283513,0.9980583443381048,0.9461713971483192,0.7182618908752347,2.4695102732114242,1.7744993131155051,1.0952856173564323,0.5969017623491086,0.6447042257417027,1.9462324232022703,0.9633221541106683,0.46014413728984566,0.8302188841891416
249,1.487442031268483,-0.3947945440360526,-0.10728912119037544,0.4871757679046883,0.39110819709841443,0.5508346944999554,1.9453824262670207,1.6113093271514205,2.6843188163262863,,0.6740851607140061,2.2884630577704907,2.2346152394991288,2.430139355789275,0.7730908279706031
250,0.4336084848052841,0.06437408098371855,0.023674235768637142,0.5217252209350177,0.4988805465675181,0.4952634008167741,2.137707327708925,1.194497952285623,0.5994867654240489,0.9208639171877625,0.6403206450210053,0.7970273110473374,0.33766130620346246,0.21756938646529506,0.9102189502536484
251,0.814402037340664,-0.068793489316093,-0.04284699147264437,0.9036756685679165,0.882574459906536,0.6342203487328818,2.6913986666468643,2.12745129787207,1.2718179633723543,1.3339953088553327,0.6008849035917525,1.4257284303652977,1.017268816345493,0.7452416086955203,0.7150401693811159
252,0.40551304254964626,-0.021047919194242093,-0.017917389218873703,0.8275444919621114,0.8069504276021896,0.6352322051308258,2.561750481905338,2.1817721019014313,0.7891967733824734,0.7708277631822593,0.663668482632973,1.1926299707742312,0.6566879923151121,0.6766884975840829,0.9441108564892392
253,0.7670911962941098,-0.138683695361714,-0.022536558374530058,0.7348863215164955,0.7009858593070606,0.5791715726404363,1.2036153345472698,0.4896793046478558,0.6171101755560474,0.5352378721468357,0.6547956803312163,0.8759488525907773,0.39884388811452404,0.22335228741786461,0.9623599781916827
254,0.09274777214609314,0.0015619640228462656,0.016946783140746408,0.4236852223982557,0.3546372299221143,0.3025601798313056,0.878710726524507,0.6583098721561226,0.05266462950796342,0.047968110743092575,0.663668482632973,0.25060039754724905,0.056121038005395495,0.04472908424928151,0.8557284919797374
255,0.24076580260860142,-0.030502129062795633,0.01333409258305604,0.8498146793297175,0.7840990138960429,0.6452245153576986,2.071550488975554,1.243632837429161,0.3935394207048965,0.24325945087203393,0.680118107274185,0.8323837054355008,0.33154963268783827,0.1862219763806784,0.8401806903251219
256,0.18565632042606348,-0.03365221217870491,-0.017745766332555937,0.9106856366707038,0.8711355287436936,0.5341280540584563,2.2370602499199657,1.4305795188589876,0.45585870614750534,0.3544493697989154,0.6403206450210053,0.7017171312430124,0.37598203584489026,0.2117104968552053,0.7473485451296418
257,0.28284606490856,-0.005076275554179777,-0.014989497790700287,0.6564156180798842,0.6339131761848473,0.5542214184947101,1.759423723583657,0.9657399534013995,0.49974009609467435,0.6211845830717551,0.6468212168108125,0.7942697753232215,0.3795690595873585,0.2953058753256711,0.8773902649320828
258,1.4328115324267294,-0.1490395371989342,-0.10994233531481584,0.7700007192048114,0.7242989709095944,0.7033279991000967,1.648865882896454,1.1833191753989718,1.2732039649802316,1.1621450519286733,0.6207552362147116,2.0661963149298153,1.0586327541808325,0.8573779931746028,0.9503573120107506
259,1.0594448245905848,-0.14337293083074912,-0.08983512727370557,0.6892211167176668,0.6407633415789666,0.5361902859630471,2.927350979400583,1.579543107690149,1.8546188097394334,2.8106778182152823,0.6668815377411301,1.6474859800716302,1.4244076544479247,1.261554498595485,0.7801545006827151
260,0.7270556360211943,-0.10981951461194708,-0.06176101310528715,1.044115375135268,1.0162387479870594,0.6598544662857395,3.184015263025919,1.7129255747894838,1.48711125288194,1.3296341958419904,0.6380535849069913,1.5351553523471355,1.0848839714323613,0.6958982139318352,0.7062116079259982
261,0.6405030569504387,0.02161184949668782,0.04444305509221208,1.108676295510245,1.035200706901466,0.770960655263968,2.8950883380722567,1.85632937499269,0.8012522960459835,1.0351762498010395,0.6740851607140061,1.1254697428379923,0.6036905846335426,0.5627046540188052,0.6956722152774106
262,0.3591424369221799,-0.0432494374597035,-0.017264833050520442,1.0988916642539732,1.0330674064823642,0.7576512240242611,2.5939338201737834,1.2570720452505806,0.806268150473447,0.6716083139669818,0.6602640781246099,1.3875840813404696,0.7405809600642551,0.5654892794137529,0.7539627048760329
263,0.4189637336703531,0.02134598696255363,-0.019920157992964593,1.1137713845966055,1.0780511154648942,0.7608601282733768,2.4761382194736146,1.0364857388227384,0.6142090025299478,0.37182530650169743,0.6357360191111145,1.2779383364822658,0.5406443467896648,0.3790419740856285,0.7762941111352251
264,0.4796323725291818,-0.027794469990043452,0.008825903932333373,1.0550168966221984,1.0330774195016765,0.752987254409869,3.659856728555087,3.7299025108139823,1.1705903326859664,1.4454323173214965,0.6528756675646988,1.4016561966771262,0.880146357134391,0.8619142641319786,0.7598166344962086
265,0.059467269028307186,-0.007184889626451269,-0.005021640920112963,1.1693718697958329,1.1230448165530857,0.8266941382945167,4.288472909973251,2.002525915919433,1.0666002633170617,0.43593722249694355,0.6468212168108125,1.5141782389557035,0.958009638424522,0.42803221657075347,0.7101808076102931
266,0.13630583419909786,-0.024956343367861244,-0.00436002851382555,1.1323584642323137,1.1179677840527245,0.8059956971072746,3.7663906099977797,5.46392283541099,1.0593890985408325,0.8395136756703815,0.6357360191111145,1.569042675628633,0.9206755311565893,0.6039944751289724,0.5841527399788619
267,1.1245125485881617,-0.0005006717902664715,-0.21870252905269177,0.6514270316087718,0.6365598349736592,0.5652879867960705,2.404084214012753,2.636812616747757,1.1185063792831866,1.114970301518466,0.6233814453054027,1.238449233855909,1.0454231502059825,0.960321248790599,0.9403548435515487
268,1.540335178601025,-0.18318370173479934,-0.09630892658111916,0.3943472455130873,0.34838338872395946,0.47837585198499544,2.231687084671428,1.8943506080067225,1.8314404830086066,1.4241380606373075,0.62595550513784,2.6747766243392848,1.6697401615849452,1.38972489621668,0.7615140002253205
269,0.9822237827776448,-0.0876274469974205,-0.07569218787043983,0.7941992266287686,0.7675238104395405,0.6060396813383656,1.9467552644758144,1.3872833436961887,1.8362912895788588,1.543610418044918,0.5915533975974677,2.2553834915097517,1.4738551012957646,0.7313503643714676,0.8572837352699845
270,0.5549587208071243,-0.09546841262945441,-0.061320068947795764,0.9304690416049176,0.9138271486882407,0.6056464559015471,3.212802558386814,4.66845231998428,1.2119506512107534,1.2172881435175475,0.6584896970785714,1.3976025022692684,1.0242667525074278,0.8782768828157312,0.7134498518281407
271,0.42979308806279176,-0.06217504747539321,-0.020408584887915943,1.000496455402685,0.927103529390184,0.7069763598628339,4.2793126345444,6.201698158448066,2.910825299416499,,0.6602640781246099,1.7954997888437783,2.649821696202417,2.270895582037063,0.6004229787668337
272,0.7448814257618197,-0.08205821583775873,-0.010406352014749348,1.2346602957219206,1.2342376525320304,0.801522673002884,3.516759617874593,3.0653194554766054,1.5542924743608504,1.3181967951126166,0.6309483474627791,1.7304762408111565,1.4290830069006248,0.9543079809991833,0.812622804842462
273,0.14850474116488585,-0.025634558352507025,6.464406162253779e-05,1.1463407941580777,1.130326820609283,0.7951269904113003,4.8722032074308075,6.8988421258080805,1.124017463327319,0.8746880877798412,0.6584896970785714,1.485991929229889,0.9559829531745987,0.48464600816679787,0.5999470046404782
274,0.3444244417208248,-0.03418582179490172,0.007335975689005014,1.065047141975231,0.9751841735373622,0.748009632348484,2.964010804083813,1.5456297979325022,0.5293632848009535,0.3940974812901053,0.6403206450210053,1.2300506351474945,0.43331561931216156,0.22961416212580407,0.6900566799496385
275,0.07365058628992457,-0.016185953974716588,-0.0011006291397163354,1.1786847061446466,1.1070117816898253,0.798283599012568,3.034737327979851,2.1122163505324174,0.6305703503944051,0.3976417330963151,0.6425374456860184,1.206717307773222,0.5181938100303712,0.3495649942735727,0.7196265683574166
276,0.023145626255067348,-0.0054777982136992726,0.0,1.203597567226405,1.1644310696333158,0.83313669029794,5.6105382001965065,25.611134663467276,1.2033920007715662,1.4317344384040405,0.6425374456860184,1.4525291348956975,0.9587553750216891,0.8142803031016107,0.6604307844199663
277,0.06662451789109894,-0.005583450302924542,-0.00927342793599356,1.2769249551076793,1.274168761128519,0.8547614137329549,3.8235736381992274,10.38160700590377,1.028076690429797,1.0634056111446815,0.6447042257417027,1.52616964325109,0.8122729360006669,0.974743925087685,0.6167960306719846
278,0.09427205860489363,-0.007763421163787365,-0.010776750361841714,1.0040715670058653,0.9728752680621591,0.7456237244773224,4.375746272726213,3.385284651702565,1.1904530279596415,0.7716863757711434,0.6207552362147116,1.6584531019198299,0.9561067560950413,0.5309622473305897,0.5565824449082494
279,0.14454380145054874,-0.008705284330013406,0.00686160041981166,0.7186586270189811,0.6436961694068551,0.5613659233977129,2.52120367324493,1.8463289634250688,0.42634189353219476,0.4995944386638702,0.6008849035917525,0.7869695787714854,0.35361119471912594,0.3104773193100265,0.7123775851831872
280,0.8111594099123786,-0.037459670897970254,-0.12987666403461884,0.9315774389748664,0.8902659158836322,0.6144574528912121,2.8477068842068434,2.890716803546279,1.2989481166413448,0.9677202832315277,0.5883313578629602,1.5789625939680632,1.137792047764293,0.7606041008953629,0.6788303054003533
281,0.41016194168764475,-0.036616129359271776,-0.03880602202906523,1.0352945123950479,0.9383341599479629,0.759774327697758,3.0808934884882655,2.0988038916204044,1.1241242889414027,0.836131092693605,0.6547956803312163,1.4556206215080798,0.9633734515892055,0.6598782926695496,0.8306347017258657
282,0.3755804807525067,-0.034046081149683965,-0.02243712753049586,1.0378737044744253,1.015169471139151,0.7521016946071136,4.0198264352468565,30.329567494597047,1.4967868866713925,1.7861624395296483,0.648888643467878,1.7076634488749531,1.2676128161116558,1.1311408784697612,0.7231154234060723
283,0.3810806905547205,-0.033094292446399096,-0.035101678644375495,1.1598892815648318,1.135844327337314,0.807475339547623,3.9083503481265884,4.234749961475566,0.769393158086229,0.5538696609855143,0.6727386042041725,1.19131254395703,0.6064649975965881,0.2972515234679316,0.5782364885624371
284,0.2766395513465781,-0.01462115263202364,-8.715272669085339e-05,0.72851439343568,0.6752860343148946,0.6270412778243575,2.814620391813997,1.715587652296232,0.6515192861558805,0.43652442500686506,0.6468212168108125,1.0654676900758075,0.5329753327361877,0.28718766202613033,0.63224315347736
285,0.5974287381874891,-0.03268459308784771,-0.023886285733092316,1.0712790647223804,1.015208273726493,0.7467436744318285,3.140151454490359,3.881837150424034,0.8200308062456176,0.9271649928534063,0.6425374456860184,1.1485731378218818,0.6418538861723948,0.6121011865278218,0.7350339115352469
286,0.6446449078142984,0.11400288962593763,0.06356410654679062,0.8442224969665792,0.815387483390429,0.636282066767801,2.299371688830299,2.088191080754774,0.6464879193083256,0.6995973434980406,0.6038851895711802,0.8255363686056909,0.4673890897087516,0.34645633049273,0.7728628110838427
287,1.2088823132516933,-0.17872028628678804,-0.11057039932868412,1.0859571480959689,1.0257276177587409,0.7983309258700966,3.2845063365690974,1.7439209909264215,1.4242010993539171,1.0776168747107193,0.6284777104787076,1.5463587890328803,1.2129847064568804,0.8241754429663495,0.7269012990784983
288,0.9640599031144351,-0.14811735491625863,-0.09452783871366625,1.2504297215405673,1.2013041246360179,0.8316651045753949,3.9563505406780153,2.8110481377415524,1.8872386230134512,1.7441328677482735,0.648888643467878,1.7738540653592205,1.5703330615861553,1.2710333948962171,0.800425093264572
289,1.0172174474889468,-0.14408421220674977,-0.022541001839306782,1.0608941561571703,1.0344630963045278,0.7562153502336767,3.6733172645744956,2.3150341157619687,1.3049976002206485,1.6233836332870832,0.6357360191111145,1.823318938135821,1.0991628736785775,1.138427974321465,0.6607766852717991
290,1.1860953886769785,-0.050394117554539763,-0.12872500287392746,0.8098906961842129,0.7500453382983334,0.653344037759027,2.526205317048644,1.3768772374899636,1.7608369333147225,1.522652836006977,0.6528756675646988,1.438664258228042,1.322259432481236,1.165649095733599,0.6970699444886701
291,0.8407758293183955,-0.08904074367206277,-0.08489457431510722,0.7755392401056306,0.6689468039682678,0.6283278031481496,3.2133025160186044,4.114573113177973,1.2296286296903385,1.6261458295615514,0.6584896970785714,1.3173074155764235,1.0058205786489516,0.8965815113914031,0.9208138016247365
292,0.7232257833014774,-0.10974477976502522,-0.033423432510599094,0.9320790787709939,0.877568495842625,0.6581362921481964,1.9774724590710764,1.0818433838988257,0.6108590808537901,0.4508313556655034,0.6447042257417027,1.1136920861032034,0.48228132537760776,0.2990746472531749,0.8651149690458327
293,0.2770943075370535,0.025768143322634912,-0.02193029552747222,0.6613642077274465,0.5784558875213472,0.544064208572014,1.5797064749368084,1.1785851533270695,0.4693240847363227,0.32595343902600066,0.6097226960127671,0.7002836961292651,0.32226301393804263,0.20556700721138393,0.8857890117471284
294,0.3987974873516831,0.007729098773393478,-0.012289580783298226,0.8079933399905707,0.7541171976823683,0.5879434160192113,2.188376575318941,1.7924230009616204,0.710507726282381,0.6213814308141078,0.6602640781246099,1.0171859233059144,0.5857178277772547,0.41483662427925605,0.822200697813316
295,1.0621039807819952,-0.16400738460812503,-0.08587226968954076,1.0382794556291854,0.9991775686764881,0.6814842076484373,2.5364399504627007,2.3548598307988593,1.20310811240579,1.0476494061130772,0.62595550513784,1.6686572720940716,1.005635832210005,0.8570129627050992,0.6535938521895859
296,1.8702919662782944,-0.13457897934275165,-0.14092730167852008,0.8598187712191956,0.8046945111886198,0.7579673909545676,1.8209583833194771,1.337912859378493,1.3034681727305542,1.0683299965912014,0.6284777104787076,1.90761935532259,1.0283775805998503,0.662838706645563,0.6667230361941656
297,0.5352133671178088,-0.0391686502481515,0.02057997648091192,0.9451073536348131,0.9084438813403339,0.7012781054822613,1.8639825120666471,1.2425846907881126,0.6350232952529858,0.5177642391027397,0.6068309995095971,1.2348903069607375,0.5126609076029971,0.34847148226351743,0.954226205591933
298,0.3174735580814528,0.035388102467072136,0.005545300739421777,0.8365283476457317,0.7978554458474232,0.42287914162865886,1.3450379924254112,0.9998358251433928,0.5478776236996205,0.4837172748897761,0.6309483474627791,0.7601420493842237,0.4062138913704055,0.31885063527139346,0.7708574158628015
299,0.35324238606041813,0.07748546844609,0.010511433392638131,0.8603857847260299,0.799312207180027,0.6837150287543454,2.6573126551625528,1.6966676413109298,0.63961348325805,0.5464825464400604,0.6699045166045591,1.1155211070710236,0.5309842828375283,0.49263897635114273,0.876607472293391
300,0.24405989105227766,-0.02191676099054908,-0.022802218291240337,0.7883946731702891,0.7689444067203258,0.4058069621458682,1.563843072539797,0.9525446273014326,0.5865762234831648,0.4712235889749671,0.5978297680564633,0.8612240102707958,0.4919794980713505,0.38811636412783923,0.8830689655491235
301,0.08372345869214312,-0.010910594021810268,-0.01674222819813268,1.1085939746123161,0.9857507452031483,0.7611155705403736,1.8885110525391404,0.5776267818979866,0.24746898435071005,0.13931215432466193,0.6509067234006624,0.9811255932124429,0.24581261248860925,0.13655150276557512,0.7678692769414818
302,0.2617745473775,0.03129165620858476,1.0564671621027255e-05,0.6726057033916558,0.5741027483217284,0.5426939980168586,1.907297707559215,1.2621240900416308,0.46623650732159744,0.43503137110405515,0.6008849035917525,0.7147113584757858,0.33943757348580367,0.23869556452630986,0.7386640894022243
303,0.3311527442064054,0.036727273734645155,0.036509174116798215,0.5804463053828205,0.5090966284063934,0.33624115654982617,0.8735247357321622,0.4971884004625825,0.32376565996573653,0.36880996555303963,0.6509067234006624,0.48942659528903726,0.22419543846029372,0.1671943099311643,0.7456477384608201
304,0.5901515609256663,-0.12519120484623927,-0.08076761333667465,0.6782149505884144,0.67354777223895,0.5311826104289155,1.4919929393595053,0.6816492953585118,0.39357360784143847,0.25821741139922244,0.62595550513784,0.8161689142645305,0.3217040883568817,0.1917890089320045,0.8607314082184234
305,2.794931420547026,-0.35890915788305455,-0.1988386082409297,0.6323519848169267,0.5141712838598835,0.596302667090742,1.1094268686947404,0.8561300681454556,1.3677866171539308,1.1180473457100917,0.6068309995095971,2.156082634005044,1.1091280384575242,0.7596078271109222,0.7200552296910413
306,0.7042874475390006,-0.16510191757745304,-0.06255379221642132,0.6313805152619505,0.5545389986076137,0.5468568118745298,1.5532403731730289,0.8010613437154039,0.4912351529775746,0.2669096288099234,0.6468212168108125,0.9427202687111355,0.3779112036094748,0.2368994451897536,0.9025891229565026
307,0.8523995977209052,-0.13488927433465597,-0.09174314242580253,0.763502437502483,0.7180049926554256,0.2352774583029339,0.4919703685598737,0.5422419509148588,1.1259388910329355,1.0960109233541,0.6180765742263259,1.138254423940553,0.9915919180657182,0.8095055981116122,0.9199116497579918
308,0.25935842112187524,0.12395364156945643,0.08046591429200117,0.3811021420357356,0.300167168274116,0.2963230659757258,0.8946533936389439,0.8269805453213548,0.48211654646185115,0.5763382323293998,0.62595550513784,0.47374394886145876,0.3061964506681259,0.25933436979301777,0.7813901779184295
309,0.03925120155628929,-0.015487162552700919,-3.940297777358347e-06,0.9040738930609632,0.8594053200591705,0.6604306725490465,1.8952822916802448,0.6734865954841658,0.23224755000810782,0.12271257631422623,0.6207552362147116,0.8142356732250552,0.21519265110439387,0.14283050450695903,0.8837443847630436
310,0.19629751408826224,-0.017644460792646283,-0.0008090546294442919,0.8425325694567669,0.8261425735420058,0.5356705073998801,2.121345464915564,1.237436462023274,0.332219398675286,0.34761835585900763,0.6309483474627791,0.7209752591458638,0.2599428867056027,0.18340668618202452,0.8726029770629105
311,0.8389762758150945,-0.12918855892119194,-0.08654227917182769,0.7273601195887055,0.7014006948109515,0.6281232679269062,3.0034859460321472,1.7297604964686002,0.7285728029256424,0.4969839536954534,0.6547956803312163,1.215895449282842,0.6136351176322117,0.3504436570146381,0.8302979950283581
312,0.2128522359219673,0.061053400699031035,-0.010212696986613201,0.6239897601579245,0.5479828315010261,0.5037435297589646,1.9272149275600767,1.249111518533585,0.36832907370265844,0.29226472580055457,0.6668815377411301,0.6684545679695739,0.31326396922703653,0.23136976137038676,0.783843202325117
313,0.08506586176903225,0.003254516471480569,-0.0015312138720889393,0.5141620526226561,0.4933373402054091,0.3438433070641768,1.845548679394239,1.1902122405368472,0.4009403728723881,0.24753658249581872,0.6284777104787076,0.6857744262305322,0.32296668967588377,0.2113234317924615,0.840350010153199
314,0.1953084051406876,-0.017144191691925492,-0.012678384154958647,0.9019712214191803,0.8582994482442932,0.7024924564301727,2.346069275360204,1.7094662027369854,0.9320714436977607,0.6794971318161913,0.6547956803312163,1.2985684246738736,0.8013479701953478,0.6158300128674589,0.7986149625974102
315,0.29502253935842665,-0.0008444350360964359,-0.01809999497730433,0.7311325636185414,0.7031443387864865,0.515971078142404,1.3409165499910396,0.7911109492818331,0.235346206537819,0.2047596567683266,0.6547956803312163,0.5543132048445802,0.20818405385015828,0.1163371361354631,0.7729992885543419
316,0.07860260030351518,-0.035142729393133496,7.485163761103419e-06,0.6614449221839535,0.5838250331127284,0.5150311401336373,1.4303122846191922,0.7393390747092599,0.1491094382355259,0.13860541606918259,0.6547956803312163,0.5314441393640857,0.14063759503343468,0.10599414494786112,0.8812948694524804
317,0.21671316366735918,-0.002701399123059528,-0.00625944116061386,0.8175210426085348,0.8168168378367027,0.6720306683303985,2.654138907659405,2.0672122263947217,0.564558811462314,0.596079970075105,0.6528756675646988,1.0718729914784881,0.45659956213250763,0.385680563831126,0.8523973423608794
318,0.7322571759115026,-0.042848139666626484,-0.10946475326020638,0.7932583489034931,0.7584952489343807,0.5621303535444556,2.1533053972510383,1.5046563552835446,0.7151509189621404,0.44842321023395915,0.5883313578629602,1.1722588288364082,0.5829115921610312,0.39393088115705177,0.7705137604753091
319,1.2860546952518501,-0.0020199996767641393,-0.05772311112585893,0.5964691037945618,0.46951883804781436,0.6041707635968333,1.6768848517973498,1.0551482840007231,0.9520953207030782,0.6693482107233707,0.6528756675646988,1.4907663827166018,0.6805955350938903,0.32130812259534236,0.7758988446678362
320,0.4588853700832594,-0.07211069237560797,-0.027276748400275164,1.1090171924462595,1.0788639324934897,0.7906069649690906,2.5191690420759616,1.5545287455213348,0.6925405154971735,0.6153780935187736,0.6125606311107803,1.1763576372929625,0.5502385060286791,0.462858696750217,0.9259969230863602
321,0.4248108623179246,-0.036773766952395606,-0.04694685681734533,1.040946339942424,1.054385263195713,0.724782927852211,3.303934412533142,3.380475885868285,1.0675245311429704,1.3845108866830835,0.6403206450210053,1.4322684940298414,0.8924486038216548,0.8969403699785815,0.9154227408923385
322,0.4717750680989062,-0.038389539661203564,-0.038617650101125875,0.7588329072988186,0.726319925323312,0.6375861591627773,2.501250131746359,0.7491526688096597,0.61952601008074,0.19885368451665913,0.6447042257417027,1.1756733348045714,0.5912634489921378,0.2316828666724546,0.7941383341291406
323,0.29111296374337586,-0.03165563090040186,-0.019236129183781595,1.023606293715192,1.0088202224960405,0.7676286355765368,3.206855400496376,2.424150622532799,1.1971063937219222,0.7643703212287555,0.6668815377411301,1.4455255098266586,0.8134680939071927,0.6090297504985517,0.6473936331434742
324,0.050903628639632076,-0.00015298869361059925,-7.262681191467363e-05,0.9906759570097379,0.9453541726620562,0.7280429344196631,2.9407880202417203,2.2025662908522987,0.4741541999962097,0.23844616001301602,0.6509067234006624,0.9772209559377557,0.4128583367851066,0.2259916810143369,0.5726834499042982
325,0.07604099540440373,-0.02971274997371255,1.1103315885620984e-05,0.8470018195275204,0.8017091468074946,0.6733714737665611,2.238664232259394,0.9753611297484133,0.3494746877635788,0.20819755345800345,0.6509067234006624,0.9139601165358728,0.30851615935462284,0.1752610851144519,0.6692541170553996
326,0.2969214372767869,-0.009311314116060329,-0.02943527130751762,0.9637235011183569,0.9260037003968654,0.5645195194306418,2.253865851556789,1.6117440029590036,0.3775458439483819,0.24561684603831163,0.6713451011121618,0.8874333622024441,0.33583553106522124,0.22892788163161978,0.8563865101365532
327,0.033497527521887505,0.003396737346774259,0.001124873289648342,1.1131587133497898,1.0813190288695145,0.7382420549113399,2.3434384016937804,1.1215396083940723,0.3488198947520636,0.2844134892169245,0.6584896970785714,0.8043519008562062,0.24394757393831434,0.1586778385517141,0.8968178813017704
328,0.0258695169657399,0.0023991177998510978,0.001385387776069875,0.8584185688731106,0.802890628413146,0.6547917580261914,2.155269361135504,1.680821760640805,0.34587151045427433,0.2953061602036913,0.6619902821573977,0.8359147464104982,0.271166637348991,0.21872431249811267,0.681902860042748
329,0.030665497175570974,0.019117449098240893,0.019223232785509844,0.6499467429940351,0.6183309451131758,0.44473197583997065,1.314803853584799,0.8024886972613321,0.16702887278623077,0.14919189120152346,0.6008849035917525,0.4834086317221808,0.14226683372275184,0.10112042519460614,0.6355266052228895
330,0.02068385678664192,-0.00011054904471168372,-0.008445930786460368,0.6923215434196375,0.6326844360158614,0.5698902930064548,2.2064673955566207,1.1717366536046239,0.3994081825858267,0.14879706347589508,0.6333676938231112,0.8448231472395129,0.35184308190398494,0.12076563935876707,0.7994327672753363
331,0.010356570942139876,-0.002865317960658699,0.0,1.365599204570029,1.325547777245226,0.9025849848016748,2.2960513917704017,1.0532636342538186,0.5141190471447308,0.3668737075463337,0.6566669596287297,1.2919139063052274,0.5031844641883422,0.30445517966920355,0.8528027576535138
332,0.029865727239092824,0.0001238023605062864,-0.007689786594409802,1.1447203806111321,1.112897343225391,0.7900578278660663,2.5269327002921655,1.5361935733953986,0.6266465876697338,0.3533248570534504,0.6547956803312163,1.3849175316070164,0.5821481595210882,0.30941856719374683,0.7916624138847238
333,0.026605206945151744,0.00032515539526560555,0.0003519930867797935,1.0410145709101872,1.0266905795095553,0.6439961682332144,1.6856929207802607,0.8279453754722939,0.32444196133278935,0.19869526343071772,0.6233814453054027,0.7918876816390128,0.2630586603771105,0.13676856491431072,0.6472496737560293
334,0.49052447337649524,0.0677632199827729,0.004857677220983292,0.7361891780269278,0.7255811665414131,0.6043928304702141,1.7695075139788006,1.4669209896503737,0.5207620237875445,0.3283461694454241,0.6180765742263259,1.0320445777294387,0.42553098539541545,0.2612432817014857,0.7802030520433809
335,0.6922451064597978,-0.05173279282381843,-0.0815406612575281,1.1337523375504919,1.0777472966887194,0.7997842147080373,2.5157314437485216,1.2404302665204319,0.9491347455939406,0.6854951797385135,0.6713451011121618,1.2978765661923761,0.7036167674399708,0.467933745307267,0.6701566926013524
336,0.0397071688519987,0.00029545069974174984,-0.0003033192498765498,0.8036232262932607,0.7332364540417502,0.5677075164993125,1.7096970500721287,0.9163724224145644,0.2171219051041698,0.15815454902205828,0.6566669596287297,0.6046073426324625,0.18387668475403615,0.14354095220788873,0.5995674451089694
337,0.022126741874279543,0.005909573330535402,-0.007179446229675814,0.6733087595010653,0.6207266701080895,0.5243422168165678,1.4257968520081388,0.8643353179215538,0.18438944721771802,0.09878570823219168,0.648888643467878,0.5375689487415016,0.15600054320156645,0.0800649395295639,0.8297944312281734
338,0.11446848430277237,-0.02379759786315907,0.0033990397284788046,0.7625902309657062,0.7279711309835589,0.5061056670053905,1.2290534624500016,0.5815042855412205,0.18518429996899233,0.1203864998246436,0.6584896970785714,0.5006186335167632,0.16764083153540307,0.10834179084057173,0.8710741416763063
339,0.0309007518237875,-0.006242535543344169,0.004505849276291673,1.0728379154044092,1.0550553199878363,0.6392783553086593,1.917691446598909,0.8263488517523347,0.2548482580125152,0.2221498552821457,0.6778444222523095,0.7182370942861841,0.22237479139991986,0.16697387778111392,0.5906654777732857
340,0.09557239673548847,0.005137090705014821,-0.022857092357090346,0.4413124857490934,0.41515146434610467,0.4295384645683017,2.4147036067188337,1.8789595484212307,0.4951841118444295,0.471438540246928,0.6684167106117298,0.8675534791574193,0.37963616034048425,0.32121296783492803,0.8043238809578095
341,0.3717535483681258,-0.04930307424421844,-0.027262895312176023,1.1491915200669376,1.0951408120012012,0.7670806342967562,3.26062969278349,2.0829107116576777,0.8795513047308254,0.8462127580402176,0.6180765742263259,1.3472446027494858,0.715798793120714,0.609639661394719,0.8113261167293442
342,0.5684503313227052,-0.0395537731000868,-0.05759341708703127,1.022063811725151,1.0239750518585498,0.7222813010571263,3.742907414163559,1.8480940070999452,1.2279225786229269,0.35639105428205287,0.663668482632973,1.6462171639373968,1.1196387192612003,0.278366599515828,0.8933285819519714
343,0.10603981668344617,-0.013980897137695665,-0.00039351164548056226,1.1052382469577229,1.1038315785077117,0.806338244662017,3.745182571795912,2.091892490063336,1.021049333887846,0.7495954661765724,0.6468212168108125,1.5062297113444167,0.8939682105166293,0.512010530644293,0.911738150997535
344,0.19519215042571397,-0.009332923134071053,-0.03546747031110671,0.8350285104796045,0.7957673106225939,0.6495924124874706,2.50095682173514,2.4113781204351192,0.5239377105701064,0.4538206257939097,0.6284777104787076,1.0529380851769352,0.4137953584589178,0.29404428798347365,0.7201919451315629
345,0.015620521806650649,-0.004983237649049328,8.039895353102906e-06,0.993490889457318,0.9025067386033557,0.7280808289257552,2.0434491483851125,1.4227164603459714,0.31680797507015396,0.26208576993230603,0.5978297680564633,0.9433479434820994,0.2901681076508118,0.11167902058317099,0.8195579857974902
346,0.01632809552545572,-0.009995388607636168,-9.716424015525219e-06,0.7086236294850681,0.6657175632529264,0.5150116888790911,1.480512265266266,1.053584651028921,0.14184067799937505,0.07970926429492851,0.6309483474627791,0.4519279825185053,0.12014282594361102,0.07027764443268533,0.7766939805650092
347,0.03481413308073576,0.013721670063405848,0.01379120293292501,0.8908872985421138,0.8090157447853314,0.5545147133633986,2.4602699911391617,1.9902864805792442,0.3356023476256788,0.35114382699202984,0.6097226960127671,0.6459243816320621,0.23873310998142624,0.1596560236472426,0.7599993844812849
348,0.015532275547225288,0.003716198095160603,0.0008097730999036754,0.9882980441314688,0.8535085868312654,0.6823483938213862,2.853199107577741,1.9359308685720356,0.5413080067780909,0.737704343104041,0.663668482632973,0.8628289570074642,0.4404323003386909,0.4651723865784032,0.7986966093659529
349,0.132371226094383,-0.005899553160837734,0.0022678723246243315,0.7657172060593542,0.7213340638636031,0.5452364822281667,1.8510685709481198,1.4932693748913477,0.284833877845999,0.3281286138769908,0.6528756675646988,0.6149112322987766,0.2543368932420672,0.15181687411492323,0.8296238697812301
350,0.1916422774882377,-0.015787483955586643,2.2660333347319234e-05,1.2610971033489387,1.251820677477075,0.8413331670682412,3.866307397210495,1.8878023437516949,1.23143151281065,1.0326986892689476,0.6425374456860184,1.8235253719917064,1.1759918331652564,0.9191947884219801,0.8241900243476445
351,0.16770948085324405,-0.026161988317379592,-1.0521224227688937e-05,1.0742559064680581,1.0523562553615908,0.7360933885125803,5.898760617035118,14.224704057735472,1.9917616673230207,1.8055416057406235,0.6380535849069913,1.8997902134417601,1.4124809590259937,0.7948209625768495,0.9160996012762166
352,0.14726409024749354,-0.018601951808270626,2.1089098805257556e-06,1.3038093240780628,1.2621250698862514,0.8540934244832343,4.144999674278837,9.48334861958102,1.9553375339712724,1.0958194600864657,0.6528756675646988,1.952789311887721,1.7658623005598855,0.5319569722491592,0.8523671882801727
353,0.15945729836140352,-0.01658030691099518,-0.016751200498297994,1.4616095335516277,1.4262351024033788,0.9188974212287577,3.554344144993657,1.8060392940549916,0.5993754961920796,0.4587761398442165,0.6068309995095971,1.398816886118781,0.6008691686186233,0.42431366014707456,0.738939487629236
354,0.30280642078956665,0.03277072034527599,0.009386735426237608,0.9238597757086072,0.8499826851530504,0.7050169968029707,3.0991286158460634,2.3839419788830876,0.7381424446860975,0.6266171464999479,0.663668482632973,1.1431564797527514,0.6235852265000159,0.4820920048166824,0.47270818408590315
355,0.11502515553920219,-0.0071104443763198855,-0.01529817067003176,1.0369875040801937,1.0191262526163003,0.7418769100172709,4.2130003186813365,8.967326908010282,0.7821462611743505,0.6014089674447676,0.6207552362147116,1.3216725101210156,0.6889065389411949,0.37502539965192766,0.6294410364664936
356,0.06432713633671006,-0.014366393781865246,0.0,0.6273147493395654,0.5626996592160624,0.5872781058785688,3.0054667422206927,3.72868853136904,1.1299918278532397,1.2415784822774756,0.585052858160615,1.5337637071466343,0.9953038384271357,0.9841793398970082,0.8522555914423392
357,0.04006468170872977,7.591894260602569e-06,-0.0028282148508293314,1.1280669778784638,1.1222606837545586,0.7858704376483858,3.8149262110284607,4.708949224253673,1.2155537919436281,1.1693701739365496,0.6566669596287297,1.5204100513971717,1.1619724029564606,0.8131256067797644,0.8740751486233332
358,0.19963652169011964,-0.018855798717437026,-0.02195824344205734,1.071372968219287,1.0195911323658817,0.7686929198631134,3.384981648563358,1.8675174359751252,0.8432641047859933,0.7684865588251032,0.6180765742263259,1.5995975986336863,0.7550998375270971,0.5534310433246402,0.7967791508901525
359,0.019744577483092964,0.007978231666176516,3.233756945231203e-05,0.7870256834762265,0.7146730026321133,0.6512256289927552,2.451288599917805,1.6676396784299161,0.34783063682174575,0.2249817810041308,0.6284777104787076,0.867288949885713,0.32706361106323234,0.19630686879177187,0.7040815001569227
360,0.0003527928611994304,1.1918520827298678e-05,-4.466497115857819e-05,1.2816840330348362,1.2592296482585117,0.8486608295393785,4.08873172640957,4.280647931520674,0.8000929471047047,0.5786317793093397,0.581717464821069,1.3734000731346578,0.6208836602048712,0.38458263188588765,0.6800347741407482
361,0.07504976940337106,-0.019012608248854004,0.0,1.140654642018921,1.1314285561627582,0.7818659651968204,3.5348344890670353,2.6349676318885287,0.817686094261135,0.5487184954147577,0.6403206450210053,1.3862499176630712,0.794510933642483,0.5852716323350028,0.8315083247489299
362,0.0,0.0,0.0,0.9780272142891004,0.9448463004661991,0.7511113639311708,3.3192725673826455,2.7392218724652686,0.7139058308734915,0.3780174696438219,0.6357360191111145,1.2729656758128873,0.5840080983987697,0.32713716397917925,0.7470742719665016
363,0.16886416149785358,-0.02253600729442205,-0.009957277807570386,1.0124613376261073,0.9983267539622684,0.7507532034390215,3.628204617436463,4.5320445554195885,0.991419849477265,1.3486968246187818,0.6468212168108125,1.2608959517255571,0.8395649571783543,0.6247354510332693,0.7086800902412967
364,0.01542512565929251,0.004170308226754761,4.47347588838614e-05,1.1939044244702313,1.1949554110652332,0.8186179381005869,3.545976338617462,3.1007743528088,0.9099658937285316,0.6963599590451146,0.6547956803312163,1.318178911491977,0.8172922695687603,0.6008070414980272,0.6834965430026152
365,0.021453273792983122,-0.0007796850469471315,6.059173883096389e-06,1.1980024004578784,1.1603453468657294,0.7943363415580815,3.517491338505966,8.718315426104521,1.1598362437091292,0.8052093785342234,0.6425374456860184,1.2970225778116493,1.0354491489325959,0.592077482953506,0.790666855641987
366,0.1934048863890767,-0.03342453988015523,-0.002677705579139092,1.2730736066863448,1.261731314456558,0.8571618466370793,4.197503348105174,1.9123888905327053,1.2654848753800376,1.5265615134457555,0.6468212168108125,1.7269084969084387,1.1863225551338086,1.1878024983306499,0.6967409859994866
367,0.0004658606135404543,0.00012650454640141936,-0.00012420686715387114,0.9991466791909878,0.9647341436379542,0.7344117108988214,2.823841948711566,2.04370190288398,0.6802777854980318,0.5390256632120689,0.6207552362147116,1.012893413265572,0.5058916123829762,0.28067065021397697,0.7939279274501425
368,0.3148021170916318,0.07112260936365189,0.031282358756017314,0.790635763975883,0.6737641049553974,0.5543171917084975,2.119006462911751,2.104997474069741,0.5145307377606432,0.44844461534877295,0.6528756675646988,0.7277616299649994,0.33169405016858866,0.23423924263109036,0.7172108548789047
369,0.2005385778346642,-0.02343453022169801,-0.027417831551571854,0.9038940917499217,0.8811047247772847,0.6828073423131539,3.525851187813017,4.49116763115658,0.6282835347916436,0.5829052639615981,0.6468212168108125,1.129896578707876,0.5197269566997368,0.4090572324805476,0.7229401174152303
370,0.7942223092380707,-0.0151846166276082,-0.10019163925246562,1.2863069145896842,1.2983475177446477,0.8589191859564452,3.5851461814408485,7.329320678539797,1.0455561838163905,1.4624818471550944,0.6403206450210053,1.4471773496434623,0.9016844023557169,0.7382550833566645,0.8059630077744725
371,0.10597871124265736,0.00020710818737844708,3.6297954988082776e-05,1.3887783225423744,1.3863458054870366,0.8960504728252604,4.916735800859536,7.420520228803722,1.3642526869785554,1.8268564241359526,0.6357360191111145,1.8504484655767346,1.2071592116953438,1.014323290113122,0.4822015561291152
372,0.11536727899135071,0.0047049417316920965,0.019087932365864764,1.1170429265420283,1.1073187140987621,0.7885980592978628,3.883966154502308,11.323930846322032,1.126437081125188,1.077758666679281,0.6309483474627791,1.3890091539485994,0.890945070986616,0.7339420192464468,0.5637622757987881
373,0.26367931991799815,-0.01295577260391749,0.012565335743704692,0.8241849009339074,0.7835688345210166,0.5955915483792031,3.0004713017584597,2.790136689742849,0.431281530520793,0.3017559998778725,0.6180765742263259,1.0090763233572548,0.3924444850939272,0.18925892216438503,0.8736480281507915
374,0.006709759437788124,-0.00045201491773653557,-0.0016056446431851558,1.076171638824013,1.0266369966442395,0.7825115963132255,2.803008499020386,1.6819927979770064,0.6633838115282927,0.5546794873026422,0.6547956803312163,1.187552797964757,0.5756840043300966,0.3363167478679195,0.814170392470705
375,0.019689664497011594,-0.005972531564093516,0.0,1.112288147241945,1.10680634759965,0.7769700820883539,3.1062950316386537,2.089786864629186,0.6104672410758526,0.3292514007759689,0.6357360191111145,1.2021226650377745,0.5347067973318194,0.23597238215403554,0.6161726294384363
376,0.02557267397158927,-0.004688323561458033,0.0,1.2146783235179113,1.197664208750996,0.8301518002526876,4.224447650257041,7.00505816661567,1.3477676988602265,0.6900359566878616,0.6153451465759925,1.713379681902003,1.1033699361235478,0.49582657198307617,0.8932555709806629
377,0.03978061798794226,0.0038231131088176523,0.008931825575074954,0.9484100424138864,0.8795319490096326,0.6430050571723475,2.323208195428897,2.4952945879624036,0.6756923087314527,0.7368613408767551,0.6068309995095971,1.0020907216774877,0.5637025170794399,0.5081523224191206,0.6879245476615806
378,0.023329203536506065,0.003295991419930505,0.0015924916675361684,0.9563563566201336,0.8265016052711538,0.7073487156758778,2.9347150043971935,2.51501892482626,1.0933633129563394,0.8966055246477845,0.6153451465759925,1.390213140627227,0.884000478237128,0.5637554602387613,0.6944246958094005
379,0.1601755277240367,-0.045909217356929606,3.607586119686729e-05,0.8720310430584951,0.8201809826513489,0.6579868721029496,2.7530109205841624,2.4809971773899515,0.9255705791831446,0.7753367284267638,0.6584896970785714,1.1101114850611304,0.6941255056780372,0.554095746991809,0.6345435360863307
380,0.5220823119394425,-0.06125205172747289,-0.01696525871442338,0.9873574389104297,0.9328625851466109,0.7394163690539023,3.089021950654742,2.4075314941523285,1.064192701646395,1.1327005799370018,0.5490601803369085,1.4199200887695507,0.9319719685788074,0.7376626144171728,0.8403476285379756
381,0.04423126408688668,-0.008488594476902686,-0.0013897211691686728,0.787432983239911,0.75045515052864,0.6585493633073141,2.436755341905507,2.172721538893344,1.1969540539566228,1.5033606582430759,0.6097226960127671,1.5268343838988903,1.104872250615986,1.2870053590640664,0.9201409147451056
382,0.6661449779920136,-0.0455765734171279,-0.11999922113371823,0.808964113705147,0.7824276768002469,0.635761227808558,3.043932481390668,2.390834466277419,1.0737400180491505,0.9259713192556761,0.6008849035917525,1.135276273039701,0.8743904807073173,0.6254428229534766,0.9416019431629781
383,0.15066665223528933,-0.026881775251614202,4.329532465225522e-05,1.1836304578250891,1.140378247957374,0.817930940718073,3.3782614195506984,2.253657497169597,0.7359083835465544,0.43513257850847525,0.6333676938231112,1.3069082792343,0.6650949069927439,0.3408567347080999,0.8805281460233538
384,0.4267962937837534,-0.027381507213251333,-0.03096348453989664,1.0672558217585044,0.955013391855712,0.7061726385061706,2.389199229270119,3.432755139121872,0.937632184908171,1.0803807000230343,0.6509067234006624,1.0936910843490417,0.7265364488585385,0.7940287886082691,0.8781644721870256
385,0.355326424597283,-0.0570747584264977,-0.00944928874150579,0.7050263808255484,0.6362104531628269,0.5920979707968371,3.1500128836316885,4.532638722934053,1.9759878755201863,1.9517221693182498,0.6233814453054027,1.779501571832553,1.6022200333289456,1.3189810075481565,0.7746206463527836
386,0.5922842302793223,-0.033252165246062684,-0.048760501834535834,1.2070444059287766,1.1779390065444564,0.8002125309481796,3.2153340248400277,7.164891552087384,1.8093012430943214,1.503695772182091,0.6180765742263259,1.6909492906690466,1.5892110959502748,1.5979857244308553,0.8543544188241062
387,0.004570497334156738,-6.60794518496724e-06,-0.0013114738494070135,0.8273867761193237,0.8066373987432691,0.6733390339581076,3.515874087845423,3.9321194786155376,0.8933018148781702,0.9344936108654295,0.6602640781246099,1.2302407311465462,0.8218450805234346,0.6629890043691938,0.9027208789357659
388,0.0,0.0,0.0,1.069244327631294,0.980355029635294,0.7817054745614428,3.0020682428665237,2.4953035494583786,0.49413802674379054,0.4516869318391027,0.6309483474627791,1.3997173814520312,0.43620298356179354,0.18567164367923664,0.8152181602799904
389,0.09921176393909,-0.018641353554213844,-0.018741810283917325,0.8042121784379033,0.7691325654404901,0.6506079180416571,2.53024341951758,1.761841112794671,0.48347896754489394,0.3135466794140183,0.6153451465759925,0.9683738117443804,0.35902290812802484,0.16767138274628138,0.8092990443769787
390,0.20945306561707405,0.004221137925897976,-0.016722505925226044,1.2531068719071619,1.2349482795892983,0.8464968445075851,4.250956996235712,16.51715268315468,1.279954984326782,1.3850233090580872,0.648888643467878,1.6441443856733924,1.111521669370481,1.3175695439679922,0.6878235567344925
391,0.020218581042373993,-0.012538521947281927,1.0091807517037662e-05,0.5789884849802324,0.4337563491528675,0.43889921890647066,0.9818186938096618,0.4574641622191905,0.07839605083514938,0.058824684199368746,0.6668815377411301,0.382302120081737,0.07953935480373563,0.024671012076013927,0.7831891310869311
392,0.05431510331070906,-0.0056125606754399366,0.0,1.4929299348509246,1.428599804358967,0.9122876786267143,0.2818494028351814,0.30315051598423265,2.695670555184546,,0.585052858160615,2.311625837646195,2.7023483577155756,inf,0.9505582698260262
393,0.0,0.0,0.0,0.10060391803536385,0.08519950623451472,0.07100400006384301,0.26006556789608026,0.23500966919549027,0.0001515036742537491,0.007194826291332991,0.5947193981915972,0.04430025889657995,0.006829306205283132,0.006852717436484039,0.8109840095142506
394,0.9586098079887126,-0.13885924515640918,-0.097637866461978,1.131747947159,1.129224950140018,0.7881580269154239,3.6276267882331616,3.156878711546599,1.1397494104827794,0.7296726965652638,0.6566669596287297,1.4670706711471784,1.0424019325860716,0.7000030966230356,0.9205087713579674
395,0.15018740462951885,4.129075380839703e-05,-0.019065028673547448,1.5526741128955264,1.5420688946596575,0.8953601094442158,5.066376233521935,23.17522147081526,2.221284650258819,,0.6425374456860184,2.0928645620119766,2.2271266817424524,inf,0.3932397825848622
396,0.12581208304018418,-0.010308642416403894,-0.006885675599087946,1.0296303576640744,1.0239851714654284,0.6467583630054298,1.0989008200276664,1.4492124431778444,2.451704399968635,,0.6153451465759925,2.0708562785214126,2.083946252737802,inf,0.8599266257853834
397,0.030790112605034576,-0.0032842786778703548,0.0,1.5716260690208892,1.5664599652683813,0.9271224811724079,0.9096246431375247,1.2711089932550759,,,0.6309483474627791,2.257824199465149,2.7561499958966214,inf,0.7872174046539133
398,0.02571973238701254,-0.003172100327731546,0.0,1.6358731157995061,1.6020090593729537,0.9461238422599915,1.0611775058463215,1.505477446492891,,,0.5883313578629602,2.112056564966341,inf,,0.7836173576158602
399,0.0,0.0,0.0,1.5902551902520687,1.5965543343042075,0.9203391029659209,1.052312970105167,1.4630828070264827,,,0.6468212168108125,2.5257286443082556,3.1813927316134603,inf,0.8392834877362163
400,0.05621829732249358,-0.005996618381065982,0.0,1.5360256017859997,1.5206465459358935,0.8931734773023569,0.990303840276542,1.3125257504088954,3.4292494758542924,,0.6403206450210053,2.271194097536394,3.435927278385322,inf,0.834178635471666
401,0.0,0.0,0.0,1.561558277336634,1.560626497678283,0.9184395681427181,1.022266880332184,1.5196397986154488,3.4306483032196318,,0.6284777104787076,2.2697952701710546,3.4373261057506608,inf,0.7919424325347576
402,0.0,0.0,0.0,1.5173944834889521,1.4716163819749755,0.9133577228742153,0.9358970548743578,1.2774362947277154,3.0170859848788476,,0.6097226960127671,1.9902104079518934,2.618298679301713,inf,0.8145751247491996
403,0.0,0.0,0.0,1.513452934832763,1.5021279052104708,0.9348635065921788,0.8179992864187013,1.0818986136406727,2.3945563715328557,,0.6125606311107803,2.2072749131897207,2.401234174063885,inf,0.8234364814395769
404,0.29685951919481607,-0.012569021821698279,-0.011120894105208536,0.7515280648040473,0.7494559186643678,0.6084121506213565,0.7953155833029126,0.9677575947418687,1.8540425938948146,1.591777419270625,0.6403206450210053,1.9033616458093574,1.5863027171751285,1.395807788157764,0.8428073685616206
405,0.052277032744247366,-0.0049095811738092765,-0.00537156859922604,0.6385138476635862,0.608654002818002,0.39923327958576704,0.9132268232456757,1.0327297796802601,1.5196573178528356,1.2049629125762418,0.6668815377411301,1.6538543220945023,1.4729995515550527,0.9741796767233424,0.91042778765096
406,0.6252041642611489,-0.06231035369787136,-0.04929819477611383,0.8821211723555696,0.761901458867694,0.6659186294985457,1.8835982201930692,1.6976619921979834,1.0604684755261125,0.9602584596261367,0.6333676938231112,1.31291999131992,0.7866335588428531,0.5313813007219128,0.8668516657303047
407,0.0,0.0,0.0,1.4720042660140074,1.4851672261405247,0.9142262915609064,2.9199754319658235,4.29367401458468,2.7375011226596864,,0.541134803179459,2.2697952701710546,2.7441789251907154,inf,0.7889940075840121
408,0.2559974406815115,-0.016717064684648595,-0.008882679383502554,1.3164774700295938,1.3082798548359604,0.7849755971984492,3.1931631489213257,4.683944389572026,2.6380965507547116,,0.6008849035917525,2.36919984207603,1.9342210142488454,1.4070506064821227,0.8938735574249278
409,0.0,0.0,0.0,1.680028994889687,1.6400069688190424,0.9437293697788893,2.5489056958235854,3.5563703511760694,2.299246191728531,,0.648888643467878,2.3025850929940455,2.3059239942595604,inf,0.8378546111840266
410,0.0,0.0,0.0,1.586281151397707,1.5714293175588965,0.9004329825087702,2.812231759036294,3.7582475399720656,3.0411835364579085,,0.6566669596287297,2.659260036932778,3.0478613389889375,inf,0.8181253123058244
411,0.0,0.0,0.0,1.6737092901930044,1.6609041967869225,0.9272434879726729,2.6261522896315213,2.6101205349298864,2.01156411927675,1.3829442742346088,0.6333676938231112,2.3025850929940455,2.018241921807779,1.3896444480051726,0.7849700104540012
412,0.550821824691759,-0.032100406090547436,-0.03583428562143617,1.3092519871214148,1.2979319936912712,0.7765680042240259,2.340217583863524,2.7735534535209396,1.881686528372565,,0.648888643467878,2.2079822339891795,1.7068224144008435,inf,0.8834835270260806
413,2.214322168351441,0.06809744710238452,0.012363752139670003,0.29874863549611025,0.16363031680644521,0.3487079386887674,0.7325328907849552,0.726829314998487,0.5602715355997216,0.3506345313585582,0.6097226960127671,2.24368745174656,0.40358127709579095,0.21373842042390953,0.515754357555677
414,2.120263536200091,-0.00706754512066697,0.0,0.8022689217590288,0.7309355264692341,0.7381004744507977,0.46983469641933406,0.5354079127199559,,,0.6068309995095971,7.824046010856292,inf,,0.8789048797801333
415,0.565100039265294,0.11944607271143332,-0.04690676265638383,0.20726765807716444,0.0953770532163671,0.17375255509978182,0.9098487977064856,0.9665793846510248,0.6570033124437378,0.6481044126496197,0.5748741956352443,0.8110802274674539,0.5137637091140987,0.41394364788039667,0.9128426442235019
416,0.3280440904378471,-0.048839300279035734,-0.005834714793938782,1.5692162888151222,1.5650747494315118,0.9438779992750239,0.8672712211053267,1.1270824646366053,2.242066017911869,,0.585052858160615,1.9863965517446585,2.143229824622082,inf,0.858056756255712
417,0.018239022329386997,-0.0009972218229019638,-0.0005680319041373211,1.574514293747238,1.5519685446184293,0.9546865883675834,0.9911754400917601,1.1999367292965606,1.9270224174001687,1.6060878255488185,0.6509067234006624,2.1639832435564172,1.5033521809928032,1.430311246536665,0.8637408165518122
418,0.0,0.0,0.0,1.5235465208438408,1.4961614447054514,0.9155285173766873,0.986802831951002,1.3734816986390916,4.444341703629804,,0.6468212168108125,2.120263536200091,2.488245551053515,inf,0.8617174398995441
419,0.004161205190941612,-0.0005548273587922148,0.0,1.5964983087367441,1.5768277393023022,0.9185743890501281,1.0667201128868515,1.5028444242919374,3.681699853462484,,0.6125606311107803,2.0187437199282026,2.995230475433568,inf,0.8440941210214684
420,0.020924634219076553,-0.003138695132861483,0.0,1.0972391026778454,1.061363595500118,0.7517697362289633,0.9194958071225542,1.1440006291944602,2.8142956693362677,,0.6097226960127671,1.9107682558102572,2.0045936508834035,1.795109556113337,0.8560871980681581
