,eda+bvp_XAp0,eda+bvp_XAp1,eda+bvp_XAp2,eda+bvp_XCond1,eda+bvp_XCond2,eda+bvp_XDist,eda+bvp_XFuzz1,eda+bvp_XFuzz2,eda+bvp_XK2_1,eda+bvp_XK2_2,eda+bvp_XPermEn,eda+bvp_XSamp0,eda+bvp_XSamp1,eda+bvp_XSamp2,eda+bvp_XSpec
0,1.3070871626801748,-0.28360191906249754,-0.07851218192237497,1.2399430381011578,1.2108745833868122,0.8420738734022254,1.4031785907699965,1.2706583898817612,1.964616412583801,1.57950931042948,0.648888643467878,2.047942874620465,1.8296787040903488,1.0716050872567986,0.9700680746448573
1,1.1752264547865405,-0.19520156165818894,-0.0938971167858085,1.3105821544493548,1.2169426789979712,0.8780773756410191,1.6373759216865562,1.580041365147964,1.9230036966793844,2.5675464888352573,0.6309483474627791,1.9619943648868627,1.556861060243525,2.620851365118686,0.9605927194322507
2,1.184291720742477,-0.21259465132781677,-0.12789538824920094,1.384746273862116,1.3398303649674093,0.9013415052108257,1.7544504384793407,1.610459887187501,2.331633881205259,,0.6778444222523095,2.130968781559154,2.0896951473416165,3.3582596239225366,0.9609638252437956
3,1.3211991813807547,-0.31431256411665637,-0.12739436110901214,1.2260680928625451,1.2034512284976362,0.8467707654631659,2.029035389033542,2.0538258680999317,2.7455566232040893,5.057159881562989,0.6207552362147116,1.98203255580963,2.460452047901366,4.567185072803036,0.964762820063641
4,1.2424452862767659,-0.26834154245086206,-0.0813298198025765,1.1690764998991958,1.147809561876506,0.7558220099938969,1.6764205860083743,1.1866218664976058,2.2900490428946485,3.624674785863181,0.6380535849069913,1.953102619636818,1.9939720238502467,3.699290190131775,0.9510555505745848
5,1.6646164177761948,-0.34635363603722813,-0.02541069726612207,0.8967122008562863,0.8652953798983395,0.7621641423802415,1.457988664460113,1.2396541451430048,3.1208798638023842,,0.6097226960127671,2.9376730310141776,3.018853464732524,inf,0.9342791765052387
6,2.602916774097461,-0.11902206666945862,-0.01980016128240596,0.5935332863224029,0.5528085426971179,0.6586408548606572,1.346039771072062,1.4023148695673786,2.470446706814916,,0.6468212168108125,5.169240324272894,2.268032711487386,inf,0.886979222007619
7,1.4878692715115258,-0.17227631317608458,-0.03177613420579046,0.48804459839242614,0.4226430740689108,0.5806693962224335,1.0712225816678003,0.844419339696342,2.725070190001004,1.5778696720855228,0.6584896970785714,3.048195843089732,2.5187274488492717,1.4098248585300848,0.9564594237519163
8,1.1819338501865249,-0.25365815057135016,-0.1334457656823408,0.5600867835236567,0.5285897562500856,0.5710253123852761,1.2481357456087216,0.8954037957246139,2.2796292897585926,3.062495836358921,0.648888643467878,1.941187982719984,1.8200232441464184,2.615915801053564,0.9445854319626578
9,0.9375521196891509,-0.2102704222806643,-0.11455172551590545,0.7876628785250193,0.778741305449091,0.6827919149795695,1.8811438017166122,1.9731288118406904,1.418919110866377,1.9489187894117104,0.6528756675646988,1.6047268049262038,1.285844972972628,1.664750602361692,0.9370142251379509
10,0.7042186946829133,-0.09584696309370158,-0.07801414984823121,1.2291304062314394,1.1766159193188317,0.8103277752402693,1.748838360132857,1.8954855947868596,1.5148446181932511,4.4290217594720085,0.6602640781246099,1.6216791988564543,1.3248397196627115,2.3341768466790516,0.9459331306531155
11,0.502615840107965,-0.007462674470668174,-0.04491016369608261,0.407369937951472,0.34479051260270394,0.45714264558056783,0.8157523731599317,0.5022272656329569,1.2378619600897391,1.226185072257572,0.6509067234006624,1.1641468612558228,0.8984594143556353,0.6774507216258384,0.9649708916509661
12,0.22679115521548035,-0.03561353828125059,-0.019775475683319072,0.9730639094759699,0.9182326675690635,0.5846805902978638,0.9534367420005638,0.885856908642564,1.396338793266513,1.4188330084076144,0.6619902821573977,1.205640861426633,1.0054798211016978,0.7846115910256602,0.956661286761347
13,0.008478617462633868,-0.0007555400333796401,1.635559149798082e-05,0.5055111090208558,0.4842243194821161,0.4986217313475319,1.1719076656064624,0.8951836066830756,0.8561417279254798,0.8681136540777743,0.6447042257417027,1.0858276943086904,0.6994859274359757,0.7268957105713431,0.956756874542903
14,0.03009607209140435,0.0023673341298347667,-0.009468129320483621,0.8622486549134422,0.8215903367016804,0.6373145250725653,0.9707574608353868,0.7356305340182556,0.7358508266825321,0.8995664439573866,0.6380535849069913,0.8605407167696633,0.5252204531885686,0.4846086998517346,0.9508147418023938
15,0.10348616878739285,-0.012801227787100938,-0.012306954796955436,0.4177750880277238,0.3817844786392358,0.44869219538486926,0.8072455877183293,0.7289153529962366,0.7779870822752247,0.8684682673798263,0.6380535849069913,1.0307044500609346,0.6329550165398047,0.5481712631248423,0.9272833551106617
16,0.08197680486709544,-0.001515480667918928,-0.014606624289276508,0.9245622007549813,0.8722312828826537,0.6552762490802533,1.5702849531092924,1.3656466385176844,1.7837787349166099,1.0147143593562407,0.6125606311107803,1.67403569458683,1.5291308365761909,0.5613947825886634,0.9476442938597075
17,1.168273098719907,-0.2671661615176355,-0.1893228312937912,0.8574020205576368,0.7785768378574941,0.6783819363008187,1.451639373537103,0.9506611961251019,1.1435754419059507,0.7978207696706595,0.6528756675646988,1.6339583176307941,0.9542369216631371,0.5143801298781089,0.9671685892595627
18,1.3641875572036406,-0.29379871156508325,-0.04351336220438907,0.8581507388451715,0.7750064617759714,0.6249177237293411,0.846069242908415,0.604674372153538,2.701372398571181,1.589442196182292,0.6684167106117298,2.439933284145269,2.3623337442189314,1.332298362384455,0.9671799177509723
19,0.8746758997673488,-0.14541128494609304,-0.08108298172307118,0.9755306544270531,0.87856068055006,0.7378231760093313,0.7457536702902237,0.5671338540813082,2.3283546123407817,2.3869578045522912,0.6566669596287297,1.819062151756064,2.0431130479445145,2.5215092287655474,0.9407459550150842
20,0.31249070742627877,-0.032254434895059594,-0.042125258364335116,0.8703472723951735,0.8287803854147874,0.6274472655832534,0.9483639378389553,0.9796425750098678,1.4614090220396476,1.879482351989936,0.6468212168108125,1.3863388065520186,1.3001129949976955,1.308952812817483,0.9556650957749026
21,0.1654625241163525,0.02859683896894992,0.013051649825473396,0.7285145396684202,0.6459573271316493,0.5704364745637999,0.7724561933168055,0.46714751440796354,0.5441418616672345,0.6370801381976174,0.6180765742263259,0.8636455738883232,0.3901401396547291,0.337266697247629,0.9338065096498758
22,0.1712925532435863,-0.020265120771594255,-0.029980694846524398,0.8355696923710627,0.7508772725652102,0.49992763223341186,1.3210137314105546,1.5400382579062155,1.7106500961261124,1.5944352114471199,0.6038851895711802,1.2922779471627213,1.4300402257371936,1.601858928787192,0.9432538692168065
23,2.7485089001107355,-1.0214714300192733,-0.4077072001893177,1.3821446503375077,1.3572726563930353,0.8416990309357892,1.2247693238525825,1.2919043097580698,2.0906278406701726,2.2202707966720747,0.6528756675646988,2.5614997586195214,1.8790980520788978,1.6488471447697666,0.8968108856804949
24,1.5180858505282466,-0.41266595471858314,-0.07818180361888323,1.4675108672491979,1.4566247712386449,0.8805935124044886,1.1170306982244909,1.4017844226210616,2.3124989229530946,,0.6380535849069913,2.417621902982404,2.1754001490700396,inf,0.9503599095764675
25,0.41954588353556804,0.004025243454718608,0.001475661026690167,1.0244316853764075,1.0026668852292733,0.6359541327985374,1.019623409864798,0.37001429735996805,1.3478945667717828,2.164721792951571,0.6447042257417027,1.0104793186769094,0.5857681930714949,0.4208245260787003,0.9585507395486332
26,0.5182713341843965,-0.06763355236048278,-0.014047938494334455,0.47100805993585626,0.4262209196145576,0.5133927487703578,0.3901244085964155,0.25356282350299025,2.6986571682152225,,0.6207552362147116,2.132748558151855,2.187242685602574,2.2753893501855558,0.9472067205561974
27,0.23262980540532038,0.026210943349757668,0.017138993190877652,1.109493375209388,1.037680798231739,0.7636491284960373,1.0988037724499626,0.4547478538580001,1.0706099733523504,1.1976097281483162,0.6790044388599258,1.1309977488122647,0.7106524900292552,0.39410728821148305,0.9548569364215276
28,0.061063692188056275,-0.0034942356217017873,-0.0007493454084063437,0.860678511344135,0.8357599561060516,0.6505604171029723,1.3021957317333719,1.1314106274972637,1.1849038029253949,1.2682318561825707,0.6668815377411301,1.4295266655119776,0.8938281889684538,1.018002526825707,0.9464946649443768
29,0.06567524894855455,0.002582170655218867,-0.018701422917406275,0.6802548593539324,0.6282080932442987,0.6168639340862145,1.301513493912875,0.9371661526445954,0.8827013764088173,1.0137720682671514,0.6068309995095971,1.2455280923315113,0.751453153576831,0.655318940089376,0.9474389361394348
30,0.033774216087066676,-0.0038265647427863595,-0.004008737626634155,1.116684306624131,1.0869567576135644,0.8002257780495803,2.073372888848751,1.466185920381057,1.0358317384798676,1.3918233558757387,0.6233814453054027,1.4776789229217433,0.857544152571767,0.7371502903856892,0.9554115552627157
31,0.1240670075113889,-0.02172273040465115,-0.0001957742556942234,0.9645570780847066,0.9551460551572073,0.6526793962053437,1.8438144289263203,2.1140128114211625,2.558600513122888,,0.6727386042041725,1.7783826721864162,1.9909840328402064,1.9411047577803748,0.93225531550435
32,0.06265160395488217,0.0045863783745662655,-0.009624070128712619,0.8594817382675487,0.8384752238984458,0.5542202285095447,1.177000791069917,0.9956023972833719,0.9229087874998189,0.8066589560734224,0.6425374456860184,1.0891571298973546,0.7841739930245121,0.7270612034738337,0.9488788152899759
33,1.201733273467757,-0.30897051110121715,-0.19196178831197164,0.9901966808905186,0.9359133691939777,0.7126605901175042,2.431518214323868,1.8619925760051066,1.4679609049099767,1.0719088501910763,0.6468212168108125,1.687279340997536,1.2333454600696496,0.7898188309625913,0.9674088430105499
34,1.2671647713413017,-0.32619916700683127,-0.08549668294680177,1.0443496055527446,0.981693883303839,0.7326621462407401,2.298580004705268,1.8603377068754106,2.4370529330727844,4.916014238953221,0.6602640781246099,1.9616782593049669,1.9547990964725594,2.937210701934335,0.9710323364438612
35,0.37294844292793194,-0.03219223162158116,-0.011685262262494917,1.1649520727950191,1.1181883913605941,0.7508647850004838,1.7399280765571585,1.214898608720265,0.9582804016530088,1.1909742638145728,0.6566669596287297,1.1490287745821257,0.7450587757474524,0.772181116757677,0.953380890860153
36,0.2258950948503449,-0.042323468815316005,-0.008709563240777561,0.9916866304490147,0.9743854759256904,0.7123432779740702,2.0209909507689017,1.249999728600241,1.0006146508063818,0.9541284125344928,0.6380535849069913,1.3278158313621948,0.732258907826791,0.499842854411529,0.9029278849818176
37,0.37827817424037685,-0.04083394074379518,-0.0035937026442747003,1.3611897999938367,1.3334313925995072,0.9001163313327822,2.0224732899812508,1.810432671168047,1.2876920651475205,0.9306226269115335,0.6509067234006624,1.8221499505521235,1.0898541074711552,0.7152578033807502,0.8928463748253759
38,0.026301709924427902,0.000954079912853483,0.0014806954255030596,1.2431808055849358,1.21348398844454,0.8370735461173461,2.3480854661120776,1.757070473758338,1.0299189531764856,0.9307086398964337,0.62595550513784,1.5791781692855245,0.9237566830218672,0.6994116706095986,0.9565955704894037
39,0.055064740979137335,-0.009814194194549517,0.0011754748673541149,1.0838984511378702,1.0701226625324167,0.7876915949006643,2.1741069109710423,1.7437695487819802,0.9686083729609414,0.9066051703897302,0.5978297680564633,1.5516932507179375,0.8442261975301818,0.6666651322937122,0.8441031636740483
40,0.09029745462721747,4.01727960572338e-05,-0.015390740082684203,1.0921661271573004,1.0733491531365953,0.7466552472607438,1.7146732751231701,1.3775387777248218,1.343934726703761,0.7698398013481998,0.6097226960127671,1.7915594892253888,1.1423462706945045,0.8306555538317912,0.9365390284985285
41,0.04140560978968386,0.012197884786892491,-0.0010744103647633597,1.0130185465946702,0.9706661261843068,0.6992112974982556,2.02352300982082,1.7070006687291497,0.8437244552488912,0.9817426036271969,0.6822068148872973,1.2407520558292324,0.7900263138713224,0.5534330944980559,0.9181165795067422
42,1.4336753232359127,-0.43742096444644507,-0.23892665316109324,0.9148894403555763,0.8689626726840791,0.7331892377422189,1.1916946134589634,0.8507218369812308,0.7697594005449082,0.4581724483384442,0.6125606311107803,1.3947298399409922,0.590290806119403,0.37531126914597457,0.881218179875934
43,2.2849645062680404,-0.2977627454946095,-0.0068991886744625445,0.8574872793095349,0.762960210039139,0.7464811218067111,1.5434032748277289,1.1550029427753115,4.220155942737151,,0.6619902821573977,4.089688750685907,3.6802900389001096,inf,0.9343369974505857
44,1.7211628663210026,-0.6155517091958125,-0.05134596936967332,1.2021359585464084,1.1855638635083257,0.8094997709876167,3.3430572636738534,3.331647333741061,2.1989398639931537,2.142659736917166,0.6547956803312163,2.2163054651490115,1.9968226330630565,1.3000340168354836,0.947933479125053
45,1.8456264060228331,-0.18550194030549916,-0.0064458294116868636,0.738304950751305,0.6941208856562994,0.6337242931634369,1.594156654479794,1.1837116791211266,4.287108198698493,1.8124582696456057,0.648888643467878,3.5028610354386553,4.1205142799554855,1.3862943611198906,0.9492179407164908
46,2.520943561031667,-0.09243459723782778,0.0,1.047389386531648,1.021055162298,0.7622858936262901,1.2119853023024443,1.0942059360599927,,,0.6357360191111145,5.456922396724675,inf,,0.9513486905153435
47,1.6648782586490538,-0.21707495302735605,-0.027107191574505165,0.5622728660870293,0.5277098187748237,0.6031289769036069,1.1472484716597693,0.8283371020537031,7.943119413630823,,0.6447042257417027,3.4577677331505496,4.617592705986649,inf,0.9609004231699534
48,2.198284111657586,-0.3900888261095509,-0.005602313988814505,0.785934974278157,0.7800543276091167,0.7979244285349392,1.3462834857899513,0.9662578512731688,4.131726749485102,,0.62595550513784,3.6582424846520465,3.7239707739252066,inf,0.8969756066411386
49,1.6219083976026896,-0.3981634459911738,-0.059499289189977794,0.9734172078993875,0.9261287048294864,0.7084168745175072,1.813897881493832,1.103092943549848,3.178645262637445,2.3643220807767102,0.6425374456860184,2.673165799248708,2.896668702897754,2.3113699225497784,0.9282376941353352
50,1.2562005788444772,-0.2059537271491409,-0.09047917712482942,0.6762919773576858,0.650672932050695,0.6032196825737719,1.3275224082164838,1.1680374908008082,1.9310901564293879,1.2545870871513525,0.6584896970785714,1.9281138904698738,1.639531698829946,1.1209062056273225,0.8743564702785466
51,0.46116131305284636,-0.05189924945707239,-0.038755296914417946,0.9773747393084846,0.9420300459981303,0.6897939106578661,1.6192095758449843,1.4557006204969027,1.3658628777593704,1.207861969472268,0.648888643467878,1.5370138970225389,1.2515235549923576,1.0928485839513595,0.9172382953313553
52,0.1955521477362932,-0.004268183198506914,-0.019729924231229587,0.7615169949388102,0.7387065637033181,0.561322905539818,0.8041345159255724,0.5633437230764192,0.7326829088424024,0.8312793389166089,0.6425374456860184,0.8285088184906219,0.45198512374305727,0.38012031236282245,0.9156173359634885
53,0.7442747552847817,-0.09554007870739173,-0.06898446600612015,0.4219278349422323,0.37523552158580065,0.4724171090436717,1.3472755763854332,0.8427326271920701,1.231591229173237,1.0724915801997865,0.6652988471865258,1.2006450142332614,0.9986817711948283,0.6787212227792432,0.9422777700827861
54,0.29996512779486445,-0.02994063108052389,-0.019558067595801712,0.7975788327551248,0.7660708520055436,0.6275577747272567,1.518213154107784,1.2718549136439923,1.147453469573382,1.0929163831215438,0.6528756675646988,1.26999390542373,0.8923462700589876,0.8044807545768534,0.9000465879849465
55,0.14111843879490452,0.0284820129228925,-0.01077637973338065,0.8338825099054996,0.7935641450579011,0.41813682651061357,0.7674632550284374,0.4679521125733671,0.6806758687308685,0.5628352713740784,0.6357360191111145,0.7705083017174134,0.49309656162287596,0.3607774964796335,0.9101480645148574
56,0.29652449585611784,-0.009110550941897236,-0.015631028446034492,0.9885848263424611,0.947321714756021,0.6136303885579488,1.1113768821501246,0.9932407167698469,0.9340610254312021,1.3627929828858503,0.6547956803312163,1.1366603563056397,0.8041406444815712,0.9964527430090844,0.940539301982329
57,0.20849105899188775,-0.020929055066296564,-0.021135913983041595,1.0881713486739772,1.0803913199461739,0.7552681919069505,1.445975828179195,1.1760846302414958,1.4235237959362643,0.8590357834606981,0.6468212168108125,1.6266971103241847,1.0179089182214907,0.8255842246034315,0.9301526386162892
58,0.03867701633041676,-0.0038842561429267607,-0.0008938065930589644,1.089482210698562,1.0553903300372593,0.7528450175185593,1.8614804071309392,1.7509441901013383,1.6320510490210691,3.822631115812469,0.6468212168108125,1.7963700817857382,1.4016143840510862,1.5841881154676216,0.9068868774832235
59,0.020241219558366323,0.004595885563759899,9.316114364298078e-06,0.5363751524351538,0.5106803039516514,0.5069148480648976,1.7488415738779914,1.4059100399774644,0.9982855424185878,1.0771854300615502,0.6547956803312163,1.438289656238271,0.8850651982421605,0.6473596560982717,0.9194250560188797
60,0.045602725981185116,-0.011381594340102417,0.0024865652798129433,1.0031088914879993,0.9771891423028269,0.4727992874428617,0.7384996968509322,0.6149024897903288,0.23135004271184037,0.27673065489214194,0.6309483474627791,0.49256739832118507,0.16052608278158706,0.10124375888110373,0.9384117445651624
61,0.2600120440016303,-0.011404371721142614,0.007817786333651489,0.5875466904703252,0.5020847472110712,0.45334342987536347,0.7551098669245677,0.7331609062499879,0.6528586351079513,0.8281380350180373,0.6207552362147116,0.8251305656174701,0.5694200066315617,0.5773727832191784,0.9367815188730633
62,0.19437512577710087,-0.004989774073897543,-0.027115417952996185,1.0394985548675033,0.980181709701958,0.6599513200811766,0.7626652767049346,0.5552308783925876,0.8792006115637911,1.1576209111833073,0.62595550513784,1.1033568596988665,0.720030884987365,0.6917032362790841,0.9294675114725893
63,0.13917396815049027,-0.005820011241002079,-0.0018686901881440482,0.7677604688071153,0.6383738500620864,0.6075928969315973,0.8422136266596661,0.6242315489227225,0.8701412937634765,0.8315510617251864,0.648888643467878,1.2049362312355993,0.690629406718045,0.491246832168575,0.8966635938708423
64,0.07856890493372169,0.00012577558860570916,-0.011469539207826061,1.1016357768124048,1.0469759136592836,0.7794935484964244,1.3864876926492997,1.4237868473424244,1.6306576945914006,1.8863575171064384,0.6153451465759925,1.7813471988807452,1.1852578650150085,0.7298586335764905,0.8819717898051943
65,0.21513062211912298,-0.025100799594203825,-0.010754304092316676,0.9547029761106806,0.9300616782924442,0.7215498144922736,1.2870739952453338,1.6465625864465296,1.9376493846165341,,0.6309483474627791,1.868856519613022,1.7538191340442821,inf,0.8682628997327837
66,0.48514401298616205,-0.06333109970246223,-0.03791897564229674,0.5344781181538073,0.5175787558246029,0.4147415664646314,1.2970526615186362,0.7593758302853468,0.393976223427926,0.22915956559383552,0.6284777104787076,0.8001386551381302,0.36735936789917417,0.15492470593271898,0.8201053464936934
67,0.05659505368064391,-0.011288248813526254,-0.008723884721174455,0.5273812636683872,0.49571883111883186,0.37797277228412096,1.2813039847686283,0.7347648296473606,0.21409066773611873,0.1954162134023884,0.6125606311107803,0.4031843776190322,0.15397609374132584,0.11326894506840461,0.9067307832744494
68,0.3104036962935728,0.016089994768594656,0.03407699555935509,0.8462708541049957,0.8056516814586765,0.5064944388304703,1.4542669025688846,1.2213289439403785,0.417185786628241,0.4188007697988372,0.6380535849069913,0.7435987240560435,0.34645033395157837,0.29438037650275645,0.8238576112400304
69,0.16517154223026076,-0.010659219116468485,-0.013758262509318095,0.7008393768317657,0.6466156622653567,0.5634561040093373,1.5705852716306183,0.835080727846605,0.24854804254489388,0.15620796362607603,0.6068309995095971,0.7002389343737015,0.2006706954621511,0.12609542997982215,0.8475234216601348
70,0.2442521762594059,-0.02287292335408024,0.015870660586361232,0.4163996051380652,0.31448853283714817,0.3022465921929539,0.7157305463862884,0.8526856037674672,0.6356175021372503,0.9450434172948344,0.6153451465759925,0.7694764213239682,0.49075324257980457,0.5930506619725328,0.9388850996005056
71,0.0909144898355879,-0.0024454515855874895,0.005479696716108123,0.8284792944444486,0.7735557290803565,0.6516799115932138,1.6908557894187315,0.5090328829567552,0.3757510376869603,0.15691272804941994,0.6153451465759925,0.9306150591623086,0.3188201192403848,0.1502371590187905,0.8766270230588912
72,0.03235476129506476,0.003950966998671927,0.001813190761463232,0.7676321070808172,0.7255038964587068,0.591094498600098,1.4751121439870565,0.8534516898689839,0.23451125360817746,0.164051349737099,0.6309483474627791,0.5776977297935785,0.2058848649045131,0.1304329496015624,0.8993783073850045
73,0.1540121600876964,-0.015193403392305549,-0.010988663822602837,1.3001543429864628,1.2686829099664831,0.863346985606608,0.7321235132962879,0.7055439595231972,2.4513948688851164,1.915251786816499,0.6284777104787076,1.8627543433856797,1.9275427922983759,1.9201743271229423,0.8427624693912228
74,0.08458953842456284,0.03110908447593158,0.013700097236030107,0.4512955761728361,0.3902182279989173,0.3045025678039093,0.7781725194930736,0.658943975125303,0.3311799498321039,0.36068945828241994,0.5947193981915972,0.4063488318102874,0.2287181376731333,0.19405267593311845,0.7927452474059633
75,0.8115452418140857,-0.08174473336936919,-0.03653933307043844,1.2781568861145276,1.275761256155759,0.8482335004365229,0.45970032659060456,0.6138644549488916,1.7322423023012963,,0.6207552362147116,1.849812400676672,1.545734309476669,6.913405950490952,0.8094593161220495
76,1.4340359830894998,-0.3066328356906116,-0.09207217283943417,1.6186124790241163,1.6689408091474467,0.9155890929115279,0.6892738033195538,1.0416499398395915,1.9671076715455749,2.0188981358884486,0.6125606311107803,1.894752419411803,1.8877053816616993,2.0799297037593374,0.8764218287041406
77,1.90037916514745,-0.4642169594394622,-0.2289899504565328,1.710183203599564,1.6920483494882301,0.9175542746981069,0.7441342273229593,1.1464260736948289,2.5262120717013574,2.4338336244744596,0.552929491858785,2.562940265927101,2.299275023050882,2.2548902191860285,0.8486635669050066
78,2.7488121302672393,-0.23357811352256386,-0.08711663500861404,1.6081802838435144,1.5795778798708215,0.8832053273615628,0.7845239649146755,1.276525637920451,3.5658380625807498,,0.5783247308855777,4.338541522734142,3.284833792659998,inf,0.8390867074286045
79,,0.0,0.0,1.6085469469083482,1.5885102663830653,0.8734749499288846,0.8668039422713326,1.2990777255036643,,,0.541134803179459,inf,,,0.8059536138025176
80,,0.0,0.0,1.737001510856414,1.7089263129710435,0.9129113520416241,0.9896507088760907,1.656786729114295,,,0.5748741956352443,inf,,,0.7984681062013547
81,,0.0,0.0,1.6118739898576977,1.568368597620215,0.8859433901184834,0.6698010098534521,1.0184115840169508,,,0.5947193981915972,inf,,,0.8068479435391751
82,1.735032303594793,-0.01735032303594793,0.0,0.2583197561569447,0.17530831265601834,0.5884955460684392,0.9817115140160692,1.0206006708119157,,,0.6509067234006624,6.295577160955859,inf,,0.7391208881034055
83,,0.0,0.0,1.4979425068094654,1.4656199207277978,0.8432300361592117,0.7441091408008248,0.8584798034297442,,,0.6652988471865258,inf,,,0.8643048643890925
84,1.4514531961040718,-0.014514531961040718,0.0,1.4396419009000019,1.4145418059531205,0.8437777401092255,0.7991444792323844,0.9276673984480945,,,0.6566669596287297,6.0509786746403895,inf,,0.9129490669052375
85,2.148488551151755,-0.06445465653455264,0.0,1.437867740120659,1.4002991303627241,0.8473622218487488,0.6897694686924991,0.7801000537697363,,,0.663668482632973,5.32306553623723,inf,,0.8942632526635749
86,0.7635941339081277,-0.055996903153262695,0.0,0.4558682490996651,0.4284235932381957,0.6371296992737409,0.8710814750664245,0.9955917976092353,,,0.6447042257417027,3.1825974703978184,inf,,0.9181893841515137
87,0.812206767994393,-0.05143976197297822,0.0,1.3744774497916405,1.3531487219860512,0.8020486608444917,0.7344793701817381,0.8712643180627115,,,0.5947193981915972,3.3626178996946803,inf,,0.9006215628499482
88,1.2257668465513685,-0.07763190028158667,0.0,1.4501561059121113,1.4125909594512356,0.8595120172842597,0.7064502973426056,0.8017536954705378,,,0.6684167106117298,3.5207319503573453,inf,,0.8333331059874433
89,1.8376868893015874,-0.245024918573545,0.0,0.8425611508102046,0.8287175955358976,0.7107367052014606,1.0117534056752175,0.9346246061626557,,,0.6790044388599258,3.2570970376883985,inf,,0.9151537507577208
90,,0.0,0.0,1.3734342721726538,1.3597548255680918,0.8252526817147559,0.907496645009087,0.8931679547751193,,,0.6668815377411301,inf,,,0.8768025132016574
91,,0.0,0.0,1.3045327886616356,1.2957250698811056,0.8160871423700559,0.9509846504893791,0.9130068797237507,,,0.6357360191111145,inf,,,0.8795785415185458
92,,0.0,0.0,1.4574191764956421,1.443231446259685,0.8610316410757832,0.9853004579634845,1.0993263409903662,,,0.6668815377411301,inf,,,0.8534903637302366
93,,0.0,0.0,1.4570076469396334,1.4500503638450353,0.8487107082163465,0.8716965826018094,0.9994434728975038,,,0.6309483474627791,inf,,,0.859236335361433
94,,0.0,0.0,1.563514838249886,1.546573799101854,0.8380697248053095,0.905295503046165,1.2056889881587884,,,0.6547956803312163,inf,,,0.8598960770340953
95,,0.0,0.0,1.1829185082389935,1.1700361770258074,0.7747191527114786,0.6819571805614498,0.7718068640705266,,,0.675384900321601,inf,,,0.8620476135948041
96,2.84526862395309,-0.0189684574930206,0.0,0.6846883204161266,0.62784376826833,0.3053783525584374,0.5919530053153848,0.7422448232858827,,,0.6380535849069913,7.852216887822989,inf,,0.9614564999444198
97,,0.0,0.0,1.118495861260226,1.0603342557576791,0.8156661830748089,0.24056158251364418,0.34223440414036865,,,0.581717464821069,inf,,,0.8348858358062746
98,,0.0,0.0,1.4130662739540683,1.3801098264528566,0.8473438342285589,0.15708091059523965,0.27407454915177953,,,0.6125606311107803,inf,,,0.7742046272252278
99,2.3025850929940455,-0.007675283643313485,0.0,0.14516110362951753,0.11668208021377127,0.549453354378253,0.1845372332842449,0.2505249612545139,,,0.6125606311107803,8.006367567650246,inf,,0.9237731485001156
100,,0.0,0.0,0.24137394552797656,0.21862682879468376,0.28389515131024684,0.18254079750249166,0.27398576593553037,,,0.5748741956352443,inf,,,0.9524564583119473
101,,0.0,0.0,0.7461055711034312,0.733839879634535,0.4999636992248702,0.47140931867199737,0.5538188480197965,,,0.62595550513784,inf,,,0.9456246875610714
102,1.5737713995676876,-0.08768341387659942,-0.032972393423589964,0.29874863549611025,0.25902707894716853,0.4259333359666237,0.3271084685756509,0.32542183113687045,1.9242598378939013,,0.6153451465759925,3.779533822382067,1.5735917806609645,inf,0.969956175794281
103,1.7212058846391969,-0.05538248912616176,-0.013465746259406114,1.2389794974830919,1.2307999174755688,0.8202922672095321,0.09487091625494067,0.16399911396726047,2.1723644557219997,,0.5978297680564633,4.924457597855203,2.052290552613885,inf,0.819399116081602
104,1.4354667018806488,-0.07422098704449367,-0.04540123811222708,0.9370635137142627,0.8956675593485391,0.7443852212156509,0.1504702709106527,0.23028857088977867,4.099439295916339,,0.6207552362147116,3.6638616911386483,3.4810233811324385,inf,0.8446185094706785
105,1.3512556850189696,-0.06143619370410428,-0.0106307761635741,1.1963943119489497,1.158609703762808,0.7957587557181253,0.09364918131669767,0.15084543319527163,2.6699308727363618,,0.6284777104787076,4.0124574027499165,2.5748259809574487,inf,0.8112748661207777
106,0.7573536630245805,-0.034603930794612624,-0.032584812772601744,1.1842810108061625,1.1492458213635104,0.8230882980657173,0.10831708783695719,0.17159821424940205,3.206231540281695,,0.6425374456860184,2.9216560479359313,2.651098164313866,3.4369154642642346,0.7988775834675294
107,0.1596385070660206,0.02273327505004817,-0.013621707966913907,0.10696905971831198,0.048218663764161514,0.051033331380230695,0.1514176432704941,0.19981228559366543,0.6642901187926715,0.8322266305687817,0.6207552362147116,0.5809898159018464,0.41642059225729605,0.4103119003743687,0.737338733890823
108,2.243229930667118,-0.6614258859814981,-0.1796291751780908,0.9664703191638032,0.9669485310786077,0.8384216678118299,0.6533914972796548,0.8033430844623726,2.0107365031400373,5.495577924674908,0.6619902821573977,2.501578184075972,1.860210188356918,2.430656060038252,0.8262498267397674
109,4.605170185988091,-0.04605170185988091,0.0,1.514075738499444,1.5071959536693929,0.8374484710503004,0.7527618562066786,1.118272906060926,,,0.6333676938231112,9.210340371976182,inf,,0.8769164693378265
110,,0.0,0.0,1.4995676858500582,1.4862752688614682,0.8738029017583515,0.572316781957341,0.8294468887637626,,,0.5978297680564633,inf,,,0.8287832911812767
111,3.265154639819606,-0.03265154639819606,0.0,0.15643652800837793,0.1358512295114166,0.38137017247281707,0.2995602597343897,0.31644503088214154,,,0.5915533975974677,7.233177679416765,inf,,0.9359158569756679
112,,0.0,0.0,1.5603650086912348,1.5181197803448223,0.8608834106236409,0.1106788858874109,0.21767508155438686,,,0.585052858160615,inf,,,0.8132265755667829
113,,0.0,0.0,0.407710450922397,0.39109345209182417,0.5603643109574153,0.16408508059112703,0.26014518532681147,,,0.585052858160615,inf,,,0.9301063058415541
114,2.3853590470496573,-0.5066198232816038,-0.042012757539817404,0.9224327563061533,0.8917548338267379,0.7257563342669363,1.7381859923972007,0.9294083420471464,3.8829136685053647,,0.6284777104787076,3.5106402930435374,3.6922320368778987,inf,0.9571454313254486
115,4.278227101650849,-0.042782271016508486,0.0,1.0831894921156586,0.9503970000379086,0.6928125989481663,1.5939505061049464,1.5310916770476222,,,0.5915533975974677,8.842615591850866,inf,,0.8534234227544493
116,2.18971565514858,-0.10361107681423261,-0.05696807122999657,0.3943472455130873,0.32148875842861957,0.6736174153651299,0.39387791131731015,0.2919053305931415,3.5060150833564685,,0.6425374456860184,4.636775525403422,3.3368022194238334,inf,0.980036584773081
117,1.5435211216244507,-0.32626119161828804,-0.008168384733676268,0.9776067592819375,0.9611796289807565,0.7721769222125964,0.49144643539777105,0.5097077053488015,5.311887724846955,,0.6547956803312163,2.9979569685761023,5.151511442714818,inf,0.8088839153795149
118,2.228743519701748,-0.3096949945406166,-0.2600071451827312,0.9056543452578326,0.882200466621326,0.6185930551421234,1.0304568128622464,1.1938001210653948,2.7138258596424674,0.8618750850639246,0.6008849035917525,2.1872742464830512,2.5244917857708593,1.0224756498869991,0.930729764583111
119,0.8758844100775706,-0.10228359141925131,-0.10320502530022113,0.5601398370994604,0.46800125532818365,0.53034802887517,0.4198770669635774,0.32648579804842204,1.1735214237764349,1.2232481169586327,0.6403206450210053,1.6103271966189845,0.9808292530117262,0.7967957052814241,0.9456708342248209
120,0.7787152410264829,-0.11046367558495723,-0.0767958811434849,0.7392344656010718,0.6568905125654599,0.5777445154420567,0.584445073391269,0.7958380355829551,2.3087432166390247,1.8698981753945205,0.6357360191111145,1.8038995291222237,2.1547493176459778,1.9808559614090695,0.9227891804823728
121,0.791656981360809,-0.005996679641636415,-0.09168762492742802,0.5335829578177741,0.4775013382909346,0.39580346786103127,0.6049916894167042,0.793077610531383,1.8407401047880472,2.5454718584114318,0.6357360191111145,1.6800988410217488,1.426192623099306,1.163200451147,0.9059950894236901
122,2.816513419444773,-0.5295165722884253,-0.14576463388251398,0.8378337609322665,0.7971338624524268,0.5789340565664072,0.21155282257357316,0.32670235084193955,1.9295329494355704,7.293097192987597,0.6309483474627791,2.1715568305876416,1.7516394754386297,6.7912214627261855,0.9280815846724105
123,0.037139892847338214,-0.0053233846414518105,0.0,1.5548160736217025,1.5433488206384054,0.9041411648261938,0.1661834725042089,0.3165140703527657,2.6333346369944675,,0.6207552362147116,1.968496647728109,2.640012439525497,inf,0.8155433980921774
124,0.06787815749217319,-0.00676268927305235,-0.002513992250877987,1.5204766915509191,1.4781180718307294,0.9257548167665377,0.20010335215818878,0.3174814026225863,2.9820062794019893,,0.6584896970785714,2.0252901134287518,2.4372237721578163,inf,0.8429843253584998
125,0.14368674844609447,-0.017242409813531336,0.0,1.3639771917864072,1.3335310121941033,0.8099567234631345,0.1910793685466101,0.3136345886855927,3.1729074216843447,,0.6547956803312163,2.1526336940083444,2.455875393245262,inf,0.8326819615087301
126,0.007947428307619058,-8.255002703016785e-05,-0.00096526403646385,1.4723753866215181,1.4195563048463773,0.8888876056320563,0.10726569077023108,0.19267869853940023,1.6433088963736984,2.10412296865044,0.6425374456860184,1.949661621481266,1.4830264272722602,1.598149952660249,0.745153744863367
127,0.16977663016178843,-0.015565867615706353,-0.0031095617020903735,1.442308072844657,1.3973679778267312,0.9092177070071182,0.10952083681812853,0.19205923432673222,2.6125810707908212,,0.6309483474627791,2.2588872377283264,2.57499754462343,inf,0.7643515235774524
128,1.4560303435443969,-0.17102138816429102,-0.12663931843524512,0.6051095568865799,0.512742000019815,0.5840886840725695,0.6596209520893734,0.5009031805766111,0.8052504349330706,0.34993050181339475,0.5748741956352443,1.8231813392363951,0.7370237346018335,0.3138997115940643,0.9094031044452529
129,0.024084758156433083,0.007975037099596087,-0.011840699548160378,1.1929089788590304,0.8645465923472975,0.7096082380125447,1.804378464957898,1.2774034453761278,0.172270189804885,0.11143936324018683,0.62595550513784,0.7243168350832104,0.11921405517920038,0.01417651751284685,0.7219513141599788
130,0.0,0.0,0.0,1.5978028963086188,1.5688230869937099,0.9086060977233819,4.661007727407348,34.954452612715286,1.719427696475589,,0.6309483474627791,2.371577964480997,1.7261054990066182,1.6127879993193823,0.6759934616979689
131,0.0,0.0,0.0,1.138861387829061,1.1152489839821733,0.7587780550307807,4.368347647810574,46.95582932218026,2.2653446400528496,,0.6566669596287297,2.336486644669727,1.984340370132098,inf,0.939413345488829
132,0.0,0.0,0.0,1.4899388532730105,1.4815746634928004,0.8921173846518486,5.235888333358662,31.437719970056122,2.5223897430427407,,0.6425374456860184,2.4849066497880004,2.52906754557377,inf,0.9091233090014144
133,0.0,0.0,0.0,1.5794875327838453,1.570562578258014,0.8944919934105455,4.512810585135413,21.085249517359436,2.299246191728531,,0.6509067234006624,2.70805020110221,1.900458886151396,1.1019623755533916,0.8611955923398571
134,0.0,0.0,0.0,0.7593445932448524,0.5567998945352876,0.4390396495581021,0.7176969947780526,0.6302764573533793,0.019972177602932618,0.0061286570692618315,0.6566669596287297,0.3238851211157414,0.026649980133961762,0.012828830839825804,0.8722847665941368
135,0.06060523086070726,0.03721490973639659,0.037608048405670017,0.3476184827122292,0.2039239123879097,0.21149851098795044,0.48756597441743643,0.40321770252879346,0.1289275025260504,0.16967455934826509,0.6447042257417027,0.2156715364755087,0.09049137055879325,0.07899316607599774,0.9345873302253146
136,0.7204663217557756,-0.1344725737778099,-0.016814074100625423,0.728084702631036,0.7188199984638732,0.6062307262693157,0.3913034851559113,0.5086333851443288,1.6858174867802338,7.301842623768627,0.6403206450210053,1.713379681902003,1.5973677968380802,2.4030853317696192,0.9225565456062875
137,0.0,0.0,0.0,0.20815691547802762,0.1843873627079614,0.2810115357031292,0.44692367172080166,0.5074826076287651,1.2389287040494659,1.383183137247807,0.6584896970785714,1.1290714961528183,1.0815423183024173,1.1972725553577166,0.9069896633002934
138,0.048900536903656915,-0.006357069797475399,0.0,1.3908193426323245,1.3508740145564349,0.8465448432549365,0.3227438867543208,0.43546642196657726,2.243376918953842,1.3795941873493267,0.6008849035917525,2.074122380202236,2.246704634599589,1.3896444480051726,0.774921900274063
139,0.852814484272243,-0.11180808584675561,-0.04416756951928266,1.1497665235906722,1.1419989425945012,0.8085996463360957,0.34654349257347156,0.46995763729278583,3.548749620888508,5.186256677119647,0.648888643467878,1.966033494442709,2.250102124833314,4.99420475270016,0.8807138516464992
140,0.6640464181611696,0.042876984508484595,-0.12252128489593739,0.55811228216695,0.5416266726113025,0.30012213938945254,0.5018249474589186,0.5697322705859716,0.5974558380351325,0.7039608719902585,0.6357360191111145,0.6768802080960734,0.4316814114257045,0.41694372466811674,0.9527113623599996
141,1.18564356236531,-0.09927039664386245,-0.08106706312665107,0.6983511422120023,0.659607941033169,0.5606191623108631,1.6402122354361106,1.4258792734050103,1.0437986898967695,0.7362044059514014,0.6008849035917525,1.8469198804053304,0.9891531040834554,0.5935238716950675,0.9391676792743506
142,3.4226083530053892,-0.1701744857422911,-0.29923541720842417,0.589580053750693,0.42828002374769714,0.5663484906540074,0.4798596742944724,0.3239180656143937,1.6008648238583567,0.7116131042370835,0.585052858160615,3.060685695565842,1.4904172691519733,0.649886057869659,0.950774248330471
143,1.155185116031805,-0.0548197489382396,-0.11467799250899868,0.45437131562253136,0.4311142438463318,0.49541453407931074,2.077519578294937,1.3067650712742123,1.320500071197023,1.3025621442387676,0.6309483474627791,1.258507212900508,1.077404884209605,0.8085780163996923,0.8924343991088127
144,1.945913516837339,-0.038918270336746774,0.0,0.3980663047016575,0.3476383509071019,0.35741939119790334,0.34084825278909475,0.2413639965697731,,,0.6566669596287297,4.9367654455298,inf,,0.9209489979445288
145,2.037190000503725,-0.23561257898306343,-0.05918677063371211,1.3899653972079897,1.3466701283852984,0.8634308720654689,0.22425624659417553,0.34778589218464556,2.4649554907160933,2.976453317576567,0.5748741956352443,3.8733366230383126,2.261228767710343,2.7880929087757464,0.8753993946295637
146,1.0484390267391859,-0.14080661495320315,-0.04477261630461147,1.558777558731324,1.5381744465521487,0.9135020872941513,0.3677168279110462,0.5123890145736072,1.9115099000583757,2.467277405485246,0.541134803179459,2.4936110904181468,1.7894755964008313,1.9828147059907641,0.870654874614032
147,0.3656989947935321,-0.04712174008484447,-0.005295115835561797,1.4416777108415881,1.4343010101529148,0.8831576168545298,0.31374078873295363,0.48583996322830203,2.2533090965415052,,0.6068309995095971,2.120263536200091,2.0302987060202384,inf,0.8199008933889114
148,0.48206222252391523,-0.03163371550860207,-0.01907385035363094,1.5759537424776295,1.548476266115477,0.9256084049687986,0.26197520862100787,0.45150122501546924,1.5521343520272461,1.9792153098984486,0.6284777104787076,2.3905666374136394,1.5570835456576577,1.97511783275045,0.8435095250726286
149,0.3037487784353172,0.08908506355055423,0.017257643971887116,0.34582804303842074,0.3053065848802563,0.21765935414171533,0.5949174808061649,0.5054863378196305,0.720718311403336,0.828164373372198,0.6233814453054027,0.6762026642756898,0.45820952852360725,0.4056033107826062,0.9567939399171866
150,1.3957120256852478,-0.129920364415617,-0.1685908513422395,0.2968598972146867,0.2830394619953306,0.36299458453570704,0.4594799835062477,0.5232148391410425,1.587180960536141,2.2910989489075404,0.6425374456860184,1.5836618761191166,1.362222591707307,1.7511573720335505,0.9628244563846067
151,0.04957268598180548,-0.01105061353554956,-0.0047900865980731264,0.22490934442804392,0.15874381110514887,0.17330638789834354,0.39356369231951427,0.3855344351176064,1.176620747087114,1.4869370710203154,0.6125606311107803,1.1731562532886333,0.8484357554044282,0.7988806218234362,0.9515174563761002
152,0.10086866647650149,0.024018524775727593,-0.0028723635632956074,0.7000132801019895,0.5935297792148351,0.42656869779481105,0.7597171707987777,0.36041041407254293,0.2245930912757744,0.16828450977188877,0.6684167106117298,0.5266163096723148,0.18284093761338022,0.09867688162863247,0.9552163274777519
153,2.632483074768102,-0.6567367697876627,-0.3220938134513395,0.6293603308698391,0.5367244289933839,0.6119429888257517,0.805801401757831,0.9233552195370933,1.6653345422113486,5.8110721432415176,0.6547956803312163,1.720555710221723,1.4850748878964573,1.5110920737756586,0.9276233387921429
154,1.0311400356192502,0.02518525405238292,-0.12620323496563518,0.5391864043560664,0.48091759597456035,0.5061501108981173,1.3025149599173416,1.1553964333204558,1.0032624450502041,1.104195638150216,0.6233814453054027,1.3768722225409857,0.8690175267765147,0.8434208711960567,0.9558529053409529
155,0.23901483607255197,0.0032141994534321955,-0.014602598433251832,0.6848076388013258,0.6678654380584137,0.240199458405042,1.8256087562064294,1.5822648979424676,0.7736671061312019,0.851754670247893,0.6528756675646988,0.8736836648775468,0.5438032768176291,0.5011972211065459,0.8244028749302144
156,0.5181015103922985,-0.04032716089689549,-0.06648017812110664,0.6332365275958795,0.6370071585195319,0.6016062439974764,2.285755032864378,1.5951890897940655,0.9294282149472697,0.8165718684761524,0.6652988471865258,1.516656178983134,0.8371052561733126,0.6267538725926839,0.9505143360246461
157,1.1019626463665142,-0.2662149032913421,-0.11133074987765335,0.5505568646971462,0.4205299787665398,0.49481147341555903,1.1126888140674003,0.9541096471545987,0.35277394779054716,0.43190379341563395,0.6684167106117298,0.8468942381499154,0.260086300188711,0.20465996790260016,0.8304868961026125
158,1.8862412145639804,-0.47199015803397476,-0.21693573186755807,1.2765413833721206,1.251609449564897,0.7909698635169463,2.1585666728562183,1.8320504561099242,2.806696013179168,3.455352483612866,0.6207552362147116,2.2989251321625583,2.639389500354071,3.2111537787742903,0.951843569198615
159,1.2439135554770488,-0.30509494063519327,-0.12065565689582358,1.1347774115640672,1.1207959872705688,0.805626955368891,2.069562923457688,1.804968757911885,2.0358056890567227,2.38325854943207,0.6468212168108125,1.893718369537553,1.752527398826862,1.7849682716500532,0.9663552686207928
160,1.607547710533676,-0.4806715754648376,-0.04564359512720141,0.77266690034165,0.7628696714205763,0.7025168912683857,0.973684057763442,0.6744916007274208,1.9561134813463799,1.7006419536449078,0.6068309995095971,2.2361733274747944,1.8561732320846334,1.537566066530318,0.9628552661589832
161,1.1241600306962076,-0.1402312455139273,-0.09209516082995563,1.0766288572630205,1.0395297043453762,0.7618430749998467,2.5393913893195097,2.397995087790708,2.9812971882264985,,0.6125606311107803,2.1096716803283577,2.4435387667290227,inf,0.9344646037364341
162,1.3637970141240814,-0.2143221240733422,-0.1166013461743038,0.8785500324674758,0.8695175586440148,0.6590674408084968,2.3819138636668926,2.0013266266804823,3.077828919833457,,0.6509067234006624,1.891727145014437,3.040405087593875,6.47543271670409,0.9292130967551913
163,1.6159638944620602,-0.23332934342586725,-0.16084785581291752,1.1529490180600883,1.1206213686081428,0.812571130885612,1.9638026194086622,1.106084212798012,2.5168089483717626,,0.6333676938231112,1.9409557755901818,2.3088736894723136,4.385146762010125,0.9390656120174677
164,1.4400946301251314,-0.31210715398649835,-0.03831587267728358,0.9258913971769452,0.9141816522679559,0.6851030324227083,2.264921452215401,1.9820990519218014,2.4103960169477143,,0.6740851607140061,2.0827358508515212,2.122167901937643,inf,0.9578953264962761
165,1.4520549993193652,-0.24767309651850455,-0.08151415110994595,1.3016210801915382,1.2861642317559487,0.8787446439776445,1.9714643858912346,1.5364612406585159,3.643446583424823,,0.6566669596287297,2.080686761088268,3.5127476563990676,4.427836170705175,0.9506242511382235
166,1.630168445234276,-0.3422506504716594,-0.07159589514751437,0.9119246233805115,0.9145732046837963,0.7140565880884392,2.042276566198894,1.432900246428709,2.841278776564414,6.393557271538257,0.6309483474627791,2.159350924908138,2.4358689302267855,5.713732805509369,0.9508546575790116
167,2.0149016381051768,-0.300036748031316,-0.3465311775737809,1.2976740929096588,1.3076766808482716,0.8183818991347337,1.9225362929318635,1.3941617614058182,2.7754619373752862,3.2449654739206277,0.6528756675646988,1.9725621800527398,2.3953424193975867,3.10783471713775,0.9504056603575173
168,2.5698643568765434,-0.20344115454923817,-0.35482776901644186,1.2124615936041123,1.2143843664633656,0.8001381691251694,1.5038488647792436,0.8526675348987374,2.518558109567208,3.697067892837123,0.6357360191111145,2.182828697052487,2.3240055882147423,2.5699973237588414,0.9521482726659813
169,2.2404753544391443,-0.38419886523747027,-0.3506334643855183,1.1426558173130035,1.0861160570379877,0.7793937861955187,2.1397920706184026,1.807239621163228,2.2280274977654093,2.670642799578867,0.676637947632344,1.920805697163149,2.026844485908148,1.962746540947903,0.9521385496789371
170,1.9163846889442997,-0.13972314675361575,-0.44272603043186565,1.0317237264684112,0.960302021179395,0.7372147991086578,1.6023907349151334,1.3010159777096408,2.510902254891529,2.021929344085274,0.6357360191111145,1.7614889462098076,2.1827129575825737,1.6169242704622966,0.9514226409332822
171,1.1354723075163604,-0.0952665713441429,-0.171070789807638,1.026039190756644,0.9981429728080857,0.6986835323360003,1.5855985743620777,1.2036284984819516,1.1912423553093323,1.4605844416250617,0.6547956803312163,1.3016264686871537,0.9988497384595403,1.0487614355847503,0.9585213584601951
172,1.0487370514572796,-0.1596061287910742,-0.14855287422534424,0.552371288736648,0.5350899225744223,0.543159167296929,1.4179056619416939,1.3814567649052762,1.6780809101028422,2.3936564704331835,0.6380535849069913,1.5173146235582946,1.3581685218441195,1.497693873994485,0.9533893837706894
173,0.6462154018468058,-0.13671420496723374,-0.07051467647206298,0.867573460837808,0.8386569300142976,0.627157876569117,0.9864377349630107,0.9728102056284442,1.5279653158000117,1.9544075197906012,0.6619902821573977,1.3882518312706837,1.3504294133850485,1.6703740624060688,0.9457343669331671
174,0.6758138267693077,-0.09787148015646706,-0.053060274488678325,1.0412659862962754,1.006617748555769,0.7348153638848209,1.4721169506383494,1.439454644642008,2.3010674965637463,,0.6509067234006624,1.768759344998994,1.7828734045947943,inf,0.9502865619832218
175,0.4946017435270932,-0.007026196698573822,-0.02320411420372187,0.6423316884578254,0.6173429294337692,0.5594586880553007,1.198403628120485,0.9047295413519689,0.8965308648270834,0.8545212088545032,0.6740851607140061,1.1012490953226135,0.7139154823517635,0.5993457414918923,0.914963788540897
176,0.4138696553935939,0.05512258162617073,0.018726908819433202,0.9521916441075043,0.9000695937968904,0.5994125694880519,1.0999475321772736,1.0141608364871184,0.7314462195010937,0.9378703451734828,0.6727386042041725,0.9253595069673649,0.6015771839549917,0.6741955112448798,0.926179047205585
177,0.230308005554619,-0.013793604837758877,-0.017068364376126785,0.7988973478089479,0.7442069161172892,0.607500616138548,1.129684691641862,0.6809492593401474,0.7190145360204122,0.6145643120772635,0.6528756675646988,1.0465259754697782,0.5252950733930153,0.3990650862626968,0.9460290415104907
178,1.4563386413088688,-0.11204824375849498,-0.35062368250146975,0.5720629391543259,0.5379599054015447,0.5773033342745443,0.7350472579576351,0.6135545623466034,1.3113550102668179,1.1190649109991901,0.6153451465759925,1.5570563215671607,1.044533968433922,0.7341315097021612,0.9401799137439835
179,1.1262273616489384,-0.10481905383783247,-0.14714769957756846,0.45532982386116677,0.38113717331556,0.5278436612625033,0.43890647196279337,0.3040689104641178,1.05094578541048,0.9676363798652957,0.5978297680564633,1.5705377634765438,0.8458383439043478,0.6559972584983076,0.9674682956387126
180,0.13495351538257658,-0.015257693312961923,0.001081598319565738,0.7755392419689652,0.7485195425210535,0.5595212435923476,1.2800736067514296,0.8585218710171323,0.793287468124911,0.7803967177162944,0.6528756675646988,1.0328245481301066,0.6279651399337025,0.5030001131861728,0.9515649268760639
181,0.6119621733125806,-0.10019792572647455,-0.032150735235514025,0.4444379338012615,0.369634235310631,0.45264104348762596,0.33354237514506,0.2705641150202311,1.5475515065549652,1.8470893988826609,0.6425374456860184,1.432873637769942,1.140937088124065,1.1936310507230314,0.8656140709761335
182,0.18290083958406125,0.04802107412659844,0.026371578005238122,0.7875107305611536,0.7202578724825853,0.5553439834881188,0.6836297522270464,0.3665519818450771,0.48923163399032144,0.49823133653474977,0.648888643467878,0.7373777554733606,0.3091798620613815,0.2573173752288898,0.8570412416082568
183,0.21238613786816918,-0.026966454113268923,-0.0030471815892950116,0.5997848104311647,0.5294758925816355,0.47794897017812493,0.5142109816341816,0.2876351027842142,0.6325278467750723,0.6099440397035715,0.6403206450210053,0.9159019185829514,0.4625565567691644,0.42584602137823424,0.8477010174992765
184,0.3080047852607518,-0.07183223820367864,-4.639327682151237e-06,1.0597642879781133,0.9998576582354011,0.729608166042078,1.2781980614926007,1.0716848863972055,0.8415716973431672,1.031661781269559,0.6097226960127671,1.358722428916903,0.7649729151312008,0.8780550018314501,0.9403402960853524
185,0.07756481408469229,-0.01261397240897523,-0.0027446683833944156,0.7682729034384588,0.7059817987895828,0.5319351566082795,0.9484857483955518,0.6881821150568166,1.489041918985045,1.721365557832282,0.648888643467878,1.3880737210199678,1.3164825908279862,1.4299160414649257,0.9512411053288398
186,0.9459110474428637,-0.05017400683924195,-0.10566787848030203,1.1137491040742271,1.1068715050148028,0.776892149027921,1.3839434089451017,1.3608250181975743,1.101339332095458,0.9364301960228114,0.5947193981915972,1.7124554958900102,1.0435602095070755,0.8620946778286431,0.9206356127834514
187,0.5920744788759255,-0.012981218520654536,-0.007782970619747309,0.9382434856715688,0.9183343182341167,0.7024074552162659,1.9306025141756764,1.6004856197163155,1.1430997901068332,1.1526906894507947,0.6309483474627791,1.418220853016591,0.9716180705990153,0.830148630105285,0.9464890780112992
188,0.2081481635371454,0.028104140073725095,-0.027955400164426047,0.9709696782581341,0.9208554219066654,0.6111845296715712,0.9602840414336676,0.585393389958018,0.4715433939359814,0.4255931889072459,0.6668815377411301,0.7309875135431257,0.3554656643011744,0.2437549489530033,0.9525354596283344
189,0.08047373366139025,-0.0013606081838587747,-0.001085313196362063,0.569813173141393,0.5078200921919656,0.48076588885708077,0.9087057685467065,0.4760339466930459,0.4189574682270955,0.2815515833354847,0.6380535849069913,0.718009251952093,0.30806534442569333,0.18272465132507903,0.9514742300037196
190,0.060380789633069996,0.03121475433094583,0.01880660314780909,0.9779073655595376,0.9425213937073463,0.6365348159715252,0.8725829697860443,0.39742847470029863,0.3421502795094202,0.2653432171028963,0.6180765742263259,0.6702339278696512,0.2657211075345236,0.18333626447233584,0.9552980847454726
191,0.07753264204544605,-0.00770835205082249,3.090141719519143e-05,0.9339242413807923,0.8730745479153074,0.6845887539406781,1.4055432614895644,0.6826249871002734,0.33155113195081726,0.26719700651065126,0.6547956803312163,0.9680227189645078,0.2841293250721045,0.16703288572169928,0.959244135596732
192,0.1087415801592284,-0.005377730662181453,-0.011236184200753587,1.0908113423911467,1.0681331591623755,0.7826725174740214,1.7993091366921965,1.0367346075911907,0.6666893633591171,0.48861191160821577,0.648888643467878,1.2083899529863553,0.5789791679404068,0.3937852762319628,0.9516770227782801
193,0.26001475661879697,0.0018938829170531551,-0.033450348737391875,0.9344603604254831,0.8512039278184357,0.6178737305444144,1.3087079549407759,0.7701443146372471,0.47649204257931044,0.41590794938584474,0.6403206450210053,0.9254155702067136,0.3304745048159192,0.25109153490103103,0.9616554304419038
194,0.08465805363826721,0.00023368742207082946,-0.013647245743864528,1.0727546528991239,1.0677121660949842,0.7327747760378776,1.889100992317923,1.3665024091666578,0.5963054084124332,0.6490078382727467,0.648888643467878,1.029552752736615,0.4711802427892694,0.3404268239972976,0.7991883003162942
195,0.5152164846066573,-0.08329838236990561,0.015619082130838298,1.0941847521709325,1.0834762646820377,0.6919316183319009,2.4293480940586134,1.5213618566902212,1.178551343903955,0.8279946313868162,0.6619902821573977,1.6111059695347973,1.1806882250003732,0.7829632382523665,0.9211642582160218
196,0.04728604048521893,-0.011078555685699425,-0.0010425041395777418,1.073780595349023,1.0065192928437077,0.7913547748955551,1.987622189128068,1.494402407035086,1.1372876839486494,0.9939753756130929,0.62595550513784,1.3641415564787573,0.919948953879124,0.6569431623405113,0.9532100435505182
197,0.12593614451085405,-0.01785822157673805,-0.006828093655445226,0.9029237615992504,0.8328942251877365,0.6708452283562543,1.1124782258064392,0.823369504582288,0.9428152634651891,0.79680407138487,0.6309483474627791,1.1431913320660771,0.7255211783301061,0.512314720015789,0.9498011626198214
198,0.11099097453806789,0.024095705744646395,-0.0016043526170355232,0.8335679647854355,0.7980705202380783,0.6436486299264296,1.5607423376108882,1.1035623747765815,0.4559506083526893,0.4191230025259561,0.6447042257417027,0.9136276144546713,0.3472683372708857,0.2574832297615767,0.9478202250510148
199,1.340274500129604,-0.08398314765440662,-0.19701432991600132,0.8221889605404497,0.7870129374427888,0.6267887372105337,1.480901883892445,1.1254812717476752,1.7175965225970882,1.1989085712713259,0.6602640781246099,1.8005984178952592,1.486377819676873,0.7617578133979159,0.958843014774107
200,1.5622808118611058,-0.108127272261901,-0.11066506288216882,1.09718341029843,0.9914583537697821,0.7545548640641775,1.7574143483907743,0.8663127939278266,1.8954638774545827,1.5109703363482112,0.6068309995095971,1.8160521617970997,1.6339853852845294,1.2300956773799174,0.9528810553106287
201,1.2793638970909589,-0.28377894883176474,-0.07226757479011642,0.6741085607766101,0.6258917547306097,0.5230526064048315,0.43884882294656413,0.3165929761839844,2.912960343728045,3.6365092435101842,0.6566669596287297,2.205660056157321,2.610231161146423,2.301214290860267,0.9664009173534706
202,0.23917758156018581,0.007748203673712747,-0.009371323750822294,0.6614794946786453,0.5741121106293652,0.55923214669339,1.116605160410182,0.7142374465858701,0.753155820089657,0.7899743413655467,0.6207552362147116,0.9457481503663165,0.5399001109415903,0.4851581321804455,0.9614074456994175
203,0.020790127836338018,0.001100056321638728,-0.001020405960416684,0.7778094825157598,0.7466922152125163,0.6315850565694965,0.903751952493224,0.42513020381372224,0.4186085313234772,0.26621453418613134,0.6008849035917525,0.7895601904801364,0.3435400286466465,0.1808941524617723,0.9596703306826863
204,0.3658519733263292,-0.010446816588988175,0.012803965970992051,0.804843337636476,0.7782069800214203,0.5599658254935206,1.3500341308638875,0.8410541441833499,0.6695060341224655,0.5230660394730735,0.62595550513784,1.102988517069089,0.4909041840295492,0.4521570484404634,0.8216756349079533
205,0.0006363993213969952,0.0001382330236849496,0.00018591156039703295,0.9059227432756757,0.8082631417446637,0.6440426136232685,1.1706519902063761,0.5260655297286172,0.3627080137852229,0.26930049759878794,0.6180765742263259,0.7771570061094075,0.23978313391467723,0.16288220406956808,0.8317670625572865
206,0.04848375621457503,0.00966257474894839,0.005363588624723758,1.0907996811449125,1.0311829468235658,0.7733872185141486,1.4501947309865508,0.8265035940962082,0.7474339624527386,0.6160100917301963,0.648888643467878,1.1181349551569737,0.6601819383745925,0.4340213216147014,0.9000050121732021
207,0.054335483417673094,4.975007544475232e-05,-0.01366695611636716,0.9146440968128269,0.8933684461201435,0.6765610687712015,1.5099075156341433,0.5386862822999328,0.4353984984755646,0.22277427001666414,0.6357360191111145,0.9406688106021552,0.3830472827553506,0.10878510492954628,0.950857191079956
208,0.2679049997373539,-0.06060489725993681,-0.01684462026596232,1.0235041779857617,1.000078803895243,0.7172147802149949,1.3879552846435472,0.7300180294060974,0.45155195126261494,0.4157014438684988,0.6403206450210053,1.0635025782213505,0.40936689143073024,0.2185018255447057,0.9487714913470066
209,0.25961675856837324,-0.02079899328900206,0.010004953013916393,1.0652333697136278,1.008281892869329,0.7444122737212815,1.3707890821977216,0.7678708176621045,0.6257326892112396,0.5382908299863632,0.581717464821069,1.0500761250080444,0.5181132172354741,0.2953526000802359,0.9565897210732155
210,0.30822212006869687,-0.05097224095982449,-0.0062387642891556655,0.9449890764603579,0.9280565849344155,0.7224835189604377,1.9048058771054222,1.1407939734898798,0.7839009204358465,0.7041435720628478,0.6284777104787076,1.2362282020782134,0.618116142341463,0.39112554554453766,0.9381067947815634
211,0.1952992969908707,0.002079003125563819,-0.00023559337682491077,1.010772484754113,0.9570294114113046,0.6680451600472537,1.3773141480076307,0.7710846549046471,0.4883999037392707,0.3592265836947464,0.6566669596287297,0.9287570028297715,0.4061685112011904,0.19827178131916456,0.9574448090574529
212,0.848097514113101,-0.002655376986809288,0.008748537845025606,1.0725256400471708,1.042633725951558,0.7317716262101274,1.538691795316474,0.7538513311426343,0.7751580232714342,0.7800231984519734,0.6468212168108125,1.1602040446747506,0.5957379316879108,0.4104624586336718,0.9381334814674698
213,0.44373920189394067,0.03295544709515075,-0.052849254219523384,1.0794457914402822,1.0415687370076079,0.7255806607035528,1.1524317164113187,0.7254325055765973,0.6641747290289951,0.5569012710950623,0.648888643467878,0.9611718795468718,0.5645889120605613,0.3812598957334961,0.9147999445002195
214,0.7290905825864092,-0.058284475010063064,-0.02539293211037616,1.0675591861546108,1.0625705306097175,0.7783848767785998,1.7863260606324578,1.1586651698238601,0.7212052455233753,0.6603710307783364,0.6566669596287297,1.1488535051048565,0.6341444584546259,0.5076585585692897,0.824318789011873
215,1.0087359328959973,0.10388356233631768,0.04606012449580699,0.7593150271340132,0.7205054438731981,0.643279992581743,1.033383960939669,0.5006874406622182,1.1005473981093836,1.2069493039752592,0.6740851607140061,1.1035913302152736,0.8367454898425754,0.4938767154146333,0.9576080052350521
216,1.5706713013088336,-0.5524292713005066,-0.1438394006608078,0.8537088501019131,0.8178240613284531,0.7088090879226456,1.4062097726590963,0.6177644404484868,2.3845766489665223,1.3553295653496955,0.6509067234006624,1.9775269564263094,2.127541569158767,1.3544614345466799,0.9689771312874621
217,1.8416832188651013,-0.5617415209083678,-0.16980731960266868,0.735367700774395,0.7149591433631545,0.7822321937901254,1.1026656935367398,0.6284511016085197,2.376475188530138,2.6082596042656343,0.6547956803312163,2.315107617992936,2.0388716041257893,1.8945304279791475,0.9677497214167478
218,0.37235805257213794,-0.04706152718984012,-0.010155277061382972,0.6454009924695305,0.6126506175876755,0.567005492980614,1.1717975251567343,0.598451293372394,0.7782168094510721,0.5978306933852027,0.6619902821573977,1.075286463364613,0.5864393900007314,0.369899543321309,0.9706770959411755
219,0.06092570223797727,-0.0020250787426943154,-0.010962043953031986,0.6864700843105814,0.6625983049749741,0.5928732680866955,0.9497597374175298,0.6056871314442474,0.4868007436463383,0.46849664657525586,0.5978297680564633,0.9857599072519878,0.4128769770662892,0.305966773906798,0.956836888533676
220,0.4406617124146025,0.040540514630281965,0.010472485518600638,0.8116918022859907,0.7979865810181714,0.5875811771295745,0.5396281117113839,0.30294677290923155,0.7569023488821873,0.9302419241977584,0.6309483474627791,0.9291789853096944,0.5725511683982314,0.599184743490885,0.9276094086010253
221,0.1555749764997265,-0.013693402884105109,0.019847580709087015,1.0634186703013881,0.980299823447728,0.7430962740017049,1.5228546694721874,0.6991442059077555,0.36877977329377487,0.23900811902258895,0.6584896970785714,1.1518372721276544,0.355997173526332,0.16899048548196913,0.9520584230662529
222,0.11066460264713587,0.010575806913514098,-0.03263616955117228,0.5142569814321251,0.44396221144397585,0.4399805534599665,0.41854698296308507,0.2265131417990935,0.9204882693048065,1.3591338739101406,0.6333676938231112,0.9809774121348952,0.7105747966761342,0.833343449193334,0.8520878635472788
223,0.4683132052634774,-0.052226776039527856,0.010332609786009112,0.5299330196929408,0.48700560747976696,0.47881382002034045,0.4800668926608763,0.314837213935435,0.9474843367966616,1.6603945721288358,0.6602640781246099,1.0671782231785794,0.801822326392923,1.0887938846420966,0.9516870387371341
224,0.14384013922158734,0.025677654106031185,-0.0028065446538784594,0.8351604235913116,0.7305963947321884,0.6196084093001585,0.6567684112380148,0.3328902609921798,0.7105932219880082,0.6510088040560784,0.6684167106117298,0.991373537998511,0.511754309742175,0.35791024808413757,0.9555203490008568
225,0.3354989574464504,-0.031078662231068435,-0.028323814110069085,0.5954951815423586,0.5166439276718535,0.5452167660341737,0.2392899581816148,0.1483638454737537,1.708529749019606,2.836221984412613,0.6309483474627791,1.5264252604401816,1.3195469101592987,1.4558066492316504,0.9353566832078296
226,0.4864348195109066,0.130635121856964,0.06994855476149647,1.076206644462649,0.9990763183151095,0.7127832478961971,0.866388576513885,0.5385770613687224,0.7176534109846313,0.8575063929821763,0.6333676938231112,0.8933068954837797,0.5364518370501952,0.5213873222055387,0.951828398774737
227,0.5417702974757476,-0.04508680271812762,-0.044783161140344856,1.0729635143117915,1.0376434379742223,0.7951741519106771,0.321756552991339,0.328359769705565,2.31670617814806,1.2369992885714571,0.6528756675646988,1.9003102535708607,2.182764716393009,1.2422710689720862,0.8721237040358403
228,0.37081734948738404,-0.048616253734881765,-0.017287984764659828,0.874829661148802,0.8560195849630048,0.6603659111033495,1.3062951736373916,0.8141903066605232,0.746846325915068,0.5768993670536793,0.6357360191111145,1.089388294140578,0.600536869206209,0.39325669794877227,0.9632668668635478
229,1.5834773262127562,0.06044819787491218,-0.3316452667557507,0.6573775677121225,0.5760546237527822,0.5288283146225135,0.42461675026737367,0.2221863959673654,1.2809755951598731,1.244486368035637,0.6180765742263259,1.1031559287179824,0.9443563753899102,0.6997986109476201,0.9567778620952886
230,0.5144901248974488,-0.07193741574340079,-0.029949647177316532,0.9211306473456188,0.8718851661923146,0.6210569186954223,0.35907040535704116,0.24541913368974805,0.8826399310535727,1.2309365664303125,0.6153451465759925,1.184097558025331,0.7101377027919603,0.696328244829252,0.9604834234967093
231,0.6792589430773099,0.021081548068570266,-0.022690726426390972,0.7390259693629561,0.7022871747870874,0.5009687955741418,0.3434513811108993,0.1989510822731263,0.8559972772835037,0.9469729961522831,0.6403206450210053,0.9965070657309562,0.7108499824307503,0.6901494113454605,0.9597124881874655
232,0.6855940199544747,-0.0015246394383545692,-0.2166596360304075,0.27979550255740415,0.242718757864634,0.3238038478842983,0.35268269440815037,0.24067378239969167,1.8116029387095687,2.0725319657516645,0.6668815377411301,1.1181349551569737,1.263493345177525,1.4768539381656176,0.9441276694227122
233,0.1281183483590595,0.02621131198314909,-0.00029170442900861016,0.6707466747781011,0.5939540618199175,0.48131674901713034,0.6206296679937222,0.307162145794025,0.4189576168029842,0.32855796640450824,0.6468212168108125,0.6311953353191411,0.2889082116607131,0.18445974718169522,0.9447341090013817
234,0.2371616470551928,-0.04938448451503746,-0.004848126886776018,0.7403973050846993,0.7376711289236875,0.6340925360823152,0.6948107231846431,0.41898133693567896,0.8226659982350895,0.7763477241306161,0.6425374456860184,1.174701709775364,0.6289279320231782,0.3992106743233127,0.9545460531602491
235,0.47795591730627335,0.0003702085623226159,-0.050586149653084334,0.9497931735721639,0.8937178604640607,0.7464710567280094,0.6520587192561286,0.34821194219845997,1.1756223268960104,1.2323162707512112,0.6468212168108125,1.1787383331473946,1.0043861198100432,0.8439838285121979,0.9491522054916752
236,0.055403072187349175,0.0006242509380059019,0.006036528107535497,0.6965325102447901,0.6490345456722041,0.5485483270996798,0.5850934916053702,0.3287247162325265,0.6401449824146861,0.811773831993081,0.6333676938231112,0.8593067159566896,0.48930657819551265,0.44367965068199666,0.908821420751542
237,0.07424228724799596,-0.007918336308652463,-0.002990134590774818,0.8947514027970092,0.8608636724339291,0.6671954566697963,1.0313890032277575,0.5430259859972073,0.6802193576837449,0.6054302549194254,0.6566669596287297,1.1425641761972924,0.5337854415199348,0.4525623194369049,0.9023834976168162
238,1.3887874862517398,-0.16754972362649845,-0.15986306233656694,0.899382692782354,0.8327542693402855,0.6795647489421576,0.7324291062909567,0.37365915290118,0.7485182434041694,0.5118011892882488,0.6309483474627791,1.8022812966876371,0.6550101860673898,0.3854336216737847,0.844597012536775
239,1.2048265635634805,-0.17244849496915055,-0.1339373307296594,0.6663125339730381,0.621694944589599,0.5599364028955057,0.47879747269060857,0.2562577695177742,1.8303576225561309,1.7401319538602398,0.6547956803312163,1.6540866641029823,1.3233692007002957,0.9196785281311173,0.9752439271276774
240,0.2741040614836818,-0.003513373078033427,0.017269328153487612,0.6913086147457197,0.61358237759568,0.5194449339974626,0.5193695654343191,0.24331770882864745,0.42196870603278486,0.4073827988760276,0.6509067234006624,0.6185758237219994,0.312067414376556,0.22140498965888047,0.9723119568092758
241,1.0664489996630793,0.006783018513394579,-0.19941356748518135,0.4277650560724663,0.424349939174107,0.4716255440506254,0.17924706252589795,0.1267215730609253,1.42247011499063,1.4639161205953928,0.6153451465759925,1.4620241605452746,1.2111416387034337,1.2228745016728282,0.891848459878718
242,0.23204219365031675,-0.011920175050452508,-0.011107169784871557,0.7008683698025733,0.6794446026996619,0.5884097737334549,1.091868679529147,0.5455630619653622,0.4634547286849367,0.37089489326719277,0.6068309995095971,1.0159576105459214,0.43155043474245836,0.2908370473050391,0.9527307062405558
243,0.22842026263440843,0.02029699723976451,-0.02129096632308726,0.6502376657464757,0.5954938224304178,0.5568094502493937,0.8825396508081165,0.4506206452514724,0.9910010211422597,1.3715112053691794,0.648888643467878,1.074147344268597,0.6954593203183248,0.4270180926773301,0.938219419744043
244,0.7593638464648632,-0.09185411421185494,-0.07264124816965094,0.6293254257153009,0.5802459874459842,0.5262070139705773,0.2956107201195657,0.1887354195080586,1.4378886875892698,1.8061054405657135,0.6547956803312163,1.2874349318044243,1.056551026927199,0.9010627404406009,0.9506223723184849
245,0.2306603626900501,0.04781460302803622,0.004675529419172875,0.4108355719301386,0.33392610194557004,0.3090170707925721,0.2787015636052296,0.22041006973701355,0.5715170101187712,0.5504371831253264,0.6309483474627791,0.6295257464848578,0.4205186249310587,0.4050047942930031,0.956852179436601
246,0.5707419918690795,-0.019639769214857272,-0.11767821071244347,0.2516641926927463,0.2290715845087543,0.2737739669680469,0.20690677795535292,0.16667372040989462,1.3611860966508076,1.5241404211472203,0.5947193981915972,1.0211266937763368,1.0826986193013328,1.1415085707535526,0.9508505921911841
247,0.5558651036425256,-0.052701475814967765,-0.028459842717833368,0.8155796131603353,0.8035161078746222,0.5300497680352318,0.22540837335349254,0.1840468990261372,3.2709574653770015,,0.6207552362147116,2.0825575023580933,2.773927111910904,2.423945949998313,0.9503575882533882
248,0.16380116873774758,-0.01952781591035039,-0.026179570263153724,0.6482795159609337,0.5146879465991944,0.5988860619582017,0.35217125626511786,0.21290525226404855,1.955051522514442,,0.6652988471865258,1.2767824743395884,1.3563148735262212,1.7533836371574525,0.9514367049849949
249,0.07419407516284293,0.005225853939405726,-0.016637351875738324,0.850098500517831,0.8016806121775933,0.5945664650111481,0.83620276783899,0.5712304024271149,1.032620824130842,1.2249376479716132,0.6584896970785714,1.141658978210476,0.8269172271770887,0.8667393467605217,0.949292549214135
250,0.2776248048307739,0.08398185947540082,0.06183664311741288,0.7332749294060517,0.6433080011778166,0.5637973149001874,0.5050126372264937,0.2170604137233455,0.7686010540269727,1.7754525748142187,0.6619902821573977,0.7714451149397447,0.472771147587157,0.543086485984212,0.9463460409381079
251,0.03365154127654939,0.0029099516528768524,-0.007702771350465945,0.9180232616456097,0.90253709100031,0.649641215643069,1.316529281966765,0.980305413881492,0.7953999025041086,0.6604002978512805,0.6447042257417027,1.1358642743709986,0.7060663121034201,0.4799505954613565,0.9575334644981419
252,0.15072280070241936,0.02643833026496173,0.013603286110889484,0.7166830871280968,0.6770371773102438,0.5784031804870157,0.8507745336903618,0.5372339057220928,0.5079736692036485,0.5258960898519558,0.6333676938231112,0.8838504324929577,0.45196207447909603,0.29235527503527087,0.9577142865114565
253,0.2448126531258085,-0.0071421470019294025,-0.021239318017297733,0.9200658054688564,0.9091771684037757,0.7193968605583912,1.3884879819541127,0.7135263099164768,0.4585953278840659,0.4137480687618842,0.6380535849069913,1.0850052852618928,0.39941655385593994,0.23185916893431668,0.9589505289591108
254,0.7158662776690725,-0.007721327730028038,0.019851530445976873,0.763462162184128,0.706014191434913,0.6081351156999699,0.6301359781814568,0.29189417838300447,0.655100026438984,0.7122120987938453,0.6380535849069913,0.9896980948109857,0.4693103385977102,0.4439060851855215,0.950100158335774
255,0.2422328956305802,0.027959393157444376,0.01635839485342877,0.707451829094202,0.6457709948081503,0.5253517526466739,0.5549811089543425,0.35278399704046437,0.6106100698993595,0.6593068610190418,0.6333676938231112,0.818710403535291,0.4918170447738517,0.4964810316816512,0.9427502688375802
256,0.2748008668062178,-0.024006062652659782,0.0006648229047206966,0.9048323787557848,0.8942384973278769,0.5932124387579153,0.46594197517040864,0.2997920520311457,1.0142125771462749,1.6042564775090842,0.5883313578629602,1.0628269568653204,0.8227305027686572,0.9861888341390221,0.9272613026393409
257,0.4343780907461056,-0.10304871650146252,-0.02960420878697457,0.32690308098251686,0.2680884238962591,0.32401673202376086,0.2096001752813624,0.14061591420055367,1.7964489741585778,2.040113659052754,0.6468212168108125,1.3154010743443119,1.561265036495741,2.1273246405375343,0.9611455866355679
258,0.5448282750277724,-0.04296692547197842,-0.0060082386142272515,1.087306731468647,1.042450423125042,0.7447957524246462,0.9603927755806777,0.6623059333921893,1.0779626601352386,1.1625879341347332,0.648888643467878,1.2412132572671322,0.7996060409049517,0.6799784757526292,0.8829955905376293
259,0.7254895638686595,-0.01550397484083671,-0.04795081083830069,0.9839367132759632,0.9088380691123046,0.7213332692614466,1.1330096134633079,0.8040403477712932,0.9485304514079026,0.8403678279786893,0.6233814453054027,1.227127710903537,0.8209013000708294,0.6875636931342448,0.9265739033737225
260,0.1098734976920923,-0.000507323021350696,-0.007700673324161002,0.9622910058934604,0.9292659654267379,0.6974076601127942,1.230831564240542,0.6316584119798172,0.5313840421496498,0.6104174083324887,0.6468212168108125,1.1107523485622783,0.4238358034190178,0.25125551681745456,0.9421477573148576
261,0.2963941836071119,-0.022767233106451706,-0.011568046326752138,1.147125832300057,1.1404765243254134,0.7689001330402575,1.3122382197725608,0.5529857447945181,0.4449066995523786,0.3820413807402436,0.6652988471865258,1.0652742290575994,0.4184614700607602,0.29300380335331017,0.9465558885946075
262,0.4591520560411338,0.03828863993852619,-0.11609699493670775,0.9211656672378544,0.8904437027875105,0.6855363933214943,1.150003293687275,0.6496859423926169,0.6793182586384613,0.5835156803169493,0.5713653840954815,0.9817185371966104,0.47442620582436085,0.3406942719503824,0.937950575965924
263,0.27925844712837083,0.023097530039017045,0.058752261523710186,0.9438321781142025,0.8992540859672196,0.6851249402131466,1.1939062222825765,0.5465206426544627,0.32589475029816634,0.34529234731448344,0.648888643467878,0.9012105668465364,0.2719456864420967,0.21358265107040766,0.9550656892008355
264,0.7915976550123387,0.007151120966558788,0.0005950107084813916,1.021378671327055,0.9891548187039743,0.7075910303714146,1.227662084174742,0.4306871716170009,1.3988015302461827,0.9044685221992252,0.648888643467878,1.2040839216103438,0.8819571267652605,0.48022028045522785,0.9587142656268924
265,1.190937701231837,0.06874589894965921,-0.05471351651808065,0.49554769976450325,0.44186930216598497,0.5050141757733991,0.7464724591314766,0.46144446705048037,1.5001540983365838,1.3081156199444235,0.6566669596287297,1.3296200150391213,1.2679328863001098,1.126148067716741,0.9671500682404741
266,0.20492845443427668,0.04597012137420323,-0.0030362530398383436,0.941884681339701,0.8818531562183276,0.6061036150790259,1.092549088698032,0.46940620155915025,0.4667292168238741,0.5376933913101504,0.6468212168108125,0.8755487405540706,0.34425237690525545,0.2020513390612787,0.9548746006047917
267,1.5652681691563224,-0.10787831058702124,-0.0801758382298216,1.023371292513272,1.0006348091193438,0.7137818643345964,1.3424123516561424,0.573003648342286,1.987174275662041,1.2850748339998197,0.6619902821573977,1.9607305416538718,1.67197864099301,0.8741251026203477,0.9630179492905521
268,1.4705203834272036,-0.29591398852903267,-0.11560484145811964,0.9638682471517015,0.9416090054249544,0.6656861109748144,1.3583514274148103,1.0506321697659595,2.7491726980130187,,0.6233814453054027,2.0477706241678817,2.457051587985928,4.194692536056383,0.9538527337370885
269,1.9859552220209573,-0.5323821762284727,-0.10838229371488585,0.8402669236639919,0.8080628947526479,0.6876493230982993,1.1344215189612015,0.9089005756683999,2.698415428087304,2.3411846784531454,0.6425374456860184,2.641014799766052,2.5459599794466112,2.109716305926428,0.9495735719664417
270,0.8660699351735017,-0.13250180145887894,-0.04848308979635676,1.204030569260018,1.1919629437985946,0.8314368322025449,1.6206561158193078,0.8333268333381898,1.988509692938739,1.9244201721384433,0.6528756675646988,1.9478676192061064,1.6356513192500035,1.2079808257234748,0.9678723488921788
271,0.7912692962435646,0.0770945167052054,-0.040969110234642336,1.0662100245736594,1.0478554766216144,0.6168065357532098,0.5561536396057621,0.3309399632885882,1.1901531080609766,1.3736047660811512,0.6425374456860184,1.1447260376341335,0.8680126600787547,0.7705739878898689,0.965404863089928
272,0.13996700762236258,0.0033901394601887347,-0.024274268638393735,0.45309308030322704,0.38155518590292437,0.3795204502768107,0.4922740021943525,0.3361299426589605,0.8510405617792328,1.375688753839716,0.6619902821573977,0.8320261795110633,0.7335011795814335,0.9768671705681315,0.9602665683024147
273,0.06375911328014022,0.013448439981605484,0.007478047752763867,1.0594721664166484,0.931318631928009,0.7455308733376225,0.9203805736129315,0.4450423886861822,0.5758014393992,0.5723298159423172,0.6233814453054027,0.91199441870335,0.45371330880815236,0.3207912310590599,0.9356010772689517
274,0.5202458814590966,-0.032954458235809,-0.07515710542548228,0.7928151339896161,0.7691763871629937,0.6057621138590377,1.330094535809842,1.0781644054190955,1.0824520252373722,0.9087925796066655,0.6125606311107803,1.170502209696435,0.8484925037490862,0.5267949248660507,0.9495851974274881
275,0.14679406609293652,-0.016787849542367173,0.00983136899021278,1.2461022603356577,1.2291946549560537,0.7754456854606274,1.4432661724691365,0.9567268140046672,0.3980196418942147,0.45347060386820254,0.6309483474627791,0.9776934340944309,0.2819878553341819,0.2012887263137275,0.9559831187009116
276,0.23542360857679048,-0.014403168428771734,-0.018628171705211742,0.9939162711537939,0.9824221576413206,0.7248885224165326,1.4599774672814156,0.6516182378358577,0.5744222561207082,0.35549945884064676,0.6425374456860184,1.0910410231717917,0.4298265429119565,0.25213557466186337,0.9388235574268335
277,0.4194293971550393,-0.0131649500282984,0.012631523178723902,0.7914909569898226,0.7599623203267105,0.6488899287971293,1.2764247029469924,0.7026985683262845,0.7636732934094246,0.8378947012928071,0.6284777104787076,1.1793885986953976,0.5995204585538377,0.43464817470788175,0.919970198765111
278,1.3325326733151333,-0.21009527398362893,-0.27289598195259146,1.0579141403946883,1.008589338189145,0.751891888774609,1.5649466460522623,1.605916806149457,1.8476721671217302,1.8604087326992778,0.6509067234006624,1.8425616561584413,1.637678932844167,1.6047591203825098,0.96219967447754
279,3.8575306345522757,-1.0493238496293151,-0.21080282432442835,0.7679091960976014,0.7470772483015581,0.6786304630315084,1.9238244508355928,1.867153071622776,3.9046041876723976,,0.6425374456860184,3.507298912544701,3.695573417376735,inf,0.9563494022081106
280,2.446399145270959,-0.36211370112050056,-0.40525344223440296,0.870190040668285,0.8207810789841073,0.679810022346131,1.3652155831235377,0.8382142581435408,2.127795913195012,3.123859821621364,0.6566669596287297,2.172239324642311,1.942307944897309,2.3162839373522077,0.9650641449829414
281,0.6599396093182578,-0.11223174403050976,-0.0722385632632096,0.5416983555092005,0.5114896471621424,0.5522670899748637,1.166994035643662,0.9068731523227194,1.631054680357463,1.892566266162161,0.5978297680564633,1.4653375684603434,1.3667652813118454,1.3398429584734635,0.9512219294228309
282,0.8538866205661548,-0.1531579826014594,-0.11466441158613233,1.0652276608187916,1.05386285702881,0.7963872006309263,1.2102154276235402,1.071621715366229,1.6751718018413848,1.8513458053466996,0.6207552362147116,1.6176941235632416,1.484139680873295,1.7603814845414458,0.8996925008936882
283,0.7768199715572788,0.003609669058599635,-0.07430435960732151,1.0135213281333426,0.9638086074832908,0.7862677191163001,1.0553556862208375,0.6550395688107784,1.9980829746166555,2.003252341611845,0.6333676938231112,1.794429697783934,1.4606491757482274,1.05742169849311,0.9337692182209002
284,0.5506521838586073,-0.06652192537774866,-0.06369477362988461,0.792280490214389,0.7517160602937711,0.6721527237703268,1.2365300278127365,0.904565223827098,1.2208775454505676,1.2532093284588781,0.5978297680564633,1.3434903321283256,0.9981821495737669,1.0003130403282168,0.9334991873196207
285,0.7325700618732379,-0.08895398908754876,-0.02280844650627928,0.7935573332666735,0.7601653620382275,0.42973673384775546,0.9073913575017584,0.5824561335672019,0.7771571982166748,0.5876933661516317,0.6684167106117298,1.0385211424578185,0.5872720130025519,0.3960505627612255,0.9581936720927873
286,0.07669896913258374,0.01477397825357648,-0.0013345289180280717,1.1940303755381998,1.1539088427669622,0.8119375972008153,1.4943632823069715,1.1866813166748895,1.1567634243668843,1.1671141790641266,0.6602640781246099,1.3463047129037322,0.974331209347722,0.911381431039921,0.8849441339454649
287,1.1682673157657977,-0.12107639110420187,-0.13290798650716762,0.9312590044819112,0.9195797263124823,0.6769945356843929,1.590725311570643,1.3602819665669021,1.6296675628229953,2.0280054740678803,0.6380535849069913,1.6497392092076262,1.5384996461986848,1.5447647020916653,0.9065667659812846
288,0.7603493146918465,-0.0748892478378447,-0.08444479222262541,0.5339629113374911,0.515120479965667,0.5252555240327176,1.0936658081391293,1.0460117567066658,1.226936683556826,1.7253528598548125,0.648888643467878,1.3501553145040175,1.0296708588334753,1.192950668586715,0.9460892702555013
289,0.3127823725492813,-0.03663363554073461,-0.012941746994257868,0.5069361977805473,0.40088892154237277,0.4747136753276494,1.0427573134992483,0.7184956854600744,1.0120084850050781,1.1775728148753053,0.6207552362147116,1.2530463419751736,0.7700568751324312,0.658792026517754,0.9535306533799504
290,0.7038996934552406,-0.04208765704101844,-0.07409907709682954,0.2772338192589956,0.2498179696624448,0.3105332713880391,0.46079277614941755,0.3471834367419266,1.5428363226275281,1.699503068916918,0.6602640781246099,1.3787672058108276,1.240356786096981,0.9850059004524259,0.91567308404083
291,0.41013765402229296,-0.043018752487053585,-0.03863825774567515,0.736220380971645,0.7031527446586802,0.4430290125253769,0.5484113608660344,0.6307938769657658,1.567788316475935,2.100049643262804,0.6425374456860184,1.3361083462067198,1.2894406333837465,1.670503853225779,0.9067824307021272
292,0.1192859888722977,0.00134304824218711,-0.011540795290222748,0.4996273533468646,0.4747717804688735,0.47151043408567206,1.007891185735912,0.8330032278374262,0.675187682221753,0.8445254712038228,0.6125606311107803,0.9027714198819088,0.5096387883685415,0.551324525717415,0.7284493759366758
293,0.34614997990598906,-0.06596789716720938,0.00025732851868867646,0.7282320564728826,0.6689630658613014,0.6250684563111636,0.7181717745375844,0.5332575841211981,1.1521887217504405,2.242837715891957,0.6447042257417027,1.2295185585159085,0.8782310123927081,1.1404406416283595,0.9389872659485945
294,1.368579042949364,0.0028200611361228756,-0.18637118102572614,1.1183220705336447,1.0542950777371713,0.8288108943146872,1.2849834357702636,0.7068856732879889,1.0220844309222301,0.7764400453160859,0.6699045166045591,1.812438480436456,0.8818731945552409,0.5396777876865522,0.9464433985892111
295,1.519737409748109,-0.1287984744405558,-0.03005440448446517,0.46562166212032446,0.425640059431539,0.48414489702106867,0.7486152428167597,0.49054433306137446,0.9797082408152431,0.9474644697064937,0.6125606311107803,1.2468803053372126,0.8047731486797881,0.6527367862537224,0.9572236053841051
296,0.46020262092694375,-0.07202900599086695,-0.03045005807923239,0.929324841653053,0.922145499527314,0.6499119836503405,0.688498759728143,0.7168190011586391,1.4697209892498146,1.5682103701844967,0.6528756675646988,1.5135723313380756,1.2412201323162662,0.9851463940730698,0.9212220750430821
297,0.5461896225395945,-0.025393639607396323,-0.06708128343018419,0.6667141414025821,0.630083150286222,0.5632849881161788,1.3253785722454263,1.1564274793447384,1.1797506921439973,1.9766930685394897,0.6547956803312163,1.4761704435232663,0.9173123563457809,0.8009714518466794,0.9565644263767783
298,1.1483210283028922,-0.08348716361829159,-0.10212447725953054,1.1347310539032778,1.1105406078141766,0.7838360406464215,1.6519518450509942,1.3160789560572974,2.20614771524767,4.966893848645343,0.6403206450210053,1.8232501363194258,1.878151842793401,2.861975883740984,0.9407764313008069
299,0.4630873121187398,0.03696110504583153,-0.04408724237392403,0.857808705148904,0.8393309901264377,0.5883985551589358,1.8048964853560148,1.560868974218754,1.1684459781508252,0.957633165714188,0.6790044388599258,1.263408318596246,0.9603655939735101,0.8227839285157377,0.8643640730421427
300,0.9908332106634783,-0.05048226020322305,-0.04034643476373223,1.0513571612692116,1.050723181306057,0.7644642327347573,1.07625168498896,0.8041766065122173,1.2695210881248051,1.3821853418622074,0.6333676938231112,1.5353616868160405,1.0369927988322705,0.9517641095263517,0.9358456559458005
301,1.3459068384297317,-0.07594838434089263,-0.10274320678007287,1.1898365435282854,1.1603902319343282,0.8208826450909066,1.4451297821455993,0.9116830341304527,1.575005290160767,2.240491230260891,0.6425374456860184,1.657112032945336,1.2213311540855551,1.3847145819603721,0.9331955041538277
302,0.7826134030385274,-0.07871586303173878,-0.11424769676850396,0.8794834326764669,0.8562732113901336,0.7203379192526279,1.5408297806809261,1.151590407776681,1.6872330837576317,1.6050538948813668,0.6309483474627791,1.5652083967805053,1.4166209716044942,1.2964380319980295,0.9435682894962404
303,0.3978059610993836,-0.01265110699592352,-0.0718424247439253,0.9390037097028138,0.9230979179645299,0.6734294209108275,1.3204386294906103,1.2005124236104872,1.236190218192884,1.2913015802036483,0.6447042257417027,1.3851394727047603,0.9958877577072119,0.7917074384583734,0.9215473867238606
304,0.700310901455179,-0.06450574872557108,-0.042173221288919704,1.285719641847378,1.2496330306093417,0.8533335911973198,1.5278068903525754,0.8145391718339943,0.9082090919576837,0.7486657205670889,0.6468212168108125,1.4385237660368353,0.7318641573458244,0.4717184944255155,0.9323918723383612
305,1.2386036468892991,-0.22417131445101954,-0.1092194292395306,1.0659251796278666,1.0503331637845499,0.7768609159813779,1.8867201049771232,1.7915042843920819,1.7535907335597976,2.3377386393962567,0.6509067234006624,1.7894288538897727,1.5249793976999917,1.5001121635802008,0.9422904448766961
306,1.5239093354176765,-0.35471456459772344,-0.1380161205206586,1.073328611779463,1.0619497307541377,0.7317574900840131,1.5301824491602467,1.2196458986824408,2.8944501489126995,,0.6447042257417027,2.244945313547631,2.6144005330023985,inf,0.9548696592597539
307,1.7701051551696254,-0.43189152699998856,-0.19093522871037494,1.131674203582358,1.0746122438713226,0.8240116035808762,1.785373024607425,1.3902141103485957,2.509653591777487,,0.6153451465759925,2.4893163582767004,2.286246813640072,3.0210838647514056,0.9369568963199385
308,1.176615922186069,-0.1450743903969977,-0.09893294660872647,0.9260613249375725,0.9195718863414719,0.6855571996867418,2.0075994356924327,1.7477331748917209,1.9386169240173226,1.5593350975497897,0.663668482632973,1.7120860605062136,1.6775121853125898,1.7171809088303545,0.9553134592827238
309,1.5070324615490087,-0.11818035894301149,-0.14408983405736187,0.7150787496863529,0.6864665890250784,0.5705427454119275,1.4952111124657668,1.0878579827943406,1.9721672832321926,1.5883858777671707,0.6284777104787076,1.8598242001421843,1.7285062953111476,1.3468881593581696,0.9445701140144162
310,1.5251985277991815,-0.26524773825759196,-0.15880849493168803,0.9611886413662405,0.9440861858649061,0.6781041167465934,1.6073270059686309,1.2039937823561555,2.5234273800813125,2.293077243069283,0.6425374456860184,1.9048535153983068,2.240082832939854,1.682898774988019,0.9503919198231838
311,1.5875649491751678,-0.029333723614145324,-0.23619083915540606,0.7925199739824179,0.7232673676418667,0.6532829629345364,1.4256741308490388,0.8844279698061857,2.0539668356286898,1.8003434357828645,0.6125606311107803,1.8261438960898857,1.8455507332699497,1.5895410622836694,0.9386053185943041
312,0.6763099705576773,-0.06498096190467156,-0.08783832874220956,1.0932082024741274,0.9998037429780162,0.7303106588598074,1.5730142488465257,1.1822543425926986,1.403400446326067,1.6050680013428316,0.6740851607140061,1.5366522427084526,1.0329412152467417,0.9647544364944665,0.9567202177092535
313,0.5771936641608604,-0.04669572275462004,-0.08722023891490464,0.8883281416318176,0.8027706354851988,0.672076610547567,0.403383006976362,0.3345932895165518,1.772557498651631,1.2127699026335519,0.6284777104787076,1.6176381089994403,1.6426385816063378,1.1974318037058513,0.893484257732764
314,0.4700821248953113,0.03692875263749851,-0.014340916003810156,0.8047543106487024,0.7317488992399884,0.5901388394483984,0.4842205784439287,0.30126981704276706,0.7662957837440765,0.8402020552150045,0.6333676938231112,0.9539349106333329,0.5965006101210906,0.5197159740183197,0.9628161463918308
315,1.6245928060462491,-0.42993219914329056,-0.17371325142799365,0.9843515757765555,0.9540332911535901,0.7895957133350566,0.8777383734038138,0.5268869475681683,1.3421792321644013,1.8948478626310494,0.6333676938231112,1.928648874624175,1.1709635294172078,1.3306712036402717,0.9578199135308705
316,0.5062669599160824,0.10362073367453523,0.010882584306532606,0.3715645354598,0.3149194838127074,0.13762963891386573,1.0629293314726271,0.9012669367733457,1.2398958504997295,2.187307489026755,0.6547956803312163,0.6855979699140412,0.7088181726527145,0.7720852621266232,0.7056944448617946
317,0.6687509080421841,0.17822061227961444,-0.08508878730180436,0.5707246735734858,0.5177396136689376,0.46695941619023434,0.978766848927649,0.640579159199933,1.2550651166195428,1.6318492941639404,0.6652988471865258,0.9634696947258161,0.9908087040000138,0.8595027570086222,0.9579968827971692
318,0.35894413800232505,-0.05085052252080988,-0.07301004666480283,0.35339138236332307,0.26506436113719845,0.4007551982814802,0.8393671402255778,0.7019815512666419,1.2804404519829653,2.303022708271774,0.6125606311107803,1.2625047099936972,1.1185225204182752,1.8852925965499387,0.9673819221819586
319,0.38203319928241686,-0.022866874638459572,-0.05439375067516542,0.43969846136430607,0.35066415887899066,0.447688196607891,0.5141349602091412,0.41230472181083333,1.2760347941696775,1.1821407330745453,0.6528756675646988,1.228948790396113,0.9981166289511275,0.9257106038164366,0.9622884607871449
320,1.6040208900763715,-0.5865718701705239,-0.25444938961928487,0.8228987015281385,0.7535760636212591,0.6361397717333279,0.997261090035063,0.7554800024216564,1.1357708009502583,1.1377585030229644,0.6284777104787076,1.4427941683593755,0.9834662859958914,0.7249567220391191,0.9648094546765463
321,2.1761544972686657,-0.512784116990345,-0.016746810678363686,1.1347175820649436,1.1320851932415554,0.8124428519438291,1.4288673722605332,1.2787602098386444,,,0.6309483474627791,3.365508539253648,7.348909229498808,inf,0.9178924488817114
322,1.2606779575291776,-0.373009631035655,-0.10184573296700188,1.2134418004466716,1.1610994362675422,0.8105468773909174,1.3225779627314742,1.3181016850170961,2.2614519632105075,,0.6602640781246099,1.9631806515537216,2.061637848019769,inf,0.9720286009993616
323,0.32017852723410445,-0.06249754750837441,-0.0004950752559739731,1.0674116543494023,1.032259636771705,0.7089518953770235,1.4250701382950215,1.1365432757482001,1.374292247850277,1.7266947543455262,0.6509067234006624,1.6974194568536942,1.24487737390739,1.3768593398759232,0.9541299420672322
324,0.17731297363529536,-0.021523250511092537,-0.006896163216418347,0.8898885117987024,0.8631761753589863,0.5465333339178258,1.689957434216489,1.7587678699874383,2.2018238429049095,,0.6619902821573977,1.8865098057738656,1.6035187895949052,1.285534576548001,0.9401649409759165
325,0.4557158366202411,-0.007204494554974933,-0.02300134756328475,0.8682788131966228,0.829097892059975,0.6427909143936372,1.4291494143118868,0.8715457018907122,1.2557845630530522,1.2346756335223708,0.6668815377411301,1.825385196877715,1.1167009967051282,0.9163960449172728,0.9444973829310923
326,0.5163385379281452,-0.013388067557937394,-0.04597894600185871,1.0759672401937688,1.036490404137849,0.757464251379001,1.4826855281499662,1.0346269220330182,1.741195139964148,1.8881499337892467,0.6125606311107803,1.7269709793352765,1.5520087696026297,1.5125200152416787,0.9525593867468922
327,0.2741821140910876,-0.035123142558487835,-0.028384559363220367,1.2028547275776638,1.2093673123109885,0.8261734558644425,1.709426401447517,1.1977760837459928,1.331520241055769,1.347053172323597,0.6509067234006624,1.3977373610049475,1.1575917530795987,0.7920115947868984,0.9303526584419284
328,2.55794160826069,-0.9293755360786821,-0.41712127133057814,1.0910412696528369,1.0804610285628617,0.8686373951934885,2.0022126024683993,2.0175235034115677,1.6198963921460583,1.5233527094089707,0.6468212168108125,2.821592242501339,1.372941046976194,1.2341458949337472,0.9048884619153598
329,5.703782474656201,-0.019012608248854004,0.0,1.2640454442490647,1.2393261162210918,0.7761352294716923,1.8444071411401086,1.6593879512563585,,,0.6447042257417027,11.407564949312402,inf,,0.952873773133057
330,3.3425582144474566,-0.12809737861435944,-0.016746810678363686,1.352933667159704,1.345468094966521,0.7518101317206036,2.1289175764449535,2.189650381472451,4.931386798730391,,0.648888643467878,5.7763531674910364,4.93806460126142,inf,0.9356882050132087
331,2.7052492069837943,-0.48236377197561775,-0.09475605884759174,1.2548733371759324,1.2098235283190206,0.7819617042911372,2.110583812598449,1.788270522255973,3.6599213811912414,,0.6528756675646988,3.6634283216844117,3.3874278009383985,inf,0.9342757279019218
332,2.2950333759078947,-0.6217429844780366,-0.12031780706551609,1.177436992259269,1.160517367214409,0.7462003559189849,1.8905372168345755,1.6052990382500119,2.475960415282343,,0.6528756675646988,2.4296611755620217,2.3658627389172886,inf,0.9677991010547542
333,2.4262017046436837,-0.50771833764891,-0.02310295202612346,0.8446557095818498,0.7619436544173189,0.7600150061156802,1.7164748001538659,1.7872865564640497,6.413549764909939,,0.6357360191111145,3.0414272328161207,5.532924372440065,2.833213344056216,0.950492957563944
334,1.5996847478696425,-0.341534881882201,-0.02639261012781678,1.0639052373053823,1.0175634956653172,0.76409867485466,0.9021209667786495,1.2814613403025104,4.553534489392758,,0.6380535849069913,2.877060743836492,4.111663597679312,inf,0.9654056438720555
335,1.4037087001620856,-0.2863643356799963,-0.045846723358363914,1.7303270073960388,1.6879296503039058,0.9387417495685279,0.8256234959300821,1.4640209831358835,3.2634128822762722,,0.585052858160615,2.41388916255272,2.9275676966559345,inf,0.896157602361458
336,0.10312480077458978,0.06101202879338226,0.05180957852933085,0.7017015466021314,0.4462471892143388,0.4522745607718714,1.1392974676222078,1.4210516375813718,0.4106775185696961,0.545515067347189,0.6425374456860184,0.4343448076588149,0.20713803624716504,0.19095194709785904,0.7360232934473806
337,0.04933429687646101,-0.005262325000155841,0.0,1.726451648115095,1.7046769367223913,0.977985165855102,0.847668940394827,1.674763082270453,2.0501436012442253,,0.6207552362147116,2.2640056110265707,2.0568214037752544,inf,0.8812114459551476
338,0.43931625997346396,-0.088720169775322,-0.06368198324694649,0.1868316548269977,0.17590832512981378,0.24088935321267851,1.0061305623431125,1.5570147853351954,1.2215683572216736,2.0607282185330686,0.6125606311107803,1.0722300473939912,0.9484395680426105,1.8113106823180078,0.9602654889023562
339,0.02779382659880307,0.009591942195969452,-0.0008410628063743562,0.8938340760627521,0.7322968123885466,0.45206176989169145,1.3482731888835788,0.953904155841881,0.2087384565323976,0.17168650596040508,0.6619902821573977,0.45995649339735406,0.17238830336897512,0.10863966876333281,0.7784546538315863
340,0.3865880474378948,-0.032030011307151815,-0.026536125533951946,0.6688098371013642,0.6096212950583516,0.4254900722656071,1.13777677756051,1.4687323994553299,1.5625580507522698,1.494899784116902,0.5713653840954815,1.4876628555081794,1.3052192811107282,1.0966186314604167,0.9557252039839134
341,0.4600169894443509,-0.07537337152787237,-0.004362906642481792,1.6737560276929253,1.6635272123906437,0.941348840090155,1.1505749777888832,1.645621531213938,3.55648611728292,,0.5490601803369085,2.0302704976733867,3.5366527942656174,inf,0.8901049724431805
342,0.5121230937638422,-0.06178290375437473,-0.014665063836101024,1.0548889172577387,1.0174762224352756,0.7410562282168832,0.6334772503413884,0.9057026923210206,2.348853590907193,1.7427631509387833,0.5748741956352443,2.1966247572642517,2.18540187740963,1.241713132308783,0.8678225416039996
343,0.8872199229263431,-0.11521465166237811,-0.0030813380611343045,1.7478893347464886,1.7134120183599812,0.9679911448469998,0.9063204633010205,1.5437976199150645,5.883030835622566,,0.5915533975974677,2.5221240376048164,4.106317418596056,inf,0.8078646952692892
344,0.5143422831598777,-0.06343554825638492,0.0,1.7759478361883947,1.7436893616129272,0.9569373055985928,1.2218429759043787,2.2793376387993503,,,0.6097226960127671,2.3785066745555117,inf,,0.8589582263502172
345,1.9548009427717612,-0.6615284999445574,-0.12039187716414707,1.779512016789434,1.7806993644828606,0.8972261617381085,1.72214281916265,2.8525239326950778,4.232657070119665,,0.5748741956352443,2.6249352943917033,3.970445299548281,inf,0.8925103630371648
346,,0.0,0.0,1.7713804610197144,1.7290990824224457,0.8936319041495454,1.6644129673882015,3.3071364284610922,,,0.5947193981915972,inf,,,0.8775702308029522
347,,0.0,0.0,1.7783794981219565,1.7493726790452553,0.8994696711462017,1.5914603573083133,2.459054465815476,,,0.552929491858785,inf,,,0.8477596203806954
348,,0.0,0.0,1.7689793803428757,1.7755178498054929,0.8938678558733655,1.1815118613691056,1.8397700174130536,,,0.552929491858785,inf,,,0.8236830383471263
349,,0.0,0.0,1.7341417858765034,1.6945852559885457,0.9234375773960064,1.30682537082194,1.8653286763229797,,,0.4629450596409901,inf,,,0.8913829289391179
350,2.7152904229206274,-0.3217531592585813,-0.0855404041795128,0.39024994825246945,0.2734657384299088,0.6516383068751891,1.0460099878567701,1.3613802367812078,3.333109129507199,,0.5068466436745385,3.956904153100863,3.1068553743578557,inf,0.9179965859169854
351,2.0639952339473306,-0.2829159651390423,-0.2456478010449113,1.575132258144969,1.505914998883452,0.9169181333248287,0.3760152077600601,0.5934106772395846,1.8782997955291265,6.405118093939333,0.5567373465730988,3.1107690835423494,1.6109349187016937,2.3291521203787675,0.8126274224747602
352,,0.0,0.0,1.7463653177663458,1.7227491862573512,0.8983157625116557,0.5971669708928271,1.0266879236756061,,,0.541134803179459,inf,,,0.837778465285313
353,,0.0,0.0,1.675355847081826,1.6700952758481322,0.907525167348313,0.592164961002505,1.005962120202841,,,0.5451288209179292,inf,,,0.8556563354586969
354,,0.0,0.0,1.5599950214424634,1.5015777613227186,0.8955850902265123,0.8306843828713332,1.1769124289215251,,,0.5713653840954815,inf,,,0.8404221562559274
355,2.9865854364675664,-0.12941870224692786,0.0,0.8672714848481692,0.808645577637624,0.7797906296034001,0.84261838389948,0.7533774547494552,,,0.6284777104787076,5.502203101257832,inf,,0.9162874099947171
356,,0.0,0.0,1.1008348802224863,1.0437282112664883,0.8576961079440069,0.30341166756902493,0.46732963134089917,,,0.5677978065141052,inf,,,0.8596097384075981
357,,0.0,0.0,1.5888479103255424,1.5681496999438083,0.893013235874406,0.317039355077106,0.5222708214288623,,,0.5713653840954815,inf,,,0.8254810135513023
358,,0.0,0.0,1.5416742885209085,1.5226372469949558,0.8892728871062363,0.3000164578805156,0.48652635010363754,,,0.6425374456860184,inf,,,0.8065808996954305
359,,0.0,0.0,1.3618036300294087,1.3473320045082433,0.7748148905548728,0.2440362920956861,0.3959635295859292,,,0.5947193981915972,inf,,,0.8329847396110702
360,,0.0,0.0,1.5352786070648745,1.5028748692315224,0.8287806295257795,0.22879464157884602,0.3536895252622705,,,0.6233814453054027,inf,,,0.8515337817641767
361,,0.0,0.0,1.475853646227692,1.4743082351784724,0.8286530315193052,0.1464015624264383,0.23912148184933268,,,0.6097226960127671,inf,,,0.8089360631952422
362,,0.0,0.0,1.3054140504299572,1.2931449364868683,0.7978648866220985,0.23485633600937297,0.3803137977125043,,,0.6125606311107803,inf,,,0.8688711669873703
363,1.158001298430196,-0.015440017312402613,0.0,1.501734481838007,1.471139405437587,0.8922947562648504,0.3156104795864922,0.4753426222382708,,,0.6425374456860184,5.364932115630021,inf,,0.8601027740514303
364,0.8810348804403105,-0.026431046413209317,0.0,1.4032003316560817,1.3603503381539983,0.8795368688720324,0.3144894588681986,0.49783515734694667,,,0.6333676938231112,4.057691244574065,inf,,0.8558371783586265
365,2.265115174624503,-0.2699324377464398,-0.23083012917693121,0.6022459938313189,0.502394697859295,0.5226289182385442,0.38582873598058026,0.5269552015926868,1.7479544326681322,4.2860397700765525,0.6038851895711802,2.875286120478124,1.6906633523566863,3.797093038754169,0.9492508017331979
366,1.362713807108837,-0.18608873546458812,-0.14694130625135093,0.7056637097249714,0.6639183114553592,0.5721386226662263,0.3624251332979712,0.5372713991212403,2.207911868971402,1.999738002075753,0.5748741956352443,2.027481802749125,1.9942320684380686,1.7194243900127768,0.907074503500628
367,0.15026272903397547,-0.015026272903397546,0.0,1.4949007434249504,1.486167992078695,0.9427733955072187,0.20216729904999312,0.3387661403102424,3.2927689510057916,,0.6468212168108125,2.414386056972882,3.292735318948834,inf,0.7989484583889468
368,1.8416035506342197,-0.492644249908953,-0.19320830788859775,1.508210062598907,1.4932674589638013,0.8626992263787094,0.17189784006356632,0.2822250911616683,3.189725166485113,,0.5947193981915972,2.325057948846104,2.5902671654458267,3.1249440050339974,0.8308442155588727
369,3.8882033507674305,-0.03888203350767431,0.0,1.1175178874298177,1.0737788367364764,0.7143456638531579,0.17434042569223068,0.2750624023282313,,,0.552929491858785,7.769978789586016,inf,,0.7850025524789885
370,,0.0,0.0,1.3276009079448676,1.3384667109301218,0.7749154211457763,0.18887396121556685,0.3184501006018482,,,0.6068309995095971,inf,,,0.7881653287697172
371,,0.0,0.0,1.3698407642018018,1.3628073364608437,0.7589975379836389,0.1607526049279793,0.28738114756244526,,,0.5915533975974677,inf,,,0.7478071380112999
372,,0.0,0.0,1.281061624532828,1.2515628827540008,0.7456001833826292,0.20783248039502739,0.34830152319212815,,,0.5978297680564633,inf,,,0.747738676347395
373,,0.0,0.0,1.3047664840292201,1.287234689243582,0.7609014735079607,0.1771488731989286,0.2868050071574296,,,0.5883313578629602,inf,,,0.7994179697843301
374,,0.0,0.0,1.0858653409272547,1.0614050562387827,0.6595556093374039,0.25837071436599596,0.37211192698076595,,,0.6333676938231112,inf,,,0.7857187142531473
375,1.9750010467151546,-0.08050966985333557,-0.012250213082834041,0.5110276542323784,0.44678561235872916,0.5309262053487712,0.5681842287936629,0.4720672428073699,2.2489903706752647,1.5619157441432814,0.6403206450210053,4.364405033324062,2.0595532942800037,1.0715836162801904,0.9270526209487152
376,1.9502132933282834,-0.03900426586656567,0.0,0.6863921523587446,0.6128473810874939,0.5187722310038909,0.7270228496223747,0.921008461560018,,,0.524519217297268,5.362559635276391,inf,,0.9081535933586757
377,1.6544992982274835,-0.14143099814284488,-0.007473938697628629,0.8518299750256495,0.7843681562914311,0.654642606026009,0.5566656909964405,0.7052904669388325,4.547752952279461,,0.6333676938231112,3.9086952153354715,4.033133831177204,inf,0.9040092865885103
378,1.006360576591908,-0.07546773899541989,-0.011750177642545462,1.542730012235525,1.4995780558089558,0.9316599154384119,0.6627713060055003,0.8799876592359095,2.915656306068094,,0.6038851895711802,3.2122312821495322,2.740012551805169,inf,0.8771300698331124
379,0.661830515060241,-0.04303730765595616,-0.005496930115128182,1.5076196555080716,1.481621244213297,0.9082832278197404,0.48810307585028767,0.6597742144915788,2.161840709171719,,0.6038851895711802,2.9586505986494593,2.0338173914913478,inf,0.8644896816681908
380,0.26259733349240644,-0.009628568894721568,0.0,1.1583762950645293,1.1214936020369743,0.7928644558907344,0.4150012782391843,0.6186816363907194,,,0.6584896970785714,3.5324456682721093,inf,,0.8677596852474029
381,0.2054836894402656,-0.007534401946143072,0.0,1.2330198912323342,1.1676211402949825,0.7633229590783729,0.3895509782573046,0.5225511668144046,,,0.6619902821573977,3.443409230471465,inf,,0.8820530271153866
382,1.0074515102711323,-0.006716343401807549,0.0,1.1702459103021878,1.1544182947841535,0.832883840415393,0.3146673567848754,0.41718534409283015,,,0.6790044388599258,5.578619331702195,inf,,0.7719558027833141
383,0.8201059666250231,-0.02186949244333395,0.0,1.330312412984194,1.316435219946321,0.7980748443114046,0.2667562670094596,0.38748033532195464,,,0.6652988471865258,3.954582619846942,inf,,0.798417357008009
384,1.5125873982838995,-0.07562936991419499,0.0,1.4100635104112635,1.3980613891524962,0.7627356535909044,0.2592956133102653,0.4007728179801045,,,0.6509067234006624,4.109119847804255,inf,,0.8286734149708487
385,2.1949020208976884,-0.021949020208976884,0.0,0.12932326130896363,0.09039881254750788,0.3154691740806854,0.292965334678093,0.41787696712280814,,,0.6207552362147116,6.430831206891828,inf,,0.9450714951668552
386,1.0651809967146764,-0.021856154598958625,-0.0029980686577171568,1.23599215006143,1.2228320514476867,0.8027195906027801,0.9804710151916044,1.3374411908648716,1.9146991600004122,,0.6207552362147116,4.767689115485866,1.8358547890932793,inf,0.8557755161265882
387,1.9477948339257636,-0.09738974169628818,0.0,1.507836110130385,1.4932104946229667,0.859914403331126,1.009071697453291,1.3709885414581422,,,0.6447042257417027,4.618593206320232,inf,,0.8399427988032989
388,2.4234579256072393,-0.02423457925607239,0.0,1.4974547023825957,1.462792866870033,0.8571806466897457,0.9358046813458409,1.3213377981908279,,,0.648888643467878,6.802394763324311,inf,,0.8685697417367135
389,,0.0,0.0,1.484204117507746,1.462788106956944,0.8409652391615285,0.9758049016870355,1.459215908547327,,,0.6357360191111145,inf,,,0.8476738632683201
390,,0.0,0.0,1.5367066819669968,1.5185345779839328,0.8467176846011477,0.9401931981050796,1.3734318876877525,,,0.62595550513784,inf,,,0.8004795625366039
391,,0.0,0.0,1.5241887152732532,1.4764904604175626,0.8636662724185824,1.0926356955577123,1.3616531402333363,,,0.6125606311107803,inf,,,0.8284282850229363
392,,0.0,0.0,1.5293673946714073,1.5158061189368828,0.8644581950865614,0.8692047300454533,1.2586083420143759,,,0.62595550513784,inf,,,0.8394996106685703
393,2.1526757124166838,-0.07175585708055612,0.0,0.6485895264822534,0.6323652320413665,0.74224359372084,1.2423349609419596,1.2767585856726056,,,0.62595550513784,5.115995809754082,inf,,0.8994656372450637
394,1.8866494490751144,-0.35929656994109593,-0.036899814364678124,1.5415223768539685,1.4640579813770598,0.910539703908345,1.800656344712032,2.1364436930600603,3.249153728859601,,0.5641709578113449,3.23907853218572,3.112240611778374,inf,0.8944805797388319
395,1.1640453451859074,-0.2063695329985802,-0.026439536038601257,1.6138486883396075,1.605254324449087,0.9127880882586429,2.066678456674928,2.3420276612564868,3.060518723757781,,0.5978297680564633,2.553471041656884,2.9086732990489423,inf,0.9029122258281276
396,1.692114536052613,-0.17080726576543284,-0.07321915147011558,1.2128046062942626,1.2075602770693907,0.7662247022708928,1.830389417212956,1.8777476761682854,2.8459066072811865,6.007014982272238,0.5451288209179292,2.5412653834573846,2.547331452108583,5.220355825078324,0.9013169410623685
397,1.0705503038507516,-0.10809507174261893,-0.006096960668127913,1.2794763067510055,1.25819827970002,0.8634842028174885,0.8209919030496919,1.1289246119547816,2.3065018568944122,,0.5978297680564633,2.865874286295777,2.2281426167395297,inf,0.896145128711127
398,0.6077199960909528,-0.04659186636697305,0.0,1.2480974720902236,1.2356379355697011,0.8791876043116967,0.626908163449939,1.0018514719961786,2.7947551113826283,,0.6180765742263259,2.905688462008058,2.801432913913658,inf,0.875998001411588
399,0.1329530610664139,-0.004378322545644314,-0.00537156859922604,1.2255808518537046,1.2135226520846143,0.8600301836952127,0.7664015024078584,1.0448715971563,7.097630615491787,,0.6584896970785714,2.693818618855486,4.619401768234816,inf,0.8620767903174398
400,0.015460986724618002,-0.0012368789379694402,0.0,1.3440462606511188,1.2851644566089486,0.8303377850584965,0.8196724142187587,1.109376890994524,3.271170709785009,,0.6380535849069913,2.5387294564855067,3.1683919194362087,inf,0.8943886011915617
401,0.10653892736588344,-0.003196167820976503,0.0,1.4061808677409087,1.3982222720248674,0.874695639032574,0.556550416145217,0.7830688696243667,2.122906706612124,,0.6425374456860184,3.5775368667785625,2.1295845091431533,inf,0.8534841315179884
402,0.7283567371648721,-0.06519474495994947,-0.007640928756537745,1.3014066121696102,1.2831026951908422,0.8775261304908268,0.7728004320157864,1.0104761503280293,3.6226836192571703,,0.5883313578629602,2.7609236907092782,3.3634375298651356,inf,0.8983890256222387
403,0.0,0.0,0.0,1.5630126803535878,1.521954353338867,0.9145398403046139,0.5284639814158826,0.7420070785101354,2.9923933722884763,,0.6153451465759925,2.70805020110221,2.999071174819506,inf,0.7777858143262963
404,0.11184668096718582,-0.011557490366609201,0.0,1.5009777343637447,1.5030820186230318,0.8977037904127345,0.7380396333329965,0.9710529833563422,3.366597118511503,,0.6528756675646988,2.3338464548791835,3.373274921042532,inf,0.8153516563170063
405,1.1273668353585329,-0.13870740948095492,-0.030397615822824995,1.4840364580907373,1.4679653842494202,0.9052763052007072,0.6096510788087669,0.8446029319128762,3.258734566761083,,0.6153451465759925,2.7485250336679283,2.6751036349572836,inf,0.7942286341591024
406,1.539468475540172,-0.15517922510077786,-0.02442543037890889,0.4932277241073278,0.48457003250029806,0.43036968567174333,0.5675675056762964,0.7778743235341755,5.726663474366716,,0.6207552362147116,3.035166342799398,3.9903719718391226,inf,0.911508364773961
407,1.222187695022951,-0.032591671867278696,0.0,0.7620553183426458,0.7399036254456001,0.5016746070729983,0.4669356058294608,0.7114883032804067,,,0.524519217297268,4.300139475201697,inf,,0.8864422569244925
408,1.871098577369863,-0.13785990523721542,-0.018064976210273184,1.0380803319024066,0.9972538462539126,0.8090497783778123,0.41480431654262506,0.6936345225980566,2.322186174926857,,0.5783247308855777,3.9488022569314425,2.1554577843218836,inf,0.8337934698545164
409,1.5773409559292393,-0.06961622942230905,-0.043255335743112466,1.2364700702717548,1.1894560109545664,0.7951564537875878,0.5081482082827976,0.7178948982908773,1.6639727940710602,4.375326460903318,0.6153451465759925,3.96859335691654,1.48054689936608,2.662587827025453,0.8553527383565745
410,2.1106304196789747,-0.021106304196789747,0.0,0.6072716024401669,0.6039085157163127,0.7096683100751917,0.6535287787427482,0.8204150967542516,,,0.6068309995095971,6.603543904579146,inf,,0.8750446693057549
411,1.4920124347090622,-0.033344287949682846,-0.026336209438679637,1.0854390338974766,1.0651543273333883,0.7125119655409796,0.796671773917658,1.0837868436334033,4.121464139274362,,0.5748741956352443,4.50683428526723,3.956291684878732,inf,0.8617416438821645
412,1.8090060139118591,-0.03015010023186432,0.0,1.156812622093931,1.1227643271277759,0.7630082314034003,0.6598653941128214,0.9660067456229449,,,0.5451288209179292,5.700454684563526,inf,,0.8297720694459114
413,1.60134283210323,-0.06902182956304671,-0.011045312042114768,1.1617592483141337,1.1196070674710639,0.8056854140856075,0.8063990645916688,1.29468632297543,,,0.5748741956352443,4.320827014801825,4.688842661712206,inf,0.8883200595095977
414,1.2167868166938969,-0.08560789774827465,-0.040126739976761354,0.38720681248322236,0.30338615062539864,0.3687122420235105,0.6224258668493349,0.8788702578667356,1.903421875978055,,0.6068309995095971,2.9030518110535395,1.7854999838736032,inf,0.919657238701127
415,1.3039759129864916,-0.11007140957208905,-0.033365940856425025,1.206409639539833,1.219344236668195,0.864849947637828,0.6727226076196009,0.9381358812645522,5.1100677261135985,,0.648888643467878,3.1127655903198286,3.4664856216902726,inf,0.8241351075812631
416,0.8708175133548895,-0.09708689092331067,-0.030633011035406454,1.1567200651855964,1.0987363193390074,0.7877874681619903,0.6106272876194169,0.8844993180462459,3.3464352726557567,,0.6008849035917525,2.486107370364519,2.794588394833698,inf,0.826528582944282
417,0.0292156802057636,0.0034677382366051605,-0.016482288031161182,0.1070503374570581,0.07221086348269307,0.04103107467858992,0.7176162574966628,1.0037667868670468,0.47801797811301805,0.7402803197005438,0.6284777104787076,0.32881275658708187,0.2958038815657548,0.2810364303783786,0.6303887614651162
418,0.651400792506773,-0.09759727880436214,-0.00011284007165379834,1.2435761986778482,1.2269918420264676,0.8344046936213029,0.6377572459710177,0.9634935235157815,2.2035120071532694,,0.6668815377411301,2.128351713049844,2.200871656704887,inf,0.8503858046961906
419,0.801336603002286,-0.052205738957232295,0.0017378841372718834,0.5487734851778556,0.46542131207787296,0.49196431515575706,1.1471144069020753,0.8595018513748458,0.803994234182485,0.6326835588197686,0.6180765742263259,1.0981457308564673,0.5394630585443294,0.3771275783621472,0.8491846139292263
420,2.052350769023154,-0.07354445990831913,-0.015390740082684203,0.4338635971467,0.4077982858738267,0.2499062859127278,0.7008134332432766,0.7753397852319136,,,0.6233814453054027,4.073888553654719,6.235064106989574,inf,0.7812036355894272
421,1.2391477977766054,-0.03304394127404281,0.0,0.2701259385638843,0.23952110319744405,0.3646872596127473,0.6811905612296972,0.7419346396596492,,,0.6403206450210053,4.57993571480955,inf,,0.9545476044981732
422,3.326687400452541,-0.4604747211062258,-0.16050692697824853,0.9862545913828544,0.9119052738197793,0.8331090268829078,0.924289087510693,0.8338212454325815,3.4646514029052087,,0.6180765742263259,4.272674097746518,3.222867846137738,inf,0.8968521384605185
423,5.146433587983799,-1.2835663610027777,-0.24320893676574928,1.0940171686605746,1.0476064815969448,0.7860964094638386,0.8549137528043501,1.1056855690280902,3.124459108029165,,0.6038851895711802,5.973842945758163,2.7256718024520294,inf,0.8990443347030979
424,2.1364511217152606,-0.2639691918920963,-0.042255468887091106,0.6140829968114748,0.5689718972454866,0.6455274642235982,0.9583810680403679,1.1089499332461752,3.2494342141009036,,0.5567373465730988,3.5767419541770864,3.0516995020237863,inf,0.9326241653913427
425,1.606344815380669,-0.14594272690797327,-0.009337271912158048,1.5554086124131834,1.541289960133366,0.9279415162261614,0.7308890497577742,0.9662531202391328,2.841966911138467,,0.5677978065141052,3.3998649364283766,2.56962070396083,inf,0.8824998558482126
426,1.3326815578027906,-0.13687801551910228,-0.08079330558868682,1.6653413853073693,1.6106872569396127,0.9525686383284565,0.8040262889914547,1.2115020485492756,3.086535418684058,,0.47824363442641393,2.788898788965531,2.875662972537389,inf,0.8809988211697848
427,0.9428852241317763,-0.08320809248093694,-0.023652232920664373,1.5492879227401473,1.548167015247783,0.9355710459648452,0.7047341806011579,0.965948811445233,2.6010673088076173,,0.5783247308855777,2.6365050339391143,2.2548668393303237,inf,0.8536204956072397
428,1.6700901672924324,-0.19465880836556018,-0.05028774950399659,1.6260384437239768,1.6142975152818002,0.9404969263346212,0.6123736052776636,0.979121107563971,2.2223475876675582,,0.5287703885177266,2.90001813494797,2.161910453535836,inf,0.8580555554548489
429,1.1249571582184472,-0.13169992915027118,-0.022044215806249927,1.5888858868866507,1.5628830512638885,0.927029918028091,0.8286852818581747,1.0544796499766211,3.538821251875444,,0.541134803179459,2.7145714180924756,3.113263705233704,inf,0.8877306532812231
430,0.3971772932591008,-0.04501342656936475,0.0,1.6701919823847389,1.6526513486013958,0.9016476985144918,1.051546697846948,1.617425982402734,,,0.581717464821069,2.4778648349989543,inf,,0.8102143005849574
431,0.18728524339887673,0.0753231678038308,0.07219888059257734,0.988422456621654,0.8400346090547204,0.5894131041660715,1.7829878676966335,2.006605293066821,0.41368677985864455,0.5373807646349696,0.6068309995095971,0.5350424236472593,0.21526317075263457,0.14694532828296197,0.9003716695791311
432,0.0,0.0,0.0,1.459952749770809,1.4570049056098917,0.9004417153920234,3.895437452735429,3.5392713938709277,2.5223897430427407,,0.5978297680564633,2.4849066497880004,2.52906754557377,inf,0.8764524630747319
433,0.0,0.0,0.0,1.5177657296387852,1.4859774871558522,0.9033309147869002,4.2341468461836085,5.1377675668794,2.4390081341036898,,0.6357360191111145,2.5682882587270512,2.445685936634719,inf,0.9411772007714714
434,0.0,0.0,0.0,1.3515216629680082,1.169845187460531,0.7699775797799114,1.5620296244925118,1.1253489052690746,0.10445766919019273,0.01304372289039446,0.6619902821573977,0.7838015488280762,0.111135471721222,0.019743896660958344,0.8797184106052678
435,0.2730926589519236,-0.01967131783711376,-0.006727639194905519,0.7206618783481297,0.6769136752389887,0.5709165882634156,0.6175073138919219,0.844998483335963,2.565449232503188,,0.6309483474627791,2.4418471603275536,2.507379505640059,inf,0.9055725091377864
436,0.2916158630416887,-0.04405148052656617,-0.008439374820937793,0.6418472979433097,0.5466892970069158,0.3579907421852141,0.6489604411013269,0.821894311393249,1.8799649521512176,,0.6153451465759925,1.8570449359266843,1.5835865149808779,inf,0.9232880859971407
437,0.04660638605698923,-0.01765801440584242,0.0013575248501005656,0.9555428373208802,0.8722399319625812,0.6614118426787465,1.5470835909485614,0.966037983555714,0.2376790261613332,0.19490315567574024,0.6233814453054027,0.8027388571900397,0.18531644091342614,0.13031761874279885,0.8029625673522216
438,3.3976661054247135,-1.1037105198800732,-0.46900151572788124,1.0771516610395306,0.9595806465398432,0.8333686918692382,1.3317104466570504,1.0661282491160506,2.2654852998971236,2.061969270927361,0.6097226960127671,3.5113843406969107,2.055538951242093,1.6817585740137264,0.922504244591749
439,2.4602793789681385,-0.09522184622792847,-0.027792122720478454,0.5650582122478297,0.5246450717215853,0.6969213661128452,0.5101827722016629,0.44091875390946833,3.555787726727248,,0.6357360191111145,5.0725106978143435,3.199560035568909,inf,0.9585038245642525
440,1.9551471338728987,-0.16564643482888583,-0.003799650106765385,0.6892971264371646,0.6560372697135177,0.668663387983037,0.47171450249561303,0.35611650251091764,2.969103684603613,,0.6309483474627791,4.037334307505321,2.805882450339245,inf,0.8964468358330406
441,0.16250937076596406,-0.016774302545526157,-0.021468484652572152,0.5454625342969446,0.5164979212301134,0.4718766501817167,0.7568318381732185,0.5093605022782157,0.9042088675846245,1.2167513521347286,0.6566669596287297,0.9801776135230116,0.5818467432081122,0.520443983306907,0.9106132071449407
442,0.22875903376436094,-0.005612536877462507,-0.016289589728568074,0.9249365860496194,0.8916016962482275,0.6299161359181615,0.9347846478030065,0.539228666386132,1.0576728408331657,1.0454448321442533,0.6447042257417027,1.2813739422904684,0.9002726050824326,0.6128697248797423,0.955520792866238
443,0.6899610636106742,0.00243827712061645,-0.017036241100372163,0.9495428696104188,0.9153169463946489,0.7161800285754906,1.2820727552678473,0.870149638993932,1.4148659899628078,1.6466569725983722,0.5915533975974677,1.3053494964098526,1.1443187179521288,0.9792430058676899,0.9225121858435759
444,0.4428123246554475,-0.04308607974310384,-0.026253793322050724,1.2603407150978743,1.2600211985158765,0.8432259046189724,1.1445206982304252,0.8323440992408779,1.2335183936971645,1.2693988516369172,0.6380535849069913,1.542038903063393,0.9831343399531625,0.9496706788138985,0.9158044627022611
445,0.21261748971432895,-0.026861591547829057,-0.026963174926482786,0.6430301870091572,0.6041522599264311,0.40683807428383995,0.42216828315539967,0.24140676722681442,0.9191831372380747,1.2748855570145718,0.6566669596287297,1.04160203395133,0.7285264151504303,0.8323612563399572,0.9358565881771218
446,0.09599368330713684,-0.005897946895537982,-0.01977609910401067,0.9159097933821087,0.8748073651956861,0.71036359074768,1.0746024828256229,0.6966964051112121,1.2016997482592446,0.7025572192064575,0.6468212168108125,1.258820165216953,0.8792868076361775,0.3865111771710978,0.9517348939402224
447,0.031989491495503196,0.00011635565366289319,-0.007473938697628629,0.8454018084782388,0.7822901222013646,0.6394279331626743,1.123876942014703,0.9512396339567584,1.5787278143724537,1.249412881610086,0.6699045166045591,1.482658429402974,1.2233937690365628,1.3949813519333603,0.9541232078795827
448,0.08621030509025267,0.0218116908582175,0.009559533123004484,0.8044272711071794,0.7414760525780261,0.5414230501844721,0.7755011925669025,0.5125536685379243,0.6111169676197524,0.4977795198627961,0.6602640781246099,0.8629079553090417,0.5323150365551502,0.38033509802585497,0.9436306107140502
449,0.13854903344406094,-0.018947219663398792,-0.0016185674755311678,0.7557669760119832,0.732367641809454,0.6337981244201351,1.5763083397584565,1.2028250581250128,1.0684494239476283,1.239309159366647,0.6357360191111145,1.2776990829521349,0.7762046749398623,0.6611710581471774,0.9504767548272067
