,eda+bvp_XAp0,eda+bvp_XAp1,eda+bvp_XAp2,eda+bvp_XCond1,eda+bvp_XCond2,eda+bvp_XDist,eda+bvp_XFuzz1,eda+bvp_XFuzz2,eda+bvp_XK2_1,eda+bvp_XK2_2,eda+bvp_XPermEn,eda+bvp_XSamp0,eda+bvp_XSamp1,eda+bvp_XSamp2,eda+bvp_XSpec
0,0.7366891610958989,-0.11768499002285476,-0.0274191182560439,1.275833981218229,1.220907331851579,0.8486869947136292,3.2036838217206167,2.758693180507544,1.9855330158104143,1.7062235885339898,0.663668482632973,2.001986795275718,1.649382810088566,1.6034626492440134,0.9640733025205609
1,1.254607377558224,0.09644532477692358,-0.20003893588662752,0.8926708081960453,0.8491540763727636,0.6650059776808092,2.303100557548712,2.0310192152818125,2.113044662049306,2.5451678587407267,0.6468212168108125,1.3469027224042753,1.4745028310271664,2.444121990293604,0.9364864091086025
2,0.3763658379630689,-0.007093009335932543,-0.029655980632057932,0.6853895506010133,0.6517739291331097,0.5907735752223408,2.573487386063702,3.654306435699341,0.5487695515654452,0.4598478163010604,0.6284777104787076,0.9665903680567925,0.4527783007925273,0.25413380298588856,0.7861565301654917
3,0.11858006351412775,0.011514301528933086,0.014133432152775682,1.15170368383171,1.0964231196346799,0.804310417278454,3.686538490620284,4.491917641519684,1.2188751712394092,0.9197234190856022,0.6619902821573977,1.5245352386786701,1.0856323366216722,0.7505278630524829,0.9443680554376482
4,0.10952423436535771,-0.0006811563406316778,-0.004404957067210908,0.6946851264753279,0.650576308077812,0.610559714070207,2.59199389864522,2.3345946410250407,1.0988628107239922,0.9654053372099874,0.6153451465759925,1.4483589080199304,0.8650624637188007,0.7666591613854061,0.7737090223430224
5,0.5718156789051445,-0.0039194926479280134,0.007899074602820522,1.0293735243842423,0.9962597377621759,0.735938812316425,2.0888075245083217,1.4976554222176985,0.8614147438797487,1.1268825942633716,0.6584896970785714,1.384961915886112,0.7000953645793596,0.6251619379215784,0.8636789325725753
6,0.11296972648312394,0.033653814583290004,0.001234120834628552,0.8076740420146663,0.7739842989668734,0.6801677559781765,2.1128088340213664,1.3196073768198109,0.8110884854816505,0.8497192950470995,0.663668482632973,1.0387094959350667,0.5943951665774444,0.44305338684426465,0.8441477361605871
7,0.5606434543676075,-0.05464542794774552,-0.13156515629756055,0.7976737774237311,0.7682626586177629,0.6212233837235209,2.4871519010722603,2.914783540841538,0.8031554048374832,0.6906630262189087,0.6447042257417027,1.1194274283820298,0.6182858724289382,0.43228529027166,0.9083388431199898
8,0.18739612573776193,-0.007977938695921852,0.01582952298390003,0.7369072681075182,0.6897102065141364,0.41736651423850074,1.9628077379973792,2.093201772049292,1.6532268173182183,1.950943182488695,0.6284777104787076,1.4252662163519842,1.4057051982627329,1.0755114104378136,0.9596269921697594
9,0.12512597805783435,0.04085962839038984,0.007532435326242981,1.0944248787989896,1.0035234198809948,0.7228146802500398,2.154521088026615,1.9576739870346933,0.7929590691630446,0.8286791407637718,0.6380535849069913,1.1343776451148524,0.6463100101461529,0.5993786141160564,0.8962838818894002
10,0.5142366441241699,-0.06699669656532375,-0.015011512680077665,1.3507391641781887,1.31387379665316,0.8817256243857869,3.3446410523359593,3.366867653140049,1.722469532916802,1.2436948087733957,0.6207552362147116,2.024448433385796,1.667101249284019,1.172103421077795,0.9441958061694584
11,0.8133082755594216,-0.03412238566013201,-0.07974077291818701,1.5056008361366022,1.4951866542864494,0.8849084229445264,3.66887288714801,21.00184438030321,4.663900779308454,,0.6425374456860184,2.367538515005897,3.7219064404622886,inf,0.9327351104175458
12,1.1626468379040789,-0.14060634183126697,-0.0415416627737054,1.2702769224972699,1.2627770252579833,0.8237304807410283,3.801840586610268,4.41119960774123,1.865662153356365,1.6027377386635364,0.648888643467878,2.2697952701710546,1.7776657061521954,1.6630104864837474,0.9483672268080972
13,1.381852490823166,-0.1224330381512029,-0.05589839752390111,1.5215948558392403,1.5002666326095586,0.8772960534456121,3.4886607267261374,5.105282803498623,2.2428890570157742,1.3232757567591031,0.6727386042041725,2.480914628518463,2.135428858067754,1.273768566261478,0.9073485801789427
14,0.4756615943408253,-0.03611866397972061,-0.02223395270476961,1.2946841258603792,1.2554579193078388,0.8536121094359592,3.2431466878030686,1.9935996112202754,2.3798182212848107,2.839405484651047,0.6547956803312163,1.9554555618988447,1.7289892951472259,1.2901799995271521,0.9541016315265967
15,0.9751272379708358,-0.14532659723566183,-0.03175113066101527,1.3957297424637303,1.3609217842543337,0.8935397104054255,3.248459039726436,2.799463343802394,2.3932431292989573,1.4097851596284723,0.680118107274185,2.0266382767606856,2.1518127947584147,1.3855694607619422,0.9377494315760339
16,1.280247324867227,-0.18622542979742368,-0.04855712902848987,1.4008984830588451,1.4008848142642272,0.8057555193359033,3.8210762430131875,5.000500387888232,2.360005573865104,1.1719548225710823,0.62595550513784,2.2132523384134166,2.2785891622676715,1.1442823255012982,0.9146291420060544
17,0.7025547524996648,-0.11428142821527994,-0.03091322063465078,0.8831407480045695,0.8366555430329373,0.7081246375976837,3.4853289992031624,6.753389245935193,1.961085343016884,,0.6357360191111145,1.83989984455599,1.6994108392357996,inf,0.7669288907679825
18,0.7788899350658219,-0.0999252622770206,-0.04616870631720925,1.113144831382273,1.0836672676314887,0.7854964212453242,2.997741281307125,2.3524034354539953,2.1145671089531675,3.6579292781199126,0.6668815377411301,1.7504895750298382,1.766118658143645,2.0216598030051447,0.9478232371060654
19,0.5785978269892968,-0.01174354474409603,-0.054269612209865675,1.064579017644834,1.0274418526133795,0.7918869088817037,3.3226274009826393,2.7481932334682444,1.60014907804798,1.4597188992051224,0.648888643467878,1.4905690467514818,1.5069425867025865,1.23609499610154,0.7457611530698939
20,0.31445848811140514,-0.009870983395052199,-0.03023544670231484,0.9572495790158759,0.9051316520570979,0.7191994118815431,3.513019877885313,9.224261882751566,1.9030530375563834,,0.6468212168108125,1.8185826832719307,1.7518226160387962,3.3598228355234685,0.8582767989170016
21,0.4547974419627001,-0.0582989666408669,-0.022048581439210117,0.8302745275896313,0.8156712610804157,0.6153904108054364,2.917671610232416,3.6973398343655335,3.0320225709048034,,0.6425374456860184,2.0302704976733867,2.4526820555904556,inf,0.8974282195241717
22,0.2380350824628078,-0.02457146022078833,-0.00012837230824575517,0.9559908124231328,0.9318238758065526,0.6226323290125462,3.4486968709708887,7.0342837830965,2.6443004861801853,,0.6403206450210053,2.0521723056370806,2.550778123612698,3.914242762166459,0.6966387806417246
23,0.8669921940463818,-0.12348684646497679,-0.1329620500239876,0.7401403280491927,0.6938467629794763,0.5695852420691335,3.045405052873186,2.9027178053829563,1.35134051809278,1.6573878803816795,0.6425374456860184,1.4491158387022998,1.207291129248072,1.1812303261193786,0.7472395212754599
24,0.9074505053418258,-0.08415766806359429,-0.1120083548005159,0.9329997840817009,0.8927249699827373,0.624046963660778,3.0083594580702244,4.486014644562652,2.061214361472571,,0.6668815377411301,1.7874354977480005,1.7047812823013235,2.7448641742249267,0.7341120936663295
25,0.8777147667345558,-0.16594252483805497,-0.013399295363298473,1.0441372153592066,1.0310341432772048,0.74858717061337,3.356173476357704,3.319962465065813,1.820646912382961,,0.6547956803312163,1.776805177446244,1.5299915287944268,2.1605969903512996,0.7555332075499056
26,0.5253393510728706,-0.06900353497434725,-0.040230738664123605,1.1120518647988458,1.095823442938168,0.7948448989460338,3.985706039378685,9.452894650775363,2.018635391315964,6.517840606038229,0.648888643467878,1.7590986869885066,1.7898256067031042,2.009315875673932,0.7975185536108159
27,0.8589900658002212,-0.13941072123685905,-0.0272602275675253,1.0040683860571396,0.9536873262054998,0.7167092082618872,2.8477329880611797,4.199564322212627,2.0944834884006918,,0.6619902821573977,1.932401799030521,1.8578953366535345,6.007829901194246,0.8553048092447171
28,1.0164286938413338,-0.12112405256416758,-0.17036619219528845,0.682417164642761,0.5338798395417917,0.5533261980126611,2.4227787337533027,2.2333346265540146,1.4285353277161918,3.096570692835426,0.6309483474627791,1.2855846436774916,1.2370931037975075,2.0703443045774446,0.8380346737526291
29,1.246452586071017,-0.26041712451982113,-0.1641330520445818,0.8114904588428666,0.8150876598502498,0.554776056674414,2.5190004716287775,1.9505038212445576,1.7611041013512678,2.5221405062443214,0.6619902821573977,1.3808425824416453,1.4173146914667083,1.560152834148212,0.6591672629489119
30,1.1953501922696368,-0.0005773504726399037,-0.08317302474301569,1.1826176797095782,1.1619429554886294,0.8218013111407868,3.2641483271143126,2.94965191229556,1.4379630156200065,2.0347861479088363,0.6713451011121618,1.6354397149731013,1.1563544795620695,0.9425476336555229,0.6277107881448729
31,0.7692551244718766,-0.15184669427813025,-0.04706558653127436,0.9785037027403557,0.9154928474456736,0.7109086468512088,3.098546021576382,2.5010894846857945,1.506426702750696,1.585300151649489,0.6566669596287297,1.3997173814520312,1.1902535315845777,0.8913525131048311,0.9084337296391494
32,1.7310083359907742,-0.19946298702719617,-0.24736027520490655,0.8399710892915372,0.7883063909015136,0.6801974688089933,2.6833511075611676,1.8985374221004743,2.757596047496947,5.052271666886982,0.6509067234006624,1.6384091095715658,2.260917065062173,3.679597378189568,0.7814196580189665
33,0.7745915559654957,-0.12301428786721406,-0.07472533530383901,0.8192022705163569,0.7156337297143472,0.6463359263014432,2.568220077447609,2.257654829349592,2.784803490821995,0.9900629113261642,0.6740851607140061,1.7387875844619494,2.447672266667957,0.9906236506040138,0.9526522195686282
34,1.04776567165553,-0.19450783991103476,-0.08489633919710654,1.0118707853167763,0.962343276600118,0.6876317828813785,2.513803888128902,2.3927121359878933,2.4221179652661187,,0.6528756675646988,1.77313400510489,1.8566383178686818,inf,0.9457720108300637
35,1.2325893943937951,-0.18045043857408982,-0.11947964739506702,0.7984108718164544,0.7620552536465673,0.503149882476878,2.16413323355983,2.0327215512470134,2.7386030924994436,,0.6528756675646988,1.9541999704288602,2.326474169984734,inf,0.935746185264086
36,0.8995027948769669,-0.1287285887237787,-0.10193067145240127,1.0908872786267971,1.08062582709621,0.76686336829699,3.0363516534667436,3.2619471971223675,1.9981618316719296,2.1450620294888982,0.6684167106117298,1.77032418850799,1.8780533222966165,1.8429853759003605,0.9191045470831208
37,0.5105551732050246,-0.08953809804136101,-0.00675936158360501,1.1799971876338446,1.1654243432758347,0.8177040340894565,3.4067628281147235,2.0389652456086145,1.9674724923581157,2.3084321352755706,0.6740851607140061,1.8300153146825875,1.7523043431980405,1.7005619005375696,0.7904089443306979
38,0.9833467055071506,-0.13493813163215868,-0.07484249887603348,1.034219267525208,1.022575699461877,0.7268597334556828,3.1610465965094803,2.6105264067930523,3.3157092955674208,,0.6566669596287297,1.984858899193888,2.9690810512258223,inf,0.7884593734657259
39,1.4647696561723413,-0.13863189502343193,-0.1652181724395034,1.0561573076407296,1.0391692281695482,0.7484903883618863,2.986761746202998,2.1546038042812246,1.7982330955011525,3.8673562337337315,0.6584896970785714,1.7967720110515992,1.4499890173061372,1.8955027082169558,0.9484573338223801
40,0.8135660358771184,-0.05170267679055368,-0.06127524041089827,1.4016076364776344,1.3607407075830917,0.8879072829914714,4.437451433033269,5.183649452212475,2.1062555627026276,2.4537879486692904,0.6602640781246099,1.8102629407926145,1.7033568702838282,1.2269883458067528,0.72232876699017
41,1.1778959148119745,-0.1277721818216271,-0.07107982147666064,1.264792505726217,1.2546388549106742,0.8143295334825232,4.180682932225893,7.8000508037289995,2.0786870735250864,5.957521636943544,0.6357360191111145,1.9716839014222882,1.8675017800535918,1.3378978202580403,0.8775826625248602
42,0.44849595391360786,-0.09585900011560478,-0.0006442330940476021,0.9020139009656474,0.8985982424094804,0.6767110062868035,2.6777430758293654,1.9445902496179004,2.502866566569011,5.579049233974044,0.6333676938231112,1.7028332600336535,2.2746175507169477,1.9329459132685989,0.8125362225097862
43,0.43726337555102135,-0.04709695136398041,-0.04189042768496207,0.9659795888523852,0.9368731302173643,0.6875549292100261,3.1548517168095858,2.0763224164669736,1.9896592838887002,,0.663668482632973,1.6313427478221503,1.773528039206314,2.4575167178043755,0.7810797429314531
44,0.5339332783189705,-0.12788298977899448,-0.0038205522063515756,0.6571962080901259,0.6437820980533504,0.6023321791577368,2.7666725895638598,1.5598674992422663,2.5254392322668844,,0.68318204999448,1.5975093415688266,2.480961871496984,inf,0.7060614419648162
45,0.4381710835152082,-0.03186657042113422,-0.030984533931948444,0.852266261581549,0.8064503134432979,0.6964109204799314,3.2487865282064243,3.355289265810559,2.0005182007651987,2.1513633456053762,0.6509067234006624,1.5452119401348292,1.657134582782161,2.0937510868927336,0.7322851679712566
46,0.8309942342529366,-0.16935666327833754,-0.03466546207909104,1.1483363757190033,1.1223814453401892,0.7826479945000637,3.618566679514021,3.1827408311859733,2.371450896918171,1.5624824769439418,0.6699045166045591,1.7766738318100141,2.139245643897255,1.1654960004500339,0.7300703619954549
47,0.820275605598877,-0.04178545046888782,-0.10276549438758678,0.6401386559067269,0.593081857965715,0.5663915285478323,3.330993037353129,2.72596983237062,1.5975625316083106,1.8618671819011903,0.6584896970785714,1.6732655751802659,1.3404043990603924,1.4891442051099055,0.9231340842546131
48,1.305312381883252,-0.17997017694692322,-0.017809438300952076,1.2989325334474773,1.2293709029967035,0.8308813245779204,3.890753511384477,3.871996176646586,2.246455890776405,6.08574029067742,0.6811855325194978,2.3688436109970383,1.754586532120159,1.895063076378704,0.7827002978353661
49,1.1645559799406215,-0.1202050751309322,-0.083952596404065,0.9629133439703403,0.9178995909666173,0.664001668480607,3.669622872443095,2.200308316302543,1.720411644474381,1.7388082778067353,0.6447042257417027,1.777988065144137,1.4625087058270274,1.4651078123386974,0.8535366637620286
50,0.7259925391242971,-0.11369912665348196,-0.052878392221723206,1.0345246054694592,1.004796707702969,0.7547118715497185,3.603663791506579,5.276177740372962,1.8660168331535818,1.8524590488760944,0.6602640781246099,1.8206391687787056,1.704233574244671,1.360599408118873,0.9172293847393801
51,1.1909975483053798,-0.17251361381290725,-0.08059297149768135,0.9148978740533001,0.875616166226072,0.7135948319725756,2.5029015706232527,2.238274727985737,2.70769421439852,,0.6652988471865258,1.9339376617191602,2.2222823042210282,1.8441732119120953,0.7979091544939544
52,1.9371937745656622,-0.23804606233599312,-0.229104436805733,0.9423229661640907,0.8808897227358219,0.7110579233723934,3.017427461933505,2.4869935373744543,2.0082252180112357,5.122014408391292,0.6425374456860184,1.961362253614235,1.824028100880545,1.9838199254838762,0.918940919340171
53,1.6084783898798969,-0.2708010535452807,-0.19495331519535047,0.9935307422101475,0.9646722053915808,0.7300922490477693,3.2868872143209114,4.281837272790343,2.529645001977772,,0.6380535849069913,1.8211196245345416,2.1901100309770523,6.703188113240863,0.8386431240187424
54,1.6466387140930236,-0.26184087981087384,-0.018087701584940157,1.090567258196861,1.0521074451788737,0.7086881034827096,2.744630344705493,2.513745311781619,2.9290403861411707,,0.5783247308855777,2.4954958513422687,2.566432737141538,inf,0.8056271791765626
55,1.3353231676734407,-0.22592960853205885,-0.06953211702291748,0.8843640217821486,0.8653599120316485,0.711185396982131,2.892103124859176,2.823365774678875,2.37402990682558,4.083469017041057,0.648888643467878,1.9409557755901818,1.961116898984796,1.511530847430855,0.8785370087596325
56,2.091381648400807,-0.3412491385964609,-0.2849975330814487,1.019580301109882,0.9955872699812663,0.7683119203129702,2.704076319678996,2.4013132953003167,1.9591082030462805,1.838763474429352,0.6380535849069913,1.9264343725546567,1.7083778602890038,1.560146620717223,0.7120100345681694
57,1.12264524684865,-0.1335153113553531,-0.11114914431855268,1.0192933243269473,1.0226617545985783,0.7625450944934155,2.896781756465162,2.971054528202653,2.2043772601919907,6.126155422779369,0.6403206450210053,1.6773599289195589,2.0910438487336704,3.6318279864267016,0.7691423425744613
58,0.6509321792910923,-0.106974600134041,-0.03881045524216743,0.8459116333967319,0.847938651360745,0.527411972343947,3.3426358425399036,2.9701494314719086,2.121089973827199,,0.6684167106117298,1.603787240925286,2.018056811852492,7.785720896534624,0.7028971187321844
59,0.9886467489056319,-0.09526485610657234,-0.11355417946073552,0.698650240517505,0.6663506595312999,0.6222287624737212,3.2047508673704237,2.6906117900719226,1.7000343651725167,2.2723480556101867,0.6602640781246099,1.4975487548135737,1.4432745465786891,1.8036089519293361,0.8081186267017709
60,0.8614811222823022,-0.1622036136081167,-0.04732983817423939,1.0757702830526992,1.0420198245441017,0.7382827292448891,2.744499869511167,3.0456066623935265,1.6919254995726094,1.8861362960733512,0.6727386042041725,1.5955350072651089,1.3747461338593578,1.1233969765544736,0.9084004039803939
61,0.9806186395562273,-0.19247271696089518,-0.059657704474083126,0.9980643726609659,0.9994596978522334,0.6179878414493442,3.6071281570556875,5.89950084494477,1.9238838581889037,2.354233101199019,0.663668482632973,1.6437993399514115,1.6422852346102395,2.168237040462967,0.7787644262645301
62,1.0755157581244519,-0.1349800425367363,-0.06936795150690958,1.1841663250127994,1.1698681513131073,0.7759947515145973,4.246140165247424,39.16237625955922,2.2973307782478702,,0.663668482632973,2.144157856399527,2.2585251032000153,inf,0.9492509039846836
63,0.7422060443440102,-0.08034976146456431,-0.021085064595783756,0.9350112299932102,0.9139358984138667,0.6093735202712871,4.791308319098352,12.498008541967284,2.27067986978841,,0.663668482632973,2.3837951484195887,2.0483558734368614,inf,0.7197311389269554
64,0.8079875359220234,-0.077652840000235,-0.043251257866858975,1.0693455651461243,1.0405083885667556,0.7593915188262579,4.029950221975737,2.4137063235717635,1.6124635711981163,2.679431341624,0.6668815377411301,2.2901077048162755,1.3930105988625894,2.1149748504485775,0.8075053697290702
65,0.43140875074075336,-0.041630019651004685,-0.009653806227484161,1.2735499325167334,1.2518872279079896,0.8131394543723137,4.762282724545996,9.984226925318424,1.7773098944825743,,0.6447042257417027,2.305701053672303,1.5221850725496433,2.4557148436871965,0.8311835931477592
66,0.959942302149645,-0.11335171975537472,-0.03451613350651965,1.2858455149223897,1.2782035792606534,0.7792664305851783,3.498775561702073,8.976682477612478,1.633145306624084,2.774395427618953,0.6668815377411301,2.0521723056370806,1.5560492454594015,2.6518489214024674,0.8250068123993983
67,0.6010306578658006,-0.06229156556591135,-0.02786303311395873,1.2216354439313408,1.1828958214671856,0.7575340573844955,3.981224803029226,33.76729633883552,1.847827807921805,,0.6699045166045591,2.182828697052487,1.8041573468491143,inf,0.9296893501946251
68,0.7178421352200794,-0.051528532192485335,-0.042820948879125485,1.1648840619565137,1.1545172605232645,0.7930491080771973,3.4731366145122307,4.389275048772654,1.1727751337173051,1.223558492826297,0.6619902821573977,1.8757934648380645,0.9840490880232774,0.8815004707883354,0.8527259434987993
69,0.9082169255045479,-0.07941498728017941,-0.005532849891816325,1.2702023036142975,1.2568508345950253,0.8135892071165689,4.3355427148679135,7.479191976050202,2.5567004626984664,3.3926436392422685,0.648888643467878,2.5544711131739093,2.0157610214529016,3.792810376962168,0.9454283507613206
70,0.14245503994768227,-0.01992125932315048,-2.244626952503948e-05,1.1163586615869265,1.1186207254545069,0.7723084502939646,3.1933950973926715,2.5518161293752906,1.432952261091766,1.5556742708150861,0.680118107274185,2.0153197740386073,1.2945146016095757,1.7074899065988698,0.8292301355590063
71,0.3879696084713173,-0.05212912349962932,4.423739961041326e-05,1.2946600190716608,1.2815254524527004,0.8524075282526165,3.410274164309705,5.928414987816472,1.808454551931353,1.3598829180061278,0.6584896970785714,1.8255920577645068,1.7551307933896019,0.9091364883229883,0.9481633811125607
72,0.24011504557999028,0.0021077863036492936,-0.004442429004817963,1.2156839741476573,1.1961613055012315,0.8264682074826574,3.8509865583473486,10.460543041490073,3.0228518506062523,,0.6713451011121618,1.8442464582417768,1.8849921345637393,1.1046461895462403,0.9466330460953962
73,0.19031530388447998,-0.021569067773574396,0.0,1.1828149830552985,1.1228829804697265,0.773849159146193,3.282464714559001,14.914243426778086,2.7369633436738834,,0.6180765742263259,2.2703330491568576,2.0504939656449674,inf,0.876386754403506
74,0.3736743656791201,-0.04452471889535497,-0.01526317961330424,1.2828142806113094,1.2658327291776619,0.782211714557533,3.3613094754870483,5.478589016429932,2.6215438138356175,,0.6233814453054027,1.9680989543444622,2.2762936041212973,inf,0.9058516049462556
75,0.20184741902092726,-0.026912989202790304,0.0,1.2121397589304825,1.207626957326065,0.7900467589103051,3.8157738411836872,2.3542682388361014,3.614313043560054,,0.6309483474627791,2.0861305298306325,2.927843665531138,inf,0.9161939717318288
76,0.3196155728582625,-0.06634511979222163,-0.0042216050610587984,1.1042530966968018,1.0741060942699248,0.7827539232097033,2.974582777955981,2.169465937333167,1.2546022989312164,0.8965604426745082,0.6153451465759925,1.578208446119349,1.09527931063375,0.7567952058041528,0.8944080629621188
77,0.24401374891861924,-0.01741511417024301,-0.016746810678363686,1.3863553415384036,1.3734063486875883,0.8725717320097988,3.3913169407888346,3.42502226669319,2.069836948582727,1.60742472414366,0.6284777104787076,2.0198318137790174,2.076514751113756,1.6141248979142238,0.919599626881378
78,0.2565851760194804,-0.0367729706288911,-0.009319031693292712,1.0166414715720447,0.9750239914261205,0.7216714931761661,2.949265014847592,2.9953014990810636,0.9667897948995458,0.5471544943062681,0.6233814453054027,1.5486564401742415,0.8875870376344779,0.42515217185092824,0.7945837880432673
79,0.6553426112143959,-0.04177756456942716,-0.05673394684611559,1.3389801765679303,1.3374088542132476,0.8817401874626298,3.194990544503347,3.4588835223922487,2.9274067725251873,3.2983533473386895,0.6425374456860184,1.990373022798987,1.975871536795798,2.270836394679465,0.9456406216197794
80,0.015821539199983213,-0.0012731813357236036,-0.0016801726482732627,0.9696697673648782,0.9465866341368269,0.6940234640152533,2.9112941427304166,3.808271264621619,1.5238037684417556,1.7884093823427731,0.6468212168108125,1.6917331551609305,1.2694903437071852,1.1398100515047813,0.9349040334584141
81,0.21440546497656948,-0.015531163527373142,0.014451320103275673,1.1282044884299134,1.0961524144829418,0.7509315378301139,3.928789559228359,3.6523356634508124,1.3315425410872341,0.965819387865445,0.6619902821573977,1.6455833590704536,1.148206300979467,0.8136122188695214,0.9179876662798467
82,0.406608082328102,-0.0003151594053642376,-0.09592343242080692,0.6898563190139103,0.5643262377698942,0.5770328511856945,2.8019885049992532,2.9729171702723374,1.1460774334306403,1.4397872476255815,0.6447042257417027,1.4083127747918949,0.9898047449237146,0.953972287839518,0.9585079949756936
83,0.15638710979165846,-0.009165517733819954,-0.01689900056478979,1.1653609082970577,1.1217198399996975,0.7725478408582994,2.9629735836196778,2.8944914839651155,1.482083404602937,1.2552882458715096,0.6284777104787076,1.8611095473628483,1.4381331117763136,1.3126165149997262,0.962461204264487
84,0.11738188008495923,-0.007912447442610313,-0.009058345807548619,1.2203549365535427,1.1806332819703274,0.8455111742402326,2.7043746589406243,1.7876853880021213,0.8426859181950748,0.8067810642373702,0.62595550513784,1.494622238005519,0.6918602427987983,0.5004587570876575,0.8800449222477938
85,0.37126410020073797,-0.012038711991198006,-0.00939568951643914,1.0533113373607241,1.0370967175698371,0.7319994796705127,2.3388449922110017,1.5773436180964122,0.8375066300365607,0.7303824291292501,0.6284777104787076,1.4224974097838512,0.7885218785745574,0.7348651794680149,0.9184510148864578
86,0.27267373223598684,-0.014255346521829942,-0.009303893006313041,1.1157903235921793,1.1189765194486934,0.7836147104602339,2.7325538602861914,2.2974330698125187,1.381566955875657,1.359121360333374,0.6447042257417027,1.5559498061869854,1.1524337838164624,0.8044905088833303,0.9166426823382937
87,0.12540898218706664,-0.014942114686218859,-0.0023752339633989817,1.0149953335109032,1.0127469344625741,0.6944965831362748,2.930779259310489,2.916865860795577,1.1927686442447751,0.849317393079162,0.6180765742263259,1.868856519613022,1.0121591433591177,0.4886830516306446,0.903811134664796
88,0.19594769801860104,0.0019231347593323192,-0.011655590423797064,1.0220760181382995,1.0049028587721085,0.6494262411518387,3.1875620654801042,5.560392755121988,1.4983286634562578,1.2248920876018377,0.6668815377411301,1.8608237718375769,1.2185316857260928,0.793446834711195,0.9505621738981157
89,0.11224663631001251,-0.012281344555537723,1.54412422556649e-07,1.0401194639358027,1.0197628504223126,0.7279262041227157,3.1996630504048937,3.1825715224707434,1.1958003030253395,1.4778491889699914,0.5978297680564633,1.842211012724153,1.110036148890099,1.4414023128876223,0.8373552811189813
90,1.45841882407981,-0.3159884218748738,-0.14098280967013332,1.5572575278120777,1.5191269861101317,0.9119277341104007,2.5545140623434768,2.4743953716644533,2.1429853636062512,,0.62595550513784,2.374439196762029,2.052120011828643,inf,0.9614648140112866
91,0.963853609526576,-0.14216718193282146,-0.08045146417933875,1.0619167314865015,0.9820987607423122,0.7767448978103213,2.9804849277641603,3.834199625078875,2.096597395477226,1.877895354590937,0.6333676938231112,1.968655769376945,1.7322962659712604,1.5411950597327766,0.9630879201686416
92,0.6226268764910132,-0.058317963999119246,-0.03300064455289603,1.2324820404589216,1.1870487206977383,0.8074202279952531,3.3588866892105846,9.041847472106618,2.4941192395921554,,0.6619902821573977,2.2603773923414883,1.854169877198132,inf,0.7768272902488068
93,0.3965447786176156,-0.04025793664819137,-0.019134889975327807,1.0926723827169247,1.0881623250713648,0.7289604534964956,3.5716048808285574,4.816204532032909,2.064288434559014,3.0754646055557346,0.6528756675646988,1.977767813880005,1.724534660566072,1.1149614266696393,0.9438202918311175
94,0.061546686762373855,-0.004286940977305358,-0.0009743228039376679,0.8221580941465797,0.7537191731128322,0.6507294047771766,2.630637491671649,2.1558731554959554,1.3311805826995002,1.4035929978767148,0.6357360191111145,1.5157957897304726,1.1519125320883596,0.9425653539460974,0.9518520515002041
95,0.08410970439829397,-0.01250345907352574,-0.013071040837702056,1.1696617218472456,1.1516692708290135,0.7514808023090409,2.1577869275664416,1.3997363240234852,0.8999955068540019,1.1628271683549543,0.6008849035917525,1.2113704700767471,0.6900550667057439,0.5534046454230401,0.9542944142376616
96,0.33807904090115976,-0.024366036706458157,-0.03966179341076245,1.159480616770322,1.1037814868840963,0.8110229273950149,2.7088727708770945,2.3128357837017335,1.3093208359162216,2.7347891305583576,0.6038851895711802,1.6529835200308252,0.9489064852429944,1.6549734864460561,0.808914885479724
97,0.6046173595745402,-0.05688458363676429,-0.02284395953525343,1.0508714477234868,1.030728162326674,0.7050509122081255,3.2391702722440727,2.55480124256944,1.841777010373571,,0.6713451011121618,2.020083080583807,1.534654056446851,4.326467287665583,0.9320333936782529
98,0.30282743324893113,-0.023868754299907917,-0.013306285518750315,1.2313130435720334,1.1853465868283093,0.8035530482870444,3.531650147910653,2.043416515635631,1.9148491541080677,1.6074325829677443,0.62595550513784,2.0429596183247902,1.7936467478186018,1.4550664576859762,0.9218571783567895
99,0.4606508651760774,-0.03355867703730196,-0.025476831923313376,1.0827791778400184,1.060113036296411,0.7543208607787006,2.9686555173161047,2.7318231521937517,1.245498573412546,1.9535909529488464,0.663668482632973,1.5243311258035421,0.9445709498427426,0.9679224836590219,0.9381779418213848
100,0.47750436436630994,-0.03244643057609768,-0.024341704878482855,1.1480589587780656,1.1184541593678514,0.7774512410294903,3.2962759610381953,3.4144197873934563,1.636463711263635,2.682632903378708,0.6584896970785714,2.057810521553541,1.225307572043013,1.2146935740710376,0.9560258256288025
101,0.3267753948423325,-0.05001771639475659,-0.009868382823333837,1.1144581376715468,1.071132066471188,0.7595617387124366,3.5495942541082925,3.7203630993527503,1.2416076740782742,1.123437519005683,0.6125606311107803,1.819062151756064,1.166939837155351,0.8221616269851721,0.9427764795706909
102,0.2576210973594902,-0.03812266754837493,-0.00040823040697093686,1.1141315373667233,1.0678635954605142,0.7443546442003003,2.6936253157687227,1.623491311598234,1.5307287041438091,1.664826642720477,0.6699045166045591,1.8671297762528316,1.21585632792272,1.0356511506155937,0.9489293826738419
103,0.5594116455369921,-0.0625594256346711,-0.07067389846995617,0.8480206771327845,0.8500829786862183,0.6726208478068961,3.2225528824909997,3.398679751040761,0.9469012932305539,0.6622666326162698,0.6068309995095971,1.460682714457085,0.8423469217761108,0.5249308615415719,0.865933899130511
104,0.4286561609434939,-0.06689551997060666,0.00570029422660177,1.071587873054821,1.0430697513945588,0.7526043685143451,3.460560742328204,3.9251915007983453,1.2517064514141203,1.1370163183880542,0.6357360191111145,1.6855992733996645,0.9869229216434001,0.5961860035730119,0.8973151954604006
105,0.6308226958420562,-0.06273423517905898,-0.019057035354707767,0.9622027349349133,0.9377696947465671,0.6328742961350142,3.3362549980661873,2.3543269947607652,2.085291357636872,0.9374808120854234,0.6309483474627791,1.9845354839258684,1.933058566551733,1.101409493289171,0.9456078129525679
106,0.65585436396532,0.12280511782044606,0.04898182701905357,0.6272090708368429,0.6136435650030553,0.5234876757926747,1.8752023738720733,1.8449510074129214,0.9500607382477636,1.3296132291081262,0.6547956803312163,1.092928472199812,0.7840258430914748,0.9455718957098106,0.8234714908741985
107,1.5233884613108375,-0.31774338678777403,-0.07598809643327445,0.950368396166643,0.9319034640886338,0.7005573654160204,1.7045443802277138,2.1072722863069133,2.1899397945134136,2.313021201466469,0.6309483474627791,1.8036296417985422,1.6791393935574246,2.0032174943126195,0.9346289210712075
108,0.3524638384342515,-0.06482472824141289,-0.020172163058558956,1.1479110757867745,1.1250487640898486,0.7775289044765128,2.8628326119494063,2.3911294677359995,1.0375033634221331,0.7703347478288279,0.675384900321601,1.3773125959847767,0.8987387618974135,0.5303469662377955,0.9532756889148563
109,0.20719650751645713,-0.016606925001918276,-0.019203748636116246,1.1429787070138575,1.1422362842305371,0.8017434370361927,3.137356186562266,1.875795201089708,1.109949809110571,0.8747389440086062,0.6668815377411301,1.6584531019198299,0.8658876171135774,0.6884425918356359,0.9285564813580672
110,0.47441353456249513,-0.0552904295180323,-0.04652118799525773,1.0356201716073052,1.0251961100252125,0.7516600869116236,2.9194010684242553,1.950312986178298,1.1497397799798272,0.8473975428217728,0.6447042257417027,1.5034775767043065,1.024058255139653,0.6974698533997782,0.9345893022599987
111,0.7828439645493696,-0.054684070715104435,-0.11753032179547933,1.0717714977875095,1.0641666264664371,0.7798751444676727,3.142076908180168,3.2858745632259687,1.1713601745957247,0.6554442349561487,0.6357360191111145,1.689985377105649,1.1590525172975386,0.6645819166732553,0.9387266019413475
112,1.8141731908531544,-0.20720776639617738,-0.15239002569696858,1.0716586691605436,1.0616788436458555,0.7756677409699322,3.095519891562068,4.90699527680062,2.376114053587663,1.3953034810545064,0.62595550513784,1.9189869637124382,1.8111775550851565,0.8772303622126078,0.8809289408942095
113,0.27456351686118596,-0.021298008843118135,-0.004553019968957664,1.2069590797535186,1.1577299412639575,0.7655683927010596,3.5656123481347177,5.465420272157985,2.185809266482848,,0.6619902821573977,2.0503575015266673,2.009263624637048,5.402033674093373,0.9512234305289826
114,0.0,0.0,0.0,0.9690258434439877,0.9359261956512173,0.6757252652560289,3.0700424117780263,4.0020481524705644,2.5356349697927616,,0.6509067234006624,2.0661963149298153,2.5423127723237906,inf,0.940515229302325
115,0.0,0.0,0.0,1.0634452801322802,1.0233476757130904,0.7168232177397494,3.1157631015710634,2.9389458927987864,2.5287127526889632,0.4350127247299415,0.6357360191111145,2.0402208285265546,2.0574626349610607,0.919640818759437,0.945085916572652
116,0.0,0.0,0.0,1.7861440395302548,1.7524027283626329,0.9154346677008265,4.223735929189825,71.091582583004,,,0.62595550513784,2.9311937524164198,inf,,0.8381413965332584
117,0.0,0.0,0.0,1.7809948483382783,1.761454767705888,0.8803039903855722,4.129755167487817,53.846319808993016,,,0.6425374456860184,2.6127400212978853,inf,,0.8228687510976821
118,1.287640493145339,-0.17579903939349084,-0.019209245527573214,0.7642393962645296,0.7484637537849665,0.5014747683463084,2.554739098475246,3.3103913419358117,1.687003120846119,1.2467780170702292,0.62595550513784,2.0651442369790116,1.4469847053904255,1.485261124976798,0.8531511852479992
119,1.592186283224534,-0.31622187104146837,-0.037621900447652144,1.6016217530063797,1.5722741361245993,0.8642747962365069,2.986189419756558,1.6411932860889928,3.6577222172030255,1.169621099224862,0.6380535849069913,2.3771889145564957,2.5704715803783715,0.7661723155748352,0.9343302897526717
120,1.2918537249088364,-0.22292808462441902,-0.031136481274318818,1.1607854792563197,1.1414332521254338,0.7092265608658596,3.924367601766337,12.41596807768042,6.185301177830801,,0.6068309995095971,2.4429972467107905,4.152383347229194,inf,0.9477475484986123
121,0.8577216195829899,-0.12512629419413973,-0.0035319487433087414,1.6292854794377676,1.6002597906128009,0.8396923026430473,3.6057794626142172,2.6665278182324452,,,0.5783247308855777,2.337751812473196,4.425422237697833,inf,0.9374029853530279
122,0.22682620615769888,-0.025706970031205874,0.0,1.3421848334171445,1.2109168654849645,0.700716003641356,3.6415967346512272,22.40377436468407,,,0.6233814453054027,2.296382148869438,inf,,0.8763223834324483
123,0.02534017153485025,-0.001435943053641514,0.0,1.7856867849133329,1.7557493727955795,0.9079100748426238,5.35260079165494,146.31749743144442,,,0.6584896970785714,2.8913722582297483,inf,,0.9210476119524388
124,0.0,0.0,0.0,1.784938576229188,1.7400070917294141,0.9059658794777661,4.447522187731709,110.53391777308308,,,0.6038851895711802,2.371577964480997,inf,,0.874664602672999
125,0.0009183048780690667,-6.734235772506488e-05,0.0,1.7815125576341284,1.780132765446845,0.8794727674871233,4.670611324986065,735.2084627313566,,,0.6207552362147116,2.6136495256807257,inf,,0.9043876009818772
126,0.02178686692319424,-0.0020334409128314624,0.0,1.786352996002181,1.7538632872091697,0.918185049831629,5.741336746581843,196.1337582410939,,,0.6468212168108125,2.3880219526112176,inf,,0.9054380870311216
127,0.024505126986184195,-0.0014703076191710518,0.0,1.7726367244307992,1.7576761523220106,0.9329764087748759,5.0594793122218995,inf,,,0.6207552362147116,2.8334244774544146,inf,,0.849563840473437
128,0.2825911132747913,-0.02543320019473122,0.0,1.7739022446961665,1.7779848995659702,0.9170319680260537,5.023878934120695,inf,,,0.6566669596287297,2.5027991026295884,inf,,0.8611065493440406
129,0.3129898351028801,-0.02295258790754454,0.0,1.7765491438077492,1.7572993995685402,0.8734342824490362,4.768929425520065,inf,,,0.6180765742263259,2.700082031453033,inf,,0.8545522303452853
130,0.7223714236849448,-0.057789713894795584,0.0,1.7770134131538833,1.7519013964728387,0.881326080034568,5.778234254582292,146.97523795946418,,,0.6180765742263259,2.79597108247468,inf,,0.9106595951776199
131,0.447715106288689,-0.03581720850309512,0.0,1.2797576874312009,1.2377300956907489,0.7093356808046616,3.902957175260514,2.8255916886535175,,,0.5883313578629602,2.7048885377646315,inf,,0.9160649685627388
132,0.6587541988015734,-0.05709203056280303,0.0,1.7781032023815149,1.772900233693371,0.8679345415893454,5.300808176555303,402.3821955770757,,,0.5915533975974677,2.6948049743521896,inf,,0.8741561092888134
133,0.5837095200978863,-0.052533856808809766,0.0,1.7744153648739733,1.7314837022933638,0.8883655700402757,4.779581859089291,406.64470249657984,,,0.62595550513784,2.574102228592471,inf,,0.8718795452916368
134,0.8200020396997374,-0.07926686383764128,0.0,1.7833044864042993,1.7773775302034325,0.9097666725680494,4.557663243540854,inf,,,0.5783247308855777,2.6581495426487507,inf,,0.8661164907319154
135,1.4005378628773022,-0.11204302903018418,0.0,1.7874866587999847,1.7854580699072462,0.8984313368585869,4.100533869289605,96.53884883224968,,,0.5677978065141052,2.9805153077491306,inf,,0.8942728334571504
136,0.6729827937937161,-0.06356759009937123,3.569497503995824e-05,1.3940065130732089,1.2826587571906896,0.7490259827816241,3.93203849969756,4.417048282824198,2.189902444885991,0.5715667307909593,0.5677978065141052,2.6742931043040765,2.187922184673906,0.5664638954332979,0.8921393168557721
137,1.7072868566056978,-0.2146866530411718,-0.0015696821288832766,1.4272414835322746,1.4429195198455,0.7778184835550221,4.635064553437138,12.572842719329406,3.474562286804663,,0.5490601803369085,2.7558408649385586,3.420615467519257,inf,0.8566107667525583
138,0.4939729073058346,-0.04201964159293239,-0.0007913437069066098,1.785862675311169,1.764808663739095,0.8999471567149593,4.249070482944824,70.60605971679831,3.9358431193100443,,0.552929491858785,2.6447624618662915,3.2989706824205007,inf,0.8816854446979243
139,0.7732462866897946,-0.1030995048919726,0.0,1.7852199340994095,1.78364491003531,0.8902760299735699,3.9728789679822607,86.41241404653121,,,0.5978297680564633,2.395553572275991,inf,,0.8762189162937118
140,1.1627950448000908,-0.1744192567200136,0.0,1.7836117333162615,1.758855928273442,0.9401099999674478,5.180869657574991,238.14876481456258,,,0.6309483474627791,2.3786265570707905,inf,,0.8977019737124678
141,0.5881563848152318,-0.06273668104695806,0.0,1.7769291701685208,1.7619189804975195,0.9254069440631416,4.40776056692385,61.76404505631979,,,0.5947193981915972,2.584800652608644,inf,,0.9120583045822309
142,0.8491000482053147,-0.11038300626669091,0.0,1.3822068984811129,1.3657183548901364,0.7514801541959854,6.202211693689035,102.39860841606742,,,0.6284777104787076,2.442613737597749,inf,,0.9119623635185358
143,0.9795470177561467,-0.11584836212237482,-0.001697280008362796,0.7472638305135384,0.7384342519960334,0.5524514049931024,4.267780816996521,11.35838651167079,8.120874416123929,,0.6097226960127671,2.586865550097498,3.6277425483246932,inf,0.9232063695781193
144,1.5985596084261948,-0.2636222671662138,-0.008132866266239302,1.7781688995210163,1.7467403024237316,0.9170064650114018,3.9103034643542935,6.646072717126954,4.2545025990456455,,0.6668815377411301,2.6030897654657235,3.6226916335545933,inf,0.9020899559701583
145,1.8805090922179295,-0.18117000978053777,-0.01314926308198161,1.7512053280050806,1.7425296420751433,0.904577419251586,4.330326590519411,143.93481414457023,3.2197434483740497,,0.6468212168108125,3.0512449834842497,2.714412894890039,inf,0.8394483018669788
146,1.7695436609825805,-0.2383580443960815,-0.03297198362124747,1.4113202183366191,1.411055638900151,0.735974720547421,3.8385071760761993,8.756920991277376,2.266823945206457,,0.6619902821573977,2.714068273427773,2.0747576923674096,inf,0.9293718913352499
147,1.1216060473947367,-0.1720148017846544,-0.022396913097099944,1.1918901104014823,1.1526408269486805,0.7883148491563705,3.943854480281344,16.55110739694622,2.1745645558026934,,0.6180765742263259,2.435101128252494,2.1513563488034433,inf,0.8694052869490133
148,0.921608016552158,-0.08651710026640935,-0.03943599532905224,1.7731048298179175,1.7659955738122972,0.9419352552516101,4.057358152049962,107.28702500605178,4.588321790252685,,0.6207552362147116,2.381748557685374,3.2206814227105394,inf,0.8811399685111333
149,1.1300020672511217,-0.08950655752614836,-0.03479366987147502,1.7813564622722016,1.773623510105797,0.9440660722289453,4.524579880807632,8.385162023370642,1.908434792593514,,0.6333676938231112,2.733197083524166,1.6850325998136761,inf,0.8797483173374485
150,1.0791903054746852,-0.0749770272227826,-0.05092850841593067,1.774458225417434,1.7405070339646234,0.8982475001660623,4.168298283484947,578.367793222746,2.373374336699757,,0.62595550513784,2.5945727173424364,2.2063420457717506,inf,0.8342839258927764
151,0.688223120915467,-0.051091567370545724,-0.022318898860437423,1.7859595649500486,1.7578683555334313,0.9491351664949347,5.267822686255218,413.71920494008674,3.8678321218190086,,0.585052858160615,2.650253102375993,3.1775820209501866,inf,0.8754657683277459
152,1.8209739319455736,-0.27385490738131896,-0.07213013968834002,0.9947106886432707,0.958157923020405,0.7176141414726608,4.1129590337556445,19.807107256063645,2.38363474338729,,0.5783247308855777,2.4690333006317102,2.0622670367899256,inf,0.7004312579063863
153,1.6247113763718621,-0.2774682091920786,-0.014979838554856649,1.2511479415479094,1.2003730798169165,0.768757442654796,5.049640323702504,50.71300014101659,4.539935933997039,,0.6309483474627791,2.478924578110453,3.512539968997529,inf,0.9204540801924802
154,1.2997953613712205,-0.22791890827322142,-0.059935531087544534,1.369494573754671,1.3488600829303334,0.8310606467539756,3.7599269436758895,1.5616251168685795,3.4667408519515392,,0.5915533975974677,2.1911431070203515,2.978097217252543,5.139712336371398,0.7320415519424945
155,1.1762336837919627,-0.1919883944810558,-0.024015070015062343,1.2553902509339485,1.2190315219558212,0.7638058138589753,3.6734147650023306,4.342752153326982,2.4762200714057223,1.1960060059401791,0.581717464821069,2.2539007545297762,2.3805838191270903,1.0963265733872538,0.9451875970815405
156,0.3456873078725012,-0.036181517261012215,-0.008757832762412938,1.5181288084058966,1.5221463681423066,0.8868918260185674,2.8614313034349514,2.8778914923077554,3.1433864252094583,,0.4302020962658841,2.2811498122739806,3.003922327524035,inf,0.8714919329256071
157,1.6838103050538336,-0.17339593633549125,-0.07355162871546014,1.3399840186597647,1.3415516778428396,0.7660047089351828,2.8651180762814,3.1506743429524917,2.52280218594068,0.696565136954966,0.5713653840954815,2.487844293775343,2.43355986659297,0.7924286501413894,0.8589278975047345
158,0.3918376373893912,-0.0339479943992265,-0.013072522087500439,1.3600749488431587,1.3334711848156202,0.8760354627221458,2.817900035179421,2.665667046518783,,,0.5451288209179292,2.2665746554710124,7.349230824613334,inf,0.8679277303866174
159,0.7717448794008902,-0.09103573860248818,-0.0003831796956166628,1.7259056084529205,1.6825422768883227,0.9354327304408484,3.097113609693938,2.4463380458284973,2.335878317360247,3.42594204059925,0.5113665138247345,2.4543127847033666,2.3016802910193084,1.3092376216249162,0.8542595864152207
160,1.0616169042298826,-0.12480506362843473,-0.04971599884526809,1.7414454632404341,1.7274843286883679,0.945837982687869,3.6779737486686606,10.803163121638132,2.412883679306281,,0.5329562494928909,2.4527621964614332,2.1613366202709594,1.5359707605522277,0.8404804156621466
161,1.3589215901181584,-0.1917811468494279,-0.05547911618699064,1.7350054491369378,1.6973157432949764,0.9169224090287831,3.7341627774768003,4.450243613115365,4.500257137736322,3.509808054402586,0.524519217297268,2.285509492203791,3.9459057245347817,3.7898553714539385,0.830123766617332
162,1.5465261215931025,-0.22583330489864467,-0.07007478722444906,1.7333124496793881,1.726143136998252,0.9360650619658254,3.894230471567394,3.491187828734364,2.569953508698699,2.103119403268444,0.5158180382284114,2.377308639189982,2.2367901775424106,1.7182923173461826,0.8271393568937193
163,1.7657499356416677,-0.32173519127359507,-0.05672009203672168,1.6383680926062785,1.5988162582199528,0.9236392043759687,3.483949683536485,2.43242185235523,2.3030560698766838,0.5758024629849499,0.5604843169999094,2.28879177086171,2.2251168238480568,0.5568306234561944,0.8440298903334162
164,1.3997329319143803,-0.18342057933423067,-0.05331835680617838,1.4359678989301992,1.4424988037096305,0.9157991228978984,4.174049464824103,5.252206892435963,2.1107018323849434,4.938111823600019,0.552929491858785,2.148148739689627,1.9535561769387664,3.7794995080678477,0.8194150532967786
165,0.14851195893232527,-0.014356156030124776,0.0,1.7532610080667985,1.7400192032425421,0.9430794977164659,4.485295947895242,5.272876051062155,,,0.541134803179459,2.419868253608778,inf,,0.8705519057322126
166,0.5479555159431061,-0.0621016251402187,0.0,1.7817884492285976,1.7649201372187064,0.9442455669290231,4.787333697879679,283.2898129409984,,,0.5783247308855777,2.3781471132164667,inf,,0.8832885099574116
167,0.755240556515411,-0.05790177599951484,0.0,1.7729333671246728,1.7675287942739972,0.9323519214810156,4.04861338129037,331.22323811700994,,,0.6153451465759925,2.872138989635105,inf,,0.9261341226057217
168,0.6587796458106854,-0.06587796458106854,0.0,1.7816047387662337,1.8040552862012378,0.9293674709451681,5.180344631574197,134.87170238836356,,,0.6309483474627791,2.5233703162401286,inf,,0.9188267885393897
169,1.099965033946526,-0.12099615373411785,0.0,1.77871938719853,1.748339147437322,0.9479001747310486,4.7098132642496084,63.27597196562574,,,0.62595550513784,2.5299040157187362,inf,,0.9270937467993174
170,0.9141045232394776,-0.1448072650424371,-0.004202441232134692,1.2441489913277965,1.2169057397621672,0.7289252378083735,3.7498643695198255,20.400978235924057,2.2447597792960754,1.6384558212656157,0.5158180382284114,2.168637120484307,2.134783735840568,1.4946722978025675,0.7897056925935482
171,0.16135603191997153,-0.01990057727012982,0.0,1.0260340399967829,1.0175524681331476,0.657565756990112,4.186611550481415,64.77658196446903,,,0.5329562494928909,2.168734306936592,inf,,0.8090687691077549
172,0.0556347780283064,-0.005378028542736286,0.0,1.6547384867976616,1.6235318235354654,0.9352526383860271,3.5370148689636896,3.5031434386657287,3.327793605948354,,0.5883313578629602,2.3726499674423325,3.334471408479383,inf,0.8613074625437092
173,0.10789395982273893,-0.01504875368604631,-1.1052638242096796e-05,0.9598975565653682,0.9353317774835712,0.5426233494693117,2.999809551374646,3.1753484550718105,2.298831879971844,2.7097534381280255,0.6097226960127671,2.0161538024439176,2.08487974792898,0.9230247640554992,0.8428491501839209
174,0.14377721427335402,-0.013110886634892658,-0.0036631216969986455,1.4142881296360148,1.3861539978488082,0.8086609382840719,3.1370779640218087,5.498047082637294,3.6510205340993322,,0.6180765742263259,2.228405694819794,3.1901978376027444,inf,0.8201399434205676
175,0.012338683204760677,-0.0011104814884284608,0.0,1.6807038878454332,1.6453765882581477,0.9293229172086451,3.6939414364964125,7.5706657059458,,,0.6097226960127671,2.418494884268749,inf,,0.7913713399386311
176,0.04835773726662048,-0.00499696618421745,0.0,1.6686292134265273,1.6468098344029405,0.9294159690651758,2.849040399287491,3.4073233301744783,3.4052753517243404,,0.6357360191111145,2.295168221666346,2.7188059736954244,0.6964972674452273,0.8431287917155952
177,0.7073152852988939,-0.1355442885933551,-0.04639221086332416,0.6927218518754401,0.6379628902738634,0.593058476333386,3.231699703806091,5.339514183719151,1.6693257957324115,2.7101741782015023,0.6008849035917525,1.8613954045791161,1.4166997799490557,2.0047863738900253,0.9207358230885458
178,0.9912187802727834,-0.11504035434066771,-0.06298656213622106,1.495670739761421,1.4985435962977065,0.9079772260206131,3.445159218813485,22.337357356412955,2.981677430970079,,0.6097226960127671,2.239193062158721,2.1827300695144727,3.3747239049949838,0.8031773875710909
179,0.5849707726429237,-0.03616154513389355,-0.027640268734765383,1.6876366099899258,1.636938228932242,0.9381152754182539,3.2399547424989654,7.4977339972853585,2.0000296766705703,,0.34100769111774265,2.380666761798877,1.5470340563484988,0.7927555232985118,0.8602404583227523
180,0.7565444085575881,-0.0455992696858408,-0.019596802242637212,1.0190390786056074,0.9569221600347093,0.7073193704285746,2.902085548954432,3.539225960218684,1.8548049827134145,3.0632888703899197,0.5604843169999094,1.9117449284396386,1.7096835830896917,1.449310706636631,0.9137888334221959
181,0.196333149313352,-0.020165201793155785,-0.0036553821685138387,1.593365791672516,1.5345153737055852,0.9076436329329796,2.201916825976516,2.5188111902845125,2.4260628255413,,0.5883313578629602,2.1668893775401465,1.7231547211692244,1.184241222463341,0.8167121231846057
182,0.010849881249505894,-7.296256183614205e-06,-0.0011500244104303478,1.6872236194888761,1.6443020655758305,0.9621746754759487,2.5275162458265856,2.0106777626912145,2.4854033874221853,,0.6097226960127671,2.2472555109417844,2.4632751907041333,inf,0.7954657960078838
183,0.038703361050468225,-0.003225280087539019,0.0,1.541227292555269,1.5176395401136713,0.9020164976955312,2.1821204769373885,1.662898598226584,2.4912430140459043,,0.62595550513784,2.516053378784837,2.4979208165769333,inf,0.81456101183534
184,0.16636108889333587,-0.007046710129017633,-0.009589398760315953,1.5760504133811943,1.5345686498411661,0.882787331945223,2.3400469530122763,1.9213623935937436,1.7255990903801313,0.9129406449888731,0.6509067234006624,2.3654065705764546,1.720969821996469,0.9309478896741286,0.8207975692477111
185,0.38568694323591785,-0.04021632815214667,-0.007661013349592006,0.8310213130829897,0.7866797827220555,0.6195786832749874,2.599921317139267,3.0688313034124386,1.467317233091186,1.6732926079872532,0.585052858160615,1.8905490283919046,1.1960809520370876,0.9494456736691326,0.8352177308411336
186,0.08968094620556183,-0.010462777057315548,0.0,1.6570792948688176,1.6585964166272145,0.9193505636996848,2.668543040963816,2.9837285455391527,1.5913692453674857,1.2364288088436701,0.5883313578629602,2.176148251734303,1.4515315825075767,0.9841793398970082,0.8606440779843502
187,1.1890870453270357,-0.10005157320076738,-0.043339226283059244,0.7876086757357327,0.7562515228964735,0.5804984758641848,3.3921435987550193,3.711151592571582,1.8311306185548495,0.9136093176985088,0.6153451465759925,2.2592063696921008,1.7959174793767188,0.9605239868509807,0.8961864230636183
188,0.0,0.0,0.0,1.583485016133895,1.4836750549283202,0.9641740734093993,2.4825984262041625,2.507987448095689,1.8212103907855313,,0.648888643467878,2.2697952701710546,1.8278881933165605,inf,0.8772977160895309
189,0.29859427722192977,-0.03717870149339583,-0.0006432402880486018,1.116039017383749,1.0797729443291568,0.7436049077461089,3.1940203638988254,2.899165513790798,2.4431541169985964,,0.5915533975974677,2.1586771677239804,1.9757951855888995,inf,0.9019572031443488
190,0.3016555670221052,-0.018712914934856557,-0.008436086097132912,1.7340322298145798,1.7273053682764448,0.935961066462565,3.3359089978919103,2.1625907722162596,,,0.6153451465759925,2.5354984359040604,5.694012683060396,inf,0.8793972027363319
191,0.23674508892622861,-0.013677566589154866,0.0030223287179847753,1.6917464599893757,1.6514115560521574,0.9547786735433398,3.6557132117415136,5.085893373376425,2.7841598635242435,,0.6403206450210053,2.550619193153382,1.5859372178780284,1.3766057040161412,0.903485323576976
192,0.14407647694967007,-0.017767028682391883,-0.0002637175901088213,0.8881727150150265,0.8475284767462211,0.6652752413155532,2.92781816741949,2.5936440198052733,1.600374541454001,1.0967637758418096,0.6333676938231112,1.9047042282441893,1.4819330020866364,1.1426012506902516,0.8551353003606521
193,0.872423144137851,-0.06283197910553741,-0.036699340652175644,1.3643417088806615,1.3339584806651654,0.8378195091719671,3.6790812802835715,6.2537202160568,2.37684645718359,,0.6180765742263259,2.2305745570177735,1.9150632995918777,6.568779912142806,0.8823275427729633
194,0.5473462955257996,-0.06059263077094905,-0.03679847041192069,1.1427987149472716,1.0862519739191445,0.780968824779832,3.584607124085741,7.993593232330068,1.378236296119903,1.2761665730250351,0.6357360191111145,1.64471972657874,1.1800515742334758,0.8847644782273811,0.8636962810310312
195,0.5844159274568856,-0.0893798045921575,-0.012048885576163558,1.0011608908587273,0.9480063092229146,0.7241696430959477,3.443255600099641,12.195517108088426,2.469215355329379,,0.6068309995095971,2.0879218424457693,2.3765206840472044,4.109909078763212,0.9011605160955312
196,0.19568924129918736,-0.02015132686673971,-0.005640122351799774,0.8811308921925264,0.8284556806166421,0.681777605633566,3.0780183362845523,2.9635856521185615,1.450527310534664,2.065537262724129,0.6207552362147116,1.6535639704766556,1.1024517349204304,1.4616270731695082,0.9315438488854734
197,0.6615259328080076,-0.07979888326433146,-0.0729376555612241,1.1819818973639484,1.1608495482422319,0.8053710601027043,3.775786958629095,4.849890274978907,1.872995613578658,1.4342203131812392,0.6068309995095971,1.5962475117484045,1.575426711635502,1.16857087727502,0.667088150561424
198,0.5110170971852007,-0.07969432988658026,-0.035162927649282735,1.077434350534937,1.0718795191007031,0.758737427404831,3.1111249818922873,3.1169321255593676,1.27119726842471,1.2822236216825793,0.6602640781246099,1.4762190686478776,1.0403846678833772,0.8530949780715295,0.8465606020645408
199,1.5101107075098956,-0.21494242259396157,-0.1927581490310774,0.9497922490723584,0.9484087677060941,0.725216745069299,2.8000949705190386,2.475647865528694,1.3939298043462942,2.1080379211743154,0.6207552362147116,1.5154922995915725,1.0629926971559938,0.8607604525521189,0.7825102241826493
200,0.005209187336970131,-0.0006077385226465153,0.0,1.1484908247315793,1.126816678974326,0.6924716805924596,3.310817105980364,13.918257586723756,2.854088700911296,,0.6233814453054027,2.153207691919445,2.860766503442325,inf,0.9419510024077369
201,0.3360289965657347,-0.017898160948683375,-0.019065028673547448,1.0839243890497705,1.0699158403200717,0.6820112638494988,3.021262053835923,3.929742786470554,2.6721229530370763,,0.6380535849069913,2.3335025956288473,2.6788007555681057,inf,0.9268120173431547
202,0.0,0.0,0.0,1.3591612628432137,1.3718293740532743,0.8287356250163541,3.0815301997354707,2.853439437988249,3.60757901137871,,0.6068309995095971,2.0928645620119766,3.6142568139097393,inf,0.8942415102060699
203,0.4363291577539596,-0.05256379501998966,-0.00850701408919907,1.223237323807187,1.1820410481678272,0.8076878749840494,2.802051232138235,2.719749650598049,2.1202044068478187,1.0479699930410469,0.6233814453054027,1.9437458262259366,1.6868647197640239,0.9745596399981308,0.9017946256655822
204,0.47387315287519693,-0.052284925812777855,-0.021955201471002994,1.1987343882313226,1.1660699074032566,0.7764334818785175,2.5612154045000155,2.487319985330193,2.0580340460038213,1.6569462427823094,0.5677978065141052,1.9821131977192739,2.03403651691777,1.694321748169954,0.9171779726883833
205,0.7175208099530725,-0.03438442688431387,-0.04833740072292232,0.8990664623310399,0.8598321690314381,0.6675124963960404,2.587384128226534,2.032501984343087,1.2070145938164059,1.4963861426470844,0.6403206450210053,1.4858937263426453,1.0074484022664565,0.8558955141223424,0.9390165211005125
206,0.09715333910535792,0.01315125110456674,0.017905366938962997,0.8757169030922239,0.7877587184969717,0.6597499030686832,2.300511996378093,1.8390178585477708,0.5499902619741385,0.4831093147267097,0.6668815377411301,1.0908756272963878,0.46207693726202315,0.3576655185529607,0.8076232497191116
207,0.5450892610547694,-0.0687018045583404,-0.019021053564243096,1.332543305275526,1.320282098151876,0.8642438084431618,2.782393756129753,2.2718763704149074,1.6947985548766002,1.5629835499041114,0.6547956803312163,1.7647930209982408,1.5535962494766,1.031277741425705,0.9459527287891125
208,0.12399075274696474,-0.012689541599312851,-0.003047092373380855,1.163023024970933,1.1125344697422672,0.732939342441903,2.400938289327805,3.062230880010068,1.9185169501414459,,0.6380535849069913,1.9062728560168158,1.5441147698361113,2.116535666086077,0.9446759198047306
209,0.10975788936982242,-0.019756420086568034,0.0,1.0760479794523012,1.0646807554661406,0.7369160252364682,2.1590808808178026,2.5451302035556242,2.1667263983139535,1.7856184232327508,0.663668482632973,1.7447486649587003,1.8829311692831794,1.3896444480051726,0.9429412279640362
210,0.1001784000562979,-0.011019624006192769,0.0,1.084762670676426,1.0661019960203437,0.7410335720022315,2.581337700926755,6.262379797435761,3.4635421789015686,,0.6284777104787076,2.236901394489118,3.470219981432598,inf,0.8905646849756282
211,0.3868379616043399,-0.03846524011305974,-0.009618684104535744,0.9023563490110484,0.8356491762150329,0.6108754136980411,2.068758071743477,0.5699227296810991,0.48950618617056035,0.2822484217641615,0.6403206450210053,0.9684323391937709,0.3528236257468975,0.24188165296515063,0.8936462539741729
212,0.17851330023194753,-0.020452336384139555,-0.019238529175526632,0.7858447382077973,0.779999940239736,0.6370869681032711,2.93711334841931,2.00951992436158,0.849389781329443,0.6568379014717932,0.6684167106117298,1.1944626143249437,0.7314379571723126,0.41936008466636726,0.9127387073023575
213,0.10097855140672753,0.006714623753338388,-0.01064672844407957,1.1475738239670874,1.1211100720894824,0.7718925135016685,2.5287467764275213,2.0010473390142476,0.7146749079078646,0.6386529015066619,0.6602640781246099,1.3254710662298004,0.5904920064575608,0.508789654280892,0.9496200820380858
214,0.10401364853019393,-0.0068342026759769595,-0.02803186092447239,0.4296239601486483,0.4185926503431,0.3392322640684193,2.209842532742183,1.7839830267139223,0.5792666757893196,0.47808704280941067,0.6153451465759925,1.1227000841971995,0.5197202622008191,0.36038942645686267,0.7861740784871984
215,0.13612932143897272,-0.02493185457974276,2.2342005719168043e-05,1.0981036548121208,1.0769816157769898,0.785381997908358,2.5161883352746295,1.9684037969972428,0.8222152782101273,0.8289121915562967,0.6602640781246099,1.413642719305066,0.7954520306016409,0.5542919962349692,0.9214776793587521
216,0.031197850319986592,-0.009985088714688084,6.924973319234458e-07,0.8048002880653674,0.7893188878573596,0.5649882285818286,2.619678378611256,1.9587849933019545,0.6955362555981978,0.36582369788731967,0.6284777104787076,1.1392259715534068,0.6366601485183581,0.3801005492482098,0.7986911939966336
217,0.11801253911591504,0.013462160614972234,-0.0197174400552211,0.9686637907731291,0.8914361657538946,0.7032361736395851,3.2275202763961475,2.766757569423296,0.9549118046124703,1.0845445553598345,0.6468212168108125,1.1822837946957252,0.7170608852122672,0.7605504793071706,0.7714167940568218
218,0.12628263089501898,-0.022321591825142414,-2.805686692630531e-06,0.855749035681553,0.8330991324406005,0.6123972192474366,2.4046108345240618,2.487038652735514,2.435519193077357,0.9037415821996261,0.6509067234006624,1.6867390113833334,1.8836662879273935,0.8950029443022057,0.8718318828702201
219,0.38166862050324635,-0.040582668607250974,-0.020422978245090203,1.0704557996282165,1.0284208429470145,0.6721365044812336,1.8134012176716068,2.7929583480366267,3.067050452742389,,0.6447042257417027,1.908967670133596,2.124595419828646,1.1654118332535317,0.8964078684379808
220,0.16391652771796827,-0.03442976799147811,-0.0057212124917594325,0.8479711488893108,0.8223173909535915,0.5503371765237939,1.7037547877205186,1.6934648181878258,1.4538905098259114,0.8100827070867248,0.6180765742263259,1.4621200470157671,1.303206221906173,0.6506463983223694,0.9072647105252635
221,0.19753904870826752,-0.009374374473115718,-0.029474971772843563,0.871382336163624,0.847201305138659,0.5884792481979119,2.370535993145556,2.98773976681539,1.4838539948494547,1.9565014723948104,0.6333676938231112,1.7077247402849811,1.325132665907939,1.579001767945968,0.9535504216253682
222,0.0040416128084444555,-0.0010642913728903733,0.0,1.1645293752551067,1.1562893204389884,0.8158842996537731,3.1370326976096843,2.644848191284477,1.0783929191863433,0.855919141311073,0.6566669596287297,1.3378005371511752,0.9353336342853942,0.6041239473142122,0.8327888530328917
223,0.0004581130913206654,6.077906551874018e-07,6.139619831288322e-07,1.2067949945737515,1.1851177897637648,0.7897389298530327,3.897590577874163,2.3128259369526947,1.1898991015084566,1.7818849860046535,0.6284777104787076,1.6266971103241847,1.0371767284451965,1.104529938883848,0.6955974007356875
224,0.03606898831609977,-0.01107213443631877,-0.0034000639988349024,0.8766162303846915,0.814582910624409,0.6486366069028979,3.1827368887143646,2.4326751127150272,0.4905011761347321,0.5259544204368387,0.676637947632344,0.8792090569696233,0.34886671900426236,0.2086701286421032,0.7683731530915847
225,0.019378418035987652,-0.0034770716368623424,2.263194298692331e-05,0.7779962623619767,0.760070961778192,0.6378030971186095,2.687313128193668,2.327086033237495,0.7893415699698625,0.6541273805044945,0.6528756675646988,1.1625820826727313,0.5846502645052462,0.4531973611071903,0.8248400085174318
226,0.0016600349517333943,0.0006846204446952059,9.641246509428658e-06,0.6486974449624267,0.6198467403648701,0.499099992012706,2.876365102858734,2.7224949097081454,0.5420723437488042,0.49380514916468915,0.663668482632973,0.90126529239791,0.3914577736391308,0.2337021944031408,0.839272978407401
227,0.0,0.0,0.0,1.1306959586214156,1.1162631659222446,0.7866047563861783,3.2475634715129957,2.912693031284436,0.9135166428235992,0.8586504334177513,0.6309483474627791,1.3599770528025172,0.881408420319472,0.6358726456287923,0.9475088519951552
228,0.0,0.0,0.0,1.0514997983768173,1.0305412168615893,0.7194731751910649,3.1295005172665387,3.4059339865963705,1.3349462406680155,1.1598007229203988,0.6097226960127671,1.5929086104828898,0.9361589350908802,0.616454559771691,0.8831854227906971
229,0.015209299052351142,0.004112024437875568,0.00010300919475704148,0.9387950405579816,0.8657698722824252,0.7042916672537832,2.9930097412034793,3.9504424409529997,1.1876807350964234,1.746999164835831,0.5978297680564633,1.3182619507280637,0.8461082897372085,0.9384524392063591,0.9173387247562129
230,0.04365012778955433,0.007159519672053133,0.009856329348819425,0.9627926481905547,0.9351567005778045,0.6282818445029201,2.478775058835896,2.44958434868982,0.976743804492427,1.230928066935983,0.6008849035917525,1.292197037740775,0.8283443148244867,0.9391962509646417,0.826438420450921
231,0.00890339084164562,-5.409963331537643e-06,-0.0017159122660532823,0.9842973929430606,0.9390427506143639,0.7141246089482902,3.482874690520931,3.854710601039578,1.342075593289196,1.206606280543624,0.6468212168108125,1.6503177789992804,1.1889807087128836,1.261735062660733,0.8252705413528565
232,0.032842786778703545,-1.826842396124989e-07,-0.0032840959936307423,0.9999798729225173,0.9263798380451514,0.6728545462098006,4.1046844547972166,7.832899922691149,2.2154805649104743,,0.62595550513784,2.323695241390168,1.9076151759050897,inf,0.8762294511769444
233,0.039064084602126445,0.0011936943375252234,0.0012228059598892093,1.1244862023038231,1.1153604821333967,0.7025989481974273,3.6415675040165305,2.9333666863980357,1.7602776893312175,1.799641718751761,0.6509067234006624,2.14729220858801,1.1850011944269339,0.68200845153362,0.9369685990081269
234,0.05244144885764466,-0.004020812010528818,-0.006117868101949149,1.058299650175105,1.0367521642992816,0.7323857039963795,3.2288311664275384,1.8240963703814068,1.2578777904836818,1.3865204402458713,0.6713451011121618,1.6706043476715877,0.98437913249393,0.6575927098431092,0.9543709122845407
235,0.07164473985164456,-0.0003817127039405007,-0.012036708870344555,1.128969297114467,1.121452606813431,0.771282395722171,2.782940759759351,2.0554763335780177,1.3409308193683604,0.5971656757231419,0.663668482632973,1.7945633965607892,1.1416428976791748,0.47168007557298797,0.9455542217663291
236,0.004061610543591691,-0.0007717060032824213,0.0,1.0139416685289375,0.9678178170682153,0.725669277562776,3.156676484209697,4.723615475884118,1.5660550417410835,1.3680626293865952,0.6403206450210053,1.6643635267096162,1.2095445051558833,1.044803961713443,0.9416220802269126
237,0.06438571075813072,0.002896274560758704,1.7764825452409524e-05,0.9210730563064249,0.8865653923339873,0.6873299669120942,3.3204691837885076,15.608261593822387,1.8689216970776248,2.1548469953448226,0.6425374456860184,1.673324794082957,1.4570823827976356,0.9395700288932137,0.9201829398396251
238,0.10984870855375975,-0.013108624401492307,-0.0008055453486505934,0.9989717058343026,0.9777075794158863,0.6828150084566096,3.6897070386128767,2.6228652303187032,2.606879253995884,,0.6602640781246099,2.1308751967946855,2.551656110350874,inf,0.9391053479434048
239,0.19172488534026896,-0.02408937788740651,-0.0001957742556942234,0.6110229457220787,0.5776220423667658,0.5425034699592234,3.246833839841549,5.810735602521636,5.926608903734798,,0.6357360191111145,2.1420737328713715,2.9007404595891195,inf,0.9411512677956875
240,0.002395248707286451,-0.00026347735780150964,0.0,1.3293411964073263,1.3085625798334066,0.7953513457106802,2.271142901312455,2.9483361948935713,3.4908427249864116,,0.663668482632973,2.209600848404275,2.8043733469574956,0.6964972674452273,0.932323505411957
241,0.006020600894732929,-0.0007024034377188417,0.0,1.0318450601750522,1.013883735177867,0.7119378455428831,2.6246772743554416,3.107789543536065,,,0.62595550513784,2.1538777728328533,inf,,0.930937502482184
242,0.0,0.0,0.0,1.7066451099813114,1.670369594123975,0.9147023687535261,2.289374061146416,3.996972552003103,2.1169246349345765,,0.5783247308855777,2.4849066497880004,2.1236024374656055,inf,0.8664448360472432
243,0.12817598876912703,-0.007263306030250532,0.0,1.6685021883787132,1.6297098409973378,0.9087911356575377,2.504361403666603,3.8819008809629874,,,0.6652988471865258,2.9482127575860146,inf,,0.85930871098476
244,1.9616311527125825,-0.2476350240410351,-0.20411849913127328,1.0084466160108925,1.0111549442994054,0.6538583768760337,4.117736384094772,8.44452710061138,3.469362476089274,5.1666207026027875,0.6207552362147116,2.065056613758802,3.3712464957631374,3.573366566992092,0.7040188983935215
245,0.0728650295902341,-0.006800736095088515,0.0,1.6862898131486674,1.6352877093449667,0.9249287969797777,2.7415347919029527,4.3293249279678605,1.9110068642854352,,0.663668482632973,2.4031423479853604,1.5122195587083,0.6964972674452273,0.9046473471539015
246,0.0,0.0,0.0,1.7094105822104002,1.676278873711977,0.9277778793961982,3.3492147000427748,4.4614349959786805,,,0.6207552362147116,2.5682882587270512,inf,,0.8449809206513459
247,0.0,0.0,0.0,1.7568491447780525,1.7365285733399909,0.9182521281777084,3.3538352216519187,50.2879050012027,,,0.5748741956352443,2.7593434954897607,inf,,0.8409993076269332
248,0.01368659512654189,-0.0010036836426130721,0.0,1.7845800887542402,1.7552736018852966,0.9280589602150578,3.558503573004669,75.87934476719454,,,0.6180765742263259,2.6246285929631377,inf,,0.8467934218061381
249,0.0,0.0,0.0,1.7839200669316804,1.7472091179080838,0.8870849113934898,4.037449208139651,31.742459606321358,,,0.6180765742263259,2.8134107167600364,inf,,0.8793581742465741
250,0.0,0.0,0.0,1.7699781246776767,1.7339436300068356,0.8773910453954376,4.451373187141616,10.801541807003034,,,0.5978297680564633,2.995732273553991,inf,,0.8968989388230781
251,0.0,0.0,0.0,1.7812585371710745,1.7373389207274959,0.9021884359185113,3.533900112797099,23.798703760816746,,,0.585052858160615,2.70805020110221,inf,,0.8856289819854456
252,1.2638130396896436,-0.20221008635034296,0.0,1.787807849229527,1.8122402205856531,0.8491713443522676,4.5913946137687764,65.15592840755056,,,0.6180765742263259,2.3908093264088848,inf,,0.9407778068240766
253,0.9256764035894973,-0.11361612622775943,-0.01256694033320353,1.0141176399523086,1.0022180122547018,0.5829887026252365,4.53248985302065,16.627199193477225,3.0873462664203037,4.913280752057561,0.6038851895711802,2.2949476658648345,3.0488320747599595,1.2516008533151908,0.8187361397542815
254,0.4900503329836261,-0.06217080005182698,-0.0080697476758261,0.8709704284148078,0.8366259444109353,0.5275333560994853,3.912353675542138,11.44048482885675,,,0.5567373465730988,2.1501501699502907,3.21478194567973,inf,0.8080228473743241
255,0.07726381730384839,-6.829342785278324e-06,-0.004628999695445625,1.7819604755749545,1.7628087580262617,0.9494487469533589,3.7917048972138354,52.95953596382377,,,0.6097226960127671,2.870569130599985,2.833213344056216,inf,0.862551150115069
256,0.0,0.0,0.0,1.7715423962661028,1.7427508497960758,0.902954688905621,4.445261676154808,87.69710639322122,3.132155314663635,,0.6447042257417027,2.5682882587270512,3.138833117194664,inf,0.8963895731534085
257,0.0,0.0,0.0,1.790204378038263,1.743166956969436,0.8945145060290622,5.088610994324076,34.69915036037697,,,0.6233814453054027,2.5682882587270512,inf,,0.8961994069602319
258,0.0,0.0,0.0,1.7858032945438858,1.7740777039634337,0.9066881867827921,4.279390587177007,7.259205855447579,,,0.6153451465759925,2.445685936634719,inf,,0.916059705103031
259,1.2936217675413826,-0.15092253954649465,0.0,1.2330973816482271,1.2266704990233328,0.7466539490475097,3.9308525352549446,3.2220402668134622,3.221916530566725,,0.585052858160615,2.4785270428239614,3.2285943330977545,inf,0.9442810824500252
260,0.06493411409563535,-0.00735919959750534,0.0,1.7030144922811026,1.711626030699606,0.9578706703661033,2.6273637428861507,1.6077017161264227,1.6940081332126562,0.6897970936746635,0.6153451465759925,2.2146759709499753,1.5465352559164272,0.8506479472724855,0.8767244269085587
261,0.0,0.0,0.0,1.7745491634328394,1.735691252374054,0.8974087685038576,3.553928985717149,4.090258476210211,,,0.6403206450210053,2.4849066497880004,inf,,0.8926748408422613
262,0.0,0.0,0.0,1.7759040162131798,1.7505487649490774,0.9059133402515361,3.3869000067844652,61.42461058817013,,,0.6233814453054027,2.7593434954897607,inf,,0.8937071549229753
263,0.22815129898624803,-0.019012608248854004,0.0,1.001640567228862,1.0024061319245583,0.5780855270135441,3.0833699487143407,3.8478256701385027,,,0.6584896970785714,2.5255897650635353,inf,,0.9312230623013195
264,0.6834275043127866,-0.06606465875023604,0.0,1.1681020863261926,1.1348650200035084,0.6661726994912447,2.754410364883145,2.5797762231739543,1.831943959237274,1.3854691517923474,0.6125606311107803,2.483041723178488,1.8377852916233373,1.3896444480051726,0.8821638610612456
265,0.22040482566497188,0.01596808420554663,-0.018344397977333643,0.9124977075062228,0.879602130359726,0.6378869381567188,2.7749539424942484,4.408969962575398,0.7547779402285715,0.5860097788156127,0.6668815377411301,1.0899829619700552,0.6126063509989012,0.48102826096104595,0.8991802435804584
266,0.16727780271859874,-0.008222826942132819,-0.0067090123087142906,1.019534400930691,0.9916573618456626,0.7278274601354164,2.8215174170369757,4.257837896732552,1.7374753193910089,2.0506319043654533,0.6284777104787076,1.658044760073701,1.4994224366658564,1.836638795405488,0.9090467951273995
267,0.11925684210831555,-0.014230634588168416,-0.017159521679462192,0.7789580521185332,0.5531090190067721,0.5369259501951829,2.81691425799799,2.718235827026593,1.5100458485650936,1.8601497468125612,0.6153451465759925,1.2532019537241748,1.1784799348265278,1.4448667286837837,0.6217656402859781
268,0.04439318836111297,-0.006246865926927806,-0.0002496577152631893,0.6073695775588578,0.4689615861110878,0.5343082512346491,2.3953808445818376,2.7771286462679066,0.9474009065514436,1.0257880943170028,0.6038851895711802,1.0896525472966379,0.70551271506625,0.511650991603426,0.7716236183420585
269,0.5437379515857854,-0.05437120533912045,-0.015318892055526244,1.007484834094373,0.9656629660452352,0.715607579340668,1.3992605881792735,1.630664571726886,1.280537712199114,1.4632442166362518,0.6284777104787076,1.854699269001929,1.2105021799298947,1.2514536783005947,0.8175221337551386
270,1.187683113052474,-0.09137932836111487,-0.015068393664961016,0.6115169440574754,0.5585605569050951,0.44495716947377284,1.7361319916642504,2.1192940538378178,1.3975031529505006,1.6945511456155793,0.62595550513784,1.9068710763292795,1.3984102485030492,1.0097099085053944,0.7940872665023152
271,0.5256908596957623,-0.04727852679912942,-2.2370883211660076e-05,0.8988930642395994,0.8774439464845111,0.5063823753001772,1.5672440483152024,1.8254761863568798,4.702575160077006,,0.5978297680564633,2.5239247168087293,2.495078826958043,0.6948292667429301,0.7156228995562816
272,0.004511819765813776,-0.0003759849804844813,0.0,1.664839476276338,1.6278958846909264,0.9446847143552115,2.0459312871659807,2.0219423547327637,,,0.6425374456860184,2.489182444650789,inf,,0.7813133983870347
273,0.0962943914066658,-0.007703551312533265,0.0,1.71759068614637,1.6857517268436162,0.9561017906385952,2.413705470807549,2.5161500755930555,,,0.6309483474627791,2.584506015010755,3.122615360910961,inf,0.8050418116003241
274,0.0,0.0,0.0,1.7332284420536177,1.711176763907796,0.90648591789157,2.4567878083119,2.077635378520617,2.5993507841788692,,0.6180765742263259,2.4079456086518722,2.6060285867098982,inf,0.8228167060328623
275,0.7240476815479527,-0.13132859995641105,-0.030715933335737765,0.7358674754100644,0.6908620089891876,0.4614637558657785,2.7281403059070675,1.948529574757464,2.381820376841159,1.0017878949274257,0.6233814453054027,1.8621104053245774,2.184714640929547,0.9456429438866826,0.751060393349516
276,2.1872771397246207,-0.3864189613513497,0.0,1.7276689943737518,1.7300523180100928,0.9245954067847321,3.701076951268677,4.689585163881845,,,0.585052858160615,2.6218725048611575,inf,,0.8725818884910813
277,1.343601789640316,-0.1913081008303248,-0.042042931049773614,1.5699090200164307,1.483508396398767,0.9159501241221912,2.6419089333127603,2.0518948762605396,2.394880669716693,2.1043784528524547,0.5022576003740722,2.240967500284138,2.0848888629226887,1.4362616884623376,0.8934964796081049
278,0.27722097743484364,-0.03251530017274848,-0.005394238457006997,0.85599417217795,0.8217072090603688,0.6187505221050286,2.6161901840812876,1.9794690979322325,0.678469114662565,0.691791813848707,0.6233814453054027,0.913406007805565,0.49408929112446504,0.3613291990155292,0.8690668918220008
279,0.08548963995099425,-0.0002253501474816337,-0.013610131555239392,1.0101902312901219,0.9602854521317019,0.75270039376339,2.6630326124478545,2.7144519034985857,0.841939780129773,0.6122354640392592,0.5883313578629602,1.2502106728192237,0.6953217697983699,0.39810615317416204,0.8550771052018211
280,0.0,0.0,0.0,1.637807686891009,1.6300562708613555,0.9281358880760998,2.5507167351335207,2.80904041574931,1.8837307477668652,1.6060878255488185,0.6547956803312163,2.2072749131897207,1.7080869935039398,1.795109556113337,0.804758704558262
281,0.0,0.0,0.0,1.773568400211671,1.7484664515510557,0.9471360484372111,3.0689162039940148,7.515355797057098,2.4390081341036898,,0.6207552362147116,2.5682882587270512,2.445685936634719,inf,0.8064465625951989
282,0.02449984094239486,-0.0017966550024422897,0.0,1.6498738091093268,1.6310062114505897,0.9331959493292292,3.4298128319700374,6.728675529615634,3.068582510646023,,0.5947193981915972,2.6318610627446635,3.075260313177052,inf,0.8634448572902962
283,0.00031852324527603107,-2.2296627169322174e-05,0.0,1.7785646258936596,1.7596350333001711,0.9335763076886816,3.3898086466176256,52.95948121341866,,,0.6153451465759925,2.6595775476514323,inf,,0.8478282184759254
284,0.1701611905617924,-0.015881711119100625,0.0,1.769271973241454,1.7688467830856105,0.9320511138517237,3.4822114839898983,8.426962661869709,,,0.5978297680564633,2.450827336135138,inf,,0.8567962638464971
285,0.9620156588998684,-0.14430234883498025,0.0,1.7849508538728884,1.7773886969086712,0.9366993843818391,3.816394813774538,19.427767059675283,,,0.49759852643134905,2.3479311947609225,inf,,0.8194581816299336
286,1.126325006648413,-0.14981059199165073,-0.00036607556147100266,1.7814381150799723,1.7662419164570402,0.9310754565796436,2.9652901298757515,13.507362718438069,3.18209698817238,,0.5022576003740722,2.661962096909455,3.1546158718920903,inf,0.8113423115759234
287,0.48249599420379585,-0.06710447994654802,-0.01009487912605932,1.7309166650582242,1.7074224858489147,0.9192896657046317,3.714177589189899,9.900722697579141,5.039747669621718,,0.5202020156036558,2.070680036011263,3.8194320168364313,inf,0.8028387453848611
288,0.7288501996970606,-0.08333314284412852,-0.004128881119518738,1.7818682980909384,1.7909487502290886,0.9429362599199913,3.38578139595322,11.281917262179936,4.511700040528104,,0.552929491858785,2.4703464984566708,4.471310332201147,inf,0.84801486348926
289,0.9629005436092746,-0.12494552621579659,-0.00023154445340909947,1.7343384182872947,1.7000084455350286,0.9378737709634638,4.174898632758435,23.705375010942475,4.259675056918336,,0.6008849035917525,2.4316818885507026,3.344671278940334,inf,0.8941562119830151
290,0.8630391189295338,-0.12229179403833396,-0.01579446499039144,1.3699448779857606,1.277707206240885,0.7460671346264907,6.226802623901971,9.069548033439874,4.3417626218268035,,0.6309483474627791,2.2469401695821523,4.060758351906052,inf,0.9328252785225855
291,0.38798713148291003,-0.018440394036467186,-0.019065028673547448,1.552654702019031,1.5481066512300399,0.7903718115097724,4.41149349102229,36.81606604222659,8.945021365777787,,0.5490601803369085,2.4558657810035864,8.951699168308815,inf,0.9202602655136459
292,0.7532313018001024,-0.07030158816800956,0.0,1.778476297261871,1.754272631769015,0.886885009895241,4.755698612586397,8.074931375240052,3.044511326550583,,0.4880666971167561,2.6559322468401034,3.0511891290816124,inf,0.9130133930008867
293,0.30823486362587527,-0.02719316943785721,-0.00833712901336375,0.8741367091795617,0.7228237365262765,0.6335072641030187,3.901239982894176,6.9121247941293475,1.6769610307375695,1.7370246597580206,0.5748741956352443,1.9164160738276106,1.5864449616110448,1.340848387341619,0.8422479248684885
294,1.108380751676114,-0.1514787027290689,0.0,1.7825603382564876,1.7544032393860853,0.8839102250335883,3.813622018427735,56.47884024955033,3.2890351861117293,,0.5677978065141052,2.411408387278957,3.2957129886427583,inf,0.8964830850193148
295,0.558213761056117,-0.062375118724502535,-0.005995419030200841,1.773131440876635,1.75024380487678,0.8783764532616635,3.4298810524122554,4.852468414596737,3.251528934399595,2.264852809975753,0.6153451465759925,2.294286290179351,3.1445710991476856,2.0768872618747394,0.9079891560055212
296,1.5580351159978978,-0.19099120478802267,-0.016746810678363686,1.7891215619293657,1.7672869855965108,0.8912799799459834,3.671519188821366,3.931174580409943,,,0.5748741956352443,2.663873838769381,8.050543929983075,inf,0.8940204011896099
297,0.35293994520809685,-0.04525346894023977,-0.01577262020223779,1.3503467262843398,1.219813284832309,0.8368207589603586,2.9052111906770555,1.2533778602918955,0.7114427220876771,0.2521507377684452,0.6008849035917525,1.4210238416409884,0.6715704866171479,0.1936800659115939,0.8881878604081762
298,0.7127802505069912,0.06384518819066226,-0.0999591585099931,0.9465207888176858,0.8768427735261654,0.6735528460801775,3.6809634793816146,3.058900052675189,1.2089055623057152,1.4299389573507058,0.6468212168108125,1.3087573541966628,1.0392901128741403,1.0953617634006618,0.7379271906638384
299,0.9918092636197465,-0.15079312726786204,-0.021130291073758495,1.114932803832085,1.047184654489932,0.7872545093809576,3.3983815436330844,4.5675322216191505,1.4667344812905077,2.2064815360660606,0.648888643467878,1.6139480679119864,1.1977973695289887,1.2892881129319222,0.7762152093199515
300,0.14185853172586832,-0.015604438489845517,0.0,0.9974027243506148,0.918725411240164,0.6491108890387917,4.276186101945766,16.916543728905438,,,0.6309483474627791,2.2400276996615287,inf,,0.9025152208441846
301,0.385001358409186,-0.035888567579140614,-2.229511562274987e-05,1.4713015339556474,1.4569457149466094,0.7624283845843332,4.198428288555128,30.369472279790223,5.6124680954414075,,0.6566669596287297,2.530322513318483,2.4903631166312743,0.6965198650385845,0.8389379626756299
302,0.00011513452639705512,-1.1129670885048663e-05,0.0,1.2975543134158856,1.2274894669299596,0.6216992624959711,4.4035541871205846,52.38088670242013,3.363841979585825,,0.6333676938231112,2.336601593804861,3.370519782116854,inf,0.8979912591819676
303,0.011871869827476166,-0.0013850514798722192,0.0,1.0462898286576225,1.0354630791595603,0.6210863308982811,4.010224293530006,6.497398235605258,1.7504879137938902,0.4021150212228825,0.6153451465759925,2.158196190368741,1.7571657163249197,0.4088151949934463,0.9453807079433562
304,0.026971399088755222,-0.0017081886089544973,0.0,1.0585136053542965,1.0148565990880996,0.6282537139488524,3.483600511237577,50.40223014997705,,,0.6447042257417027,2.7811586729228486,2.9259627029988673,inf,0.7882617945524332
305,0.3350012688423617,-0.04458760584189436,-7.923000375386175e-05,1.2500270460522112,1.207896615794959,0.7133447940019637,4.651955155248252,61.139306189147476,5.287479981540064,,0.6547956803312163,2.1431152516891876,3.587695895354933,inf,0.9531673576752572
306,1.0533576053344846,-0.09686208179174,-0.14033717212878305,0.9918460634167406,0.9617527527040726,0.725128627100998,3.61815594252887,4.402173769644984,2.1058664219410725,1.7419119643012373,0.663668482632973,1.8560491324444386,1.844003622267623,2.0070686212096542,0.884280638527489
307,1.2648755981735045,-0.18641740082280472,-0.015962694884955986,1.1142460195253758,1.1091017924248665,0.6331894839554569,4.484477618297414,11.019590611286922,3.2363097461514063,,0.6547956803312163,2.3474662406667623,3.185167977793609,inf,0.8688697850474828
308,0.7466458644876637,-0.08213104509364301,0.0,1.2509229819619974,1.2114340047872796,0.6568317218293277,3.7910638438456528,114.56305322429714,,,0.6468212168108125,2.6939829438907745,inf,,0.9196837949822629
309,0.06880903809797571,0.005183730186910769,-0.0017272825558670851,0.6380857527506588,0.5699021350029622,0.4879846989367339,2.073616724927451,1.834341118595451,0.4058624045480045,0.47031776211240844,0.6619902821573977,0.6798580951226082,0.327938949329711,0.31612781281484026,0.9030499211198827
310,0.5218200184814256,-0.09324118910714538,-0.032989807167766005,0.6782467715929187,0.6152123857662974,0.51128748356183,2.111421673037624,1.8392237781739498,1.530944371333415,1.7524740901709368,0.6207552362147116,1.5136228096198054,1.276903613306643,1.468692782485886,0.9369628820008374
311,0.39854046617295463,-0.02683960164181424,-0.03825534116643501,0.3340055355332284,0.3051528489484035,0.4490676984843431,1.7752890563722765,1.7135580655654576,3.2375754030150583,,0.6584896970785714,2.01057904906221,2.772920672450298,inf,0.9215153111399745
312,0.2728016897913383,0.11872931010605581,0.04382098282104896,0.7231043185107177,0.6807277488199786,0.5495408236108972,2.0299607068102596,1.457758080020711,0.3329969479353357,0.24475871528949208,0.6403206450210053,0.6448650819418968,0.2811954415280632,0.16253542992266126,0.875005086076876
313,0.09738075763789598,-0.0013987288274209184,-0.004196983500837682,1.069577523797236,1.0539797571890281,0.750426469430704,2.472572937456689,1.334162927795564,0.5498117176176248,0.2291681675925654,0.6380535849069913,1.30719568865099,0.4783829215019842,0.22533238911975342,0.8476232821543861
314,0.022476888235870036,-0.003099926661713479,-0.0013954509854605282,1.3258957438937493,1.30869441203639,0.8485791766614266,4.730021102602424,3.302901913332988,1.2067092379439837,0.5624576712980617,0.6403206450210053,1.6253414842693135,1.006365150245563,0.5138154708305845,0.9178931441386635
315,0.024625468984534913,0.01075963662197058,0.011374407665751849,0.8328021675398596,0.7800402193958706,0.5665256870735971,1.9092459987175125,1.365494799774512,0.3957004641725955,0.3324607840695644,0.6333676938231112,0.8001881196844266,0.2553966085131651,0.17040648980034828,0.7386960205348889
316,0.09317003179438055,0.017233075857489413,-0.00018875788702046176,0.5033765015163618,0.4308670188763819,0.4556077860215579,2.525091305896031,1.5477558894771635,0.5702334176640633,0.5320668024593749,0.6380535849069913,0.8136589357875866,0.48242915744615517,0.39933142355757006,0.8015346270485546
317,0.35008587394394575,-0.058588190614636534,-0.006957012827146711,0.6669465007374012,0.625560205167391,0.5667757593847986,2.8045693440866204,3.2916051660754753,0.9538590610860804,0.782573590067946,0.6547956803312163,1.2818943065571888,0.8046837506919668,0.6154900721755069,0.8115939319955144
318,0.8864522798631754,-0.11728609094030497,-0.027501114770680356,1.3341071975616934,1.2988492541600467,0.8555627067072221,3.692760226083958,19.594671107237254,1.8691101694401813,,0.6509067234006624,2.0519128461761653,1.855675562184115,inf,0.8948794880064926
319,0.42942738785722157,-0.026947907664650536,-0.035582660079519476,1.305096778119102,1.2921834784588344,0.8251284458749149,4.019665352196801,11.141473796094445,3.2532737777608536,,0.6652988471865258,2.0722673379318355,2.350581291262301,1.8489178830680035,0.8972449849917933
320,0.4210026764085744,-0.041549075896274046,-0.026056186687721507,1.2810220071766025,1.2622044788303353,0.8120893637288974,3.232837329664099,2.2851624722814012,2.0712412826253517,1.5953278024348314,0.6068309995095971,2.0305244014452217,1.758789449990485,1.3858030813261726,0.9274707279501595
321,0.3558360157627648,-0.028164941067882154,-0.021895508136842736,1.0298714659509862,1.0337890667933127,0.7487193428269872,3.532302683680554,3.7192038492150945,2.543262069395936,1.0690333325126147,0.663668482632973,2.147101967933009,2.212076572657511,0.9753418746214777,0.9021178023556911
322,0.46585700962834603,-0.060626313417790914,-0.036359401943153735,0.8202814826919494,0.8226313261782527,0.5486848494766833,3.1056622062120574,6.967532522767602,1.4852339582452152,2.6216114096710963,0.6357360191111145,1.6742134987064274,1.3177481149513706,1.7111889806904972,0.7537778924926414
323,0.6187130243677508,-0.05842854272084312,-0.021619461948381873,1.1630772759109977,1.1440294244499822,0.7925150887589694,3.716076728241183,3.990831891958238,1.7545805342053291,1.4071243520919094,0.6566669596287297,1.8059936292558796,1.5403999603656018,1.0599257376214448,0.8488405360394949
324,0.7776123513160806,-0.09366778340509363,-0.05296074724222179,1.0561901853709277,1.0466442107467346,0.7232189602198068,4.776923855306338,11.695422351311345,2.283256642255417,1.5270090206120814,0.675384900321601,2.0004250013616116,1.912709732919225,0.9961480655551318,0.8348983073443156
325,0.6818055943540174,-0.07632217733420704,-0.05182749056359846,1.2432038200961972,1.1835376620359124,0.7719903528351724,4.184468393570634,5.978956977994459,2.144877398125375,4.3095172915642905,0.6684167106117298,1.8952698455977197,1.7612499857428805,2.1788910857940373,0.9288578901270849
326,0.43112064970696634,-0.04927237001685473,-0.04680499009698442,1.1332908003030266,1.0870962276733327,0.8157450858049441,3.2208884902934116,2.1117311882425085,1.3518712017344106,1.852018706589441,0.676637947632344,1.608271925794131,1.1094919674957182,1.1876145694196283,0.7104732854886222
327,0.5792933265763286,-0.06952401250623075,-0.025779365570636356,1.134452377588717,1.115030340785205,0.7261474550896239,3.2982551659405384,3.3003094274087346,1.7689920916983612,1.8806747488656521,0.6602640781246099,1.7605838517596053,1.590871438007736,1.665868992479711,0.8910601456124505
328,0.8816145014530918,-0.03899532673865179,-0.026903809327714023,1.4030070713591327,1.3874336761924921,0.8737308265488011,3.459200610787054,4.5446285379155285,1.7319915291353272,5.1167225336303055,0.6811855325194978,2.1475776374468056,1.2979200031119298,2.268335169950967,0.8347460329849758
329,0.35370020084857307,-0.054872722787375816,-0.011111150152646392,1.3192025290693963,1.2944766156362202,0.851334606795048,4.24571059614609,4.038540803710821,1.380535254105934,1.4872641728558156,0.663668482632973,1.5813364823232257,1.268085289243985,1.0833709953473212,0.8495417706828634
330,0.5214554691415353,-0.07638197482016802,-0.004981944337714548,1.1149330021035462,1.089158119194805,0.7673408396363672,3.8095123024544377,2.833225129601399,1.5416512834551792,1.484613929447883,0.6740851607140061,1.9928969402796501,1.4949482481081775,1.0986122886681098,0.6872323961709514
331,0.19806769750234715,-0.016214805891688493,-0.004912415175228536,1.3649877160126702,1.345014747479594,0.8431381441555625,3.551634117681024,2.316848762989464,1.6600330647201795,1.0160297497913093,0.6602640781246099,2.3329297595015945,1.28228626569777,0.7089610764877425,0.9434235252892916
332,0.19104617392673065,-0.02783617013886102,1.2539435913924094e-06,1.1750550074938193,1.1689305114462925,0.7499323080636183,3.5290759844957833,4.197579946402146,1.6557901108306272,1.4349716568182806,0.6284777104787076,1.9719233554682103,1.6624679133616564,1.4101455769420705,0.9335314157962389
333,0.2242933465840413,-0.0283629870577564,-0.02312262228577862,1.0407236324151596,1.0193576481293816,0.6835159955220823,3.5084128547475495,5.756817786998138,1.1586656110034488,1.1234927883440502,0.6509067234006624,1.550906984133072,1.0160777766905351,0.7483407817645843,0.9497463206048616
334,0.3478650307642793,-0.0547569805219308,-0.02098711473506846,1.166137431585592,1.1021262697189183,0.7907625628827207,3.4738510959134903,11.810649095994389,1.2794422643967855,1.2761298333369029,0.6668815377411301,1.384473797130442,1.0008892223212968,0.9272131705568882,0.8233189819363813
335,0.6607507743071109,-0.02773239521088812,-0.05545176321914275,1.2917380117986372,1.264606039323499,0.8410774273208302,3.684669578551194,2.885799842347688,2.4751778139369827,,0.648888643467878,2.182828697052487,1.7454366144770814,1.4295661825508759,0.7807962003139711
336,1.0065431861105198,-0.13530732872468335,-0.0324498689604033,1.2294788165736041,1.1961970359613667,0.8158750976490472,4.375398474997781,15.93866041270766,2.5098063650368054,,0.6425374456860184,2.1434942549152516,1.9730959162541688,inf,0.809330838017325
337,0.622915994787853,-0.04913296199806112,-0.04816225186689915,1.476024713484774,1.4391578903300666,0.9022394751957414,3.9845979260630786,12.350548959844115,2.0360212121244317,5.802942691585114,0.6652988471865258,2.168928708181372,1.8156649900816095,2.4325386642706843,0.9440398560338336
338,0.8690028041517615,-0.05925398183372324,-0.049932045680131404,1.2389579380268165,1.2164991436504418,0.7920488553964745,3.8415279193091814,9.996000419408594,1.854610228567753,2.2329384215483947,0.6893362020498699,2.2377341206744292,1.6632390485671318,1.6066944264883496,0.9361876777733815
339,0.32948312875879726,-0.028555204492429098,0.0,1.2626591703932117,1.2386053548439668,0.7665498713290639,4.235451368778909,9.871390182936496,2.3762072328646595,,0.6447042257417027,2.631089159966082,2.3828850353956885,inf,0.9465195770208852
340,0.9324819772884871,-0.12103014464267595,-0.0793161193910171,1.0948612665772284,1.0752246807771932,0.772829409513413,3.6080396556177057,3.7641813190649396,1.8883384643503458,2.906126416926176,0.6566669596287297,1.6797411659061623,1.7042713910018923,1.2771402638309735,0.7940212795733359
341,0.976267987767274,-0.11938354817819408,-0.06636415917448267,1.2168225059327635,1.1936035107735037,0.7814474515525888,3.830743325988957,2.966565503441907,1.8379145738834164,1.4243300811907182,0.6207552362147116,2.002892107876129,1.6744980461900514,1.4130101084989377,0.753663428904179
342,0.696180540322486,-0.08565975127099631,-0.017001873874332007,1.3993107153633653,1.3842727014396474,0.8939217895732157,3.882275414282087,5.406704215008637,1.6424052198130557,1.6921528336024627,0.6333676938231112,1.9197443673690353,1.4541621540572165,0.8868862484335135,0.9366528254492588
343,0.7357295472587086,-0.08753117766655516,-0.0657866760750942,1.18146176957894,1.1611249041293266,0.8261904633090243,3.6451143947577966,8.54658853281445,1.8311943005688396,3.3673888891335135,0.6333676938231112,1.741256487054948,1.6252174585488215,2.476570596385939,0.9589670801590312
344,1.040818654469964,-0.13230438785299292,-0.05190770633794678,0.996582501304392,0.9754531899692443,0.7558901330054286,3.9840879621242324,8.663236727485634,1.4593557761234979,2.944666096828443,0.6125606311107803,1.921260897838637,1.322363096718758,2.5255862854212614,0.8763135220668556
345,0.5201162881990059,-0.0830139645294806,-0.019144161486902435,1.0743276313822674,1.0383625769912037,0.768769968959213,2.8318827971725224,2.0728043041426303,2.232111361619003,1.7651553116735645,0.6566669596287297,1.7065608453941812,1.8373528384695694,1.9447574111755048,0.8938884511376602
346,1.6120343504942176,-0.3333684360881068,-0.05826978354498394,1.3300094362051171,1.2905981787031766,0.8741992623069217,3.6358896112470527,4.001987801605462,1.846435240070463,1.8987186139300125,0.6584896970785714,1.9860726388743877,1.717131142527702,1.9391700651254677,0.8317109570248603
347,0.9222811826937194,-0.10361702884949903,-0.01116977249595373,1.2077385175299276,1.2091372196950638,0.7765829700361664,4.136333216445804,1.6153183386644168,2.044797131409662,,0.6811855325194978,2.4695583728412007,1.80630806600429,2.9573112405712743,0.9559548268887174
348,1.7893364820268207,-0.28494866566604893,-0.05502526591904705,1.1816986758276427,1.1242484334412668,0.7734482485727863,4.3238595317836905,16.362218850646244,1.9531773298089066,,0.6908933359745891,2.4835742045542215,1.7065473130616478,inf,0.9009767306737715
349,1.0631355798149325,-0.14583801276507946,-0.037182817174522396,1.100717547520291,1.072072286752069,0.7069524153432081,4.700606050831015,8.765399251605206,2.0076118017014166,,0.6790044388599258,2.0654948066583247,1.922689559735385,6.320768294250582,0.9391793422396266
350,0.34922496073007014,-0.031237726952020033,-0.043184411399587744,0.9278571055245411,0.8872736710175084,0.6807167081165293,3.383931737518148,2.3311702338333653,1.7819716163433306,1.7350925702908864,0.6713451011121618,1.6847602969017201,1.3880930305897647,0.8497813385312556,0.9407637771160294
351,0.44688921894625194,-0.040769448472485856,-0.0031093326387723564,1.2259952267422858,1.2189342045049283,0.7976794523550624,4.440082685857744,7.951947576051404,2.0759813930396005,3.4000373882672066,0.6447042257417027,2.3346492532478917,1.950855814435368,1.7104138297741025,0.8929238748551936
352,0.14840217135517045,-0.007082573297832573,-0.012209708978339586,1.1711385377323913,1.100011184677225,0.7538587142671495,4.345853588528621,26.341814054973668,2.1751441184434364,,0.6699045166045591,2.124067056718493,2.0808366960706715,inf,0.889457992183422
353,0.07950314387381129,-0.0016725301529857076,-0.0037179574920760457,1.0151732964657236,0.9969785453823539,0.6943746841112443,4.145761782978221,13.96336578036713,1.8409484491484231,2.0503468017627164,0.663668482632973,1.9655574550811328,1.604058578205986,1.3733606123353224,0.9242045054536929
354,0.17994662202618456,-0.008521072555641706,-0.013072522087500439,1.1559965070502407,1.1291569687572676,0.7424366324507845,4.081305741302437,13.454873426174167,2.687459638281164,,0.6447042257417027,2.1767359109089037,2.425106484986513,1.108629066911581,0.7728551035609309
355,0.7113022278724008,-0.03185284897155548,-0.07010047035682197,0.9433947060866724,0.8965642300111232,0.640434563338895,3.760828203164778,9.91257064724609,3.2611514384863964,,0.6403206450210053,2.2818025538115174,2.1559717255992954,inf,0.9294235498928283
356,0.2978134819517949,-0.019011743255226997,-0.01970400939850634,1.0485937320426222,1.0297071787896959,0.737251198573405,3.882342334784649,2.837173349553765,1.6562239218927062,1.9430377311545137,0.6566669596287297,2.0978318334581845,1.5513996483633068,2.061239980985506,0.8799067118232342
357,0.3303311667760551,-0.009932404496687391,0.0034829790695353885,1.2328971440605423,1.177864039006263,0.8220408603736723,3.633760318921345,3.4107261831860507,1.7300171212629214,2.1058850567218514,0.6790044388599258,1.7930936922411915,1.1587280279711958,1.3066116305426083,0.8254556426850902
358,0.25549298010425286,-0.03321408741355287,0.0,1.1228935574927708,1.0895970230671543,0.711828184069355,3.8680437940753096,2.460374224146332,1.7411602674374835,1.8378894396061427,0.6207552362147116,2.1180437794617784,1.6431674474046243,1.2561130553806499,0.7348266591372722
359,0.22745125031394478,0.010395384116293038,-0.014404171454795639,1.0684926893335973,1.011944909437181,0.7827962197895908,3.627381033117043,7.345680297131512,1.3671828458342559,1.2779655548801117,0.6309483474627791,1.6937257289566896,1.0053647307740485,0.6832851676908295,0.670974491950229
360,0.043255625421870794,0.00848361164429793,0.008269394695477477,1.0093620825274294,0.9819429305913187,0.6665001926581245,2.642201418783054,2.166031665784771,1.1941984870727633,0.8414105034995325,0.6528756675646988,1.2454508782167326,1.1037600561173682,0.7839970082220095,0.7838997954136597
361,0.5468155838449917,-0.024550595804641556,-0.02765014786491543,0.8959955997073069,0.8352121844134307,0.6995612090918394,2.422344131012193,1.2500510450636657,1.0440262858643015,0.7859114619220802,0.6153451465759925,1.4833928055834413,0.8626798684891939,0.6707697478774785,0.7251139293084902
362,0.11374887113075541,-0.022326374138461298,-7.276379161254547e-06,1.1034362126375912,1.1082345321000084,0.7576269066991489,3.3310230163251364,2.2554698052461917,1.3283010001721884,0.9998374359513693,0.6858323589451731,1.6113285875232501,1.2220958899311645,0.8352167144185305,0.8786293933797112
363,0.2570491362727289,-0.012503715339698268,-0.005059361486086794,1.1822240507600117,1.1171509199512566,0.8047336947617362,3.2216157297994696,2.790761542916451,1.0581151634142596,1.148743265357683,0.663668482632973,1.4137340768786724,0.9079205788357241,0.7295903277698533,0.6724154428077187
364,0.5328473808865162,-0.07223515719488217,0.001511640774478032,0.7446540970043932,0.7322709694607648,0.6225490866932387,3.1790088215856405,2.5363655317364153,1.1623569504336262,1.4124603125587119,0.6425374456860184,1.3862943611198906,0.9218617769236104,0.9098867005208078,0.6560175838065856
365,0.9403411209879028,-0.1286498761965369,-0.04061018302311857,1.3018668469724204,1.2972391219212047,0.8513885976020409,3.987182106171817,14.994561394863506,1.8371853780097942,3.6754257573275924,0.6566669596287297,1.9303321190919949,1.730932167988968,1.9262177318790774,0.8831546202099367
366,0.32927307922864213,-0.014450130763630914,-0.007038248104399167,1.0355366135234934,1.0130201861460837,0.7524311540163389,3.102475371551674,4.244628722579077,1.4811281399786127,1.5244511199851254,0.6333676938231112,1.4029658954078625,1.2053898116631478,1.0323687051558785,0.7504082235190179
367,0.550137109969297,-0.05500700306745941,-0.030005115469868997,0.963042410310964,0.9377741445003899,0.7071914687826247,3.8439822749592736,7.739986180037969,1.3799762800655428,1.4926597493815583,0.6602640781246099,1.531294443069827,1.1376953141317887,1.2325330135926642,0.8670738110777886
368,0.5808181237888084,-0.08626529879243729,-0.03359559126841726,0.829877520128463,0.7958108278917073,0.6519574051492288,3.050301322544461,2.2936517353836208,1.5303291210804724,1.2438588021588222,0.6309483474627791,1.5569508863833421,1.255164373547055,0.7245200926268623,0.7825220919688646
369,0.3426650910312458,-0.011103982651877363,-0.02793002849000106,1.1489048556813783,1.1184741792662871,0.7793007387439175,3.825805723402899,3.0635656956703277,1.7007240504455075,1.3982940881662589,0.6602640781246099,1.9049281673336929,1.5360500843403069,0.8550745811422455,0.7870675749394913
370,0.20422533186776987,0.014800414525558934,-0.0051564342319768836,1.2032452657437198,1.2078309297091707,0.8075843692827162,3.561228303786426,6.3266974781707095,1.709777283632895,1.9601531491299926,0.6509067234006624,2.0305244014452217,1.5707512586001475,1.4126985353164014,0.8301262544542726
371,0.5549468649938923,-0.046037208033183126,-0.02795570729933585,1.0189807818684882,0.9925220266392434,0.7288445447560232,3.6717017616955356,5.244770482407308,2.8319311498474153,,0.62595550513784,2.1753652429833257,2.55763831451465,inf,0.8105723892598256
372,0.16614586090800726,-0.015041781178637342,-0.008254720072916562,1.0798483051369954,1.0604733382160678,0.7720320124877843,3.0869377076920252,1.9343078996263277,1.1222906301190005,0.9438194371542026,0.6509067234006624,1.4315242040945655,0.916290731874155,0.7140571400898155,0.7619207830090161
373,0.26351448104417186,-0.031871786059840757,-0.005859009436553968,0.7016699833365764,0.6701228109403436,0.631049144765255,3.863345587995967,7.4052185659697365,1.0118797045956198,1.447015251762176,0.6584896970785714,1.5494409385278043,0.94322910187803,0.930432176644371,0.6227048913054674
374,0.2696408850719983,-0.010576501156291634,0.005657952381170894,0.8649285438245683,0.8496020739790189,0.6305891472337385,2.725000679010454,1.574212676690832,0.9158675344981705,0.7095626295549113,0.648888643467878,1.242405679756724,0.8303913192044433,0.3798360902765373,0.8445467832128563
375,0.24365172165343274,-0.0005358140652406834,-0.028358731205962474,0.9857212791226485,0.973864372123229,0.6957657100879613,3.528413575029092,2.676916798026356,1.667760509574801,,0.6180765742263259,2.1866803634605483,1.327685716307245,0.8353009321327521,0.9392822730153798
376,0.48786025426680124,-0.05815992941473233,-0.0052619036399518225,1.0851178487945374,1.0628748142290365,0.7328759172942316,3.4318154030446317,3.1661299631908015,0.972526754753695,1.1455376985684513,0.6380535849069913,2.1927346720633674,0.9336126159623853,0.7923647055531899,0.8978891468211654
377,0.24917021967476433,0.009240587486630807,-0.03574049324114719,0.8114102564180207,0.818630702489251,0.6191957380101014,3.2829410545368396,4.522607047924378,1.6043197111764687,2.5166094396577607,0.6008849035917525,1.576164335671175,1.2258303116075768,1.1078086014110815,0.8450619945280743
378,0.2345286365061851,-0.01960153066704122,-0.013658768108471872,0.8025263609515711,0.7772338610036168,0.5677952008163306,3.279379168442528,2.5911232185785824,1.5099140831793132,1.5382886989809936,0.6333676938231112,1.550278415676988,1.2203566606168432,1.3297275582538326,0.7827539184538441
379,0.22807899939370363,0.01830588848254896,0.005423205692506469,1.2650352314381008,1.2469998309656996,0.83897137886979,3.326122434057909,1.9642616013333036,1.6726647314679064,1.5978397696879894,0.6652988471865258,1.7036875437077708,1.2122071714194798,1.1911974199173527,0.8879174546437267
380,0.0007782455529951846,8.422274229125093e-07,8.508020367282575e-07,1.22004230503705,1.1371416591588437,0.7978594436638865,3.5141738835100784,2.0496019824577236,0.9770978490765584,0.9100553501175361,0.6509067234006624,1.8333456445489844,0.8310067012875061,0.5642932706275151,0.8886137143120036
381,0.25678078734012366,-0.022300453443027536,-0.017928536573591836,1.0212791668149355,1.005622076244197,0.7218857079624376,3.330452574141052,1.9033461371615363,1.8133587627938872,1.9221479500080279,0.6727386042041725,1.941652558802672,1.5285376943464346,1.1416689209897812,0.9342847781443917
382,0.19671800697219827,-0.006778688669668676,-0.013725022282740192,1.0366003445911278,1.0244671723979026,0.6292836475672252,3.5001858475050183,3.946219675717022,1.6205404124080294,1.9638525724536888,0.6447042257417027,1.7743125556243344,1.4417893423611412,1.5411840027395047,0.8502977921454314
383,0.19483653276137966,0.010663412367094775,-0.028020176003381053,0.7911170109497196,0.7723629825014419,0.5847054824970205,2.9865963608977886,4.809152578560241,1.385280044341408,1.2217493769819263,0.6425374456860184,1.4948203755135974,0.9131252331382748,0.6845423333664269,0.6892149627128078
384,0.39660232465113354,-0.019116542065785225,-0.06179808307668612,0.8175759011733855,0.7884683607485684,0.6646172283769729,2.7404207428222787,2.4427559480664844,1.1507665542435235,1.179768953620006,0.6566669596287297,1.4288307874017363,0.972592925247755,1.0237248898351774,0.7999405240077698
385,0.3219825137462044,-0.021255628280296243,-0.028346421937839476,1.0019865028337822,0.9681948856929938,0.6359940453549252,3.254543269155241,6.855391944454244,1.0662886302210315,1.2078341640236394,0.6333676938231112,1.4009343378594057,0.9712390419413552,1.0894819708985084,0.7870892526622828
386,0.3615500432668629,-0.011872654192542062,-0.010935242893962999,0.8096272327105575,0.7442333267474115,0.6322498954129943,2.6150340481704903,1.899970852049544,1.177356284740613,1.1025095165796133,0.62595550513784,1.4814356662954495,1.0666237984978195,0.7986497315848167,0.8384940063706277
387,0.47560342920453347,-0.06294557467233651,-0.005118222687214454,1.3142362024189442,1.313656479307779,0.8531842567545166,3.1441522674648437,2.446495427101018,1.8342285495141024,,0.6357360191111145,1.921260897838637,1.5676753981315252,3.670133411292881,0.914536664629769
388,0.15026795531458476,0.0011600418999690425,-0.012124221636252121,1.3538229310911176,1.3329024226834318,0.8230320994464001,3.7835023588527124,2.5625998675352446,2.0544854596480446,1.567646418852266,0.6602640781246099,2.458849115468711,1.7694078643396571,0.6211101666917657,0.9355083817365948
389,0.26899087229979274,-0.020356157826792436,-0.013716019331181311,1.2336482293515638,1.1882918979211727,0.770829405959903,4.289754813930534,4.86582104467002,2.4494559519263754,1.1008208597866553,0.6068309995095971,2.146816674792374,2.172339495844634,1.3913152921699903,0.9524933382942246
390,0.27567274424057575,-0.03226057755327746,-1.0366723065798143e-05,1.2810849830066253,1.2664253067906164,0.796142901102298,4.449749468649892,6.516180575458408,2.132048391392618,,0.6602640781246099,2.154069307022292,1.8788666270711654,1.3856675983290816,0.9603677168065337
391,0.0,0.0,0.0,1.0794376314285723,1.0108831436990262,0.7214918858999799,2.5904491301466,2.365023611567967,1.4847381541643183,1.9425600621700312,0.6468212168108125,2.2697952701710546,1.4914159566953475,1.9492602359405953,0.9344116122677479
392,0.31941958604405457,-0.03300669055788564,0.0,1.1320521480474963,1.1403037867825085,0.7205360596904588,3.7036016622610757,3.3421654192834436,2.250872607444315,,0.6425374456860184,2.3509586772782614,2.2575504099753445,inf,0.935857608257805
393,0.006210985939716449,4.36905561265028e-06,-0.0006254676495842952,1.2873682780311972,1.2043731585655146,0.7894300405234419,3.3033893151149893,5.639421278423246,2.699028516701197,,0.6566669596287297,2.308267876129544,1.6359340276628371,1.073122378454671,0.8613826787334814
394,0.11512925464970228,-0.01535056728662697,0.0,0.7961867372012804,0.7268656212381408,0.6146322759590874,2.9379437693179487,5.696056216627385,2.9673319416931054,,0.6468212168108125,2.039964451137636,2.280862563664189,1.3896444480051726,0.9071818781969133
395,0.15581491254987395,-0.004522337811951414,-0.019062935064680014,1.127846718203429,1.13114591629717,0.7677138877693988,2.4872728480337827,1.9623614436980068,1.3865076539741894,1.7017020029235037,0.6468212168108125,1.915736649047766,1.2328878372761765,0.9700127684672029,0.9326962773861754
396,0.4625249373486849,-0.04835544148318513,-0.004705739712361531,0.8642145774701879,0.8315684135229664,0.6447244311143815,2.5328719419899817,2.4428230251575895,1.5583830807209083,2.316148027401396,0.6584896970785714,1.8225623783831,1.3356888246686658,2.085998942225995,0.9599665076349432
397,0.28209513157418303,-0.030726733700374716,-0.01911007287773095,0.9122032691089454,0.8709299587614684,0.6365771765058393,2.071714929601935,1.832651092422581,2.119448891816054,1.7856184232327508,0.6380535849069913,1.7920261714565995,2.125009375795091,1.7934359155553072,0.936236374683576
398,0.07078099967396446,-0.0015113152539292726,-0.007927166643196124,1.1037496444470805,1.089940503874098,0.7540337648319335,2.4970342853108862,2.488762996819033,1.1779488540710414,1.0131559442638822,0.6528756675646988,1.3192589597837323,0.9665782759090907,0.7154660829106234,0.9501493626073789
399,0.32414985034538674,-0.029979393175563182,-0.01749433090114346,1.275574943049986,1.2793919520485666,0.8392395136425984,3.1703508848456545,2.8645515576153273,2.256213973740874,,0.5783247308855777,2.0250375350228627,1.631052096268083,2.074721515753175,0.9484952910609405
400,0.14316100840275015,4.469303137616745e-05,4.4955448970068757e-05,1.1565624353882142,1.1245043820889828,0.7345344293850892,2.9855633832412733,6.478787409912157,2.830070502001211,,0.5883313578629602,2.17722589082953,2.8334094032667254,5.703782474656201,0.9513265593520385
401,0.24224608180828985,-0.002616062600790503,-0.021825273900312095,1.1640157726991969,1.1257957957731448,0.8116732106470794,2.5628464543115665,2.691306175382619,2.307379691625253,,0.648888643467878,1.7749679065882182,1.589254872282576,1.6581477714438828,0.9460186988610294
402,0.0,0.0,0.0,1.7856728901028582,1.75859249129702,0.9151176079279023,3.492426835796399,20.063706400420866,,,0.6425374456860184,2.6127400212978853,inf,,0.883962345352653
403,0.0039101405298653915,-0.00033887884592166727,0.0,1.7603002171468196,1.712285819270743,0.9171796352298435,3.9298454063458177,53.45392321555732,,,0.6357360191111145,2.44941081410316,inf,,0.8670609241039263
404,1.0088181941541532,-0.10813525194817021,-0.03914502324616352,1.3245894253605057,1.2553828440359103,0.7398142222462332,3.4905344891304066,7.466289917092324,2.536481926459925,1.3931079065160494,0.6528756675646988,2.4741645532560983,2.4876805766707255,1.2583340135448233,0.9381937739683606
405,0.22952006994529,-0.022186940094711366,0.0,1.5995852079448567,1.5342481997704522,0.7611671141954902,5.189198950660501,74.5486833094549,,,0.6284777104787076,2.4779972414870652,inf,,0.9286385639664574
406,0.054357173249793736,-0.004710955014982124,0.0,1.4880217448784425,1.4344835624440295,0.7985836164659881,4.401851241324158,80.07068822461416,,,0.6619902821573977,2.48530672980934,inf,,0.9079467578163571
407,0.05280958209114884,-0.004576830447899566,0.0,1.6289493484527562,1.6190846194207344,0.7882704794285255,4.4425989757674635,104.34457127011864,,,0.6425374456860184,2.474824314446488,inf,,0.9024555085202832
408,0.0,0.0,0.0,1.7579886639601559,1.7201184652777706,0.9181476391003913,4.656145068321157,523.8962911786351,,,0.6425374456860184,2.9311937524164198,inf,,0.8516331272817794
409,0.0450404006487816,-0.004203770727219616,0.0,1.2467165950337808,1.182287433736984,0.6721844823064768,3.9387877830924674,10.598150290032397,2.609789933323574,,0.6547956803312163,2.397506459507167,2.6164677358546036,inf,0.9034414507883226
410,0.0,0.0,0.0,1.7781796816226394,1.7825686657178057,0.926532152334564,3.96022607772331,210.5577027510444,,,0.6447042257417027,2.6127400212978853,inf,,0.8392467720259363
411,0.0,0.0,0.0,1.7841136028336286,1.7656818956939067,0.8797377127232877,4.184204898728788,2.0570689632204147,2.1938856760707046,0.6897970936746634,0.6068309995095971,2.8134107167600364,2.200563478601734,0.6964972674452273,0.9064952877955162
412,0.0,0.0,0.0,1.777461101843521,1.7448411919834284,0.8800336633459847,4.179774151276845,96.52099455185284,,,0.6233814453054027,2.8134107167600364,inf,,0.905773009805105
413,0.0,0.0,0.0,1.5153051188635378,1.4853475236255347,0.8058889287191736,3.968204700232515,74.41482321959492,3.2547576367559676,,0.6425374456860184,2.445685936634719,3.2614354392869966,inf,0.9226657276780313
414,0.05592961346516474,-0.003915072942561532,0.0,1.2084050648192206,1.1408713021508623,0.6250979997463799,4.083565371391233,25.374960002894078,,,0.6566669596287297,2.6928332352973494,3.014288140624366,inf,0.7688123884937172
415,0.16398934405518079,-0.014759040964966271,0.0,1.0714243566399015,1.0476021262170157,0.6582216569820996,3.894578298046373,29.97882534710923,2.55801425401567,,0.6447042257417027,2.449282138815071,2.564692056546699,inf,0.8999657281048605
416,0.0,0.0,0.0,1.7787204831262058,1.746878955053847,0.9169249485963608,3.98705258732926,181.07855554197414,,,0.648888643467878,2.6127400212978853,inf,,0.901154962968004
417,0.0,0.0,0.0,1.3172212187343912,1.287637230338715,0.7178008293636252,4.178676702680933,19.71626587801072,,,0.5748741956352443,2.4079456086518722,inf,,0.9210780907120681
418,0.15882914846140195,-0.017471206330754215,0.0,1.0838351887444126,0.950446235421338,0.6595405781620367,4.213942672742296,64.63295726843597,,,0.62595550513784,2.25421829885634,inf,,0.9371409869486456
419,0.0,0.0,0.0,1.7792775883815046,1.740566036318093,0.9034705153369913,4.331117285919736,104.145773049338,,,0.6509067234006624,2.870569130599985,inf,,0.9001702047669754
420,0.2867091483790692,-0.032582646527672274,-0.03682544186394356,1.0561439687920902,1.0204584070625957,0.6557130571950005,2.8676672554560527,2.036275751528561,0.8825670524605981,0.7722383415844993,0.6547956803312163,1.2734816819370245,0.6931074783266895,0.28868834852112235,0.8840580606856228
421,0.0,0.0,0.0,0.8435889457438623,0.8397605517235885,0.523319359557081,0.35234060882047813,0.3181079458323559,,,0.585052858160615,2.70805020110221,inf,,0.9023972890585503
422,0.0,0.0,0.0,1.0204679578612597,0.9635560431131526,0.7606805395156181,0.48626726157192635,0.5066571406103456,2.9411000779009258,,0.6468212168108125,2.7593434954897607,2.947777880431955,inf,0.9409568518391234
423,0.051083256730853524,-0.002383885314106498,0.0,0.45711687490834657,0.4352534319527772,0.5353839067273043,0.2987251122312966,0.3039976990868509,,,0.6684167106117298,3.103812533748989,inf,,0.9391665234983063
424,0.09008316526255565,-0.006606098785920748,0.0,0.598652759157524,0.5285884785241624,0.5192719885696714,0.4091893065524192,0.3020453660243816,,,0.6547956803312163,2.671236227979494,inf,,0.9226825736919501
425,0.2274414359434018,-0.026534834193396875,0.0,0.5934247308654913,0.5037691314630476,0.5205874381157933,0.44574840782202774,0.304426389370093,2.3628467731381257,,0.6233814453054027,2.238984511584451,2.369524575669155,inf,0.9337348380200705
426,0.020207889326915144,-0.003780619134942613,-0.0022143880320422125,0.6679109679191518,0.6442187149203636,0.4930616328334992,0.6988367226401526,0.5071126039516138,2.167398548327329,,0.6180765742263259,1.2284552538169338,1.6163696891232606,2.8656465198668033,0.9438374324947604
427,0.0389907845648728,0.003951076946484396,0.0050245182765579245,0.6977963545111577,0.42168347806909967,0.45339505290389176,1.87193256984514,1.2182527532382073,0.3111819186085447,0.20196690146177113,0.6153451465759925,0.6381540722659056,0.24102821846664751,0.12913235995477604,0.6962860633971768
428,0.0,0.0,0.0,1.7421374666301834,1.7317987214635746,0.8964462521760761,4.400080827042067,1.7097261565918789,,,0.6652988471865258,2.5682882587270512,inf,,0.8853620706610945
429,0.1214713350593627,-0.011337324605540518,0.0,1.7877595880775237,1.7785090750781645,0.908984497996459,4.258011060135306,240.336587997169,,,0.6207552362147116,2.4067118022029437,inf,,0.8493127634961741
430,0.0,0.0,0.0,1.2543623417268406,1.262772316651625,0.7137271077528398,1.6999721903462583,0.9438278374067068,0.15366484754415025,0.047943207502268624,0.62595550513784,0.941608539858445,0.16034265007517937,0.03380929436999048,0.8680299346467998
431,0.022100728083021423,-9.027993405474194e-07,-0.005569325610772218,0.1469052641087327,0.1253115633308021,0.08573361859000159,0.5330348775635922,0.7597502855525029,1.1989611348301303,2.2801044950424614,0.6038851895711802,0.8350948432156267,0.9178286022272302,1.5340527921292757,0.9509242020131009
432,0.9574793271400321,-0.23374578926481265,-0.031156824577262945,0.16656787659450742,0.12651924640407436,0.3286368044535275,0.6387235935880624,1.0492899306158971,2.1139410005035644,,0.5915533975974677,1.5188357677518194,1.9996447745250683,inf,0.6991888377278445
433,0.2570233062372522,-0.022906893647092325,-0.01373677955113685,0.9261566557437888,0.9211198630766669,0.6719042176837433,4.455620563183381,10.686034254498924,1.5328934943675228,1.8678714823445237,0.6447042257417027,1.7262214477574003,1.2499260871601683,0.7708319526915773,0.856088433082193
434,0.1127583245526902,-0.01165169353711132,0.0,1.465373342768665,1.4324832020268028,0.8412413599573659,4.802761699666622,97.73532400184584,3.388705609265706,,0.6619902821573977,2.3117379641249802,2.7022362312367902,inf,0.9148498974006344
435,0.0,0.0,0.0,1.347140271946975,1.2793960025289681,0.688268407949176,4.56794674407234,129.14892921018244,,,0.6309483474627791,2.6127400212978853,inf,,0.844568889171843
436,0.04251887186301231,-0.0068030194980819685,0.0,0.7682792310732259,0.6909846746244347,0.5261057406639753,4.170237209311169,20.98735543929049,3.8361850933463923,,0.6547956803312163,1.864258480044294,3.842862895877422,inf,0.7388290087166666
437,1.3190749371957053,-0.17587665829276072,0.0,1.0518255964890366,1.0141843197539013,0.5310332632801777,3.8590175337488577,28.51381755793281,,,0.6357360191111145,2.365643228961183,inf,,0.9114719050596333
438,0.911457597785548,-0.11947802338982903,-0.0020496563149107103,0.694373263981246,0.6712730523792434,0.5222786813780689,4.105982546069711,42.111913852226344,,,0.6468212168108125,2.251047384033726,4.068921230046292,inf,0.8702742534125223
439,0.002283676520624793,-0.00018269412164998342,0.0,1.768001852951377,1.734528127022596,0.9010743590393651,3.7281325756092,27.804717964740043,,,0.5915533975974677,2.5279533393303666,inf,,0.8846699265978764
440,1.1651444906971846,-0.22147090584412132,-0.06204758689219359,0.5706137201666738,0.48625538115199074,0.3502362367502448,3.9880842410679223,39.46711953731864,7.758891278566288,,0.6333676938231112,1.6960857191597725,3.9977464246432604,inf,0.8730426144530604
441,0.28407541272476566,-0.01952355731812193,-0.023087754590592924,0.7400731684814434,0.6903049631894536,0.5985803757078926,5.323497410402271,7.903630417913729,2.58051154157733,1.1019288931410172,0.6357360191111145,2.0146530517870573,1.9551167758534127,1.7407016351665276,0.8323508758737654
442,0.02372722383473254,-0.0017399964145470529,0.0,1.1225131530242067,1.065252929658474,0.6549305452215487,3.820105503800714,8.977849917078533,,,0.6284777104787076,2.6313978495811274,inf,,0.8376373677149098
443,0.23860168067125026,-0.016702117646987518,0.0,1.7759548523257487,1.7476413284676995,0.896175513439478,4.079622665052982,95.7978016381683,,,0.585052858160615,2.7077169233120895,inf,,0.8555819384159595
444,0.0,0.0,0.0,1.7655826803309798,1.760574352081535,0.8935920422144912,3.875394777859075,107.00762100140035,,,0.6468212168108125,2.17742195004004,inf,,0.8599425210098628
445,0.43971698916780727,-0.03957452902510265,0.0,1.7749563833820545,1.7793729723645664,0.9022595394697509,4.361159956873649,23.616235153634165,,,0.6097226960127671,2.6063965473757102,inf,,0.8789144287732148
446,1.0480331618359473,-0.1467246426570326,0.0,1.7540341734141565,1.7241504476080807,0.8851700301401523,3.9997105967105195,58.36281489849293,,,0.6097226960127671,2.569158202235591,inf,,0.8685655644909004
447,1.1512783441564538,-0.14199099577929597,0.0,0.9188122664499141,0.8856115391019947,0.5191701400817109,3.509650426478253,67.79403127942827,,,0.5883313578629602,2.696945421370104,inf,,0.9210788330168047
448,1.2482039447947433,-0.16358639167145445,-0.09567433472186174,1.2852456713386091,1.2406394829968417,0.7355816562852663,3.695561894110199,7.7723491980574355,2.604151160681201,2.2982350965684355,0.5883313578629602,2.049149459270856,2.3005175526296897,2.213710850953265,0.9467515839221728
449,0.7274293549554726,-0.09699058066072967,0.0,1.7744000871680345,1.7348012199314582,0.9288095140916727,3.9228178624619874,81.73291936637656,,,0.552929491858785,2.4786595370275335,inf,,0.8981195981854924
450,0.33147347819750034,-0.03847613153401414,-0.0001957742556942234,1.6345868005849025,1.5890127763036317,0.8606481237795395,4.191680240999554,28.826466298482128,3.4677938705362705,,0.5490601803369085,2.3724116452295747,3.3932462331447137,inf,0.9061303274042244
451,0.15676144084262983,-0.014108529675836685,0.0,1.7537164450449474,1.743716800649127,0.9254071443019376,3.527702654814937,28.348904527836147,,,0.5567373465730988,2.5018493705183125,inf,,0.9018175977970028
452,0.3671596313197592,-0.025701174192383144,0.0,1.7588579663053174,1.7162083191137167,0.8634855059123638,2.8364299211553607,14.745017183365153,2.9053819952988467,,0.6008849035917525,2.7950615780918397,2.9120597978298757,inf,0.8635115651037599
