,eda+bvp_XAp0,eda+bvp_XAp1,eda+bvp_XAp2,eda+bvp_XCond1,eda+bvp_XCond2,eda+bvp_XDist,eda+bvp_XFuzz1,eda+bvp_XFuzz2,eda+bvp_XK2_1,eda+bvp_XK2_2,eda+bvp_XPermEn,eda+bvp_XSamp0,eda+bvp_XSamp1,eda+bvp_XSamp2,eda+bvp_XSpec
0,0.044234229107583636,-0.006770721886552845,-0.0007490970617363737,1.1933950487167932,1.174695300422293,0.8088260762451123,1.1870983516849034,1.52219128689339,1.6325743726134976,,0.581717464821069,1.7999932741551585,1.5276439043989685,inf,0.8238106015364406
1,0.21142710101935872,-0.011657493268301063,-0.020056571884602744,1.0595600432436827,0.9821043342967379,0.6864922260744816,1.1434398389035825,1.1475935212223827,2.3515350881100523,1.3575407066344694,0.6547956803312163,1.9880176917608827,2.303965131367066,1.418488639679049,0.8256692028018117
2,0.03299176930320082,0.0006158600856567484,0.0004985334757874466,0.4593623789878373,0.3997873840575834,0.3465714575258424,1.4225291347700852,1.7434005914385664,0.7556401696302057,0.752983195651436,0.6468212168108125,0.7873846026413146,0.5437904592574964,0.5378254876726911,0.9257465430713397
3,0.19925432642155805,-0.024541071993555163,-0.023589986442712006,0.7099327184374518,0.6557922250553466,0.5737076729079589,1.7670260884045466,1.9119394747886154,1.601433426171641,1.9287079859792218,0.6468212168108125,1.4873186129613194,1.338014748755623,1.8778172326313527,0.8559580904257127
4,4.125224260750343,-1.3996516306497786,-0.44687673667163086,0.9653761246650187,0.9320660885001717,0.7056802103692207,1.950299370234464,2.17450637768679,2.2107494821227096,1.8056785826602266,0.5915533975974677,4.605170185988091,2.0402208285265546,1.3281867303126098,0.9460622767253404
5,0.8710947099094826,-0.19625063778991578,-0.06922639374587741,1.1348938249258604,1.0833642941001584,0.8230799601250608,3.244015911431534,2.222143417612913,1.224882958313736,0.7503043900419004,0.6699045166045591,1.5495979120780834,1.0512434825086827,0.5451971063291684,0.7982662590569172
6,0.59512713963386,-0.05738031776178373,-0.07682753639849567,0.7783310323787238,0.6936989025928512,0.6320084580973573,2.6889031858289023,2.749854582609698,1.6041079068941264,1.5317889826021824,0.62595550513784,1.3636200440810184,1.408968678158763,1.4858446285152145,0.8572908461157016
7,0.27203159976470337,-0.023009925925617722,-0.008727094046931004,1.2449251496250742,1.1984387685148963,0.7884106958682948,2.5399282100490144,2.3325905594902063,2.1208128880935195,1.3217446543625522,0.62595550513784,2.254535944049333,2.048063556993227,1.407871961764438,0.9121178891638426
8,0.023492237755230426,-0.005671525842058212,1.9219645944719486e-06,0.604919043726881,0.5562664582391872,0.4090595365652698,2.5147973595524626,2.4706905922708438,1.2095782960554122,1.7124344768885622,0.5978297680564633,1.3887863524415396,1.06333047452347,0.780182018235332,0.644099776910473
9,0.01618027829692135,-0.0023843699840903664,-0.0014988968071707575,1.284756968065681,1.2599049460108225,0.8675507843311364,3.431082303784054,4.82586446877516,1.3701908903734097,0.4893121854866183,0.6380535849069913,1.439695137847006,1.023319565524896,0.6083994298198373,0.748428739438536
10,0.0,0.0,0.0,1.1032743552568725,1.0852210302378382,0.7778621470789426,3.1292810498723727,2.3195332561240276,1.0671025104358989,0.9774791661264444,0.6357360191111145,1.455287232606842,0.8845383133283996,0.6625957157695459,0.774467664255602
11,4.91014891987441e-05,7.463307910509765e-08,-1.120430396415376e-05,1.1527306711988623,1.1558247176396081,0.791074722783587,3.4243047554979897,5.6068302759059865,1.4435310608614675,1.3829442742346088,0.6309483474627791,1.4843237902894377,1.1784344216210656,0.9682717092166585,0.68430600894053
12,0.04174473687285692,2.7925167421021316e-05,2.807504901523178e-05,0.9647382142280254,0.8849534967022161,0.7134545617723079,2.8112295038399417,2.1450088607941677,0.982307521679651,0.9452988286554914,0.6584896970785714,1.2845804863822619,0.9251216124650702,0.6087211597362485,0.9037924372132649
13,0.0,0.0,0.0,0.8063638282088026,0.7498527609361643,0.6588077013582881,3.3282316782759227,3.010256207835021,1.8684632756360768,1.3829442742346088,0.6380535849069913,1.7525387560747736,1.5566873470485714,1.014950998563762,0.9293811635091745
14,0.0,0.0,0.0,1.2301735946296102,1.2054966329654608,0.7892314954988621,3.8778697978112486,17.39256800134753,3.4931686602009657,,0.581717464821069,2.2072749131897207,3.4998464627319947,inf,0.8972032644804183
15,0.0019528554093734367,1.7343727123825844e-06,-0.00025560557593092936,1.17581640491983,1.1742448547848892,0.7778838213269343,3.6782349532486496,13.671149448425545,3.6189912941332194,,0.6309483474627791,2.042102940468919,2.5912381224858683,inf,0.8743208794560365
16,0.07381262537121448,-0.01073721801572633,-0.003844130594743732,0.9763139749489657,0.9701162642333284,0.6045304681580962,3.048791693739805,2.144884979001936,1.015914178842672,0.7083162842657114,0.6333676938231112,1.4097222182951283,0.7527145335554271,0.5366537078801827,0.7580894680494554
17,0.05697697949274739,-0.01671324731787257,0.0,0.9435135483684933,0.9114337456632473,0.6985720280247959,2.2788032953980046,1.2303766481479754,0.7250971862601873,0.36109540281495994,0.5883313578629602,1.2378360425593415,0.6626228435920544,0.25466451516618804,0.8731844498034266
18,0.2512675694212905,0.018226729424901777,-0.025954527916027162,1.045019425978761,1.0095358061106519,0.6898147774697555,2.0753337512704686,1.3556830304901477,0.4897880882060383,0.4291465280431715,0.6333676938231112,0.9594882308574783,0.3831508200412654,0.25223871020402705,0.964413464735513
19,0.06292930536861005,-0.006284945894379279,-0.01656899416933546,0.6539087940507252,0.6192872644193886,0.47983048698930547,2.061697612077535,1.4751275116965794,0.4168728588794623,0.24766265646122604,0.6547956803312163,0.9449474411239596,0.3187360509315771,0.19069938769688544,0.7689890809528942
20,0.014206057858514032,7.967596258019564e-05,8.169261468933889e-05,1.101636350531871,1.076461928139875,0.6933092315948165,2.0825402259958747,1.6956824887747657,0.419123783211221,0.26858362859835966,0.6602640781246099,0.8505029913361519,0.3774969063464764,0.2461304227256936,0.8346000859400141
21,0.21222481606314514,0.03521932587632125,-0.05244931082551721,0.6493787521305844,0.649468818439876,0.3370527644473172,1.913134026419552,2.0729386167092083,1.0449109235422298,1.0087331812733351,0.648888643467878,1.1588224130671358,0.9071107785879077,0.9280228824976915,0.7173305695137231
22,0.009215085964397195,-3.800039397182549e-07,-0.0032249000835993004,0.9947307434630518,0.8839870775096977,0.6854601337324322,2.911672679817151,2.9761347161028096,0.775171814599891,1.069141518152298,0.6333676938231112,1.0557443884409339,0.6192399603140407,0.5697512112522964,0.5982674797078349
23,0.0,0.0,0.0,0.8782330446589975,0.8342907292669796,0.6296943185433653,2.4865523392721123,1.5880382618147153,0.7005464919197529,0.4580681830962325,0.648888643467878,1.171182981502945,0.6647373835108796,0.3192030363037592,0.6752629750530101
24,0.05147398691352824,3.24454027399515e-05,3.262562148395598e-05,1.0183761805828488,1.0041655338413247,0.7460881059791223,2.092226679296934,1.7628865819019235,0.9803020247571024,0.8375028144879841,0.6008849035917525,1.3860277300024597,0.8239781816984927,0.8599710954949384,0.942527542703311
25,0.0,0.0,0.0,0.9821639011031257,0.9259821407687365,0.6431747412194718,2.7217598300307024,1.75257511542486,1.1075434799944095,0.9899016861250014,0.6008849035917525,1.297063227391948,0.8836976239136063,0.7571218892616621,0.6201101091795252
26,0.0,0.0,0.0,1.010010666299668,0.9482454564235048,0.6813923602974419,2.2918557694464163,2.8060050632692812,2.21586458278948,,0.6068309995095971,1.875141078167106,2.222542385320509,inf,0.9028371137627457
27,0.40435072977600545,-0.0352398735301839,-0.05581358956367426,1.0905948265508212,1.0723722137201992,0.7315519541532645,2.6893677416592694,2.2159497277035927,1.3127164677750405,1.9014466574748996,0.6403206450210053,1.3172659347094675,1.0431837037297182,1.2147043836852967,0.9378040785898514
28,0.05781342039385982,-0.012526241085336292,0.0,0.44615507142472144,0.40122629123318226,0.5166610503232253,2.207628274447102,2.299882704227503,2.065242761763795,1.3941686697741136,0.6038851895711802,1.5445348744075502,1.8600014085201197,1.6127879993193823,0.7892953488010168
29,0.2647797563240238,-0.0289546328252884,-0.04489966641567765,0.6440910916199964,0.5044827337215169,0.4366940272473323,2.2534164526557707,2.068705516848639,0.9951431121909308,0.9475188175693838,0.6233814453054027,0.8648057891856467,0.7700069129131487,0.7433344111176713,0.8103560661615773
30,7.856238271799056e-05,-1.1055037805943565e-05,-1.120430396415376e-05,1.0656259410564357,0.9535636906589933,0.7192389588272283,2.351657257383781,2.2183794904601974,1.0147860840233383,0.8171659825346832,0.5783247308855777,1.2612096526143346,0.8350842061434443,0.5231351506909031,0.8581429130474189
31,0.055001628543258414,-0.006218309373121506,0.0033234516079096218,0.6312374018708281,0.5864534152665891,0.5469502799233311,1.9239183227159575,1.9378163267349766,0.6883716042064674,0.5865086282079897,0.5713653840954815,1.0475390184841091,0.4938768639475329,0.4121568829590169,0.7018364407027343
32,0.16287135436893932,-0.014239328872597667,-0.00302483696524624,1.2071412528634753,1.1818855041519445,0.8079534365106867,3.8714208871297817,2.3495727441050547,1.3836189750228762,1.0414115583003285,0.6566669596287297,1.465866809012522,1.1598356507409346,0.8387897722810125,0.627160349706348
33,0.15405097239926646,-0.017096736121856998,-0.008578425944687414,1.3314789539263223,1.289285135564735,0.8844966807450367,4.462681838771324,42.34017530630035,1.4707935267780654,2.3930238102963504,0.6380535849069913,1.8332761494309886,1.4689812843762633,2.408214028999746,0.8343805771742329
34,0.020775756797797515,-0.0031144679428861304,-0.00027890566742079715,1.4237813536803934,1.415316135716927,0.9311284249252886,4.936158114849663,7.415758896510084,1.48501542883486,0.9990876574417025,0.6584896970785714,1.8266960391089513,1.3216695475371696,1.1758115150409862,0.7216439737798492
35,0.3265389205050504,-0.05419001158019066,-0.008714266980955962,1.0128679153983935,0.9856868962361529,0.7151280474960574,5.4224596306355615,24.82644541571574,1.1181422447644307,0.9779476697524949,0.6584896970785714,1.7007007382810884,1.0521725064294427,0.8053678865613104,0.7693052309292493
36,0.13454828260998247,-0.01425873174259718,0.0030330947489727225,1.294277695031745,1.243833041239453,0.8711314918554435,3.7099920105371424,18.813383724630203,1.1101800461631004,1.294425810363022,0.6547956803312163,1.6263015295216483,0.8876907011614485,0.7341979818538792,0.7691187244282925
37,0.0,0.0,0.0,1.4057667671202128,1.3965560147252452,0.8826954802272237,4.178116884671917,28.444521424242048,1.4556106255347965,1.366630735075925,0.6668815377411301,1.9425823589626385,1.2796323671710768,1.1019623755533916,0.6397864497064099
38,0.09251880797727412,-0.004490746944909793,3.947405430465914e-05,1.269228950951701,1.249585314950334,0.8637723699205445,3.9103021336509696,8.333411966730488,1.3960504858708305,1.2324431042120763,0.6602640781246099,1.525760791607433,1.1690441827447564,0.7818346024768245,0.7851660250701379
39,0.23227101992407514,-0.03389897745563824,-5.483807447075701e-06,1.432058359085127,1.4196927514878828,0.9077513462643474,4.505038374915942,58.04075162961931,1.7061565334539193,1.1512726877423949,0.6566669596287297,1.9658747894749102,1.479622851083825,0.9838535661229683,0.7678177988720349
40,0.3493485533602902,-0.009806431086970047,-0.011046127441074902,1.0602632127578577,0.9936666422468965,0.7531761296843841,3.2372599645125795,3.5662920452889004,1.3413324018831168,1.9935689282088565,0.6333676938231112,1.5520079305338241,0.8976602838281573,1.0148240176724876,0.816618819892823
41,0.3235304021170834,-0.006091643751988257,0.016593454888462117,1.0044275334675634,0.974607017937982,0.7219386022569075,3.070903817590035,2.308249547628694,1.1087865173116582,1.0331684844956297,0.6180765742263259,1.3471591217048553,0.7690386169889907,0.7931529858001215,0.8731603850579629
42,0.05614236984104257,0.005729301372366012,0.0043119553958834225,0.8675765914825785,0.8544155880218129,0.6256105342189248,3.1426067071571637,3.649528353296457,1.1018964030511875,0.8568518129791719,0.6380535849069913,1.3511846506731315,1.023851667979214,0.8826380862576345,0.920263649293173
43,0.043613688419910916,-0.009239804629672901,-8.586386504615085e-06,1.0476766394679655,1.030224726258178,0.768137974781703,3.1577414688523335,2.798899525840669,1.1345453734043507,1.1300074808731868,0.6468212168108125,1.4866304831725534,0.9324884260774438,0.5972696892296545,0.7310598568690526
44,0.17186615888378654,-0.0014983020329787794,-0.019456247187050475,1.1482972034549992,1.10326727635894,0.8085600556870156,2.843706183600251,3.1118084917644357,1.0943181453493587,1.2483965180710244,0.6468212168108125,1.6060547528887386,0.858526530438016,0.7223114956883954,0.9212838882001896
45,0.33106508308581184,-0.037430059943513797,0.002159331311309423,1.1462703290203191,1.10171537053747,0.7643733969029288,2.631316307707576,1.3333505405279196,0.9556004180483131,0.9988146446400157,0.6447042257417027,1.2904590666871358,0.7883604462704623,0.6112270637050371,0.9129151666686056
46,0.0002306556281614396,2.297077721049371e-05,-5.5907452445819015e-05,0.9399766300633755,0.8834347635941462,0.6396537144244159,2.3227202985785373,2.54778244302626,0.9362739261568976,0.9536443427547106,0.6284777104787076,1.2381042674867087,0.8588225885341467,0.7809236213216375,0.7442256450535306
47,0.440288268511661,-0.04634278787686516,-0.036523160341288746,0.5189161107455827,0.48213460779477746,0.5407804382007323,1.6182342710319793,1.7431766595779206,1.5028179878832855,1.23962297197678,0.6068309995095971,1.6173580832352403,1.3859584336770585,1.0977170334605983,0.9185868596660247
48,0.19303000215090496,-0.02063858043798212,-0.020086581145902144,1.0840898211316121,1.0934913691259276,0.7675073079784952,1.6282257445741006,1.8010769125836754,1.7085806332756317,0.8457899099639263,0.6284777104787076,1.5764868122944145,1.2727430022705752,0.9574326752053303,0.8695710849195363
49,0.15642172666088333,-0.010697057226582658,-0.0012513402292186268,1.0281968931730041,1.0095954420289424,0.7755350284645777,2.9797471009265006,2.188517049812512,0.9201593712117613,0.5559807506642356,0.6125606311107803,1.3593279128900762,0.8486543210991032,0.43803257619357794,0.9260586014103882
50,0.3019919665232616,-0.007366935709440574,0.016682683710244034,0.9833575266807234,0.9792525099046717,0.7250349778529886,3.2626132603306486,4.842376392404395,1.1348610948509084,1.7934697739660874,0.6547956803312163,1.676884361201643,1.0405430017131638,1.2080186628454797,0.9537431610632912
51,0.49094823315279723,-0.07059075759101836,-0.0014149832713919051,1.0828931365916974,1.0807223500710903,0.7419091092924713,2.9670281461178063,10.911549178640318,3.59943785379501,,0.648888643467878,2.1010057195956766,2.6434265337259224,inf,0.9639305294309637
52,0.19930972920071965,-0.008253333905086369,-0.02873105046568439,0.9098413758324565,0.8768928387933508,0.6598156997484913,2.7817213785077715,2.3798747651110492,1.76826414369021,2.4653975177248553,0.6509067234006624,1.5437542139291724,1.3655965105647951,1.5755703333425468,0.7716596451936677
53,0.04991286193099262,-0.002681613911966375,-0.00515324913397455,0.48452274582591054,0.4423260067337617,0.5363172097753701,3.3269471189453013,5.2792111048849995,0.8525061461083362,1.064699551372661,0.6425374456860184,1.3819925162260367,0.6914227753838963,0.5492220316441468,0.925989891004263
54,0.0033763251258139737,-0.0006077385226465153,0.0,1.1305264106143764,1.100912273906469,0.7747596861351674,3.7095979077876886,5.439173601073303,1.6799688597350413,,0.6468212168108125,1.7178896206615997,1.6866466622660705,2.3059351798793277,0.9239544063372231
55,0.0,0.0,0.0,0.8823377624217535,0.8435315349095552,0.6843543831688772,2.981344414459184,2.8639113522453163,1.4847381541643183,1.9425600621700312,0.6097226960127671,1.5766480896111095,1.357884564070825,1.6773265204569536,0.9348805577169625
56,0.03641205593769454,-0.0001942670128636994,2.394803974355153e-05,1.0300081742250768,1.0028915218966838,0.7308829853578104,2.893946218705409,2.312292585469422,0.9966034031042512,0.8233284862991859,0.6509067234006624,1.2381042674867087,0.7543851582186559,0.42053076528252614,0.8372088578227054
57,0.001953968313048446,0.0005635639688802732,-0.0004887590607413037,1.1021805674227618,1.07469334875608,0.784157578889922,3.1503565631911874,3.357272327512018,1.0822631947582901,1.6060878255488185,0.62595550513784,1.216982996970241,0.7601426592379937,0.7468845644727046,0.7791504512757843
58,0.3599399110765654,-0.022579477290186084,-0.05561227433403705,1.0334298604638559,1.0102654394861754,0.7533353388648831,3.1111015666541246,2.702724974577935,0.9187240346322991,1.0518050733015745,0.6447042257417027,1.4139625073340139,0.6814277641209375,0.3288603844597027,0.95167238929649
59,0.03479993077838534,0.0011061926550266542,-0.001967375106071055,0.6919622403597623,0.6494297848367256,0.58701371607567,2.232575401634307,1.8390801334372013,1.3162880360068165,1.0668046138665876,0.6233814453054027,1.5222413674039452,1.0371015135370727,0.7079065282113987,0.8645258668677156
60,0.05712836783227266,0.01620337403782788,-0.006132895015621982,0.5564279434318565,0.4825949056313383,0.4744341921492661,1.7775652731724372,1.3887484186949597,1.0030337287286255,1.3863146427505848,0.6425374456860184,1.009869078833721,0.8797237507430969,0.9094767699125605,0.8480653494663916
61,0.047222871898467494,0.016010637716947725,0.009875206462713233,0.897099850826512,0.7962615159525638,0.4965580209796365,1.759566820290495,1.3681706168143675,0.8396742807736748,0.8383507642808375,0.5713653840954815,0.9280259880925761,0.6712965906004313,0.6186150402407535,0.8090152750990935
62,0.2514055533120059,-0.0045217280557934975,-0.033438298121574894,0.9536518817324535,0.9150087969104584,0.5997621981250769,2.1041491889633006,1.8176185310335096,1.2962193646809932,1.4341040392692632,0.6097226960127671,1.3600203437828482,1.1271555454491953,0.919034034253656,0.9602916285114479
63,0.5551528956067044,-0.02386871371711627,-0.004479103704242204,0.8508414133358628,0.8186998577748538,0.6397146457469892,2.2422660111825468,1.634245425027249,0.8123719912112435,0.7917795069266074,0.6447042257417027,0.9167074853704975,0.6007591485247927,0.4545365523317537,0.918469570412602
64,0.02549867711025905,-0.004164783928008978,0.0,1.2156939733356582,1.233514703406121,0.8074871525205749,3.2059380192714397,9.78627367550701,1.2345203762050987,1.9444781867029495,0.675384900321601,1.826627004557131,0.9901226134684202,1.507427483661556,0.9562944801379453
65,0.1004925885710588,0.007017843474220048,-0.019966391112159237,1.2110149834436692,1.195228953368365,0.7910672751458646,2.716952750547223,2.3148421233786536,1.0731088964269464,0.9858445759365382,0.6125606311107803,1.171577324478892,0.8734413199679963,0.8943332956709951,0.9067074381373693
66,0.19775659594522946,-0.03557552266132754,-0.019045338776732902,0.938777565403182,0.8422200952124761,0.6178178056071606,1.7765336606942685,1.316598803312728,0.5844109096707495,0.41243167808668424,0.585052858160615,1.0217438444115328,0.4517073588229806,0.3056553198702262,0.9355727050554543
67,0.18787952482378922,-0.02129301281336278,0.0,0.9452267241519132,0.9394027880004338,0.5999000460095679,2.4698391768186396,2.830645763325097,3.4459076293413533,,0.6180765742263259,2.254535944049333,2.7594382513124374,inf,0.9285132245539915
68,0.0,0.0,0.0,1.0411939106284662,1.0037503153468017,0.7100932178574184,2.090472959807734,2.8586212686153436,1.670637532306157,0.4021150212228825,0.6468212168108125,2.2380465718564744,1.5231646550099278,0.33982232350649494,0.9248475538896637
69,0.12766160688409947,-0.009604008213012011,0.00018807577652441357,1.0183931036275473,1.0174562762719228,0.7269026894223787,2.575341211356908,2.4499979524629825,2.341587032218056,,0.6097226960127671,1.9725621800527398,1.7943989428660279,1.988114646124984,0.9331917896048156
70,0.1637104132716147,-0.025102263368314254,0.0,1.0776185185764744,1.0569363194209285,0.7194788709136883,2.6585932512518524,2.378406746518277,3.0668856621170906,,0.5915533975974677,1.962389637432426,3.0515845579293446,inf,0.8141454388852096
71,0.004956192683605348,-8.36800913858694e-06,-0.0006524576820087928,1.0894259566196132,1.0280330089303054,0.7122028626633051,2.6773854291806236,2.806806788862001,2.9877157827373653,0.6897970936746634,0.6125606311107803,2.0195806100933757,2.3483239893569507,1.3425668633566712,0.9421743120297515
72,0.0,0.0,0.0,1.0999833989371117,1.0946165346822074,0.7133247742582478,2.9051109377895488,4.768321890725127,3.757861214428048,,0.6125606311107803,1.9425823589626385,3.071391836399132,inf,0.9476444852500023
73,0.06710234538859598,-0.008723304900517478,0.0,1.1307258083819867,1.1241733994504697,0.7400934076667953,3.748238512788182,9.502226386133424,2.9360875360773813,,0.62595550513784,2.0712088567533598,2.9427653386084107,inf,0.9282131103400257
74,2.1842927538443733,-0.7401138732674999,-0.33016536952798686,0.9424576106029959,0.8811177046883314,0.63745564917746,3.594311446440954,8.572326619675412,2.440183222370516,6.333659129957188,0.5915533975974677,1.9271974401231593,2.396979661563948,5.003946305945459,0.9573338937963992
75,1.3142291248324454,-0.3552438988468266,-0.1848877029696699,0.7324284548324653,0.6934820371491862,0.6534933286847046,3.7447067900145483,4.4756123103233545,1.8287845702308698,1.5090787372863912,0.6068309995095971,1.8993446799079925,1.69786758568012,1.3887304159177718,0.744759902705517
76,0.5480855484054183,-0.0891799943674568,-0.024091018969662998,1.1050813794529903,1.1126160312636237,0.7898693258357901,3.6604654037749365,2.9243147707835098,1.0970838978816015,0.7312508331059188,0.6740851607140061,1.8053852128098677,0.9743400249992331,0.8513046833180608,0.9319979350523457
77,0.12575576791210535,-0.023239849244967428,-0.00526479148177645,0.8037864649350488,0.7015670192075458,0.6206248365633036,3.426811101880092,3.5608868703352106,2.6868331539095016,1.4539418239739381,0.5748741956352443,1.5563185086219646,2.3272250254843128,1.8269279287007203,0.9017060441103504
78,0.0005611863143755408,4.5350974523312895e-07,-6.779586747029801e-05,0.7923774202722144,0.7721615954626793,0.5525480487093613,2.9277087538623014,4.916259319674879,,,0.6207552362147116,2.120819246133814,3.606573094161521,inf,0.9102408845564001
79,0.020661930457695047,-0.0033747819747568576,0.0,0.7560626176350087,0.701085060636352,0.5910674690816128,2.588336732501111,2.6076888471416604,2.0836435803659143,1.0952622017828277,0.6357360191111145,1.8250405237967169,2.090321382896944,1.1019623755533916,0.9458576645519937
80,0.15909190509928703,-0.018916686426511897,-0.0029558939280334776,0.6654616928512856,0.6375909429196018,0.5803899416759789,2.106969144022407,1.5916262000375316,0.6254363302893657,0.6602526448249366,0.6333676938231112,1.0216821122058213,0.4807965632067556,0.3881439446193505,0.756534183981975
81,0.24744392761276995,-0.005119512851323185,-0.04938852534628739,1.172937600239685,1.1414416051702863,0.7973448794582849,2.718216202593021,1.7465357737349625,1.049957665757753,0.5488701753195597,0.6528756675646988,1.5846911007705198,0.9809918590447683,0.520217182362113,0.7907068637398734
82,0.002968947448253096,-0.0009500631834409908,0.0,1.0752308101380035,1.038939284356338,0.7573346634539755,2.444407121120945,1.763020094979006,0.5778068660096491,0.35319221864934813,0.6284777104787076,1.1421114747809633,0.5045668905943331,0.25713060766138157,0.9220153519291765
83,0.18161085876459226,-0.0005274967604889033,-0.03806192600731704,0.6982869765306765,0.6354107030624492,0.5359576125618696,1.7131301090576445,1.8138761013627387,1.3776038105091641,2.232687779910112,0.6153451465759925,1.3936547155261831,1.0352497441465325,1.1979396035217682,0.7443166803201566
84,0.00011044325113737858,2.250312128303266e-07,-3.372615072450183e-05,1.021661357546245,0.963491217581441,0.756214672353294,2.5936866692698164,1.496939319908761,0.5961907015767594,0.6499024565145454,0.6425374456860184,1.1930328642876016,0.5252902868672712,0.40862937319601483,0.7626983404158988
85,0.02350003056293691,-0.0032865363445856947,-0.0002488803555226798,0.7630304171878853,0.708024256718416,0.5006004482091647,1.540678306170256,1.392041197711821,0.855493906679381,0.900181453435896,0.6038851895711802,0.900417382717865,0.622740901871201,0.670074271477616,0.885927385157006
86,0.10269744048529585,-0.019009434508937058,-0.0042573723107858005,0.8224942189640959,0.8008456006625955,0.406200551225176,1.3841681122706129,1.6067099208997135,1.4141547949458533,1.6743818278371205,0.6038851895711802,1.509944575054321,1.0498293094132312,1.071675587746108,0.9442893642822608
87,0.012275810555011021,-0.000857039031390946,-0.0012298487629609277,0.7797854939164041,0.7386309401887674,0.6431651637995042,2.466572714098275,2.0410105466288573,2.3082720029358437,,0.6403206450210053,1.7827336580207425,1.4654565545162335,1.075986889150131,0.9333175329536365
88,0.07195578415606392,-0.007675283643313485,0.0,1.1491397369354026,1.1223808811549452,0.6733153797571898,2.7129829334032487,4.271312836537434,2.7407217373597286,,0.6097226960127671,2.2665746554710124,2.747399539890758,inf,0.9226251444636305
89,1.9413709696457677,-0.7355767934888711,-0.2585859671446401,1.1962473136404113,1.0687072345461706,0.7742672092027363,3.8109756752695043,4.665605458451623,2.4387080890946877,2.0431825656677276,0.5604843169999094,2.277567330018758,2.374228697309389,1.9599783763875143,0.9490986476304367
90,2.047968597673472,-0.3594619547798341,-0.24836663068095075,0.9626317916869286,0.9431793494445829,0.8015950682690168,2.539930232385296,4.037817868045034,1.9157364051553532,3.2704445592216125,0.4928685327679205,2.949909470612361,1.7007230894524878,2.0474021879352193,0.9421759027845538
91,1.5200064157045632,-0.3474135337959381,-0.11872176702012799,0.922209937657092,0.8829129606974742,0.6561355847836216,2.5989735228565762,5.454523849342582,2.9635767270127413,,0.5604843169999094,2.2614431496628704,2.863855052753525,inf,0.9394918570683592
92,1.4391402108212288,-0.320804170018297,-0.13506510894192172,1.010784638164852,0.9875550905046623,0.671791543769301,3.3789809043361116,10.761748315456826,2.4900070801172616,,0.6380535849069913,2.181055996174636,2.4477240554525896,6.085637717125231,0.9509320707017106
93,0.9088009792883572,-0.14738827091405882,-0.0605180409704818,0.7373873282724619,0.6729786756013999,0.5656121140350429,3.072623303642435,5.452850363715573,2.1753299920499196,2.0135714328644165,0.6425374456860184,2.12388118311201,1.9046756385720878,2.175001440551509,0.7941055253050423
94,1.2510052574613633,-0.06692904772198927,-0.3016554528137723,0.7209045230576994,0.664233363024356,0.7114801692668714,2.6205964176453875,2.6591855619305855,1.8235639236245769,2.207604238065126,0.6207552362147116,1.8100592263994884,1.6752446645596668,1.9358090530688092,0.7470901524750369
95,0.6176107685851718,-0.03737516047164738,0.010148887407605889,0.9501843057622633,0.8972893930398846,0.6403123196571986,3.01949362914967,2.8143884908850936,0.9739272503138497,0.8659032321100495,0.6528756675646988,1.395267835918999,0.8652160810564113,0.6241045961650271,0.7067978782834917
96,0.23624866424026952,-0.015617903184400778,-0.016669414261769388,1.2630753489336948,1.2431889808238323,0.8322392810666819,3.7779951086284744,21.56696891977732,2.5058989588682294,,0.648888643467878,2.095932325854347,2.3512848943567475,inf,0.8947175793987808
97,1.680977564864197,-0.30966839279844605,-0.0657499300212246,1.3573639538710605,1.339051991538988,0.7626243023817918,3.899352277351959,10.024880568083601,2.4518800175602196,,0.6727386042041725,2.6139528777230945,2.324361754793535,inf,0.9274610694204612
98,1.3472584050820013,-0.32062880091000534,-0.04112554333317397,1.2384657492002429,1.212441106062644,0.7904535692490109,4.194864008611903,9.925754786711185,3.3203616232221145,,0.6652988471865258,1.8402496783884892,2.7278388326950704,3.07827632253528,0.7795288660555372
99,0.5830184332765105,-0.0929605733171002,-0.057538395493853554,0.9511971081528519,0.921500320536189,0.6888188575000432,3.487458144687695,6.420895515432684,1.903127341882168,,0.62595550513784,1.658628156624872,1.665608183901155,2.4100053416148826,0.7041206351914089
100,0.0758207117635034,-0.006380094150609244,-0.005498484025672956,1.0125965406259447,0.9831248630695464,0.6830478742993294,3.5157114349876277,2.965644348552527,2.1179453316743806,2.2250105796368245,0.6528756675646988,1.9095675051969436,1.8743554976038868,1.9265484600061673,0.7810195615290687
101,0.21291402237238866,-0.013259974653324604,-0.005763756526648185,1.2548284390335955,1.2397958437627423,0.8415193721048309,3.990147593422397,2.5827792785600043,2.084030227478589,,0.6584896970785714,1.8790617976308517,1.6874033862594309,1.5025056872189368,0.8213396544036069
102,0.3654058042045256,0.028580910566509923,0.028651600354391293,1.1882992958750898,1.1571493724235615,0.8024327605727218,2.9091564863108346,3.481948212531082,1.087780043494408,1.2581676688147745,0.6207552362147116,1.4042773116990972,0.9026505307290854,1.0813533139674265,0.8817973977103722
103,0.3079993077018828,-0.05133321795031379,0.0,1.2934653177122202,1.293020490305338,0.7952320299061985,3.347812821814576,5.845858035809485,1.8761261483816458,1.249412881610086,0.648888643467878,1.8784072759537274,1.8828039509126753,1.2561130553806499,0.8331481703190978
104,0.11568067136482535,-0.015967675645225835,-0.0007412003237338774,1.0784892177206185,1.053391334281907,0.7511136763946937,2.3184183897197457,1.4664699579732825,1.0265675250992985,0.7437343713574355,0.6284777104787076,1.2556560382777957,0.7903937112613058,0.5222385091879498,0.945788074443574
105,0.0008960160113595768,0.00025733994864331195,3.5044238982382195e-06,0.8254709852756138,0.7993798702761181,0.6457143034937151,2.589133805739295,1.6637169474985707,0.6402205778692421,0.43840246347266315,0.6284777104787076,1.26199433564267,0.5769965132908238,0.2920715261490568,0.8646055346881394
106,0.1849925052836067,-0.010370231256987349,-0.04244247046368013,0.45942882036789257,0.42705267484850346,0.47760455726224077,2.5914125035199858,3.0711873007324426,1.5717745591219672,2.163740456207445,0.6547956803312163,1.2667548442887946,1.3516070105498847,1.40707872873621,0.9030092380898718
107,2.2312506477680762,-0.7620141340835398,-0.20486114661595978,0.9284682085691743,0.8111401213114995,0.7230902665712577,4.297478830559622,23.57678744719313,2.6463770638357,,0.541134803179459,2.487309534404311,2.546935625331079,inf,0.8207562647145853
108,1.7813188515009177,-0.1792094298806019,-0.016735643784499085,1.170418913630478,1.1537256108442113,0.8614724143305609,2.859374089191492,4.380447974952208,3.807364794536913,,0.5713653840954815,3.78685986247414,3.7288847887276355,inf,0.8958028779237179
109,1.361833616571015,-0.3607938029509502,-0.1559195320959072,1.159403289130343,1.1371754413029034,0.7593805789097815,3.517227377171649,4.0943931426556395,2.6323795270842294,2.8850950719104547,0.5604843169999094,2.213150727886479,2.385374915382944,2.6981654418696683,0.9027406165849077
110,0.7938150784085206,-0.09470070719808485,-0.02437155456319324,1.7354605611779346,1.7180447630501905,0.9339045472917858,2.995328188168086,2.82267733945249,4.590684201009251,,0.6097226960127671,2.4157537910996836,3.575710756008298,inf,0.8572903115204056
111,0.858636467929884,-0.07413177136645016,-0.05520436539735346,1.076986237108886,0.9844860187710721,0.7154135771994391,2.8686572478203805,1.9562856262306951,1.5494842351333742,1.85573805431758,0.6153451465759925,1.5608594108752585,1.1878391887047604,1.1500791790981064,0.6621568339173155
112,0.1865527450328695,-0.021232112244139366,-0.0005323746763620746,1.2655103837903576,1.2351348658721386,0.745488993610251,2.928722511556113,4.818160508536717,2.406150233846112,,0.5748741956352443,2.247150386105945,2.411655015714778,inf,0.9249864998647738
113,0.1541548503639144,-0.008969799178928126,-0.004904137353824171,1.686515800788433,1.6491492829610335,0.9442051949915868,2.8414377316841257,2.2240332880719444,3.2245627348099988,,0.6233814453054027,2.4758808385806876,3.0236011725627834,inf,0.8679555118541507
114,0.11495985088815001,-0.010729586082894002,0.0,1.662592601503781,1.6325970661113016,0.9316350523613965,2.344836739716918,2.3462927482321736,2.6008311693493034,,0.6284777104787076,2.4064652234814377,2.607508971880333,inf,0.788199974632052
115,0.007408390692551337,-0.0005679766197622693,0.0,1.6279134469016587,1.6164271524906844,0.9035923351061245,2.080635793798038,2.5603694373955883,2.4321732351041625,,0.62595550513784,2.5751231577265785,2.438851037635192,inf,0.7944413420779934
116,0.02372722383473254,1.3494691863840487e-05,-0.0017534911064108934,1.4247006009248495,1.403794685410149,0.9036285809946999,1.819969415540616,2.2229073635257732,1.9704334351414492,1.0952622017828277,0.6333676938231112,2.6313978495811274,1.7970218246624645,1.2820517885634055,0.7850331122620567
117,0.0,0.0,0.0,1.5233329588603042,1.494041118823129,0.9270656510280417,1.7984909885961948,2.114927878758671,1.7643230163834798,1.9425600621700312,0.6207552362147116,1.9902104079518934,1.7710008189145092,1.9492602359405953,0.7614337991586406
118,0.0,0.0,0.0,1.6010609907625843,1.5889104541319607,0.9255012891874893,2.114706944533179,2.673691012164461,3.2924979647388146,,0.62595550513784,2.4079456086518722,3.2991757672698436,inf,0.7835221295324444
119,0.0,0.0,0.0,1.5774004922866602,1.5724773653457187,0.9065553568518163,1.8564835391486465,1.9762416534095846,1.5164868524788988,1.9425600621700312,0.6097226960127671,2.2380465718564744,1.5231646550099278,1.9492602359405953,0.8032420973735017
120,0.7891891956992239,-0.0032163451835682255,-0.0856697634355203,1.2902048504316632,1.176497549735603,0.8210435030159465,3.318717828103344,4.088087729838839,1.1918850454979075,0.8995634783344638,0.6566669596287297,1.4371666914936472,1.0283295647745296,0.8926416359335314,0.825437654369679
121,1.1326326990058178,-0.12256749815842993,-0.028631817217187133,1.0421309083111505,0.9359094154173605,0.7438205646827359,2.3152482116270967,1.6846727241413415,1.5201478601838359,1.7810592901241449,0.4302020962658841,1.8763737216179632,1.3289827912579912,1.018337721373995,0.8319166454655991
122,0.5148068076948401,-0.06036895616633162,-0.024860099242988112,1.280105198499898,1.2397636731013297,0.8245536508462399,1.4717228532211275,1.935772711694652,1.9128493546047982,2.373831667684369,0.4880666971167561,1.977607235798568,1.6729065714818205,1.8354727223881981,0.8113704070932413
123,0.14381079292433196,-4.270810331893568e-05,-0.019298449086099782,1.1615233520163346,1.1247443319690087,0.7706919171675444,1.4307924986286145,1.8106350480154245,1.978047504250109,,0.6380535849069913,2.0457059296973097,1.6914304974243997,2.352308528346476,0.8043052654557485
124,0.16913303997212917,-0.014375472076352983,-0.005920492720302515,1.487446200899558,1.4738567040206738,0.8808448577825204,1.486717369349395,2.0909368262268737,2.3699117375894705,,0.585052858160615,2.2319195471331064,1.7134304624111067,1.7651214532627846,0.7646417854403669
125,0.05640574216701334,3.4481011096862413e-06,-0.007712232863934843,1.4749320397629848,1.4434235323520028,0.8445299783866371,1.3472308555555839,1.7883747193852835,1.9734207886141424,,0.6233814453054027,2.023187240129962,1.6463254114931238,2.0409588111839114,0.7142860469838453
126,0.04712359137288139,-0.005654830964745767,0.0,1.5218427027589316,1.5006107139566696,0.9316926742959339,1.5316570255202544,1.8481074814651983,1.7654741151326503,1.7884093823427731,0.6509067234006624,2.143209989029981,1.6180012378364212,1.9492602359405953,0.7584535730515533
127,0.06949690577752764,-0.005911440237431807,-0.0008832651396587154,1.5158048274696152,1.5175404684677503,0.9003780483579611,1.4819778119130664,1.7256397227975255,1.4166369665821095,2.388139795703925,0.6447042257417027,1.89231672421937,1.325726114344939,2.2336847412832626,0.7789689859703123
128,0.0,0.0,0.0,1.5702472862682593,1.550155101144273,0.8908277841909836,1.5292698986450453,1.9767521272414446,2.6708097481610142,,0.6180765742263259,2.336486644669727,1.984340370132098,1.3896444480051726,0.7787768086501323
129,0.0,0.0,0.0,1.3961472801342616,1.336353751775731,0.8919348946873701,1.6095693599263607,2.061898013526889,1.8212103907855313,1.6060878255488185,0.6097226960127671,2.2697952701710546,1.6455666365226058,1.1019623755533916,0.7999845803937663
130,0.32467787854000096,-0.022459258418950894,-0.007244529656253603,1.3060545984395244,1.1801906322745142,0.840155640286483,1.8967266875730437,1.7654895062213003,1.067044642577138,1.0549058665953053,0.6380535849069913,2.1357532552481184,1.0587009964676082,0.8625945257626773,0.9107736836072007
131,1.1575769618661413,-0.13890923542393696,0.0,1.7881466426270336,1.7879949318019144,0.9050899049215991,4.636266343151552,44.692663191544874,,,0.6380535849069913,2.6223313256996725,inf,,0.9121955443392836
132,0.7299350693940738,-0.07662973593634947,-0.0036631216969986455,1.7888892925737987,1.7242991101154472,0.9088874817014084,3.384083853521318,17.639114312235424,,,0.5783247308855777,2.5625078958115517,4.239886867512759,inf,0.9032068358437482
133,0.32773865892877835,-0.025004503809412364,-0.0023070511013191662,1.7194629105791943,1.6646520815794348,0.914595325777475,3.4407356905347317,9.457387699012969,8.033930148273917,,0.5287703885177266,2.673809817947509,3.723119837268637,inf,0.887774112860778
134,0.2081302981226122,-0.011639302162526042,-0.0008485157248306904,1.7216665855294149,1.6976917093377566,0.921425268574797,2.980338361761803,4.369760332099256,,,0.5978297680564633,2.9228949496017247,3.0379326280443673,inf,0.8661364825853827
135,0.0,0.0,0.0,1.4948876565518914,1.4652637717094543,0.8690692344188178,3.041807700712705,3.402450836094284,,,0.6357360191111145,2.8134107167600364,inf,,0.8576432227109619
136,0.2847082686673233,-0.013093206621327999,3.717619395267671e-05,1.382529143412573,1.3622839233936186,0.8533242740224454,2.614493530332954,1.9868336973522016,2.599597667280975,,0.62595550513784,2.4076987255497664,2.1963609661542978,5.417210896488447,0.8673013732655486
137,0.10774261532636799,-0.01101963473664023,-0.00011376884708446235,1.7444980696702062,1.7397077404335277,0.9309761122724904,3.9388160508810577,9.653382808732434,,,0.62595550513784,2.325967453228945,3.415170807971025,inf,0.9168262247996711
138,0.056078804912213905,-0.005047092442099252,0.0,1.751743405268674,1.7438901446086235,0.9109778798751099,3.620725245005028,3.080138999246727,3.2631835770700395,,0.6125606311107803,2.4372599963206474,3.2698613796010685,inf,0.8788248453750268
139,0.0,0.0,0.0,1.709671420894128,1.6672683363560326,0.9194593349140954,3.4953058136944937,5.191337658383518,,,0.5915533975974677,2.659260036932778,inf,,0.8512374029017965
140,0.6838559176894244,-0.07590485131841537,-1.711863898493679e-05,1.3944445235294156,1.378358493652122,0.8317351876791649,3.0547069069734323,1.9836783084158087,3.3500678165602924,,0.5947193981915972,2.350375756830394,2.394056496491205,1.4373860222776018,0.8866894482145877
141,0.0,0.0,0.0,1.702816957051703,1.677239499033973,0.939202430599496,2.9703880918348116,3.7639746359735295,2.481567748522486,,0.5748741956352443,2.5257286443082556,2.0827804429453507,0.4088151949934463,0.8588843393139383
142,0.00015176823934157267,-1.1129670885048663e-05,0.0,1.701944664234457,1.6735394447583027,0.9057063653348838,3.2986725040702933,3.8458906303751736,3.0875520254617057,,0.648888643467878,2.6128915479289807,3.094229827992735,inf,0.874822996777121
143,0.07493555753872011,0.005360056715057172,-0.006613657877545334,1.1945116796811692,1.1988973191421513,0.7380801520167045,2.5034255920118746,2.3243643856881664,1.6796012828940154,1.6389855290558775,0.6528756675646988,2.3785066745555117,1.361900019437743,1.1963587515365457,0.8704089541106887
144,0.011300422207285608,-0.0013183825908499875,0.0,1.5782072542981336,1.5557995779890814,0.931436714009642,2.0566166127726264,2.162889060218836,1.4631904567314662,2.076091454794554,0.6038851895711802,2.1578115749793843,1.4698682592624954,2.082791628565118,0.7848927246928885
145,0.04648718056822212,5.2339160708443286e-05,-0.004856014486091396,1.5386216790274365,1.5031563370909486,0.8952432070341929,2.049039614633011,2.323462414691833,2.712569234133283,,0.6333676938231112,2.294727158697458,2.6085496170782982,inf,0.7841390893600754
146,1.4740203780484296,-0.229960351270168,-0.23826759027796035,0.9920351489264888,0.9209155060878724,0.7347704484131181,3.144001886261405,5.114591379031953,1.4741454273135157,2.2488964097875623,0.6125606311107803,1.950833359302319,1.1836502563442517,0.927071123752539,0.9438353888270252
147,1.41141123298369,-0.16105269402828296,-0.06778081718599444,0.5853799335738186,0.3854817147531735,0.604452618367415,1.1511245310239961,0.9263041940283487,1.4426891620439362,1.6774286312651256,0.581717464821069,2.3028073399112845,1.0707748747178973,1.1192518419646578,0.8659711846620128
148,1.692883035364886,-0.07475471273325446,-0.042616009007808826,0.8660366256478286,0.8424506354789025,0.7806112188349899,0.8978177166143505,0.9992876456558627,1.3992446671991998,2.591146887198032,0.5604843169999094,3.575154022124482,1.2573350865882995,2.2312704187459365,0.8291550490581658
149,1.6256732727455414,-0.18519002018383413,-0.18535508268390846,1.4726576037409185,1.4278515391308155,0.9058043543755329,2.864179330587941,3.122146698199268,1.998207016350124,2.992218507152835,0.5783247308855777,2.553613847797791,1.7473449637873089,1.9025994506505068,0.8347278583512953
150,1.6994094681273924,-0.18657134685880028,-0.08329939738373413,1.1185043650183044,1.0871980389666087,0.7818680331101289,2.8823173965348317,2.60634791502088,3.006432475489617,3.572842616305907,0.5641709578113449,2.869001732159972,2.5496018002625664,2.227761301196301,0.7405435004337213
151,0.6070130168240352,-0.04060570463741871,-0.006909868117389669,1.33726499788786,1.3011419502552963,0.8679899162101288,2.5346187848669266,1.9226966188112349,1.7368227110394212,1.3596040424728242,0.6125606311107803,2.817121296156572,1.6638666199331054,1.2670948174631038,0.8400045037773112
152,3.353347237614085,-0.9259819399270011,-0.2671881269379972,0.9946161743486615,0.9749125646728181,0.758133337825563,2.2505522707319265,2.3530392231451316,1.6866286352283633,2.6702709443657042,0.6125606311107803,2.92641352924343,1.6395359435913799,2.4978100546239084,0.8856710344259111
153,1.1429791718722375,-0.011041261468978325,-0.1045055811600003,0.4994690021232517,0.488000095987902,0.5251189182792558,1.6262277320921414,1.753821410941527,1.012181160222111,0.7723989780740931,0.6547956803312163,1.393789042882151,0.8356488568187199,0.7578853842717441,0.9519364350811447
154,0.7372856734905118,-0.01180254619151297,-0.10858991247695249,1.0907476476157378,1.0807031712272415,0.7784967473215844,1.3603470223674758,1.4687965877444633,1.5750291943821457,2.598398980630593,0.6403206450210053,1.6562383906753768,1.2032162645860665,1.3841636097084118,0.8261049482717391
155,0.0,0.0,0.0,1.045196543031371,1.0200623286750108,0.6663871789767236,1.3641065528726912,1.672033830676419,1.8793923461682671,1.9425600621700312,0.6713451011121618,1.875141078167106,1.529395204760564,1.6127879993193823,0.845704326961103
156,0.025326286066026455,-0.00886420012310926,0.0,0.6157549009289381,0.5878344611315581,0.47491449360498234,1.519511996615369,1.2014980029653322,0.9528453942703171,1.3829442742346088,0.6357360191111145,1.0587187250064332,0.6230509601801334,0.6275043959582759,0.7781469593005148
157,0.0,0.0,0.0,0.9442827611381353,0.9242443347451889,0.711261875679242,2.550012622913535,2.316386825988378,1.6830600523047141,1.6060878255488185,0.6125606311107803,1.7147984280919266,1.4273735903682523,1.469687155678709,0.8614472988517791
158,0.0,0.0,0.0,1.2707901997125892,1.2397771931299875,0.8452981816659016,1.9858494439506549,2.5378479907192903,2.9144318308187644,,0.6333676938231112,2.0928645620119766,2.5156445252416293,inf,0.7620952420728767
159,0.0,0.0,0.0,0.8800828588502314,0.8536155577410885,0.6780775614367288,2.0380327137187915,2.0090526681664964,1.7238820468249691,,0.6357360191111145,1.8971199848858813,1.7305598493559984,2.082791628565118,0.8248930360296747
160,0.0,0.0,0.0,1.0874146773547884,1.0313151254556165,0.7706454402218488,2.723865723148305,4.101619287157455,1.711459526826412,2.1938744904509373,0.6425374456860184,1.791759469228055,1.7181373293574413,2.2005746642215014,0.8339369521355923
161,0.0,0.0,0.0,0.9032488155403504,0.8022503245514624,0.7212598420550564,2.0626643603124775,1.322875596778688,0.8778605107973703,0.7989963856396555,0.6380535849069913,1.455287232606842,0.7254736186987123,0.6393388536052786,0.9242101830841534
162,0.0,0.0,0.0,0.9953997904353589,0.9720945188451284,0.7459367216356022,2.189300378631036,2.245739585071786,1.3635373739972745,2.561599270576255,0.6284777104787076,1.7719568419318752,1.1019511899336245,1.2271255185073977,0.86295477146312
163,0.0,0.0,0.0,1.4612129837445975,1.4477867756097134,0.9144130821686776,2.5148204616061607,2.936072214512547,2.106874299081075,,0.6619902821573977,2.2072749131897207,1.8904085502978945,inf,0.813545758980177
164,0.0,0.0,0.0,1.461552850554268,1.4306164279559759,0.9164677424447657,2.1698565515802866,2.8512163279249916,1.4552761214340022,2.2992350061087636,0.6380535849069913,1.9425823589626385,1.2796323671710768,2.488256736673282,0.8070842465659844
165,0.0,0.0,0.0,1.070576425695613,1.0371514415519163,0.7765430675053312,2.068898422522576,2.3690059199071394,1.4820463624986069,1.7884093823427731,0.6547956803312163,1.7334905611040792,1.2010420925778553,2.082791628565118,0.8266686625940836
166,0.0,0.0,0.0,1.1777606178200972,1.1611185235731611,0.7860595048029005,1.7497275464998612,2.025872446198227,1.9425712477897987,1.7884093823427731,0.6602640781246099,1.9661128563728327,1.7950983704935697,1.9492602359405953,0.7585023581403275
167,0.014861455997447183,-0.0023778329595915493,0.0,1.3044215072434429,1.2350295334272956,0.8154795236246329,2.0177993445687514,2.2673083319003244,1.5545951683014703,1.6060878255488185,0.6333676938231112,1.8432633120951707,1.5612729708324995,1.6127879993193823,0.7967330152932103
168,0.23410921743132215,-0.02653237797554984,0.0,1.5972954617665192,1.5598382569122713,0.9310514845505067,2.1683526951316088,2.2675291374078066,2.3223114646595273,1.3987281419358706,0.6333676938231112,2.2795198200630495,2.3289892671905563,1.1019623755533916,0.7650497705352078
169,0.16413155626218448,-0.01914868156392152,0.0,1.4012535478656343,1.3223776115793502,0.8553184026181798,2.2303865727519483,3.557266104692292,1.5822557586236847,,0.6097226960127671,2.202840316121855,1.5583709107445474,inf,0.8256061413328356
170,0.19718881602532143,0.021709805993067453,0.0024032187614151726,0.8974909935576085,0.8788679502486129,0.6591196535934624,2.1328816665237085,2.5047126227485723,2.286685798419916,1.7130857958324017,0.6509067234006624,1.9137764554165,1.5032116121519794,1.0273868958736851,0.8450307453795467
171,0.16949842075555333,-0.019919608100229812,5.273470398746774e-05,0.4470811969481615,0.39095190282305636,0.4912098413849652,2.479756553880084,3.929829004215861,1.6327159748844955,2.568333302757599,0.6097226960127671,1.502778241044654,1.4315454043806934,2.772797730496368,0.7361023655075407
172,0.0,0.0,0.0,1.0034554768444084,0.9985827130972922,0.6306116642529027,2.5748821265910937,4.638000949682215,2.4815677485224854,,0.6207552362147116,2.120263536200091,2.200563478601734,inf,0.9271928295424473
173,0.048779865077530064,-0.006178782909820475,0.0,1.1625961338638453,1.1170880146672288,0.8073816110255139,2.669971900631023,3.7911451070090116,2.225509945348017,,0.6357360191111145,2.0886392669227787,2.0090441965648367,1.6127879993193823,0.8750951012374492
174,0.013403723998763413,-0.0013850514798722192,0.0,1.345237142814702,1.3299926872940588,0.8556915177828923,2.4341074593743937,2.723040839349186,3.4196199721781535,,0.6125606311107803,2.280823601212533,2.7331505941492376,inf,0.8411886578588883
175,0.015576961279816084,-0.0018276886909517032,-0.000594486120764111,0.7748033246096889,0.6839619525996675,0.5810753025638105,2.0618262745465463,2.3897846384652315,1.4164917473670633,1.295409610287532,0.6233814453054027,1.6576365849025771,1.070106249545369,0.6963820518579139,0.8841943059584346
176,0.8955288492343577,-0.06628061663186452,-0.0651616700954704,0.8858852884485894,0.8407727563814346,0.6518208976823184,1.665754061056387,1.7488975963986209,1.7192760489042533,4.0385882314623425,0.6153451465759925,1.7861750909341545,1.4321453326423463,1.5033835786675422,0.817474703738897
177,0.03304389599955799,-0.004405852799941065,0.0,1.438314828385432,1.402883552034736,0.8975245232485006,1.6212539432346018,2.1316779801108003,2.280742720163971,,0.6547956803312163,2.0334064921068244,2.064276971380791,inf,0.7365472061601425
178,0.0,0.0,0.0,1.4220161863703447,1.3975831936600227,0.8694879245434223,1.7213566315085216,2.0612049353152564,3.1747149290824312,,0.6468212168108125,2.5257286443082556,3.1813927316134603,inf,0.8162199653849248
179,0.7788879316866856,0.06476300087864856,-0.048388414233482835,0.9079011098223067,0.7860286870616704,0.6451019577793546,2.34040368873335,2.702423275414429,1.008717492356201,1.048432314817064,0.62595550513784,1.4035987782100552,0.8151559176765276,0.6482912367060853,0.914960504749153
180,1.9317448911395032,-0.443873423247339,-0.13056212772537462,1.146626151008575,1.1061776099533411,0.7750610127549586,2.3103955888404593,2.8016288785950656,2.305757606313851,2.701350027331646,0.6180765742263259,2.8905717778988316,2.131798772415845,2.623994283304163,0.7410311224886079
181,1.4334707932497832,-0.36180464119384986,-0.10169679250598584,1.3595091906076138,1.3353442181205564,0.851351540907238,2.5104573561816173,4.044908208139569,1.9549064978898663,5.343124749923405,0.5567373465730988,2.1502455761422246,1.655917038586444,2.207774788231372,0.785509392842089
182,1.1416551741242484,-0.13579119376919363,-0.04306811684360531,1.2037919327191486,1.1977626608218759,0.8182283442773611,2.5770111794549466,5.287710246611336,2.178065498673945,,0.6068309995095971,2.476409519534054,2.1221161237353687,inf,0.7606815539839561
183,1.7029818245726847,-0.16870907591723341,-0.05267856127721559,1.3453047065158292,1.3150881576840097,0.8335777233943478,2.155334670430526,2.8487396903454467,2.103957356554257,,0.5748741956352443,2.7204602211788917,1.9442240923416076,inf,0.7407309539590133
184,1.598884517574783,-0.12847847827767916,-0.058058048772712215,1.461618050661819,1.4587307502186817,0.8989457624630728,2.69509786957149,3.838049078373062,4.5524484449556555,,0.5915533975974677,2.8594546552614433,4.141391046786706,inf,0.737501597983872
185,1.030459169770614,-0.09289072580030175,-0.018898848047633914,1.068872999756431,1.067783413977999,0.7344397975941627,2.5458601484627175,2.8299173716577997,2.267600349818309,3.530298749050653,0.5783247308855777,2.505245420783531,2.2302865830678043,2.9108328297675046,0.8011378388174559
186,1.234887303852187,-0.11279002191443116,-0.016278691170296358,1.533533872039414,1.5213215002813425,0.8797266523663018,1.956431662564949,2.417321809736675,1.9278457533047135,,0.5713653840954815,2.718437293988697,1.887844620852085,6.80128303447162,0.8008865912424528
187,2.367486268946076,-0.26546490277510604,-0.04691463961040164,1.2464208572679092,1.243933450152452,0.7583738388729447,2.363489738901948,2.8223583916170125,1.9120137312508978,6.002113011672031,0.6068309995095971,2.786913049527935,1.789777665138288,4.528289141652134,0.8215815195889281
188,1.422761781936481,-0.17970613223174758,-0.1114789481891483,0.3075202309649917,0.2300265290808058,0.4687679570863196,1.6289084768458977,1.6557042887768263,1.4460603208832143,1.9020938280849164,0.5490601803369085,2.064618612788198,1.2559208658565033,1.6146791761668007,0.7986869902636115
189,0.7991670237086557,-0.11460887079324059,-0.061207874422663656,1.336471493597662,1.2715423876545398,0.8387772787359614,1.69554180555295,2.0280408800891365,2.149329489882521,,0.5022576003740722,2.136788208532389,1.894894592565001,inf,0.8208539559606569
190,0.8517108560323364,-0.10680126288802641,-0.05244966083361843,1.3196320453175976,1.2494967906533752,0.8471845100221288,1.7151397900350664,2.390710298296053,2.715831726138093,4.692480646679766,0.5451288209179292,2.039964451137636,2.4351526066022577,3.040627593461882,0.7871074902884936
191,0.3481966719670845,-0.06113163971223472,-0.005999258387729495,0.5457831850268248,0.5222200640168064,0.5605766875898601,1.7978275296362625,1.6994744932096868,1.4853407813034785,1.7228126611056034,0.5748741956352443,1.6250028647051544,1.1435053054341697,1.266938750835291,0.9034074786059222
192,0.2736835267587325,-0.02634428835797696,-0.010846598850246102,1.3421068552696487,1.3081701654514652,0.8792501245745222,1.4898671643289167,1.7334493983926185,1.956432048582034,2.6674484756559647,0.6125606311107803,1.8430527636156055,1.6882533033935703,1.6147671979821843,0.7771899325139969
193,0.27704145290178306,-0.03135803068616293,-0.0037338866813962568,1.3218744844761854,1.2758212962319788,0.8374245278314902,1.6786922733727865,1.9979504424060777,2.946230315086139,,0.6509067234006624,2.1893556189575243,2.348155918556752,inf,0.777968063039112
194,0.1849828848240977,-0.007739745134598599,-0.021240906821176707,1.2225909610693164,1.1205105923895502,0.7977563602164229,1.6595765461369762,1.9104278011324527,1.3883951831501942,1.7013980053531434,0.6509067234006624,1.9141531174421218,1.382083828583547,1.7210873362213834,0.803412138937598
195,0.0654195445339498,-0.0023884212469236785,-0.0069883801362757925,1.2962862193996907,1.2422328789558996,0.8393034952925749,1.5440154639466108,1.8840371255126687,1.874783952014686,,0.6447042257417027,1.9754419516613513,1.6368880686488785,inf,0.7454395014030342
196,0.036781554664713924,-0.00034919142323007035,-0.003941989954319887,1.1793266787388503,1.1465211492389256,0.7492804299653115,1.385351668564701,1.425272748522623,1.9196437431460942,,0.6207552362147116,2.171361917810492,1.6939895683085073,inf,0.7179588296088751
197,0.0,0.0,0.0,1.2114215099797037,1.0638494084948782,0.8017654011926959,1.5240780243855176,1.754498247925174,1.095273387402595,1.3329941633935256,0.6180765742263259,1.6607312068216509,0.9553477157417489,0.7918074472495522,0.8231762229114608
198,0.0,0.0,0.0,1.5260486051378501,1.429393561396705,0.9234487141115575,1.8918717887538752,1.7574110866718813,1.1929118569665111,1.1753049094563641,0.6008849035917525,1.9425823589626385,1.1254816873438185,1.2561130553806499,0.8047580552602176
199,0.0,0.0,0.0,1.5408290660882733,1.4192428455486596,0.9332453239101667,1.6133168262490032,1.8538561305475576,1.6060990111685856,1.295932897244979,0.6509067234006624,1.6964492894237302,1.0662331073315452,1.001878916996409,0.7982400700232053
200,0.0010096158525342935,-0.00012451928847922954,0.0,1.3385854825011556,1.3070172364135746,0.863927469247071,1.5298478538530598,1.7567559070431977,2.2202931679116094,,0.6357360191111145,2.0938560443591863,1.6673551825072161,1.2561130553806499,0.7578587980587008
201,0.0,0.0,0.0,1.4090563695079887,1.3957940606196433,0.8488473914832363,1.9016064540014808,2.26190507314437,1.8158195421506547,1.0952622017828277,0.6509067234006624,2.0928645620119766,1.534815272229903,0.9841793398970082,0.7930586914322625
202,0.0,0.0,0.0,1.4393815818903761,1.4201420265637303,0.8810745477026973,1.6482071218536136,2.2734643954948854,1.6342698881352822,,0.6180765742263259,2.120263536200091,1.3896332623854053,2.2005746642215014,0.7659438270069221
203,0.02033583366086118,-0.002711444488114824,0.0,1.5433454765963894,1.4849419358800036,0.8927470927215077,1.812786180229893,1.7660590873810698,1.592084599783007,1.3829442742346088,0.6068309995095971,2.028917431927843,1.480979366657653,0.8142803031016107,0.7704678268683302
204,0.0,0.0,0.0,1.471307374941743,1.4199101650248422,0.8763833993126026,1.906058159646581,1.765998513907199,2.3320360145515218,,0.6153451465759925,2.2697952701710546,2.0510317446307704,inf,0.7916566401517318
205,0.0,0.0,0.0,1.5612128574146253,1.526537157900228,0.9422926181406727,2.1092561580165805,2.496682868629968,1.8119510653727346,1.9425600621700312,0.6008849035917525,1.9425823589626385,1.3666437441607067,1.3026330710155427,0.7900474193207203
206,0.0,0.0,0.0,1.4735269905366528,1.44302038643452,0.9139295980270303,1.83662561091757,1.6905810461272788,1.4782656396587008,1.200622717440654,0.6125606311107803,1.91959284073794,1.3896332623854053,1.3026330710155427,0.803330203712981
207,0.0,0.0,0.0,1.6886547137823285,1.6352171787512428,0.9659498489675548,2.3793977929447148,2.360382218166469,1.7014091909729105,0.6897970936746634,0.5883313578629602,2.6127400212978853,1.48494344218973,0.919640818759437,0.8550068851899902
208,0.16044638602361982,-0.002810759110071101,-0.024850097801646962,0.9906646357806514,0.9457191592210797,0.7256911769805824,2.230945686468754,1.6045052212522006,1.8815140461301607,1.632737749824658,0.6468212168108125,1.7931604501436833,1.306205435962272,0.8505897734908411,0.9250426576777804
209,1.8375101823256765,-0.330682912870754,-0.26495389111283485,0.7995870306515537,0.5970314669285881,0.7103958284625373,2.1880482827249956,1.6822065637669477,1.1858720868026253,0.9760868480107985,0.6333676938231112,1.7444942767609408,1.1323691311104316,0.9002402796574029,0.9425267193590181
210,1.76194402053381,-0.09688825582575519,-0.03232097234672421,1.3789982108487502,1.330881145381292,0.8715493116905997,1.8859427593773526,2.3243452988224074,2.927289876768116,,0.5677978065141052,3.909249078545421,2.356652314264321,inf,0.8497221256784302
211,1.610653875072225,-0.2162807873293299,-0.07107891433562301,1.1857821498992418,1.177239562867544,0.9001857682062131,2.1265501387618926,2.5489489379784764,1.6272296779342983,2.0954409554253783,0.5883313578629602,2.6810837528723956,1.4801131163375454,2.1465016522782623,0.8911181045527238
212,1.5739097984020536,-0.13163543817160583,-0.0530865039700716,1.3382809428157183,1.3385063633376526,0.9187140549544487,2.3276591091134806,1.5195249334854752,3.272180726938882,,0.675384900321601,2.5953169311149704,2.605672091472504,0.7343052530534527,0.8694173985748725
213,0.8604685146527702,-0.102354169619507,-0.020979650814056734,1.3677484366350086,1.361265375412529,0.9212475364179078,2.5390021299004384,2.1869500358271003,3.6323333201931294,,0.6284777104787076,2.455347847546456,2.7973590077495283,inf,0.9094134132019428
214,0.7077785562554043,-0.054151582868975895,-0.05237675532953019,0.792037274852911,0.7313547746372935,0.6577605296390654,2.143383768551265,2.459282650066754,1.9655150683234788,1.3782635151636216,0.6619902821573977,2.120819246133814,1.7152720543273179,1.5336027289291325,0.9128387918312221
215,1.180069245836158,-0.1624754016463976,-0.07277957243982555,1.559836860927274,1.5210013403391536,0.9129790234622764,2.00158834657699,1.8502046438251294,1.5010221573215092,1.1613844877123132,0.5947193981915972,2.1878684824121946,1.356045201451556,0.9099670545781148,0.8870484867531871
216,0.5755936449132024,-0.057544159829086464,-0.007689786594409802,1.396067856058221,1.3883853739809913,0.7722490930252076,3.912498993787709,12.707316233977776,3.2830709537200558,,0.6447042257417027,2.4173726196706307,3.1941345788763997,inf,0.9033821591150857
217,0.17138309877650829,-0.0044022606704431574,0.000390366996878215,1.0010852806816626,0.9801799963469094,0.6235167628017424,3.6343861785844886,3.1134601582117094,1.5445342870232575,1.9292398029648994,0.6097226960127671,1.5643052223267608,1.179717639234267,0.8439057853837825,0.7561929090820693
218,0.21628042017245158,-0.026674585154602363,0.0,0.9215919466411568,0.8887922212068019,0.6343277241656088,1.6725160573814761,0.9360032773143989,3.5484791274593315,,0.6790044388599258,2.151964445931355,3.555156929990361,inf,0.8390165364313272
219,0.46400384481641216,-0.03229633376675605,-0.00018393537039280522,0.5629871005157768,0.4884972964370914,0.394530911923892,0.7404375223673163,0.3696766743038188,2.3263339770937246,,0.6333676938231112,2.8760744531953404,2.165020048385624,inf,0.9517701651497888
220,1.7290155776012874,-0.1155461387168919,-0.0054849517151982176,0.5002653610906933,0.45506721660361155,0.5470906264297064,0.5613625581847719,0.31886429168812025,,,0.6284777104787076,4.184269269750088,3.162852669015895,inf,0.926283860724933
221,0.8965552729649607,-0.1361298624816948,-0.05265914436201448,1.0119601956860524,0.9113688806186074,0.7385550799194665,2.042928709401773,0.7296819986058374,2.515262580841669,,0.6584896970785714,1.9728817454465277,2.050693745887366,4.205935627630563,0.9689440315001054
222,1.0589546136873285,-0.1331408594558402,-0.01511278646038576,0.683870903340726,0.5982431204379616,0.49764071432788604,0.8068900439062965,0.26855270830538525,2.4987680992441694,,0.6447042257417027,2.667708321818832,2.161995269772523,inf,0.955922662754857
223,1.386538946954711,-0.1380673003926808,-0.00520839079263931,0.7988163533699161,0.7478391884154464,0.5283201871888861,0.8514825910667978,0.32694751153720214,4.367125457517862,,0.676637947632344,2.973318678717091,4.291111544203779,inf,0.9603624672150229
224,1.9933607688799797,-0.19473881711152075,-0.031175403361543605,0.5818056221536396,0.5391246668156366,0.49235461463762337,1.022341191940724,0.5856001014947991,6.999564423165761,,0.6309483474627791,3.0150283624957206,6.600777117588627,inf,0.8020139147985531
225,0.9556436580651918,-0.04181105480245666,-0.002785649240585632,0.6706982900964739,0.6538337862288168,0.4436570926608096,0.6844916085942401,0.33111638844571,,,0.6233814453054027,3.463072785380243,3.076957713476577,inf,0.9535833698567279
226,1.7658656621293334,-0.10595193972776001,0.0,0.5316199732995237,0.5073948416757628,0.4828535848641348,1.1863052691301512,0.793043523801402,,,0.6425374456860184,3.5241185951746625,inf,,0.7678954474461662
227,1.579310605342444,-0.12082487416698977,-0.00025560557593092936,0.6542655759014198,0.6362852008529221,0.6091950220178497,0.9255600513144157,0.4916376100057184,2.734625148645707,,0.6652988471865258,3.3239277461708547,2.459619696954209,inf,0.9584152816168474
228,1.7596665093598087,-0.11460781119681618,-0.2769990130432855,0.8279336100110244,0.7657345059195063,0.704412571448823,2.5552292753983954,1.0953457752810727,2.0534511292520734,1.0823938990765698,0.6153451465759925,1.9250623165424752,1.818625374066456,1.2197460020030304,0.9040371153395675
229,0.8462733558885556,-0.10596491489706283,-0.07457340102582902,1.0709582668167092,1.038057842274161,0.7510368016587595,3.7748860278123164,21.06211659270302,2.1167962606818826,,0.6284777104787076,1.951067871713009,1.8839940925790088,inf,0.7393522572545229
230,0.85482315324373,-0.09060354072691171,-0.04901757430289755,1.1534422008076397,1.105039158188466,0.8294651035604906,3.7762138450614655,4.170668084449996,2.533047665706559,,0.6207552362147116,2.2679689818619773,2.3022631527648336,inf,0.6591580289936193
231,0.9975868921754881,-0.14818160519061865,-0.0413599043227241,0.8635937520443917,0.824364995525507,0.7061657089974867,3.8196011490648423,7.6201355903811105,3.649237476043931,,0.6180765742263259,2.2751861188059315,2.983910534588824,inf,0.8880459808544899
232,0.4380061716682148,-0.06969920021028998,-0.01593859218325614,1.0380004542251735,0.9109024475866155,0.7930777567893531,2.8805237534145047,4.458338924409791,2.1008365377215727,3.4982564421824436,0.6097226960127671,1.8830709876786462,1.7092868994446682,2.7032192738325445,0.865002536439573
233,0.3847868986801525,-0.045759318947660936,-0.02426126601420006,1.134511450425364,1.0862320098693588,0.787208379757413,3.7462166212124326,5.020474172198055,1.644952836532156,,0.6584896970785714,1.8125065423728441,1.4150176834493977,2.070793140725795,0.899914516349276
234,0.17499432731508413,-0.013662502253010606,-0.013697721693381912,1.3150166111614556,1.2947638946787337,0.8553467606677146,3.6617957184403047,5.273398216389477,1.8378047196217009,,0.6380535849069913,1.8875364246218238,1.5741189260774457,2.7868542993986036,0.7197988317664191
235,0.39808854040285646,-0.06016040657812428,-0.01895212661048017,1.0834593681144302,1.0434506682374458,0.7862339253875751,3.63197674639325,3.4412796046910676,1.9522723120787135,,0.6403206450210053,1.7285968942704149,1.4550726748631664,2.0775661225099236,0.847624705440941
236,0.0653783993063825,-0.00762747991907796,0.0,1.2058666544782535,1.1862212013892026,0.8158159930960098,3.354935158830737,4.646641340435723,2.8193288367571987,,0.6125606311107803,2.1879675560735428,2.8260066392882277,inf,0.9137737546688404
237,0.1165689818699059,-0.01282258800568965,0.0,1.12377476645707,1.1115529424000565,0.7032470344246131,4.235024326061175,12.391180482246863,2.646146756247314,,0.6566669596287297,2.2400276996615287,1.8576557638260864,inf,0.9166728097636208
238,0.7967685185068718,-0.11636226329734668,-0.08530154253245067,1.090235491473539,1.0348949544630917,0.740397592004435,3.50571570916916,2.7375622419369927,2.5380862259717185,,0.663668482632973,1.6512441874958532,2.320882742001998,3.674237904120988,0.8077332497514764
239,0.6808696518388633,-0.09296758985015988,-0.01597155444405825,1.0196505398413054,0.9857782479335954,0.6918401442088374,3.8819712614312007,93.66008830138298,5.102711617622698,,0.6309483474627791,2.123788259263037,3.370273684411095,inf,0.7852735472884199
240,0.0,0.0,0.0,1.2988435851685551,1.2864726022646076,0.8053056620139568,4.061601755558687,36.548440734037904,3.710233165438793,,0.6528756675646988,1.9902104079518934,3.7169109679698225,inf,0.9191397002033153
241,0.13588384228385036,-0.01902373791973905,0.0,1.0153578887033998,0.9586078219829611,0.6162799288730434,3.471241182600458,2.92952018130262,2.470454269709841,,0.6008849035917525,1.9902104079518934,1.9251514987417675,1.795109556113337,0.9374195111909519
242,0.03060657060289844,-0.0022444818442125523,0.0,1.3418349123061803,1.3021295283958685,0.7482024511380472,3.7054990336224685,100.70451798516542,,,0.6447042257417027,2.6352645313765626,inf,,0.9089276020831287
243,0.20576990849869817,-0.025994374492861003,-0.000572972992277941,1.2274756700453,1.2180312076107267,0.8289798188035246,3.814175177395069,6.599148476036142,1.8560927023402143,1.425142857594588,0.6380535849069913,1.8687845124122706,1.3197237758395337,0.6388672431160568,0.7179742579002795
244,0.41123687451135993,-0.041015591950392866,-0.03351882916025847,1.3635497465152933,1.3466157493069917,0.8819367436543107,4.38678842478918,12.575365945988956,1.5316402644881948,1.3809319801909865,0.5915533975974677,1.8655495431988103,1.2691894024631907,0.7667838251322787,0.8123484044153294
245,0.8100582029490017,-0.08775763724650008,-0.04433546392644533,1.3940829385585254,1.3410284673890929,0.9021800752595833,4.161778166932597,12.119051602617475,2.4224935688859985,,0.6097226960127671,2.121931593300788,2.234643908943569,7.050989447068045,0.7809281423325146
246,0.8555224309426716,-0.09815731532076052,-0.08202383227412574,0.8788184594450499,0.8815080219917312,0.6660425993022699,3.4056298641068916,9.106872107786144,2.3320094713989903,,0.585052858160615,1.7510014767558872,1.8600942294704572,1.4525888089597268,0.9442621911076139
247,0.11382218254624628,-0.015544493977356171,-1.120430396415376e-05,1.1396182755990873,1.1249464473367803,0.8016895352029068,3.532172987989283,15.152692213262128,2.595140043276613,,0.5883313578629602,2.0605107540203975,2.2611527309263937,inf,0.9086068784581635
248,0.05063975930792093,-0.004469432653626143,-0.006333715998730323,1.125312566015634,1.0913231312170573,0.7808879407857839,3.71197049861322,5.1215685864233205,1.6066824210327044,1.4177280082077814,0.648888643467878,1.5740707685968092,1.4150169622385134,0.9296242627436203,0.9448962225203893
249,0.06466423642621999,-0.003926370625764304,-0.0007117370270471133,1.08933680724455,1.0425491176004391,0.7669255176186891,2.7332616223945143,2.7382567526467425,1.2163224079380586,1.9551446436862954,0.6727386042041725,1.8476951015583583,1.1531613895130783,1.5555235307472228,0.9294405348784633
250,0.04330319548172959,-0.0013089402852636736,2.5879695198749615e-05,1.479900442727822,1.4380888954677336,0.9049228756314042,3.4049080469227886,4.289749719825597,1.864659798287874,1.2776766565284494,0.6468212168108125,1.8616098511291357,1.5570728448740392,0.9404958445873445,0.9391490138014741
251,0.02701812482678132,-0.0029719937309459453,0.0,1.225113048793271,1.188018138883835,0.8190398485063124,3.394387791016445,8.498639819037587,2.088833754768051,1.3829442742346088,0.6447042257417027,2.225315457502745,2.09551155729908,1.3896444480051726,0.9165599645373573
252,0.05663086735397277,-0.008683399660942491,0.0,1.3336496588124689,1.3216314190529608,0.7908236909866133,4.394604017983571,8.08589831114703,2.009339424254639,,0.62595550513784,1.8993446799079925,1.86186654695841,1.2561130553806499,0.8683073130931035
253,0.1282004036663592,-0.01001719519010309,-0.0006661717820935098,0.8495237308707978,0.779207836198912,0.6077493048971749,1.994517813093088,2.0551771261718272,2.576824962826255,,0.6468212168108125,2.543666344994923,2.5649493574615367,inf,0.9393484201555932
254,0.09009317955841271,-0.012913355736705823,0.0,0.9643613772903443,0.943902971970656,0.5887353491866852,2.192266958396053,1.523867800900792,,,0.6403206450210053,1.9681784803693956,inf,,0.9533708028509044
255,0.27871108658405447,-0.02229688692672436,0.0,0.885057573912229,0.8250972129100962,0.6071661356713867,1.6835290794858,1.9789194260574194,3.091031342185476,,0.6233814453054027,2.6094122312052104,2.4045619641565597,inf,0.9391925354362665
256,0.2586048381841011,-0.033618628963933146,0.0,0.5048718384602945,0.4516315079384318,0.552444384066968,2.277230295957466,2.0544166225223437,3.5840613838985678,,0.6668815377411301,2.1163821894921186,3.590739186429597,inf,0.9454883279167575
257,0.12054705578154273,-0.0025509267259904815,-0.029996778335026054,0.7969989093409942,0.6654985327507494,0.601230670719261,2.9379537359410355,3.0797674295534287,2.0821047515419453,,0.6357360191111145,1.3542790316878794,1.7092563452174743,2.646936085901644,0.9015017078533951
258,0.8899096930285884,-0.1503957351784286,-0.03774343972060255,1.3379651605508707,1.3143227422372064,0.8207606709700086,4.092702141312899,25.0641657483949,2.4563461360074634,,0.6309483474627791,2.1158289391322254,2.157642288987311,2.830028627988696,0.9213250022441638
259,1.0992797833959325,-0.1794395958065546,-0.0847497108421861,1.0662385778821357,1.0363917658663087,0.7498034723593746,4.007555241378098,13.399159935551857,1.8551410503247476,,0.6284777104787076,1.8748512650945082,1.7187180092151033,2.4203681286504293,0.9203010264243179
260,0.6551679205520143,-0.0919237181621275,-0.021638721400221664,1.1899144210020582,1.1720586580454506,0.8285598920253546,3.6356998497259867,11.084372770638595,2.130609809580517,,0.6425374456860184,2.121931593300788,1.823418416243425,inf,0.9480431024899927
261,0.7817749006820516,-0.09525647986130077,-0.055886667603895865,1.2863622644163037,1.2570140521690412,0.8073937762188171,4.220582859538691,4.719045095668383,2.917592567589113,,0.6699045166045591,2.037574759806682,2.629470829899497,inf,0.8916043951479884
262,0.6261299212553024,-0.10362124928767139,-0.027866034175942102,1.3081621516561592,1.2544309922675356,0.7880812103299287,3.641761439068768,37.06341210179601,1.6766451414695358,,0.6468212168108125,2.0086724707916286,1.6341719337492961,inf,0.9268264105340533
263,0.800979058355093,-0.10874612896805536,-0.03276017134134441,1.2003844451877854,1.2041500843937527,0.8077373759473461,3.7322288363453024,43.05185438808043,2.233032724941553,,0.6380535849069913,2.0313712132495723,2.114266643360079,inf,0.943885767578008
264,0.6855860052947098,-0.08828713971107566,-0.030075677868805308,0.9705058664679865,0.9464178432502692,0.7225650423904554,2.872997748476054,2.7389275586200403,1.7636563643522034,1.5122937485103845,0.6153451465759925,2.0067695206455425,1.4415194685504633,1.5009376767716063,0.8387838311297887
265,0.27004946842095756,-0.0249809034024967,-0.012780674125542317,1.3696953322018606,1.377580276082063,0.8845059192283825,3.673412345130319,4.425419966663739,1.7276028753914352,3.1498053203711787,0.6509067234006624,2.0624314809946873,1.6443856738059162,2.017168027173117,0.844771262239268
266,0.45128850668994874,-0.061676095914292996,0.0,1.298495143304667,1.2865382442279096,0.8289420938127096,4.091905913008803,3.7565242607909815,2.866546662422501,,0.6380535849069913,2.1407497304082406,2.87322446495353,inf,0.8826968964435632
267,0.04353701032114091,-0.0037732075611655457,0.0,1.4270595711335565,1.3931978715466706,0.7920474562446767,3.908673054986789,21.76429817176979,,,0.5567373465730988,2.4739007706114666,inf,,0.8331283000613816
268,0.1726151804775507,-0.029299536477000118,-4.504420418350031e-05,1.0620892062296132,1.0432678548564123,0.7527866846465285,4.066941855529787,15.452134723830179,1.922057733940793,1.944008448983302,0.6357360191111145,1.8343886512840142,1.928735536471822,1.9473472750511613,0.9121769656759507
269,0.0,0.0,0.0,1.5279600296034916,1.471696155741585,0.8366435969980184,4.715517043383446,6.466890924097022,,,0.6207552362147116,2.5257286443082556,inf,,0.9080779658023137
270,0.19800651813811987,-0.023100760449447318,0.0,1.1613464759427938,1.0955722012812332,0.7986648050983505,3.406941028800245,8.827803531909348,3.4978043633529685,,0.648888643467878,2.2026392100377183,3.5044821658839975,inf,0.8469950060366056
271,0.29252242898179037,-0.024768374521484865,-0.015209690772693152,1.0991617312304156,1.1046493232269554,0.7330068628087495,3.8448334345593014,46.49743242977557,3.58443025147929,,0.5915533975974677,2.1160133219113963,2.8996345140084037,inf,0.8249714382860768
272,0.23590706411625134,-0.02988156145472517,0.0,0.8505580214087605,0.8180728477755745,0.6156890187996935,3.54080154982647,24.270648862156087,,,0.5915533975974677,2.163789801249982,inf,,0.9372137160457625
273,0.0831941814009165,-0.008538691575135773,-0.0036631216969986455,1.1927177511517453,1.1345449230939775,0.7959302136682034,3.2829081023422138,6.357345383347769,3.0395949737727705,,0.6125606311107803,1.9677014190579707,2.535112760292593,inf,0.9010760717296398
274,0.06735051037275198,-0.0014325217855498309,-0.011364075185273046,0.8633356444727759,0.8581957076765696,0.5553502282280703,2.993365043328018,1.554315036874312,4.01592285483223,,0.6380535849069913,1.6845207185584563,3.3128693487877787,inf,0.7441836672936721
275,0.02471985236959282,-0.0025543847448579247,0.0,1.1972137912749123,1.1850592681323955,0.788152212062301,3.3176266264591825,4.940405083041422,2.3118333072340023,1.0952622017828277,0.6068309995095971,2.289997977488574,2.3185111097650317,1.1019623755533916,0.9347249955489705
276,0.055995785069469665,-0.008026062526623984,0.0,1.2217033826156989,1.1785343251331986,0.7707476285147189,3.7320763279068028,23.72701765853547,3.0233266340583613,,0.6547956803312163,1.98396975877238,2.624539328481226,inf,0.9185809670057692
277,0.34199125777204026,-0.017413570091143374,-0.028493061039730247,0.7979655647690194,0.7905108029300841,0.5035080534298128,3.8172318694709766,5.7507983036047134,3.4712358521837903,,0.5978297680564633,1.8115540965562347,2.5829950631165377,6.319868609079685,0.9202991069809623
278,0.15362107695567626,-0.01894659949120007,0.0,1.0632033496637439,1.0111098501956055,0.6646447460227576,3.521308066609755,14.033311150820891,2.1711286889480883,,0.6403206450210053,2.1430205233227073,2.1778064914791178,inf,0.9368335777521971
279,0.0,0.0,0.0,1.2593949994323013,1.250897407778073,0.8121410226105062,4.4972546432148155,4.813458698437788,3.60757901137871,,0.663668482632973,2.0928645620119766,2.921109633349794,inf,0.8143071489344589
280,1.2235981682834416,-0.21048731649097158,-0.11968707882082051,1.1604167971709836,1.1307165709053644,0.7869664396091332,4.375338472486487,14.459422484995315,2.014428162135843,1.97541302394871,0.6333676938231112,1.77313400510489,1.7688591865227214,2.2272170883510447,0.9213050195864163
281,1.2129267967001616,-0.18207741873665298,-0.062466963289666146,1.13794373908183,1.1268098144382686,0.7302099838706284,4.178867335868268,9.194313025884302,2.517449560410252,4.253629525925798,0.6528756675646988,2.1382012368867582,2.286500960956701,3.1116617405610514,0.9336972063351955
282,0.631220547297829,-0.10593710096934858,-0.019100446722418264,0.9690777126967474,0.9285537990925091,0.6987101036460376,4.429317510428054,46.56518512871808,1.868233829612247,,0.6713451011121618,1.9438234388613127,1.7066903684190757,2.419513062330696,0.8190219500769345
283,0.26210298388257997,-0.027957651614141862,0.0,1.139178088123513,1.0972337472744114,0.730056087346966,3.953528167071865,84.66054722472344,2.650020427346295,,0.6284777104787076,2.357275965484446,2.6566982298773243,inf,0.80733989969519
284,0.28811425796118517,-0.0336133300954716,0.0,0.9084407731625848,0.8774486683938126,0.6128951389301535,4.176597322020314,19.037006758660315,3.4297877179685843,,0.6566669596287297,2.2706558554221026,3.4364655204996133,inf,0.937470762129474
285,0.0,0.0,0.0,1.1024949140340197,1.088804509129281,0.6487860686197656,3.544523644153585,29.42634123160562,,,0.6097226960127671,2.659260036932778,3.0478613389889375,inf,0.819207015930807
286,0.37467584267490384,-0.030712129393790803,-0.016746810678363686,1.0013222248876563,0.9985152440230222,0.6931690167397443,3.208045954146199,5.146861546685595,2.80163633667342,,0.6284777104787076,2.205660056157321,2.8049752379389346,inf,0.834314042354615
287,0.27210228355891264,-0.03215174743218525,-0.007756587489788607,0.7886024595082134,0.7662476254945244,0.6011661640788751,3.4783052425442196,8.843506494917232,2.7763925386270327,,0.6038851895711802,2.082022647647536,2.133360242951621,inf,0.7403300765941985
288,0.1258450295270737,-0.017708401566671816,-0.0016295038008248622,0.8698354400643938,0.8452906945327313,0.6476257163936976,4.037877145904784,2.437964560943672,2.332075453822475,,0.6180765742263259,1.8796439545385752,1.9985145369368145,1.3535391877312513,0.9244658535712562
289,0.0,0.0,0.0,1.0973450201457557,1.021532367354233,0.6999439840598224,4.098217317571428,12.317299281591756,,,0.6038851895711802,2.2697952701710546,inf,,0.907546171531792
290,0.16163339658375017,-0.016702117646987518,0.0,1.292354575621147,1.2420595717476675,0.8124977230635586,3.975411816350798,8.76637394081095,,,0.5947193981915972,2.3023628954595243,inf,,0.8323509337539109
291,0.0,0.0,0.0,1.2916912712720505,1.2959593792748685,0.7851924252358952,4.570216165131644,50.81772900332723,,,0.6566669596287297,2.4849066497880004,inf,,0.8863049632417627
292,0.0,0.0,0.0,1.1460553600924506,1.1299181943280319,0.6994364534338602,4.515597082421576,31.623046246186462,3.363956928720959,,0.6180765742263259,2.336486644669727,3.3706347312519886,inf,0.7254358556428809
293,0.0,0.0,0.0,1.098951019072421,1.07817710642319,0.6973124117997928,4.566257318809219,114.18224256106946,,,0.648888643467878,2.2072749131897207,inf,,0.9161095814047974
294,0.005113334860395395,-0.00042611123836628294,0.0,1.5061986453224634,1.4920637399511614,0.8156298524035163,4.086975147886166,121.86063451887017,,,0.5915533975974677,2.4897182067852226,inf,,0.8499561131421082
295,0.2211509877820647,-0.02358943869675357,0.0,1.3942334066203048,1.3813502503761266,0.7874916118489641,5.67966404162187,101.872857582727,3.3884813185840437,,0.6038851895711802,2.3119622548066427,3.395159121115073,inf,0.9265762618182937
296,1.6427811170725923,-0.29401144553858216,-0.12960662032621867,1.2865912976604417,1.2658852195566692,0.7922165279417825,4.653008494678511,5.179699065908507,3.3935820581356504,1.6821113262050487,0.6684167106117298,2.4898521921810146,2.7439266532294506,1.3535045382968995,0.883568632764401
297,1.346009469446855,-0.24838657727406765,-0.029788713078282337,1.1753244570652999,1.141131086500309,0.7069394634525823,4.1703311524766065,73.8225115982877,4.872604538771443,,0.62595550513784,2.2941761034126698,4.602529339382882,inf,0.8509875965980501
298,1.1475642702892224,-0.15245348166366998,-0.06175851545698486,1.3018049873491857,1.3021737191221765,0.7683933082418895,4.346124755408208,30.456623172811927,1.6073847868050393,,0.6153451465759925,2.3153326658165483,1.5269570015969225,inf,0.9192423855917753
299,0.6998956767105599,-0.10489763093527855,-0.03883670473632174,1.086366195113695,1.0723409209008863,0.7747700224331587,4.113566228201356,2.4687695386266775,1.5619242448915922,1.627680049536449,0.6038851895711802,1.8312628890057552,1.374367709112425,1.4277104648366077,0.7135880009782789
300,0.09865133417939807,-0.018313470820167002,-5.609684242559711e-05,1.2516419232778497,1.2263579957628274,0.8513140098940545,5.204453108952214,11.576788935399696,1.6772415877429132,2.3095495211107036,0.6153451465759925,1.7103023776517878,1.2907775022287986,1.6152636067056303,0.9392996820386283
301,0.05969449847643195,-0.00795926646352426,0.0,1.254246563015595,1.2523584357118964,0.8258010827087778,3.640057046583647,5.897782969056937,1.5807236742736828,2.077344849569047,0.6068309995095971,2.0390249626626744,1.2702011404606706,1.3026330710155427,0.6385668161798049
302,0.0003819799617359384,-5.602372772127096e-05,0.0,1.1840008990564543,1.1561780626829241,0.7910539656358392,4.093081851703336,18.014505792346657,2.1710339605816085,,0.6380535849069913,1.9199717003749777,1.995390206318683,1.795109556113337,0.7765147297457146
303,0.2566531225784869,-0.035931437160988164,0.0,1.1781947408672786,1.0825756396775277,0.7647967041641185,3.7859107216120065,13.967234702265888,2.075437537533209,,0.5915533975974677,2.0162372435554015,1.8991246631382595,inf,0.8554427950705065
304,0.0,0.0,0.0,1.3862290951570995,1.3561948306050224,0.8791440839661984,5.287779908264713,60.927011407040304,2.6320897140116313,,0.6619902821573977,1.875141078167106,2.0402208285265546,inf,0.5699353615426268
305,1.4696962562149345,-0.2891101145345936,-0.15227694903521766,1.3395364612129468,1.3061268356581204,0.8553114318027205,3.772519661325206,51.81461159475972,2.038824459454408,,0.6233814453054027,2.138767007764651,1.9957053455482292,7.273092595999522,0.877301421428475
306,1.0890070568509425,-0.13176871350609112,-0.04375615272585294,1.1559415541524605,1.1283526713809344,0.793870325536511,3.042308878798662,2.3683931559116584,1.5602981946685646,1.3203868662850935,0.6153451465759925,2.0197480722054646,1.4074511119956918,1.1092744705007005,0.9385339541931608
307,0.9874432593616503,-0.1176885643934874,-0.08719632739951322,1.0470095060481517,1.0101247635785624,0.7560276637419093,3.9378448028802095,1.9417628068063104,2.0305611719532988,2.814268119325552,0.6207552362147116,1.7957674906255938,1.6826709713800088,2.9251801813613403,0.9000804195546894
308,1.617584000909669,-0.3243198722298182,-0.21141953316399872,1.1705819863053972,1.1203586246469757,0.8369885121294252,3.039172845888222,3.214672586023745,1.9853382609164043,2.015902596073004,0.6233814453054027,1.7725452503042507,1.57101235191149,1.5507772361843544,0.8200751220662492
309,0.8250387130359779,-0.1200281434066453,-0.07973845585706024,0.8359701910629951,0.7871899676676426,0.6348358954711819,3.027718512885609,2.8988957703198794,1.5861116103833497,5.150197627303944,0.6403206450210053,1.4798239049755695,1.3956592404268444,3.590439381300684,0.8656389482654402
310,1.4895390220943052,-0.23666497343255072,-0.18505731958757826,1.0625637556584138,0.9910619296414811,0.8158244517411337,2.934964028317724,4.864802188365032,1.766818626160884,2.5764393777510306,0.5567373465730988,1.8804449740607425,1.5591467955887244,2.001826440539243,0.8888821215431513
311,0.8124534192072693,-0.0777682210834645,-0.05951884412202454,0.8894754792566081,0.8523031062298472,0.7089009321156788,3.3451736090479622,4.447485261652254,1.2792716507297663,3.275978607656254,0.552929491858785,2.059813221513259,1.1126562305407859,2.327012559089426,0.8935032131873878
312,0.5403787010597504,-0.035896472899982074,-0.06328366198805213,0.777795636794395,0.7036963854229068,0.6572224752080535,3.1414866418032643,6.558375198170481,1.722691374097744,0.943248813460536,0.541134803179459,1.6798603767306461,1.3090066279146177,0.9433587081004016,0.8780051500267921
313,1.5531584217517687,-0.1161131300822979,-0.23912586748745118,0.9053468120101283,0.8573322509259883,0.6647810548102223,2.9082655342661785,2.3587718528604125,1.8387310897577565,2.2518933499419473,0.47824363442641393,1.8355023921759739,1.6973234319646182,2.0082710682385136,0.9005451674607043
314,0.8790025470079887,-0.038090110370346174,0.0,0.9014471168987872,0.8947137746425186,0.6614065416012137,1.5534868645290412,1.6093675656210338,,,0.48319206230712763,3.666900547395161,inf,,0.8828751283167563
315,0.619497790425254,-0.008597638236330304,-0.016182273380679856,1.3384118965164897,1.3135396059898607,0.8886175166679038,1.4699007675497717,1.589196624879491,1.7415207727819935,,0.5113665138247345,3.6906588140140135,1.6814247027736322,inf,0.7978544697919462
316,0.7690152933867501,-0.0322039115990473,-0.0011200844477118703,1.5613276769579327,1.5466832154225443,0.9227993482217404,1.5632032429143587,1.6113553752664662,1.9585432914373715,,0.585052858160615,3.5590214668557225,1.6160954659061568,inf,0.8273253108714061
317,0.7955336091220747,-0.02106556147434507,-0.00014866810224359133,1.3956858990135237,1.3665627208111368,0.8643984413580881,1.5682733785777312,1.6369463916978113,1.6662735156253972,,0.5604843169999094,3.8319802977546096,1.2039728043259361,inf,0.8392077548617654
318,2.1743827232312105,-0.021743827232312104,0.0,1.308327254317637,1.2555088107075394,0.8234616797784066,1.3919855613080492,2.031958295693711,,,0.6125606311107803,5.566923291939004,inf,,0.8067857304530577
319,1.5434368775005873,-0.04974566878182812,-0.09351311755406597,0.3203668846205393,0.2997185455341297,0.5894739075462232,1.655140620709193,1.910701158579815,2.083778799379484,2.453205173812019,0.5978297680564633,3.5613661338149765,1.7347314759947472,1.9683326131111458,0.9061604908725189
320,1.6721547442432665,-0.0357597179834444,-0.03670032093376382,1.3635706017799087,1.3672323636608286,0.8070166834382384,1.4796886518939818,1.9477774626619773,2.5813717158789005,,0.585052858160615,4.450067578435451,2.3131064717355785,inf,0.7774580459147412
321,2.5612883591341165,-0.12063935093553023,-0.015962694884955986,1.4949352662167414,1.4913713098030732,0.8829937894735319,1.4957603134155801,1.7317732248155138,2.6338665162058077,,0.62595550513784,4.895819619667674,2.5044121444122567,inf,0.8271318296877328
322,2.3943146969539786,-0.0991664440841809,-0.059624867565110415,0.5416423079444139,0.49994312831266974,0.5505377409240303,1.6044069193746364,1.8264122148002697,2.2666844317861132,,0.5947193981915972,4.305888977692959,1.9198924213273585,4.48863636973214,0.912050322762538
323,1.6657433646674347,-0.022209911528899128,0.0,1.1946260444434693,1.1562009212110822,0.7756275544943402,1.4953165744787915,1.7235531208219115,,,0.6357360191111145,5.918627223155716,inf,,0.8470350460013468
324,2.204918015017585,-0.022049180150175852,0.0,1.501288661023753,1.4532931452503175,0.8471147302966483,1.4226458444188472,1.864216393182697,,,0.6180765742263259,6.603543904579146,inf,,0.8245129338509075
325,2.4771769393622307,-0.06605805171632616,0.0,0.3522065979966885,0.322016705140035,0.586788394082508,1.2252072391059985,1.244917746701182,,,0.6068309995095971,4.955515994875176,inf,,0.7793493749010552
326,3.6194196016594486,-0.07238839203318898,0.0,0.8780712793336547,0.8474116848709125,0.6721277649439168,1.64646042212672,1.676638320130647,,,0.6333676938231112,5.000684963243088,inf,,0.7374964954435925
327,0.7345388945225593,-0.031830018762644234,0.0,0.2256559932866077,0.1356282558647118,0.3789874595785735,1.867004329627301,2.096429038019135,,,0.6233814453054027,3.415634429459925,2.2914869464617906,inf,0.7893934357455292
328,0.1390359277055058,-0.005097984015868546,0.0,0.887139644343751,0.8160080273371894,0.6493574195424164,3.016805045025375,4.62178433624109,,,0.6233814453054027,3.37976210094209,inf,,0.6935556496399872
329,1.974860443909174,-0.2688935512998358,-0.14334503955419486,0.8950323842187337,0.8466531804039458,0.7199874275442961,2.6896570218217106,3.3595224394807754,1.8736694430672665,,0.6284777104787076,2.6335613491114707,1.4528150434614528,4.3254562831854875,0.6599177349644426
330,0.5509812003096384,-0.009978246602934622,-0.001041377403258146,1.302385766977413,1.3062647141736632,0.8634263182252723,1.6352269423934076,1.6835852853385729,1.8777472628736034,,0.6008849035917525,4.138644821118681,1.8798483983772207,inf,0.8237322902301084
331,0.6434356825355585,-0.048380749974989916,-0.005238890236306625,1.493069421693872,1.4574332183811736,0.9124700758994387,1.799100519723076,1.7711991990145275,3.498479113873324,,0.6309483474627791,2.8917727388117926,2.899021112834038,inf,0.81290142293318
332,0.2950800008972995,-0.009299156446216053,-0.009066790301806989,1.6198208943898385,1.4979830627897261,0.9390742422760171,2.0254294790461613,2.0882411619722734,1.9504325770262474,,0.581717464821069,2.5407012881103155,1.7627195682145596,2.0352398907672957,0.8553041659279879
333,0.2179008443851881,-0.008409301478892586,-0.008646932347192344,1.4137303511165074,1.2675894305667323,0.8871975634256717,2.258470510797127,2.271510299528404,1.9977126376221483,,0.585052858160615,2.475616602880908,1.6028546101849028,1.6421183799067718,0.8930337522373591
334,0.0,0.0,0.0,1.168605589307367,1.1339076292532715,0.8733198349620348,1.8666630556852648,2.1146651225390496,2.481567748522486,,0.6180765742263259,3.2188758248682006,2.488245551053515,inf,0.8156094892700124
335,0.18895541009234196,-0.011337324605540518,0.0,1.4803791388803376,1.3882682425431223,0.9217819057404383,1.914247168825488,2.08202231879556,1.8665931628843124,,0.6068309995095971,2.868610266114652,1.7398988211389539,inf,0.8069494203806078
336,0.02029802530589393,-0.0012855416027066154,0.0,1.3791796449186298,1.3112752994859764,0.8877841726202595,2.1370151508403787,2.3468702798037566,2.2309673509752366,,0.6357360191111145,2.7763290418555044,1.8321800453981016,1.1019623755533916,0.8314670826764065
337,0.0,0.0,0.0,1.1855168838110075,1.1142346471218514,0.7839319680300314,1.7838584361528156,1.908281317395482,,,0.6038851895711802,4.0943445622221,inf,,0.7651480906154078
338,1.1379238221389378,-0.043833378755928895,-0.074674191019883,0.42646955582966134,0.3688307663599775,0.4897576262919773,1.7881301869157082,2.2090120007983396,1.845293595506338,1.9401253071564377,0.6038851895711802,2.558912063098496,1.6670609416020412,1.2844380769751242,0.8776341891933883
339,0.06207680695028277,0.002142792875162016,-0.0017368831124850471,1.2317031642255347,1.1974517622144902,0.819321138558888,1.6133501812603066,2.006618846907651,,,0.6584896970785714,3.3578186583602103,2.3067431031427095,0.845163387858571,0.7540843216544069
340,,0.0,0.0,1.3590569239558536,1.3278301355378488,0.8868987128213497,1.3222495871891504,1.7070521887771501,,,0.6309483474627791,inf,,,0.7003227612099343
341,2.3842054033143625,-0.22977698839308835,-0.11804004772733576,1.0370512761773447,0.9159134244138376,0.7648960089210182,1.6211138099796882,1.3912027603862025,4.716395532019722,1.1193110890856603,0.6284777104787076,3.0735737021174265,4.462790236287084,1.0986122886681098,0.8742757091602529
342,1.5800455848704855,-0.14148638483446635,-0.13290818115154582,0.7828488641579059,0.7434291667582431,0.7081458761842695,2.0883097941007116,1.8646967592239054,1.8298956824868182,1.6344864369781167,0.5883313578629602,2.7040581798326726,1.6481939261399778,1.3059198574314983,0.886840161662843
343,1.1821073656717231,-0.22900894550772458,-0.08653055485015845,1.3066744851255858,1.3014378119616314,0.8689318141531276,2.612354572048318,3.4929970603998823,2.0333528670713927,3.2263602860895935,0.4880666971167561,2.109122129114674,1.8437228708337274,2.7451897480516667,0.8961588127729948
344,0.2687961682474701,-0.0220250222751625,-0.019190390189449586,1.1675806203024213,1.1469360299313098,0.7295905355404194,2.650301580349605,1.8787341200925325,3.688797498141258,,0.6207552362147116,1.9885045466877338,3.6109179126442243,inf,0.7958706281884826
345,0.12078618004023402,-0.0037157139027151533,-0.01077862770211293,0.16921395908888537,0.06916017520001257,0.2659261418430713,1.3852547832024218,1.5128761448992927,1.267608280715091,1.5672148780050235,0.6125606311107803,2.1691231472253447,1.1437581533882428,1.7044429816334647,0.8288795933378637
346,0.7872558732505329,-0.0980758776283153,-0.05150273828928598,1.0165802098912766,0.9630282541315067,0.7487918325152692,2.1263064367327673,2.070437035993225,1.7832417397750187,,0.6284777104787076,2.220083871482302,1.7391472169326248,inf,0.8365828774528172
347,0.10891074327020427,-0.010891074327020427,0.0,1.1918846716749532,1.1089520972808071,0.82691712640549,2.234255223504806,3.137564111473672,2.1032411503513218,,0.6380535849069913,2.3603319152063698,1.9604950995954553,inf,0.6885191908359316
348,0.294305594964071,-0.028346702900787033,-0.010519540410453786,0.8829110605332747,0.8687815829196812,0.6724086457505873,2.371873785858622,2.3994113068829064,1.5144734389257744,0.9968942900141746,0.5915533975974677,1.8440357026823189,1.3436645047174323,1.1331268074020742,0.7689104819043338
349,0.05115404762857427,-0.0012085636010934937,-0.004418381638049676,1.4037676800220007,1.3586494363348338,0.8746941887524897,2.313452443199095,2.3402170975329115,2.6308049715707638,,0.5978297680564633,2.246519869061097,2.0651518591537736,inf,0.7276878846961582
350,0.34001505630339884,-0.03802059384699037,-0.0030494298054321786,1.019657514196876,0.9846110476535409,0.7145066166406726,2.706264320982484,2.888734643311878,2.127916339461711,,0.6447042257417027,1.9186084768981853,1.9451536049127072,6.157508506381619,0.8600115360125973
351,0.10616417571019493,-0.008238446506911534,-0.006978418678216406,1.1603153992006918,1.12495155052233,0.7592402697026048,3.804992035244257,3.216151658092148,1.743032469913011,1.959614004617511,0.675384900321601,1.9944470119748823,1.5444810431533524,2.171543407678763,0.8761689789285316
352,0.027261668001712147,-0.0008673652308570298,-0.004494096142813026,1.090313701654041,1.0433204221584245,0.8107009832620719,2.5097194295844454,2.4800397472525284,1.2146192277673855,1.4533575411644442,0.680118107274185,1.6428223564536841,1.0556076012715352,1.2202820358537232,0.8350909501250149
353,0.7701577582579425,-0.04298054059033632,-0.06784693360945958,1.1644180582217742,0.9819673723855745,0.7992571035860582,2.639502249442798,3.019712479322971,1.6594671533859848,1.8899246390329045,0.6125606311107803,2.131062375082551,1.343422802349437,1.3607972291864068,0.8712154808590099
354,2.6639195017181474,-0.2565482708665759,-0.11951587840695665,0.8913805928028156,0.8194506374950454,0.7365537695150558,2.228627105765006,2.61481482015033,3.227321183911392,3.32550433640464,0.5604843169999094,3.742749164026667,2.92861733689124,1.9636097261547143,0.8483602555473125
355,1.2645453957434363,-0.14725426925168,-0.09302449396126994,1.155283013750223,1.1086576176237006,0.7811681304375647,2.280028869262143,3.0840246945229914,2.244382112016456,1.9735673501089444,0.4629450596409901,2.632942728615405,1.8983576088062313,1.7057806168526144,0.8373888980414815
356,0.8826274502825839,-0.0936681488967322,-0.040806312659036954,1.5967209966344071,1.566436286647348,0.9305183108327109,1.9591880178094128,1.990352711813817,1.4845821406750221,1.0285306256792073,0.5022576003740722,2.212845958239176,1.2922315539103713,0.8903721428564748,0.7850068725709562
357,0.21723979011656203,-0.009399532729210978,-0.01160031364872335,1.4844328850865776,1.448271933649333,0.9047177736540419,2.1619010069962123,1.7465766891275996,2.5263817643122786,,0.5748741956352443,2.480914628518463,2.103364198438252,inf,0.8170389598796246
358,0.14300673954790286,-0.015254052218442971,0.0,1.6330307476694252,1.5662783837759424,0.9376641231900351,2.4799918269451986,2.702818431678169,2.2959072904630164,,0.6125606311107803,2.3059239942595604,2.0149030205422647,1.3896444480051726,0.8683625709335949
359,0.01041076395401682,-0.0011104814884284608,0.0,1.4126120318997692,1.3298937116902674,0.8413667334821121,2.540429384802567,2.269098753009021,2.212756922130846,1.237396394792406,0.6008849035917525,2.2469401695821523,1.850743293905463,1.6127879993193823,0.8188517059507239
360,0.0,0.0,0.0,1.560218379231992,1.5345166787208604,0.9219553242730595,2.356713917605318,3.374853817900538,1.4704581051448573,,0.6333676938231112,2.0402208285265546,1.3643154544011153,2.3059351798793277,0.8304599370483938
361,0.0,0.0,0.0,1.4292776623569812,1.4224348021972708,0.8591118157188199,2.2465570635887833,2.121778578019739,3.363956928720959,,0.62595550513784,2.336486644669727,2.6774875506920432,inf,0.8395959609441008
362,0.19343065642275883,-0.014697794076502277,-0.008513884694228781,1.490497583041477,1.4822519681196402,0.8983699356398549,2.4187796591024937,3.6196472426813098,3.450508366194871,,0.6207552362147116,2.243268515837626,2.9279268432710714,inf,0.7981785862071789
363,0.12225071891962956,-0.013040076684760487,0.0,1.0982007050901526,1.090533806606234,0.7772132430146125,2.2268286486496374,2.558054642612315,2.0449988953629874,,0.6566669596287297,2.269150316907808,1.8285331465798071,inf,0.7066888614826865
364,0.015908578655432028,-0.0019926403601630174,-2.244626952503948e-05,1.4822400961383682,1.4608006526706767,0.9328262501943831,3.305060991245989,4.130273623852551,2.3528098236150776,,0.6207552362147116,2.0782866532647057,2.020735498508506,inf,0.8013911714746197
365,0.009023701055900885,-0.001173081137267115,0.0,1.3864415317292962,1.3520549611589816,0.8978123874330892,2.8892304310441066,3.5060517352228047,2.04314891527119,,0.6097226960127671,2.047856745685396,2.0498267178022194,1.6127879993193823,0.8186588077933497
366,0.6612341390279366,-0.08907495780651703,-0.05567697574295191,0.8002789952956343,0.7639563863519465,0.6498324493775045,2.873247508905365,3.2722025036760423,2.0305688087353655,2.4322967747133584,0.6447042257417027,1.881465382312548,1.8276167791189077,1.9024250371155744,0.7295813977089003
367,0.04161236750825914,-0.0006390024274489235,-0.003799650106765385,1.3927425401716242,1.3557503257173615,0.9142149664399576,2.6384477362495526,2.4846891316172766,6.650691188743024,,0.6566669596287297,2.265289308250349,3.1633898761609314,inf,0.8289865582662258
368,1.2520894939323415,-0.28515834094460835,-0.1442455625003816,0.5303715214026262,0.38466142157746946,0.604509328738022,2.4529971660763294,2.947002431822338,1.5314866201405415,2.775621562989263,0.6038851895711802,1.5187342861199078,1.2232174666579836,2.001204176184103,0.91166725530049
369,1.1624058481053963,-0.19597376525346788,-0.04801449875603925,1.236033837739494,1.2187542993662346,0.8179341038625144,3.273537263395619,2.8817786063632056,2.3339363976761502,1.5491534925294301,0.6403206450210053,2.296161325196243,2.138797372814406,1.40808584397906,0.6735040729045183
370,0.7402697116054313,-0.08448356547987984,-0.04759053309303089,1.1000055315593333,1.046525547016537,0.7698868382403784,2.290681513640581,2.2685648690998117,2.0146720541258594,2.1764448823594686,0.468121228110369,2.1857901997105564,1.7140846717819422,2.160582547102435,0.8105468094281197
371,0.48329670007847525,-0.04815577136713267,-0.017194709424044316,0.9448172387706851,0.9044324721202227,0.7086974540350915,2.3825587444576217,1.656101469859712,1.303410114631268,1.6615605745869853,0.5567373465730988,1.9568699892916552,1.1193495351750222,1.020795266311302,0.790992563978585
372,0.0,0.0,0.0,1.2858694912196786,1.2748139297813394,0.8662690197655731,2.0688994189628045,2.7314227207744453,3.2547576367559676,,0.6309483474627791,2.445685936634719,3.2614354392869966,inf,0.8300624480541756
373,0.17441737082894715,-0.009883651013640339,0.0,1.4954971698903183,1.4953167844888875,0.9443864834446386,1.7697705500049319,2.2670536684050355,2.7458532431678706,,0.6509067234006624,2.954590330222816,2.7525310456989,inf,0.7855130906930218
374,0.5716453920556219,-0.028585656683145375,-0.02864007518377017,0.9669833200660201,0.9192911884642618,0.704738582847753,1.9532021942666642,2.1493202025767175,2.1626625266084303,,0.6125606311107803,2.4391687581141466,1.9762997637823676,1.844601950602435,0.8404664889720685
375,0.2697856651040421,-0.022482138758670174,0.0,1.3563724512477837,1.356484987584305,0.8704207289003799,1.7481866684040392,1.7579313727278543,3.1119526073461157,,0.6403206450210053,2.5884909660445707,3.1186304098771447,inf,0.7793027933181974
376,0.03846626278862729,-0.0021797548913555466,0.0,1.3327432886344819,1.2925020691209477,0.9041690059337726,1.6510995173049468,2.016965929536875,2.1080856862673722,,0.62595550513784,2.899210706563369,2.1147634887984013,inf,0.741443056184106
377,1.1727026834608794,-0.12721769805307845,-0.06279692572678267,0.5139426457520242,0.3700162004850605,0.5445270748504362,1.5174074796809938,1.4836431872175673,1.7192760489042533,1.9459364580457001,0.6125606311107803,2.1916401990423187,1.7192723121018,1.943692853246666,0.8663986238913465
378,1.9295862381773274,-0.29066425492916265,-0.08394071625526589,1.1715428048318157,1.095186694262085,0.8506477043147816,2.198772585434379,2.6481958712762923,1.7336279417719076,2.123028911944208,0.6038851895711802,2.5746854890347866,1.4563713339513957,1.547562508716013,0.8794958437944524
379,1.4574864826427911,-0.038866306203807766,0.0,0.7194386406531681,0.6447123780757831,0.6389594048073053,2.0369369799165855,2.013416536125629,,,0.5915533975974677,4.431216878864653,inf,,0.8957429996512137
380,1.314447277107409,-0.021907454618456813,0.0,1.2431996452328713,1.1931188400578878,0.8292236456432504,1.7710500075113005,2.2429743469382277,,,0.5567373465730988,5.289467751271054,inf,,0.8218971818735928
381,1.5157167672882288,-0.06503153427209477,-0.010754304092316676,1.3364507948462294,1.3288478411087647,0.847105758234687,1.877799478346051,2.4934486184839875,4.937342742483242,,0.5329562494928909,4.266319826961911,4.65633847256249,inf,0.8262886128850794
382,2.027795096644991,-0.24875392417898712,-0.06217465730657812,1.3451940997341119,1.3321750206066687,0.8577295164030498,1.7843927839539802,2.009845118790719,1.9587993377984805,,0.5604843169999094,3.159821062086886,1.7359985575807886,inf,0.8507253580930639
383,1.1321667956009194,-0.12895682886727228,-0.07162658060153658,1.4079249648937597,1.390667610311328,0.8488891017239137,1.8938678205523523,2.5269443680564065,2.4845861477524376,4.067441681134017,0.6207552362147116,2.5395740511303084,2.261340711983878,2.3439703091568997,0.8255678730567103
384,1.7289827263499409,-0.278299261101568,-0.1521184843718817,1.539634250984639,1.5199623170053826,0.8917676252594027,2.126826031316598,2.997068149671899,2.2415751905579655,6.7979143462920595,0.6125606311107803,2.3546974361607833,2.0525330528763885,7.00033446027523,0.8449722228628311
385,0.0,0.0,0.0,0.6161729814871243,0.49694791977573893,0.5293065436618581,2.301021092204058,3.2442647346890516,1.8034584453270808,1.7013980053531434,0.6602640781246099,1.499089855265235,1.4354427984166995,1.3896444480051726,0.8960527942009037
386,0.0,0.0,0.0,1.0025955332802403,0.9407803445726445,0.6434897082341756,2.5660322162860796,2.332617972750048,1.7506802399796932,1.5007273098909921,0.62595550513784,1.7525387560747736,1.3896332623854053,1.469687155678709,0.8482300819423291
387,0.8170188060398145,0.00473345722127716,-0.12227962220358064,1.5562638362773256,1.524643967529681,0.9134822549923851,2.4488211123612778,1.625973587604867,2.279767000493362,3.7167596139401513,0.6528756675646988,2.1018234925729664,1.9597312468261434,1.3081392899911546,0.834562043424734
388,0.35653284242473177,-0.04242970682776587,-0.0002744684265109672,1.622836948856669,1.6252325101165346,0.9448519007370726,2.5400528157716407,2.7472195609294046,1.8766627675579404,1.6080925038011966,0.648888643467878,2.2123382151462674,1.4283861970806215,1.3884143534339262,0.8699199276469616
389,0.07304428863792782,0.0012881304303871332,-0.0011047821676507938,1.6346788167162758,1.5657474088295222,0.9699454149089872,2.6950774441780974,2.0661078869731795,1.549480949551283,1.443689347805727,0.6180765742263259,2.353644496607521,1.4332153658666191,1.1781649203700633,0.9107986776324531
390,0.06171438820522689,-0.0008887253847808417,-0.0044598549263388226,1.6925857586942217,1.6619915825039102,0.9466587364669146,2.8319367109242877,3.056859705552074,2.515907341880701,,0.5915533975974677,2.4897182067852226,2.462648179187058,inf,0.8969988444167883
391,0.05129055760142491,-0.006773867454185219,-5.234967912710713e-06,0.823638049144636,0.7989655747516016,0.6577664948140719,2.3727062898992,2.353545638292068,1.2853124175795776,1.0300049782438419,0.6309483474627791,1.59001662145393,1.026214334557121,0.6093338570079462,0.8862293884713012
392,0.1559684839549991,-0.011676417493608472,-0.009639275313574738,1.6524781076634012,1.6015270022139367,0.9684537393227798,2.4445818960101358,2.8159380027153773,1.4950327292349788,0.7303514938663215,0.6068309995095971,2.0854149022842137,1.1979994437215582,0.6352976475731708,0.8860680713994504
393,0.26800383314559567,-0.03392470592891708,-2.244626952503948e-05,1.63237473523039,1.5965298382002326,0.9335572929070138,2.620868303839561,2.0834188168915553,1.8608628025060128,1.6454041849824392,0.6380535849069913,2.1449167977128747,1.6172504521708941,0.8496919242551194,0.9077429540636295
394,0.23775669083318363,-0.019251121109456985,-0.0076946371849704945,1.4533982412951447,1.4415510285805369,0.880339414962547,2.826762467042729,3.9514558804516606,2.345750418823661,,0.6153451465759925,2.2483073675655354,2.1390668734349414,inf,0.8782763598785523
395,0.24224486474303827,-0.03109817896560713,-0.002008619215941432,1.3218077187657418,1.3343992763965213,0.7829914696948245,2.4932419416565463,4.4700829770969355,2.0396115318319064,1.3923846680136955,0.6153451465759925,2.05139412912468,1.9422005299972778,1.0237296231250947,0.8943104628163027
396,0.17009336977064132,-0.02337126885942962,-0.00044180290846016596,1.493305010097803,1.4618035144687571,0.9108333259090451,2.401352951768352,3.97874704290039,1.4941138589499774,2.175497824806302,0.6380535849069913,2.027481802749125,1.1242547192814474,1.172440579656535,0.8935932792635931
397,0.05142433547857343,-0.007066567979780386,-1.0220917605593418e-05,1.3646635759014631,1.3123354485890315,0.872635289712789,2.272803332217893,2.5614509610388185,1.9400283347856864,,0.581717464821069,1.968655769376945,1.4446141935194796,1.2269518611505854,0.8588854384816033
398,0.0038672213935964043,-0.0004898480431888779,0.0,1.510381671880398,1.475439986406028,0.9034266860472885,2.3401579077914865,2.3216446819342904,1.6847341352543925,1.249412881610086,0.6233814453054027,2.0697992890809807,1.5578805451608992,0.9841793398970082,0.8860393299090493
399,0.0,0.0,0.0,1.5160282114828592,1.4895831638292292,0.9101086008344084,2.4661003557681034,2.715925743525671,1.626763857251492,0.6884187458442211,0.6357360191111145,1.7525387560747736,1.246532418744732,0.6319587463076561,0.8688486175010293
400,0.0,0.0,0.0,1.3987897763185222,1.3367003107018958,0.8932421396181042,2.3839051657458015,2.8161797313588472,1.8723354973185862,,0.62595550513784,1.8971199848858813,1.8640912419805211,inf,0.8697347364824264
401,0.05083789418583405,-0.004368104665568958,-0.0022408215785894685,1.5165527699361614,1.45774445630257,0.9384258382861475,2.4418537997998846,2.4181917047685664,2.2421465996879584,,0.6125606311107803,2.0720026125828377,2.128443480521809,inf,0.8809101247318869
402,0.07588921821020048,-0.012939959764200728,-0.001848411869238549,0.8020591190264722,0.7847029260168492,0.5970582598334016,2.0497521780430437,1.715526172059033,1.366976227188789,1.0058852464571046,0.648888643467878,1.6631317466318827,1.07177590864021,0.5813360205098991,0.9125595689692014
403,0.3466050307115097,-0.03924817732991327,-3.372615072450183e-05,1.5160736482278399,1.42637967708222,0.9516708632400155,2.1170238351316124,1.9935143034063083,2.704552400154417,,0.5883313578629602,2.2878059555674577,2.0355325716470283,inf,0.9015810110820192
404,0.36370671749343264,-0.03566991559029198,-0.020098447758701028,1.650722116632652,1.5850812799728902,0.966965934772997,2.3907839116244536,2.692198351418898,1.9601148673093451,1.7884093823427731,0.6357360191111145,1.9485692368532863,1.3849694963350543,1.683785549058712,0.891772459753461
405,0.026982896897111565,2.7078992591187886e-06,-8.590900493560955e-06,1.5633785440224621,1.5139463673106592,0.9483271409319753,1.8753052190896724,1.533833140651222,1.0252407372805237,0.989323460435671,0.6333676938231112,1.8907698195611549,1.0259459136746119,0.9544852776721242,0.8599647699029418
406,0.0013717363410695814,-8.852735950713617e-05,-0.00023154445340909947,0.9890719756043435,0.9257580494025495,0.7127949270407787,1.671927885258818,1.921030452657827,1.180368684021934,1.9614910581953822,0.6333676938231112,1.4566214556199788,0.994979375461549,1.0616460543892505,0.8819465389811041
407,0.06324259086861266,4.182536242737511e-05,-0.01538911396090141,0.7957727143134594,0.7978986674236921,0.5017502498055686,1.7704445688754493,1.7430948034769282,0.7258960979214362,0.9839852189452271,0.6380535849069913,1.2114824124638488,0.6385419648961821,0.5901638787397048,0.6597718254911598
408,0.1479061615914246,-0.026454627064278237,-0.007547025264461862,0.9089781715799786,0.842030557086337,0.6932625432326996,2.9018134201601864,4.540044342080549,1.455844937488376,1.6621341049312397,0.6333676938231112,1.5274483830995143,1.2506666924509828,1.1643671373623576,0.9254467885871795
409,0.0,0.0,0.0,1.493958016446463,1.3700181224836354,0.9235001043578108,2.6719361352677793,3.0810949738575064,1.095273387402595,1.5547945311612679,0.6425374456860184,1.6607312068216509,0.910895953170915,0.7409490300160612,0.8695503205025953
410,0.907939739101239,-0.10114897721433598,-0.04242803546063426,1.230883113037948,1.2400577859779407,0.8147794193880503,2.5468948171978933,3.030585172397926,2.8732603835165573,,0.6180765742263259,1.9155857284317235,2.149200031548833,5.0401940963378005,0.8097845245500812
411,0.3570136138441774,-0.04002827260105082,-0.016531833330266463,1.4249075963836626,1.3954944198445032,0.8943789258455667,2.560959800025333,2.771192499490834,1.8862860923272329,1.8733282706007106,0.5883313578629602,1.937479123577461,1.7853018822121565,1.4232922592017423,0.8917933953086216
412,0.35300553665136236,-0.05662457606740481,-0.02539165956578575,0.7792249054842719,0.7490093714311885,0.5199269784718716,2.579322152042312,3.010972580441996,2.270645101378043,,0.6403206450210053,1.6105496412867908,1.938761125839582,2.154471707529828,0.7427012972353247
413,0.3098126280646211,-0.037379282730100064,-0.011158029000023913,1.464814601876376,1.4404783817294966,0.8865821856214176,2.4810435118420395,2.4239701718316513,3.0240535250163454,,0.6125606311107803,1.9832428678143958,2.8258130528834906,inf,0.886708109059835
414,0.4670969229146455,-0.05813903038273235,-0.002583569596171573,1.2531753952213893,1.2280932267690692,0.7976475798063266,2.275684197726602,3.0012806257805806,2.7943020469502025,,0.6207552362147116,2.211323501715721,2.270646250486213,inf,0.890468277177337
415,0.21174010759111586,-0.012799532219071576,-0.006729121719755964,1.1752096930369715,1.1676608240982964,0.7829320949139321,2.912971821740562,2.944421114851989,1.6661362456953033,1.9610071554354263,0.6403206450210053,1.8374544284901846,1.3223666335967013,1.1898459498136598,0.9204688602188607
416,0.5692748309834538,-0.07687889040290054,-0.015288890444260787,1.2271493620065332,1.2036934966986184,0.7962019027641245,1.9250322778829112,2.1340479205538907,1.632939691930848,6.762176106260455,0.6153451465759925,1.900458886151396,1.500405217720639,2.430751742294051,0.8720254917713804
417,0.6943791542516943,-0.033988018770921224,-0.06420414735653945,1.1367908766928334,1.1020508355603698,0.777175280499339,2.0702644872307427,1.8341230199093799,1.5768286920326817,0.8220310857316463,0.648888643467878,1.9968175529958798,1.3774133804364612,0.9575251519016743,0.8837101692329753
418,0.07371811222102727,-0.002185849718173703,-0.005662608888671126,0.9632232446059644,0.9190773445440451,0.6899006348456879,2.8443909599322215,2.984354033292089,1.3923491604797111,1.1933052088147718,0.6284777104787076,1.7293482091066579,1.2834171970035735,0.9348847769610658,0.9397319103313826
419,0.31297638132943245,0.000241272650710965,-0.004727986920849123,1.570118843095586,1.5177973502159117,0.9486146981631614,2.175580433261898,2.409127272273145,0.9784014653104441,0.870609088110917,0.6125606311107803,1.801473161415694,0.9188183261088698,0.8209345387412945,0.8344191459816481
420,0.4455166458039794,0.0013789374402598947,-0.021993979639333028,1.444787748813112,1.4179261349337224,0.9118138580128681,2.0992044998744634,2.192760847693363,1.4889669878623855,1.0907036555359773,0.6333676938231112,1.8078211027754054,1.3413213840781202,0.9964953697561257,0.8838306383849844
421,0.32625887605565307,-0.0194831920305912,-0.00722622531616212,1.409825747783342,1.4053240162157274,0.8430291736833591,3.4107651985295497,3.5431429688470617,1.3407644410903246,1.1424407620579182,0.6566669596287297,2.115275994689052,1.2772920602750488,1.2170564813733706,0.9038398355461873
422,0.11118376093900206,-0.01864220498415029,6.903728160761232e-06,1.2255182860506655,1.1375306666018998,0.828534640044596,3.842206471828953,10.931075522042992,1.7168995695439344,0.8896041683410848,0.676637947632344,1.7559419763626614,1.490247949752254,0.7212283425347985,0.9361759479427993
423,0.39028842677938297,-0.04672136048157281,-0.03681541112431029,1.0408246299257,0.983749012211248,0.7199498788797276,3.4768987126288673,18.519601259751482,1.8057873034716652,,0.62595550513784,1.6449499556576896,1.6211339521972916,1.4382929282165582,0.8115972289271827
424,1.340846240566893,-0.10705137252308788,-0.11316956538310607,0.8371818576583044,0.8101492519222557,0.6490261739936737,3.2696421765985035,3.864848371535151,2.144762416073586,0.9325954065802428,0.5978297680564633,1.9316347513592547,1.7948311964167885,0.840552472247672,0.9225886314382554
425,1.3771260044697833,-0.3214407961962335,-0.06784642232674548,1.1006047660678633,1.0792449110404745,0.7513903501968833,3.946939010996405,10.237540261292436,2.4088193958848034,,0.6509067234006624,2.05572501506252,2.1980061326710394,1.724488172624402,0.9253409351187625
426,0.8630277333736811,-0.08279161080575667,-0.16372520585871458,0.7799959913048731,0.7537920089663044,0.5383410703520839,3.871806776143501,3.4153303913069837,1.973391265335603,3.198752630765496,0.62595550513784,1.6894435837564539,1.6556885739727527,1.789555785037028,0.85852589067591
427,0.6908080326581786,-0.09251059698171837,-0.029299026686725044,1.2066344093757904,1.1799333519188377,0.7944526685684238,4.640042935362105,8.779286053263256,2.0402552687292985,3.175078055668364,0.6309483474627791,1.9741610292221803,1.8970399816857106,1.9087428247138742,0.9143885553757197
428,0.7958808709992474,-0.08254890153367733,-0.028095197589413,1.2020524921016433,1.1982660638546125,0.8073291238810858,3.499927398449823,2.1271346337211967,1.1685205115714823,0.8723973184375385,0.6468212168108125,2.046737744062283,1.0900461920874456,0.9575606260723719,0.7588933000495359
429,0.06578814551411559,1.4502951096317593e-05,0.00012832634692889078,1.3132263712231607,1.2476803698894652,0.8348297574079615,4.489718302507943,27.74479896332059,1.328733905687737,1.5024065714107122,0.6619902821573977,2.17448509036673,1.0394031929904317,0.6887345975590693,0.8175513409069556
430,0.17284189317140003,-0.019012608248854004,0.0,1.2972730629051652,1.2625524936129993,0.8338207376692619,4.582148837252317,21.83201841691776,3.462501162775908,,0.6584896970785714,2.2379424106147785,2.776031784746992,inf,0.6879154084866771
431,0.2034238128161942,-0.0008044469550038263,-0.03581183935191113,1.4195621611817002,1.4008739310592904,0.8885169004017042,4.544306563141732,15.062693750340422,1.1102585855920795,0.8839531081156208,0.5978297680564633,1.756971643742391,1.0592207159795222,0.8148375614052485,0.8540165692136857
432,0.2237749217289685,-0.016716550195159205,-0.019064877900920693,1.3621542688628545,1.3504186377818346,0.8666865036876585,4.59285735574767,17.649142676625623,1.3136292867451598,1.4115880910246241,0.6125606311107803,1.8755034626610156,1.1927995037278107,0.8515282214871313,0.897572473809105
433,0.17413271675845038,-0.015071043910057215,-0.008727094046931004,1.4140102573657598,1.427508999665083,0.9024864296233918,4.273685834517819,7.82849784089592,1.5184876475703994,1.4425847408687646,0.6425374456860184,2.0428739175062947,1.4588807191471755,1.5155696455935819,0.8222540043460744
434,0.31752088871864276,-0.04026390484440418,-0.019077090506657658,0.8967409938142656,0.8731608142307847,0.6378860507921764,4.104925614151677,2.214403433569946,1.6299009166546836,1.4225567463686928,0.6447042257417027,1.831470969464283,1.3719690472740786,1.1866187896327844,0.8783259341127658
435,0.6544619407011021,-0.0291244404399365,-0.024416481685618545,1.166726763718987,1.1526345620816651,0.7258293485984222,4.424130636481051,13.331903255699945,1.7925229681755714,3.029534043092757,0.6566669596287297,2.25464184820617,1.6764507199423266,1.6773797267033794,0.8810848909325514
436,0.4531669622848414,-0.05756633056333688,-0.0027109257156045347,1.2124802171281794,1.2144285075964822,0.7818618923895031,4.7132572912471815,10.787715810093296,2.1300749530501726,1.4018447962841465,0.6468212168108125,2.158484749020289,1.812462935057887,1.410751291408912,0.7279388349337202
437,0.4676050854583712,-0.043025125571912154,-0.006852750210314113,1.1229693747982892,1.0952320402567683,0.7426862650648581,4.206704152008839,39.880127548088986,2.558145855728532,,0.648888643467878,2.426009008540515,2.271032831319459,inf,0.8712611039708612
438,1.4478041051841106,-0.3401559832590044,-0.1617494398714873,1.2553853196103377,1.2036222720137948,0.808538833137002,4.540706699359714,40.73652719529841,2.3228058403679346,,0.6509067234006624,2.176344099756864,2.220006862205171,inf,0.7990649541612966
439,0.3350750349199047,-0.03878559447806057,-0.008898772765707537,1.1831566339536388,1.1291168154774174,0.7442395094764003,4.371567355813972,4.039230957806107,1.2149441362601827,1.1122949861647462,0.6153451465759925,1.900681876452242,1.1370304693426319,0.751601505640833,0.5083197880229502
440,0.4426173284331127,-0.02180279894920159,-0.012110604238899092,1.2674237436300464,1.2442896327319972,0.8086344929508694,3.150257690156279,2.7499516794308203,1.3734598865365708,1.5548031130753037,0.6425374456860184,1.6382947388960825,1.122277581465238,1.088997670420276,0.9100974673170292
441,0.00012863438751532024,1.4964235571730459e-07,-2.244626952503948e-05,1.1170447505320675,1.0995883315614368,0.7965261579679009,4.3279242399843865,4.095683347109227,1.1751878817289465,1.1598007229203988,0.6125606311107803,1.7526669694219588,1.0644543267346132,1.1015906974223706,0.6569642838274995
442,0.0,0.0,0.0,1.1571359388491729,1.0909252724814087,0.7957119620169576,3.4375861453726864,2.3590276676679025,1.1541138874255283,1.7013980053531434,0.6668815377411301,1.455287232606842,0.9559972773105445,0.9012916800912405,0.7768797113840753
443,0.07693023657268826,-0.011283101363994276,0.0,1.3305920286228345,1.2970433842327314,0.8620080423688843,3.9118231058721813,8.93349129493253,1.4344404025428843,0.5074755368807087,0.6380535849069913,1.9634180778537564,1.4411182050739135,0.5141757106512727,0.7838959732585791
444,0.3341883195491757,-0.04713641512913779,-0.006333715998730323,0.8980324088247686,0.8168145329743279,0.6236708306532497,3.086166000186973,4.6763335038105085,2.2752019524306646,,0.62595550513784,1.9876121603063612,2.0804150935983663,1.6424442089022704,0.7014825539022118
445,0.13104676977824842,-0.017036080071172296,0.0,1.0076000343631184,0.9873929819419807,0.6472841719128355,3.2106539383510793,3.4712887403064023,2.5138197923596737,,0.5978297680564633,2.088011492362903,2.520497594890703,inf,0.9406031704163935
446,0.16180269466206393,-0.018337638728367245,0.0,0.9639470869985783,0.9411229893694867,0.6521792797054135,3.8580318239283473,10.190237918522252,,,0.62595550513784,2.246099745118356,3.46102163080336,inf,0.9174641639924989
447,0.05788679500979762,-0.0050742509531064095,-0.002495902571900155,0.717305792965248,0.6792513178513475,0.46272032993625706,2.8590117777246142,4.388690492022823,1.8722511589530137,5.855035266662634,0.6357360191111145,1.875141078167106,1.6262450307504817,1.2520263202115958,0.7134048584985194
448,0.10580625442483522,-0.015870938163725284,0.0,0.8101407905599333,0.7965982095443579,0.4715553809622284,3.511300370890799,3.664557228922408,3.0542958700839606,,0.5748741956352443,1.949661621481266,2.65884746577234,inf,0.8112832715190951
