,eda+bvp_XAp0,eda+bvp_XAp1,eda+bvp_XAp2,eda+bvp_XCond1,eda+bvp_XCond2,eda+bvp_XDist,eda+bvp_XFuzz1,eda+bvp_XFuzz2,eda+bvp_XK2_1,eda+bvp_XK2_2,eda+bvp_XPermEn,eda+bvp_XSamp0,eda+bvp_XSamp1,eda+bvp_XSamp2,eda+bvp_XSpec
0,0.001125352792888432,1.2731017218418569e-05,-3.2724194785484e-05,1.380786351504725,1.3427794195577767,0.857745180235008,3.8622833831435566,2.112394259660941,2.0104523904240597,1.7884093823427731,0.6699045166045591,1.8982317137385718,1.51167010855373,1.2166055010839207,0.7140570859209567
1,0.03731505724632928,5.3179911801364e-05,-0.004904137353824171,1.2279759365726448,1.193383491825021,0.8270076497835743,3.686551552899072,2.8950126527173596,1.5837612655603732,1.3601103011961002,0.6038851895711802,2.0600747391889858,1.5391671597323604,1.4180823833257061,0.8964927517923407
2,0.005778171146476735,-0.0008282045309949986,0.0,1.255281960822084,1.2274783837942465,0.8260148802875424,3.8151164795275503,20.211252650212213,2.1129885404593156,1.6363931750441474,0.6602640781246099,1.9477117710019414,1.9676501356917193,1.795109556113337,0.7798012788987099
3,0.09908512635657517,4.6107610485349865e-05,-0.015418694900355594,1.2881892493772633,1.2476952011076432,0.835679840399208,3.3982879082155644,2.176293225867962,1.3069844837093707,0.7613137194702884,0.6547956803312163,1.8370358140976903,0.936976142682279,0.5582814462349749,0.8188031034113912
4,0.12833832859088826,-0.0024158370279044987,-0.012556967974365797,1.0475244221619793,1.0056432024576831,0.6843518028198937,4.727192817807765,20.515099965355695,2.815158854543079,,0.6357360191111145,2.1921375382876622,2.4085980506325635,inf,0.6308030212187741
5,0.05591237187057205,-0.00931778138684234,-7.852760421217866e-05,1.1095154757779495,1.0969421617835815,0.7715158291171583,3.6900582546952703,2.726329054556777,1.3163970088449686,1.4296610130027165,0.6403206450210053,1.6624871335239157,1.23551365153674,1.2819016655230915,0.909360641920297
6,0.0004741872348757765,-9.009557462639753e-05,0.0,1.095555337343582,1.0565417981340424,0.7383640823505963,3.414448826921667,2.0902732521665612,1.6413491480438294,1.295932897244979,0.6619902821573977,1.6611991525484866,1.1014832442067888,1.338351153617622,0.789067371450871
7,0.35128772410499703,-0.005298366558548304,-0.04935429212596616,1.285238619173736,1.249505574044662,0.8451500307907717,3.939746433737106,10.037293702014006,1.9637151786840694,2.076091454794554,0.6233814453054027,1.657286853026781,1.4846279307052914,2.5652065921896434,0.850960284303847
8,0.058103525704615716,-0.00583587962695785,-0.0037856498221617353,1.070718441382539,1.0333559838569397,0.7492226728026289,3.422244807185616,1.8120797611854056,1.3783883086903355,1.7249436810188958,0.6425374456860184,1.6614917298641287,1.1604739953679755,0.7386182419415098,0.8705312115050496
9,0.27307567856659515,-0.040051099523100625,0.0,1.2439892122905298,1.1897602138810444,0.813198096836392,3.707139564176242,2.6284287095516006,3.1074957262193186,,0.6584896970785714,2.0018222810037343,2.6066868062498716,inf,0.8774107344482815
10,0.19571567755589472,-0.00811541946832824,-0.01905831529891834,1.1051168907798514,1.0878084610374634,0.7691088112236059,3.2993959723760975,8.390751123595132,1.6064462136014543,1.6914291195851543,0.6619902821573977,1.7594859086777592,1.4999226007130182,1.5108984086371675,0.6960933827990304
11,0.7230922367881822,-0.07528965419423916,-0.04578704543618072,1.1773043482143286,1.1513035013061819,0.8024451907488955,4.356058747230473,6.1063103125242675,1.9727541571146376,2.290844303678343,0.6309483474627791,1.9432027063770736,1.623655791185929,2.3112773642379763,0.7823801805551899
12,0.7128074938076256,-0.10759887867116659,-0.0005276558166631053,1.3438843059388303,1.31437087110121,0.8437788557470447,4.097186903088165,4.429183725904394,2.151231643347277,4.00536488148974,0.6619902821573977,2.102096232244642,1.8583003574677197,1.7946791793313897,0.7682523845800437
13,0.45085415039336585,-0.05741499567689784,-0.02261418456884403,0.9475815537803398,0.9476608314573147,0.6646971391450308,3.4647920965519416,5.64741459137787,1.6466557835483024,1.8082452029263016,0.663668482632973,1.647716846977885,1.4865115038300312,1.7994459021522113,0.7582403139050271
14,1.0229891422510262,-0.1737027574460774,-0.09650517771607081,1.0043791091175718,0.980518844051618,0.7171792180087342,4.06520848168562,13.31654920132895,2.2242441237818427,2.7499657475407577,0.6357360191111145,1.9091175951713582,1.972268440794898,1.6400748818959903,0.7390629387340764
15,1.2172847361731733,-0.22011167465776077,-0.038762333121430737,1.239025316154075,1.2019497017132805,0.8403154334854926,3.1999152080840085,3.647391829109001,2.6610615208522392,,0.6509067234006624,2.0366375126882708,2.4105797075228237,2.8999047185548883,0.8447886487662429
16,1.9903874387543217,-0.48357060977892,-0.16777881056501653,1.3472490662929044,1.3047071899387854,0.8672804929671645,3.39797587604264,1.2034770077773103,2.246545960230153,2.408221048617733,0.648888643467878,2.239610293832657,2.0662786838603013,1.9896881832629003,0.7143605982268162
17,1.2206740915666516,-0.18453788069747717,-0.05899569093383031,1.2531933338248347,1.193401037287816,0.8031104471094727,3.8732325117978523,2.223640389154425,1.8803335136541077,1.7659929409553121,0.6284777104787076,1.8813924614680924,1.6575355936601426,1.2633389732359654,0.8324281463644876
18,1.0021248457653196,-0.11066567454647588,-0.14168720520048741,1.1478775170876032,1.1479740530748548,0.8209207950675473,3.5498850798050787,2.6780781054050964,1.601288038105468,1.056323074729099,0.6425374456860184,1.5913797251790707,1.357893140637255,0.840040985619381,0.8750405662495915
19,0.8648021848494283,-0.06267029319199158,-0.0892245924914366,1.2155711901417536,1.190980948476583,0.8166968932930555,4.723546900835514,3.319804951457078,1.8126591390024591,5.641833826655159,0.6447042257417027,1.8602524656733552,1.4492777274629762,3.7160081215021887,0.8016815904675114
20,0.7725685890057455,-0.11384128572946912,-0.06035068912999342,1.14236484727937,1.0924816030924258,0.8064859176249083,4.172292549398837,7.669518164402708,1.4481625867810222,2.298946266251112,0.6333676938231112,1.597344664746717,1.2197766314098548,1.810521745683578,0.6836196528780762
21,1.5945020552804965,-0.26444352192935056,-0.19440395588917506,1.0006337750577894,0.9538863430913553,0.647072828126059,3.550540773243999,3.0281634107562683,2.001178183825133,3.3994399274577987,0.5883313578629602,1.6895037685237075,1.7958001224354474,2.9049812215383226,0.6847647572727421
22,1.6390654920309915,-0.2267115164337325,-0.25682680580388995,0.9168964737259404,0.8852963662829421,0.724922877068762,2.9227362158992967,1.9567216228418327,2.979679678741044,,0.6684167106117298,2.079086049319178,2.615522699316154,5.61434391200896,0.8290136738104534
23,1.456297593487697,-0.1409375398580227,-0.09180460148035213,1.0916244305256961,1.0723893524973338,0.7921566577715059,3.5770111195158387,4.450884751106037,2.119300858244243,2.989634328046133,0.6566669596287297,1.866411178923835,1.762523623062758,2.6253385528280306,0.8747580343717257
24,1.3911201964416997,-0.12863691105115455,-0.0782799700368281,1.150001135006402,1.1441667834794274,0.799596170156193,3.4321402893345327,5.116081642073065,2.8349363851886333,4.237891354798322,0.6233814453054027,1.9234639602254833,2.1316598888433362,1.4335472459704361,0.9137569203330367
25,0.6746681686728024,-0.11413777196062813,-0.03356093568820059,1.0036039259711707,0.9693152740333248,0.5803915554877876,3.4992935539047254,6.964000620697208,1.6062131715549801,4.067158194243388,0.6699045166045591,1.6264710449903408,1.3949209753442278,2.7585518152871966,0.8340854576085748
26,0.675761017490595,-0.0911100731510798,-0.025092643649432284,1.0748532446898182,1.0272655731855491,0.6459397472128865,2.562250213342409,1.7618276538383997,1.0578077991234103,0.9107782066992471,0.6207552362147116,1.3041205924374002,0.8872213217406639,0.6194795649600917,0.9300959113987053
27,0.2192827276737287,0.0012050782580380753,-0.00537409059476035,1.2615224032548655,1.2608617889414353,0.8304740843255263,3.6179116901472916,4.539075460498891,1.1057569538662473,0.7888567973791499,0.6180765742263259,1.36980877597124,0.8229258960921272,0.5183200380591415,0.7354635699523402
28,0.2465812490906409,0.0024301119749226344,0.000154097616638961,0.8076950901818144,0.8019835176140878,0.6286815039942436,3.7542099224750087,7.651619688231802,0.9206760854543201,1.1863338006407556,0.6566669596287297,1.5676030976561524,0.8230848768928662,0.7126295096849099,0.8238573685754269
29,0.39414256424937266,-0.027135330083427035,-0.03576650559771069,0.9228689135804117,0.9035895272874979,0.5454095274352144,3.8023084325678513,4.13529087031991,1.147038585805303,1.6262265207391675,0.6652988471865258,1.827455733886329,1.0258129360583335,1.009435210709282,0.8571619149084482
30,0.28582696556888415,-0.05542981334941967,-0.0007488697555293833,0.906076801171693,0.8848674139136287,0.64870364018325,3.5256668661602224,12.491705108750327,1.4168345053486109,1.4755143092280658,0.6547956803312163,1.7061323832606181,1.2416566455054974,1.1552599740861316,0.8154788348567756
31,0.45634766382545644,-0.04117014924928521,-0.026462559362530585,0.7438060773635223,0.7113187350253333,0.5885587478976873,2.435580683541181,1.27868176309636,0.8927493556839914,0.4459806276454984,0.62595550513784,1.1400247352486568,0.6408607374275199,0.40807336024301005,0.6506005805337294
32,0.5707047927507717,-0.050808467346799974,-0.053419853599991476,0.6081991701319318,0.5644961227812452,0.53301832099515,2.774069004676946,3.002898201894149,1.3049877447174476,1.20168370446004,0.6207552362147116,1.3992220086738933,1.1715330582401446,1.1914121829697306,0.8142655015307116
33,0.05235825570197846,-0.013825601268400638,-0.0006327884809982132,0.9351108486095147,0.9309086501611525,0.6587718525362788,3.4120861935141478,2.935332418023298,0.8810362284142293,0.8510508551952732,0.6547956803312163,1.2654936609741865,0.7119530225241248,0.5617049811420849,0.672822402899974
34,0.12564078024971626,-0.007247923520135393,0.007944586530824117,0.9842232608846749,0.9495425161196109,0.6214011582870412,2.9538367528825162,2.5269785219043523,1.0986341443120446,0.9044819901608687,0.6619902821573977,1.5622363109498063,0.8355145278352142,0.4990414869140669,0.7798696760835425
35,0.182590428205258,-0.0209210921826073,1.1456604452560887e-05,1.2365895496872519,1.211037457368247,0.8232171706493626,4.042873778224115,6.188152879869142,1.591429342380548,4.676552758462856,0.6509067234006624,1.629697310700925,1.3702661238253342,1.3250529454308428,0.8862159966594624
36,0.11777122512284341,-0.014900570602318293,0.004336670268096775,1.1782043686438082,1.1862965658937985,0.7661600885512038,3.19802371360829,2.818674022690545,0.8703955196943673,0.6021463433660609,0.6357360191111145,1.6396680510826223,0.6814205134759831,0.35320453974547134,0.72687609786805
37,0.042909119918308945,-0.007129073716859785,-2.244626952503948e-05,0.9943438690386791,0.9634534945597131,0.6622773737867308,3.4318882210023904,3.6807374793070773,1.3984856949858582,1.78701487646904,0.6125606311107803,1.818445734490561,1.2500962090770826,1.948782338679409,0.838975589746136
38,0.15951746184089485,-0.009303967654872465,-0.004727436760843175,0.8602536371037206,0.8213551824875913,0.5034747960980889,2.4215049969403553,1.7830302345894293,0.9369070701873191,0.8593300878854185,0.6284777104787076,1.178810563997222,0.7255951567820642,0.637988808881342,0.9215008069699006
39,0.1415072715916933,8.501546978910424e-05,-0.03215999703057292,0.7596632029262712,0.6893086076410513,0.6352907494461849,2.6677124989538026,1.691062449405032,1.1908360605803103,0.7951576093324896,0.6699045166045591,1.513875239256385,1.0144957819456994,0.8795153486108674,0.8133882096078057
40,0.0017832953552441716,0.0006027766131021546,0.0006112539176623966,0.9853208229695387,0.9291459549847582,0.6602184314591981,3.532467708431475,4.526357578194721,0.6576736012900829,0.35556077973940964,0.6602640781246099,1.1002469573445701,0.5180074844941029,0.27435720238578354,0.7733142830342793
41,0.09844020479647284,-0.0006634145580415654,-0.005234151522008663,1.09203895671496,1.0702530253996592,0.7809376027371957,3.451442454147681,2.4233229121076563,1.1820784273097849,1.3212111787564085,0.6284777104787076,1.584365968005111,1.0282225496185204,1.0171838053499407,0.7846536778538721
42,1.7259230462388182,-0.356147043382626,-0.11614370603165551,1.266117915284386,1.2643224002832898,0.7958630277868689,3.4722047286046718,2.967744431728282,2.38998693388224,,0.6684167106117298,2.1429258039288404,2.058261853911309,3.06324256508072,0.936552421440306
43,1.4114960782264625,-0.4708675198881168,-0.11970668671245717,0.9634604481950737,0.9434095028150798,0.7052444476565922,3.3940084752306903,2.955536412725922,3.157084218401065,2.234877571115458,0.6547956803312163,2.1104048853836592,2.9963742692654987,2.1263985247676067,0.6613555491649253
44,0.4899105143462829,-0.09709896584177688,-0.011321633981979051,1.0925358322836156,1.0727395261693846,0.7719145140701587,3.2354150771888612,1.639055156414647,1.0122028119204438,0.8546396001293203,0.6403206450210053,1.6772410157854631,0.9777424643800549,0.75357425590293,0.8398959327034998
45,0.7193153925413883,-0.0355162565670198,-0.07257361706557153,1.199713449627426,1.190617377656443,0.784241991259239,4.115915649219585,2.8982210157217736,1.9055414286139738,1.794976732114837,0.6309483474627791,1.9865585475331222,1.9051173165641544,1.0654186630709495,0.7878395632566535
46,0.23467619659330016,-0.01629299537598907,-0.009521386249273948,1.3099756435753975,1.218526241666526,0.8252003071936171,4.38455112037681,16.997426988703953,2.3888897224751298,,0.6584896970785714,2.3501426837609323,1.7081914409381354,inf,0.8950104304274568
47,0.11190340816053958,-0.005825063341313537,-0.0042462433931350265,1.295736303503516,1.2660843660647407,0.784852417093053,4.114843683452626,77.25675602577653,2.1524567353307567,,0.6652988471865258,2.468508503978364,2.050483985768675,inf,0.8598374623757536
48,0.044170433994792035,-0.0012574581101599544,-0.005662576549024132,1.0300326711255108,1.0105075767423906,0.7378748430772326,3.9967605220328153,29.347587470019434,2.2274961525584973,,0.6652988471865258,1.8783345777602451,2.006830140165032,inf,0.6324724240553712
49,0.32731233730117426,-0.020171483630192662,-0.022379120218959995,1.3276354940666757,1.293011345644971,0.828479764032753,4.7246316896866185,16.525369669276877,1.8112030788535223,,0.6357360191111145,2.1183209797407536,1.5907611816907024,2.001389301375542,0.832032903283203
50,0.00044110319993829637,-5.5873071992184206e-05,0.0,0.9245792741505668,0.9155530379740028,0.6769171159828523,4.4018971922554675,28.71048714377734,1.4369556665528707,1.503716979462676,0.6380535849069913,2.0666350076326174,1.4432617909528789,1.507427483661556,0.8088865825256097
51,0.6686786197375093,-0.07859973158501433,-0.04155746180739102,1.2990719279847722,1.2654906166955657,0.8194497493647939,3.9827557669465103,8.108651739499326,1.752394498204765,2.058659633191908,0.6284777104787076,1.8961574852743162,1.5441272850958863,1.6411307057871007,0.7090402851854904
52,0.5851662689881919,-0.035622885228754494,-0.04860975024204902,0.7548751599196819,0.7207573722440085,0.625605986164267,3.5647214127949276,4.505093521587851,1.423818660874713,2.2693375524958195,0.6822068148872973,1.9548275691001231,1.2179070997702226,1.2811460695715198,0.9526979091810982
53,0.36309025688895563,-0.026217672503189845,-0.02582526431756046,0.7486336950879154,0.7259829470616387,0.44635992532037166,3.8430398022915777,3.061747813463521,2.3118218280426195,,0.648888643467878,2.0441602016093827,2.2758310421450463,1.3904802190525687,0.7821955329402953
54,0.0524358081680372,0.00981827690848407,-0.009562439168893063,0.9157204108004917,0.8625350145775381,0.6346294696511834,3.568067862877589,4.271786246344304,1.6518816074040656,2.399398092009818,0.6619902821573977,1.6458137870915204,1.5033286997620052,1.5131861129745143,0.8140511434091442
55,0.02151238928048398,-0.0033702743206091568,0.0,1.09528522132044,1.07099304501311,0.7623147260933986,3.4893786320856592,3.78533120148577,1.7505600404483268,,0.6509067234006624,1.8704419912625236,1.6394548073229724,2.2005746642215014,0.8136372776885031
56,0.08884332164708522,-0.010818436102194328,1.616897833861368e-05,1.0031285441536189,0.9768226726525531,0.6932478877244866,2.844997388573402,2.3580350275741746,1.4035297018874675,1.4654621542139434,0.6713451011121618,1.9585226871061572,1.15100060083468,0.595485548102983,0.9017098079414225
57,0.103165427637005,-0.014099275110390682,0.0,1.160830057626481,1.1398034031936162,0.7113545472743109,2.939682284312031,3.6959360263802563,1.726291839353928,1.249412881610086,0.6619902821573977,2.0282415849814455,1.7329696418849572,1.2561130553806499,0.9388679470286616
58,0.2508673402131163,-0.01902038601190225,-0.01442859268317992,0.8593575423243549,0.853750713159591,0.6718490987252217,3.9401983829819995,27.71306105442312,2.941187793352059,,0.6584896970785714,2.0661085994786825,2.537951092225382,inf,0.9131704410678351
59,0.29536277782739884,-0.04224462812331224,-9.070336528158493e-05,1.209759415378899,1.201661559213741,0.7890400960417551,4.427468212750846,13.239386038516859,2.057809247233554,1.6087598378266292,0.6380535849069913,2.0305244014452217,1.6005055196819402,0.9808292530117262,0.8532612629865997
60,0.006793349188661957,-0.0010642913728903733,0.0,1.0333571577876637,0.9650265487080623,0.6857869650485714,3.435950837026891,4.215082860245552,1.641524371389511,2.1961016628637617,0.6403206450210053,1.859467452252132,1.3627472738815833,1.3896444480051726,0.7748017624261239
61,0.0028906836734855206,-0.00028906836734855204,0.0,1.1638433152892325,1.149264001887766,0.7084036734846154,3.452372633927132,7.3250051905563724,3.3884101460765748,,0.6425374456860184,2.3053667359559227,2.708607459405848,0.6964972674452273,0.9440931614037619
62,0.09851479094745327,-0.020031340825982166,0.0,0.7366444340359295,0.7145988779265513,0.47681754317439373,3.565555707858398,2.4380402610378824,1.6470825324502152,1.336500060417501,0.6333676938231112,1.6137806618682373,1.4542833844382197,0.8506479472724855,0.5776016530330949
63,0.8068927436656388,-0.10357200482125024,-0.03348387570218213,1.2057597373175908,1.18859058546862,0.7492929159141394,4.142485105776217,5.578521303746323,1.898788344866454,,0.6284777104787076,1.8552674104844367,1.6794613638022413,1.75694404954269,0.9411640447712005
64,0.7287166228194355,-0.071535436700717,-0.07182659615984857,1.0387262082706472,0.9644579491845329,0.7363851118240488,3.6461439334609507,1.2640673931433124,1.3142478173953012,1.2525519512576428,0.6602640781246099,1.7686290518392005,1.1384820300612621,0.8133737116288047,0.869026721244066
65,0.19661200101405965,-0.028615561575537643,-0.012061126463954332,0.5418108185981025,0.5232067990079579,0.5165752008617662,3.5632883829589246,4.052842283017407,1.3545922052345902,1.3873243000085338,0.6699045166045591,1.5688826201423898,1.1853860547614345,0.8613603174705193,0.8235083318705237
66,0.06931570573958051,-0.013497689770842944,8.362657684128524e-05,0.8765680546154017,0.8479164396692355,0.6737252650642734,3.4529199227304916,3.859815209620116,1.4348278368598923,1.2489349843489,0.6207552362147116,1.6270363041767217,1.2531871226676277,0.7673008415876729,0.8260704024595421
67,0.00044800849747581104,-1.0601528060710422e-05,-7.900017143445178e-05,1.192570487803697,1.1672315744417177,0.8111845528629475,5.5731813189193,11.027483893969151,1.3181814474278255,1.6704172947362188,0.6097226960127671,1.6098824556732505,1.2654036648048734,1.4488909812089832,0.7689123222383486
68,0.2636926627970637,-0.023735442548462455,-0.004264183662443768,1.2136799328352528,1.1901177507683294,0.7558603513844625,4.061467082869376,2.4152482956019243,1.6565331138213555,2.107774829069211,0.6528756675646988,1.932785543614838,1.5176020822380891,1.4380300355190794,0.8781866232737686
69,0.04421086099661366,1.503053717193982e-05,-0.0078030185564796906,1.3309135658237299,1.3388822503767388,0.8739340317095536,2.9899501017412886,3.0981976632267663,1.3017766089483285,0.6985972456026618,0.6284777104787076,1.750809482899101,1.0609359545418744,0.7022474383665246,0.9335630655193883
70,9.82029783974882e-05,-1.1129670885048663e-05,0.0,1.1084265623948666,1.0945690897889597,0.7317517604036032,4.030644028139657,5.259528700368997,,,0.648888643467878,2.177519994061884,3.5296013818598317,inf,0.9041830367375817
71,0.23821689562451423,7.677023586307591e-06,-0.019065028673547448,1.200739758122081,1.1988472126795464,0.7232635105342131,3.0998832406081864,9.484377161550498,8.832164010900263,,0.6425374456860184,2.568723135881111,8.83884181343129,inf,0.9273847340110981
72,0.1738403769030618,-0.02028137730535721,0.0,0.9792384319403694,0.9393855036572906,0.6430252655777317,3.176610705694035,2.4114701473224853,2.3933435151076465,,0.6447042257417027,2.2084877696149303,2.400021317638676,inf,0.7869962428803912
73,0.28615329162091463,-0.05246143679716768,0.0,1.1186113061337402,1.080533925532026,0.7401083097246898,3.4747079928185225,6.852607315505784,1.5512905602975091,0.7865785318704425,0.6357360191111145,1.7524746555651527,1.5567514475581925,0.7918074472495522,0.89361187679146
74,0.09953058787881988,-0.0003674498353892115,-0.027501114770680356,0.944922725412312,0.8881460576615156,0.6239067361924701,3.911521495531789,4.492255320508639,1.3128740175252978,0.6017209968338991,0.6333676938231112,1.2975918223582072,1.187314827429793,0.5865074834037387,0.890545280549661
75,0.0,0.0,0.0,1.0718191799994659,1.0383735968004821,0.7275784438845457,2.827831960880064,4.847213245068296,2.5356349697927616,,0.6509067234006624,2.0661963149298153,2.25463069987201,inf,0.8147283575144765
76,0.1885732911125688,-0.010751164574827391,-0.016906251455016032,0.9218440594086721,0.8956755244687478,0.5862064640269987,3.5477542188001077,5.550895174330638,2.3492336925651114,,0.6380535849069913,1.9665891602637142,1.9554841810179333,1.7883981215253502,0.7383287179086367
77,0.0014889573024830537,0.00026960372292663526,-2.0646413930112874e-05,0.811706708881157,0.7536002563911081,0.5150704740852247,3.7209386664626694,11.299834870523044,1.9411416549802043,2.076091454794554,0.6153451465759925,1.6798603767306461,1.6437588702861343,1.339886515984274,0.5631272795256256
78,0.015988870972193092,-0.00175877580694124,0.0,1.7195540247307735,1.7027007707010564,0.9326320719668013,3.976612395166031,28.463823326461384,2.382054302915846,,0.6284777104787076,2.219776981806731,2.388732105446875,inf,0.901291192432697
79,0.0,0.0,0.0,1.782888960151263,1.7179758287188491,0.9088838663067141,3.8404213263242775,81.09340308229365,3.4931686602009657,,0.6207552362147116,2.2072749131897207,3.4998464627319947,inf,0.8751131836529488
80,0.8963391118916081,-0.0973540141255905,-0.016182273380679853,1.3546799060257984,1.3306634048157069,0.7677604626246473,4.3461842589220065,41.658485000573,3.1742754209759187,,0.6509067234006624,2.567129510045833,3.174008751154137,inf,0.9493931957918343
81,0.4715173555560513,-0.05772954830284033,-0.001880080464425205,1.3539832899204067,1.3261185116266105,0.7811192830770295,3.7319665285640107,12.295428955626168,2.4695785658278093,2.249975217919404,0.6284777104787076,2.3179243625740042,2.19092605240841,1.2016210478245837,0.7583071307135704
82,0.19960507433191102,-0.031271461645332725,0.0,1.0896154016613442,1.0531791681624003,0.7220289052937167,3.876252227771025,1.8855506830646305,1.7260155932854881,0.6394096914473638,0.5604843169999094,1.941187982719984,1.6864918515218956,0.47335371613101757,0.9381984700584088
83,0.06411431751727155,-0.007045212778729337,-0.002785649240585632,0.9073853095310416,0.8528405999871018,0.5269531907277457,3.0732161996245413,5.499363322722456,2.6943616299990687,,0.6309483474627791,1.907469654723508,2.565698084660336,inf,0.7563713978646216
84,0.00031407299542192033,-3.3501119511671504e-05,0.0,1.7597378025043853,1.7415408996856274,0.9301189036256835,3.1237232722473935,9.693241534755893,,,0.6309483474627791,2.2383591206947746,inf,,0.8821563130047424
85,0.0,0.0,0.0,1.775587897508887,1.747372612158384,0.9371273903421978,3.4831989027536827,43.068387176560165,,,0.6468212168108125,2.5682882587270512,inf,,0.8660896972754651
86,0.0,0.0,0.0,1.7727149131709565,1.7561493585190076,0.9435896378888332,3.3953638533496338,35.886997935902485,,,0.6125606311107803,2.6127400212978853,inf,,0.8692020904188578
87,0.0,0.0,0.0,1.7756933698075417,1.7208686492287166,0.9415961640067088,3.528690004026104,54.14435011680683,,,0.6380535849069913,2.4079456086518722,inf,,0.850438293095288
88,0.0,0.0,0.0,1.774230426999253,1.7701805024355235,0.9251241518048509,3.7406723808907647,60.67981293792403,,,0.6333676938231112,2.7593434954897607,inf,,0.8543336548814587
89,0.0,0.0,0.0,1.763773025580249,1.747211678439124,0.9214808690234509,3.792068080676221,93.26497989927785,,,0.6357360191111145,2.5682882587270512,inf,,0.8485699737677634
90,0.0,0.0,0.0,1.764552810817348,1.7369355121353118,0.8871570188368686,3.8686340249117483,154.01516723415338,,,0.6038851895711802,2.659260036932778,inf,,0.8497022363924099
91,0.0,0.0,0.0,1.7623254893277451,1.7163614469276285,0.945207719420526,4.118592653353867,161.00553158008992,,,0.6468212168108125,2.5682882587270512,inf,,0.8291443897269555
92,0.0,0.0,0.0,1.7510544402991493,1.7271321124043355,0.9454370420595369,4.019820440493809,149.3642066601293,,,0.6357360191111145,2.9311937524164198,inf,,0.8290753705701677
93,0.0,0.0,0.0,1.7512488398641943,1.7006449047037406,0.9408614253278423,3.9127435064355454,175.75669336449815,,,0.6284777104787076,2.70805020110221,inf,,0.8243866095542826
94,0.0,0.0,0.0,1.696393681943307,1.6878160008740364,0.888629323950261,3.1763893501395817,37.38159960239618,,,0.5978297680564633,2.8134107167600364,inf,,0.9179580003750739
95,0.3647006506574848,-0.05105809109204787,0.0,1.2055447874358225,1.2209106489083983,0.7146332900447337,4.228706451772845,10.27195627910054,2.5556955617492134,,0.6447042257417027,2.0461357229733634,2.562373364280243,inf,0.9268522868316058
96,0.0,0.0,0.0,1.7758397490245028,1.7466322582882303,0.8957768297684477,4.114087673193057,27.35651370681748,3.397858480396641,,0.6357360191111145,2.3025850929940455,3.40453628292767,inf,0.8756636933316714
97,0.14855387696735778,-0.01535056728662697,0.0,1.261657742978094,1.1939162603983438,0.6579344854030439,4.197705723309388,8.92920140760529,2.7050445776268157,,0.6619902821573977,2.3022518152039253,2.3062572720496806,1.1019623755533916,0.781077346053799
98,0.00027824177212621657,-1.1055037805943565e-05,-1.120430396415376e-05,1.2114234940823623,1.214081888243746,0.7703433113182145,4.219603374485504,123.9648310255474,8.874880686107947,,0.5978297680564633,2.5260064606734263,3.1844650021335714,inf,0.8358236594056431
99,0.0,0.0,0.0,1.6515047749718041,1.5974423378483054,0.9048126291791834,3.86841816621356,59.53560021775966,3.2924979647388146,,0.6547956803312163,2.4079456086518722,3.2991757672698436,inf,0.8463132020908091
100,0.0,0.0,0.0,1.562903535426857,1.5291413375041278,0.8610944950039793,4.5508907259899685,108.71598260334905,,,0.6125606311107803,2.5257286443082556,inf,,0.8852866897129382
101,0.019342530908310212,-0.0018697779878033205,0.0,1.2892395393351612,1.2537987427809256,0.6854793035898457,3.504201821453887,3.0793013638589986,2.654353240495101,0.6897970936746634,0.6602640781246099,2.35294315233564,2.66103104302613,0.6964972674452273,0.7965222238855585
102,1.7090540087271835,-0.35666210628908124,-0.2605555059407292,0.9534957220740214,0.8558697194712286,0.5543069165796702,3.841029907897026,8.86973236510752,3.7906688473003864,5.620920939920073,0.5915533975974677,1.9825971857903493,3.5223344301206865,4.293195420967266,0.838450165232518
103,1.4194079461861095,-0.1854927589659729,-0.03688115260318427,1.280804976336673,1.269709220646567,0.7564768973623263,4.27683873123433,50.29636874456246,3.0457827598293963,,0.62595550513784,2.878640835020466,2.7147935824668696,inf,0.9490597186716532
104,0.40939041370396756,-0.02696467186348761,-0.01670363893160226,1.784061417702643,1.7401588759341995,0.8959616252340891,4.22725476767959,34.26069764757651,5.360499093280946,,0.6008849035917525,2.4850399920110124,3.7351391514606345,inf,0.927980961706876
105,0.2666453061246991,-0.054217878912022156,0.0,0.7253032838138614,0.6695996396068425,0.5223049008013197,3.5005471232661973,5.788744177486553,2.5583881866078033,0.7876883118814009,0.581717464821069,1.657869807456255,2.2574920992374055,1.1019623755533916,0.7493401433344344
106,0.10355576666221138,-0.007939275444102873,0.0,1.78788262144508,1.768259370044444,0.886144020330685,4.34422356242538,27.064736004272884,,,0.6233814453054027,2.638368677901402,inf,,0.8894922897569654
107,0.0,0.0,0.0,1.7858127620081727,1.7185391827075283,0.9330138535524825,3.3743884520143603,86.58240297336118,,,0.6652988471865258,2.659260036932778,inf,,0.8174775530620874
108,0.1177123372416978,-0.009024612521863498,0.0,0.8974025951013428,0.8652668847585074,0.6075995353076655,3.6162817244367034,40.02657028172274,,,0.6207552362147116,2.6349546460316593,inf,,0.8084630823736935
109,0.48490018975125054,-0.05010635294096256,0.0,1.1588351756128743,1.1151954136391962,0.596885188857966,3.7924639969421143,12.300417239940957,,,0.6068309995095971,2.3708639337473403,inf,,0.9201051266404965
110,0.00023889243395702327,-2.2296627169322174e-05,0.0,1.0526125029794713,1.0417802240540304,0.6513040412484683,3.73750086214233,56.4330244242735,,,0.6403206450210053,2.3718160880682637,inf,,0.7602135768606086
111,0.0,0.0,0.0,1.7862624266664722,1.7743283573854525,0.9452234753768974,4.426846328391024,393.6792619179752,,,0.6284777104787076,2.659260036932778,inf,,0.8437801553385174
112,0.0,0.0,0.0,1.5522668227282548,1.488956167460753,0.8057688908183297,4.276618575138285,207.39747008789405,3.5230216233506466,,0.6584896970785714,2.17742195004004,3.529699425881676,inf,0.8478463608543301
113,0.0,0.0,0.0,1.772167256621123,1.7039029602824227,0.9236874889793234,4.728840009947152,152.88814786820603,,,0.663668482632973,2.7593434954897607,inf,,0.8624099893278929
114,0.0,0.0,0.0,1.5954358451238577,1.3516440876491862,0.9075355154104706,4.980760440662782,5.633596670737336,2.3637847128661025,1.0952622017828277,0.6566669596287297,2.2380465718564744,2.0827804429453507,1.3896444480051726,0.8452228902032554
115,1.3620811246894726,-0.25436922785048477,-0.1533988722358416,1.024120841885096,0.9118355832219359,0.6468216724769856,3.8719118773526215,28.08784075016525,2.501434414388928,6.055921567653746,0.6380535849069913,2.1436838104081897,2.079251986186898,2.9505226481200553,0.9456202890836135
116,0.9826228735095395,-0.09942278245601853,-0.07559374138105301,1.3240781960951118,1.2249072169224688,0.8060502853626903,4.5975487181741075,18.570206848166123,2.23650650355855,3.195676651717602,0.6668815377411301,2.177814183816396,1.907240331498612,2.727390583862804,0.7542651232820582
117,0.5094806422704308,-0.06502696830232535,-0.006300321615534961,1.5397086747176028,1.4889037347437821,0.7906512696819035,3.82979708305176,28.509121954028828,2.386745690875948,,0.6509067234006624,2.310953342664562,2.3396792174002865,inf,0.9433074155069121
118,0.15886008348943315,-0.01885452087848881,-0.005303292115752705,0.8650031635810163,0.8208475746235001,0.48310653623380223,3.465290979276069,8.78095540237932,2.2205751406506757,2.7023445574981544,0.6309483474627791,1.5734274749110673,1.7483427731197663,1.3728385006044987,0.6885799953484161
119,0.04339676293895181,1.8090256680037588e-05,-0.004936390056427909,1.1046036002825685,1.0905581457233584,0.7102430769331074,3.095970243553118,3.0440097853016286,2.886022952418088,,0.6403206450210053,2.2085889074152694,2.4145189792594897,inf,0.8402924166243345
120,0.0,0.0,0.0,1.6397907769035314,1.6039334005746355,0.8748621912268426,3.9405273997421233,16.626973025590473,2.88703285663065,,0.6509067234006624,2.8134107167600364,2.8937106591616795,inf,0.8789806792224845
121,0.2556134900216766,-0.032377708736079036,0.0,0.7965823900619641,0.7490711583665031,0.5787160303762124,4.225786883774552,2.910518095660837,2.160750114474606,1.3829442742346088,0.6566669596287297,2.1533990977961897,1.47428073644569,0.9841793398970082,0.9482098836299468
122,0.0,0.0,0.0,0.7103929611832503,0.62305771871604,0.5493369279284217,3.233723647095567,4.623852325287707,0.8772230798605781,1.0216931651078456,0.6284777104787076,0.90799192905946,0.5224633278462003,0.45137480941224234,0.8150176645852508
123,0.1279562391260693,-0.018766915071823497,0.0,1.0237941166414242,0.9350794874778628,0.6486025248312054,3.6737399798820527,58.24455948460046,,,0.6357360191111145,1.9832428678143958,3.72387850810732,inf,0.6976957879919518
124,0.03850817669777474,-0.0046209812037329686,0.0,0.5620863146557517,0.513458770392101,0.33462016715419485,4.733016412960475,87.18977331022232,,,0.6584896970785714,2.1413169453979233,inf,,0.6650458745877729
125,0.0,0.0,0.0,1.781292782915408,1.7619467285211914,0.8930276622097768,3.7636933098033647,322.2409028269923,,,0.6447042257417027,2.5682882587270512,inf,,0.8984340866645879
126,0.0,0.0,0.0,1.7816017173148395,1.74540188400185,0.8520053096186674,4.175915220066415,394.5940036177429,,,0.6602640781246099,2.70805020110221,inf,,0.8601826293823795
127,0.0,0.0,0.0,1.1817627523856975,1.1659117517745592,0.6029261792324341,4.141756983637097,79.11277538315221,,,0.6125606311107803,2.870569130599985,inf,,0.7505097567148884
128,0.5290849770192809,-0.10052614563366338,0.0,0.9179200471464253,0.9096004572596288,0.48814141446281334,3.9100586148343446,76.75407945026232,,,0.6584896970785714,1.7726760547517886,inf,,0.9016200027610487
129,0.06254788579809545,-0.005420816769168272,0.0,1.4283113988843616,1.4048828411636038,0.7098923066977108,3.9373430578392394,1.9252806155613458,2.530225628810516,0.6897970936746634,0.6380535849069913,2.477070764020225,2.536903431341545,0.6964972674452273,0.914121103225569
130,0.027962250281369425,-0.003355470033764331,0.0,1.1066327853467797,1.0886815429622934,0.5608247160007479,3.7365600343002283,22.817799293938368,,,0.581717464821069,2.1381069728531306,3.5690144030685853,inf,0.9052754717939009
131,0.04662632449407899,-0.011656581123519747,0.0,0.6696196226846962,0.5609588855246195,0.5188282024895934,2.5852310167209445,2.7262747522038215,1.7280292083104765,2.561341969661417,0.6284777104787076,1.407722308533511,1.4661857233319886,1.7379511422733884,0.8353686748006073
132,0.09171551121840169,-0.025425527579227163,-0.0018587393936425976,0.8844045136153122,0.8184311475189789,0.43985125192819174,3.096271811308931,2.904515773062925,1.3449600826268273,1.534181199086642,0.6309483474627791,1.2199892748347094,1.0082101068009404,0.8538172605153536,0.830809883770636
133,0.5426911636278876,-0.07654266431059253,-0.01687805434064745,0.8039958968689079,0.7887145222598718,0.5687549918594067,3.441269921500135,8.857905889949933,1.4512246761248662,1.381983674746708,0.6652988471865258,1.4268849009463687,1.152332428312873,0.838787170719295,0.8456732868917157
134,1.23082330483616,-0.1680848144040372,-0.05092852138706961,0.9012432017801484,0.8274918409468808,0.5598966613215343,3.74542216605255,2.712792325110176,1.815321551886744,1.8563683231622727,0.6357360191111145,2.2844177890385966,1.6472411909064082,0.9319941238026049,0.8196042041070166
135,2.197196844331993,-0.4083482655960304,-0.19180610830137435,0.9905901385455826,0.9767715654698559,0.7640332508455805,3.4107812314695485,3.0767888445503155,2.0314085534668926,1.647803503741986,0.6008849035917525,2.120263536200091,1.9064223775481948,1.419873695940843,0.7534358624472305
136,1.042756791533013,-0.17279016769896965,-0.12713269890897258,0.8127240774426452,0.7959557831086813,0.6708847444958206,3.1352865164228625,3.787855014800334,1.6396856341442032,1.9106855085749004,0.6602640781246099,1.6133343827132236,1.405325395484472,1.1803048331545076,0.8474713291162135
137,0.6803996925979311,-0.1215329595236396,-0.05041750191078512,1.2222446023341589,1.1445093488494027,0.8508244383570783,1.8676785270770373,0.33743131278067096,0.5727400158283624,0.43709961354211996,0.675384900321601,1.275707526490483,0.5056396723902623,0.2476547460410212,0.7758450137109523
138,3.2311752748896727,0.10636501065809156,-0.2539369556087019,0.34474166198771145,0.31389565509403744,0.33768939736034986,0.3510936712054291,0.27462497833593985,1.622084382729474,1.3689196561024068,0.6333676938231112,2.8463548724793903,1.2036538759226587,0.5485168948673739,0.9483170881092078
139,5.414619665035128,-3.1982457419043295,-0.01442859268317992,1.3267229635329882,1.326435635226089,0.7395148145904413,0.2834934839174953,0.3391465835923979,5.120257947261387,,0.6097226960127671,5.58748201896004,4.433788569232471,inf,0.947742490099684
140,0.24840715497892515,-0.026470178892708557,-0.008852097208088494,0.7159488435921157,0.5872394228591036,0.506195338175577,0.7367718179630712,0.3701358773404937,0.15460852204650108,0.0796292345485041,0.6447042257417027,0.5701628801485695,0.09122726879818407,0.02920473593704732,0.7457275874356845
141,0.2736870403467738,-0.018447177642190237,-0.016964511365496246,1.2582909555139294,1.2587790547440227,0.8285717136804838,4.937900314470799,4.507307302864198,1.550727853723165,1.0985127989288979,0.6668815377411301,2.1182285711097215,1.5203803336643484,1.0694557043766542,0.8973729836403626
142,0.6766905831105449,-0.05891249101806362,-0.027291230362607416,1.289069691566308,1.262451540318704,0.875499004138933,3.7020348776907905,4.575115600130493,1.1600444970987709,1.1853673889762921,0.6740851607140061,1.5723027057718404,0.9776047942335738,0.5833004425506961,0.6084734853596857
143,0.6408740562539996,-0.07622744820960203,-0.046939447982941085,1.437914530948274,1.4374618686012437,0.8916070004980509,3.946615022434447,21.176590279489012,1.9008246594962617,1.9919643302787928,0.6403206450210053,1.8043044967303499,1.6157359727332852,1.884965885235198,0.7640949050128225
144,0.6833511445079934,-0.04496429426581279,-0.07327291788258927,1.2876533783795152,1.2905457639056193,0.8592536136988465,3.92138948114881,22.82332222643809,1.7771268414125239,2.119698350997043,0.6403206450210053,1.8413699697813894,1.629892286329053,1.3612268526023392,0.8351237695629694
145,0.8577373380197871,-0.08200592024695988,-0.05665891398846482,1.302537877953308,1.2716120067593777,0.859204000501079,5.047623751798924,23.554168987681123,2.6792913154959255,,0.6619902821573977,1.8885640984992467,2.0800292584172935,4.260917762047916,0.7110735723252235
146,1.2196993350832392,-0.1225527090354161,-0.13414472786008297,1.2616782676675597,1.2453367966775544,0.8527586851261868,4.110085921871631,7.484543023575007,1.5902993571706683,1.1670248093301003,0.6468212168108125,1.9166426513747452,1.445975248319935,0.931804940910634,0.8223402053464778
147,0.6507716332266039,-0.03483603405915031,-0.09711870384700083,1.0607351273306351,1.0412495438839342,0.7564149244135145,4.388294499491206,6.381948280010933,1.6940203551967037,1.2520528292741346,0.6584896970785714,1.6958434123982284,1.3971342455945979,1.0222501151456986,0.8599408486427106
148,0.4767556933951403,-0.035286246628687276,-0.03881682481604683,1.261936133509709,1.2479404590552912,0.8369103083312789,4.789344092030425,5.583662568994109,1.8192498107182387,1.7643331649403742,0.6380535849069913,1.844457258228504,1.489393049974041,1.0358086776626747,0.6908852785067315
149,0.27384449296717006,0.025757354100905794,-0.009492062666740408,0.8442180082376477,0.7720242061142453,0.6008321733925244,2.591877910930366,2.838346519128826,0.6100934217467798,0.9041654208615044,0.6284777104787076,0.8232052470919414,0.4728016278676439,0.416448620930425,0.7014246736848954
150,0.16316700054649863,0.035942826434215557,0.017032385786164145,0.6967748378919638,0.625442776685649,0.6219393613298627,3.2156668697811597,4.24189853802994,0.860565745317495,1.1588305940619792,0.6333676938231112,1.110684869902379,0.6682241873468563,0.6422093527918981,0.7150249228062304
151,0.09695567473132967,0.005405247980864478,-0.011687054552885677,0.916976606185945,0.8245918436381883,0.6724080653462875,2.8749689613717244,3.2821555118754144,1.7477732458608577,3.870485716821625,0.62595550513784,1.6983905664226069,1.5190973331707458,1.1000002139429577,0.8204110996623472
152,0.21547150366908227,-0.0022387338443263793,-0.02351684463010305,0.30776431946239113,0.30244638016355024,0.36006332518446643,2.9358925196998573,2.83512849033427,2.1866559634958014,,0.6333676938231112,1.7332390204160468,1.7736893158783507,2.190209595643135,0.7423708640732238
153,0.009341806677238057,1.7631250689402987e-05,-0.0021973861420449495,1.0261632375791967,0.93652251338354,0.7571640461283767,3.085722512433331,7.028233249548322,1.1472331263333062,1.4795976375854012,0.6713451011121618,1.4621679936990644,1.0871705162483247,0.963908375523389,0.8488525462950204
154,0.13264556949085649,0.015478498450123307,-0.03630380915177186,0.9904172456201416,0.9887448382150233,0.5740876474514474,2.9313154291463035,16.038502408487144,1.6240556335684255,1.3536738919344955,0.6380535849069913,1.333069599882593,1.278005142096231,1.3059608052728664,0.704455360732629
155,0.01960266797150098,0.004370990453161088,-0.0021163627298251267,0.6989508327486179,0.6522361822249674,0.4575717915958632,3.1080298915754785,2.3299903184350628,1.402846197703161,1.1149482390458658,0.6233814453054027,1.3875395805283226,1.1843784462493074,0.7903792059269688,0.5840850219611059
156,0.12913961003414348,-0.013718450427821294,-0.007840900228433327,1.094742266369007,1.086358184711191,0.7513111665212071,4.87484742808003,12.63793695932276,2.1889341963464912,,0.6097226960127671,1.8003966626237184,1.7879338328296135,1.5986442837593309,0.8024053934223482
157,0.13006570459331815,-0.021910266907053746,-0.0006344552224547346,1.3425788321507044,1.3326941522590876,0.8779827008075055,4.125930681480274,12.11879212790361,2.0448825460944233,1.8578480853128114,0.6652988471865258,1.7943628550981698,1.5307998402879879,2.38530876742084,0.8417841509763975
158,0.08021548806903296,-0.008327904393463845,-0.006408550584252805,0.9996942316249324,0.9913854254323086,0.7333753505377942,4.737487920258527,22.749463576245784,1.3149214972735108,1.4542441337807492,0.6068309995095971,1.6338444548353395,1.0192441881928964,1.0397988324832395,0.8144966252347243
159,0.012426947777253904,-0.0019065275490227468,-0.0004545925286554951,1.1392010202268894,1.1134554618954944,0.7715562790022573,3.826404763108978,3.895830987143543,1.0870395982933179,0.99253487105918,0.6008849035917525,1.6716088680975933,1.0461550251922558,1.0467974204618353,0.8705469498737969
160,0.1783637668724308,-0.023349588550942258,-0.003834831237701345,1.2940919574928822,1.2631247127574248,0.859166799257692,3.892750300445991,5.52184501714725,1.6451537201344915,2.201279189222697,0.648888643467878,1.8506605771482159,1.4913249448820933,2.0841652160276123,0.8946949610183726
161,0.8678870699834234,-0.12337444297843292,-0.055227333976089435,1.2007975412022336,1.1870613290467151,0.8273008177456507,4.051518271770687,3.624661936895114,1.566021551138161,1.15722115103407,0.6425374456860184,1.7905601886525728,1.3102857174571385,0.9491628422923374,0.8125833754758283
162,0.8405104152209687,-0.16411609599351268,-0.048339793478240405,1.2313687620747416,1.1962636247531564,0.8193654340008547,3.9761975146883595,27.919834023325,1.6853626809145144,2.281389218459696,0.6233814453054027,1.8253162527568976,1.4658316237612998,1.7707807119656087,0.7755254132467038
163,1.186163507984428,-0.15925368774143073,-0.06673364799403486,1.3595987354323806,1.3063834766598608,0.8431918486148692,4.834659669796756,12.612706361248538,2.4063769318747137,1.9629102087557768,0.6425374456860184,2.1049189065521934,1.962459207440093,1.910841206365675,0.663567337272977
164,1.8556187649977813,-0.26919714219442475,-0.37921255602926573,0.89422321916303,0.815177462241317,0.7301855020388465,3.330487111251524,2.710474523556511,2.933248603817964,3.1112497325076762,0.6447042257417027,1.9484912550230133,2.5613687511607535,1.68276918551965,0.5564380990698445
165,0.6767779027336366,0.033984051429084255,-0.03687575722611611,0.9906589266952105,0.9631660932153143,0.7255763883592483,3.2947617320986016,3.043710147834982,1.542253135706713,1.513016562403743,0.6619902821573977,1.5819848856527996,1.1902483442263236,0.9350365160131617,0.7865210871442772
166,0.8575509970447737,-0.03446728149369438,-0.037117036203242665,1.270401740212201,1.256264284086837,0.8739463112113035,3.9048029187277025,3.1656952976137465,1.5177405883899375,1.900085782569746,0.6619902821573977,1.5928539671671198,1.2496804613148849,1.1540786452467608,0.6370224418885146
167,0.6479250658403243,-0.12019138511790499,-0.02626288512319179,0.8824186262761436,0.8088697911138987,0.6685932029183035,3.6795549053455927,8.914078410093385,1.0605662090162487,1.67688857775828,0.6699045166045591,1.4615448660575716,0.9584483328877844,1.0109763410504695,0.62183013963912
168,0.22139736816101174,0.0008933619158458944,-0.028272449600296325,1.1511279594985233,1.1452210631613597,0.8115889649296513,3.2276789109962207,4.913322984038693,0.9228389051474432,0.701503885084968,0.648888643467878,1.311764255854667,0.8337221260771381,0.5971552639400242,0.8846187013712152
169,0.6281786528777368,-0.02823364694030095,-0.03529176880375662,1.1785942098181117,1.1202035191868494,0.8268445690973141,4.842707835006519,10.615753081384877,1.692780028584607,1.581398422628541,0.6333676938231112,1.864258480044294,1.4761574293580024,1.1211350488108784,0.758945010243746
170,0.6520317014256725,-0.017721739462704916,0.024429645164748937,1.2269519835579654,1.184458255865731,0.8434215432689631,3.7766150693024745,7.740859163745643,0.9424615082988049,0.790661313239696,0.5947193981915972,1.4422769958708272,0.832368728433977,0.6357246800980504,0.6460895098841289
171,0.2505756182094234,-0.015623119907038303,0.011923821147210585,1.2133792496976064,1.204661284597459,0.8249351259197979,3.5342359040369655,3.373674581608553,1.01991836603455,0.8481264325524306,0.6097226960127671,1.3035885360268704,0.7648031694663805,0.5818613968827424,0.8767495086602078
172,0.11316884951365419,-0.02320782540544249,-6.415241489161959e-06,1.3392646875099394,1.307913647119023,0.8811646898491309,3.8701958271025627,1.756880184007874,0.9854591701796156,0.2995122648702952,0.6284777104787076,1.5789087073992776,0.8420846166450701,0.3067495104035987,0.5991192321561716
173,0.3593115307745583,-0.04508902074310624,-0.02557821310961232,1.1998121553397882,1.1874247857316216,0.8161078904644099,4.309061631694405,9.208232866219241,1.612504018521955,2.1212788792223827,0.6357360191111145,1.7281588878184604,1.4440454177405937,1.1411257978285927,0.8385306142566752
174,0.6229419267837878,-0.11493931424070696,-0.01929400876708689,1.1677766168342198,1.1538042903491879,0.7616296172448553,4.563344209694295,10.66424076298735,1.2886990889535834,1.416773190591081,0.6468212168108125,1.726471229199938,1.1446863097724225,1.3248506770262405,0.7795378176193755
175,0.49969439108311026,-0.06789759463391047,-0.04129264338840418,1.2323146858727134,1.1981100589227274,0.8531853179158588,4.692312423634608,11.77356749741677,1.6652111897167274,1.2160871765014782,0.663668482632973,1.653273703138401,1.3963282803283208,0.9604014303216281,0.8328634286764357
176,0.7687068974537287,-0.08728572557790404,0.020478310128937083,0.9864685738666491,0.9754237021343617,0.7553566409499226,3.193547543419329,3.377823520439773,1.0304130193608894,1.0929718580090444,0.6403206450210053,1.4407740131070357,0.8349527923841411,0.7017290593121012,0.7098664445455373
177,0.20389311526458206,0.03278890997363454,0.01680496909845615,1.0421049786217562,0.8581527919442812,0.7346257138955054,3.2903599938282384,5.039205822195845,0.5555930099155861,0.6571712347142104,0.62595550513784,1.0560957307317864,0.4320098965347891,0.37543631505717884,0.6686334847484707
178,0.09802801161982193,-0.003136813130029982,-0.009544392043640588,1.2660449632686355,1.2348105567227425,0.8642719185398287,4.28499280524842,9.666662027960886,1.3248496720508227,1.1596404314032172,0.6380535849069913,1.5540557665825157,0.9034951531956296,0.5216520518246353,0.8151762300119583
179,0.027079790558968614,-0.0055507611748622995,-1.0179731898325988e-05,1.2037437103087352,1.1773375426116999,0.8109942177500357,3.674549285909732,3.707540505483819,1.5514406433287018,1.4971286213885193,0.6309483474627791,1.5499119331200735,1.3902805197600472,1.4060381295218438,0.9020078288259964
180,0.06335520870418346,0.006057558475852147,-0.012430909182706472,1.0969708189235738,1.0616188919264031,0.7512928270036935,3.5539030450605384,1.9344613728753686,1.058280183813629,0.9917580074302932,0.6602640781246099,1.3444702022674364,0.7908129735285997,0.7156755797432937,0.7860347624305771
181,0.0,0.0,0.0,1.1435526515368637,1.131614215540024,0.750045386204179,2.875449484492068,1.952687660067416,0.4635949760819949,0.39081890573974,0.6309483474627791,1.0124345924270572,0.37719866995834783,0.1937038153765009,0.8328365545047103
182,0.0,0.0,0.0,1.0985118084537044,1.0608302528878262,0.7680171298192869,4.644516946100054,1.4075955606822674,1.4905861240467413,1.008250824793198,0.6125606311107803,1.8119621765455745,1.4972639265777707,1.014950998563762,0.8678890648390807
183,0.007710254853919352,1.2191973375156456e-05,-0.0016056446431851558,1.0571531983195912,0.999499012580304,0.772909856467127,3.570906634883374,4.566639626468197,1.4785902622877487,1.026269330295876,0.6547956803312163,1.5827959814876793,1.2553629049615511,1.0805531071297123,0.7731285255457827
184,0.01789855395890783,0.0059899270551955364,0.006007606567678958,0.789772716663192,0.7697769979817277,0.559334480612245,3.097753985786441,2.403419835386951,0.7765506460880603,0.8855089303872353,0.6068309995095971,1.117081804951771,0.6133944358593856,0.5297946382426982,0.7042482889342426
185,0.10107247814042462,-0.0002661730850552907,0.0018647069182499386,1.139481009759426,1.1150241591228414,0.797667615447649,4.221907638560125,1.9714019742918065,1.6990226238187458,1.1231130308428479,0.6357360191111145,1.7763455431757011,1.3013201131409762,0.8404872094870058,0.8734595685182363
186,0.03561327083342926,-0.008549940349287525,1.1056940674586575e-05,0.8844371492769784,0.8240764601941252,0.6024205687380464,2.513179971378128,2.0823473012940417,0.3324124789287191,0.4639783819820147,0.6684167106117298,0.8658088777263182,0.25494677562748136,0.20597085328194029,0.8647970536993186
187,8.686997598437211e-05,2.2595911880756783e-05,3.023078045792202e-07,1.2347178795938987,1.2189097492689098,0.8415086416265007,3.540518624394335,7.857763656964973,1.2982492724733645,0.8630378888743511,0.6425374456860184,1.3600636366373693,1.0153311263703286,0.7711604002808766,0.8787865291436197
188,0.40827191440768873,-0.013761791888440844,-0.04767371417727826,1.1289490079916702,1.063796407050455,0.7804896052725578,3.6992229053906738,6.445508649251655,1.0946161989795842,1.1257664956493758,0.6566669596287297,1.5146329107157908,0.9706738190935493,0.7761287094776566,0.6258328058164173
189,0.20523735288249803,-0.017384559662497634,-0.015196620388994872,1.0634744256666737,1.0264730790991448,0.7831999347273096,3.981037713262568,3.4579162095946647,0.9099554202337695,0.826184481639062,0.6566669596287297,1.4822180624233805,0.7402217640539026,0.47929701256833485,0.7004886547014707
190,0.08296787493148743,-0.014934217487667736,0.0,1.3650742777506748,1.3575126514088927,0.882714844651101,4.212659451953702,3.0837889518337667,1.171655557321401,0.3713433625561287,0.6447042257417027,1.7561992938295041,1.1177087380359956,0.3516567811534978,0.6732680771036768
191,0.06609166876592928,-0.013647740574327898,7.538631337940465e-08,1.1462383055978598,1.1304236367491172,0.7921532780258488,3.621976467750176,4.489411263433775,1.217195973087538,1.2811308935535934,0.6333676938231112,1.5926900551328778,1.0700681567776256,1.2565132222424709,0.7839278526808894
192,0.1442800070618856,-0.015875347166931873,-0.003110273317319059,1.3428246032252067,1.3312271839596836,0.8884409005102258,4.459669859489699,7.563496160010031,1.4872403972852692,1.178497921160018,0.6357360191111145,1.9106180831113715,1.2481561325046178,1.0717719677865127,0.7908239797366825
193,0.13203831940792435,-0.01193351365096719,-0.017464513740982048,0.901072611808627,0.8636167581181234,0.7163344493587966,3.870495998886418,3.339399371359888,1.3499577119186363,0.7186981745290929,0.6008849035917525,1.5192417972960466,1.2017247957393904,0.6266900216986886,0.8803154825990204
194,0.09402111742129945,-0.013064561334829175,0.008043355556710494,0.9996379243594561,0.9888088013717872,0.7529344212955941,3.3076672208581974,5.4942511468988044,0.7527991158297738,0.8915908428902551,0.6566669596287297,1.3489129452749256,0.5795066153792021,0.2936101356010629,0.92917223341676
195,0.10078678030870976,-0.016725124340648795,-0.0009139584675767914,1.2543282756182528,1.2384812873587008,0.8410362814714516,4.353855584147392,21.729765679499327,2.0709904179882224,1.226701105675658,0.6333676938231112,1.7062547822815786,1.4779512675515651,1.2166636726422178,0.839647750235355
196,0.04722696002654044,2.5688035921999156e-05,2.582290321084986e-05,0.9434908779899047,0.9227476800747332,0.7339076845285797,3.33046712029166,2.233882640364808,0.9732023251329532,0.8489508030007358,0.648888643467878,1.4691447102362512,0.8694130432166121,0.5970205972813806,0.8540818215944603
197,0.2955321181979498,-0.05519706756220826,-0.0108972572858625,1.2195206451410838,1.2078809548740113,0.8264003638816103,3.3511833419251666,4.222236644789293,0.44953689927323637,0.4279438122916304,0.6357360191111145,1.2111466228888255,0.38608827237369814,0.22134778800940721,0.8756018879269106
198,1.0304784828824498,-0.09167551441404284,-0.12087860422305385,1.4541424072600846,1.4222567574417886,0.8908770848571171,4.559595347343451,31.93291556629089,2.038385474374656,2.4157965857581147,0.5978297680564633,1.9563982911697018,1.9352775729275749,2.4789364828014966,0.7711910174292971
199,0.6794358932649084,-0.07171531366613881,-0.0362255323077493,1.053858451776381,1.0513196096829767,0.7701129763792959,3.733950859950986,5.107728011564253,0.997818112726805,0.7700679555590324,0.6403206450210053,1.3506698501469616,0.8649223845474425,0.5141924585538118,0.596695667559838
200,0.25733759814229806,-0.022872630393901618,-0.011366117047457491,0.9907584423831626,0.9685592082746337,0.7228208282344942,4.133069701036043,8.554109861586632,1.478977598095892,1.0155008502477256,0.6447042257417027,1.668421520339576,1.1943350705236153,1.0213270458757133,0.879678922095494
201,0.0,0.0,0.0,1.1738572296968504,1.134187521316626,0.812077975415448,3.662638931718735,2.672854328247939,1.2290558501134359,0.8958824565861736,0.6207552362147116,1.6262450307504817,1.1905045872750695,0.6964972674452273,0.7176381310550545
202,0.03309944893846086,-0.006068232305384492,0.0,1.3221438547303326,1.3046445950273773,0.8866559293942008,3.9450235812665713,3.3212373231789623,1.2261446606827007,2.2595172750526067,0.663668482632973,1.714119646170829,0.9484792920274637,1.2561130553806499,0.8848874758637955
203,0.09617852803751507,-0.012025741587599148,-0.009774724767570938,1.1727142424122623,1.1292366148750992,0.8131939859500865,4.233140987128801,5.901855168868904,1.1586730051205114,0.7914827944040879,0.5978297680564633,1.5167068131764156,0.978115501398961,0.6506997907700842,0.9158601522120037
204,0.0,0.0,0.0,1.1022073524538243,1.082696822071033,0.7731440650825752,4.944130746889323,6.289889977362093,1.2606104386768813,1.8681947891014716,0.648888643467878,1.875141078167106,1.1239300966523995,0.7654901389321788,0.7943523101707818
205,0.043716514387419136,-0.008160416018984906,0.0,1.2917697428913784,1.2803017111500465,0.8518798215955061,3.8575667300353187,5.053958618095952,1.4379534219400765,1.4629869819081451,0.6699045166045591,1.6975407939890732,1.3015303808304324,1.1019623755533916,0.9191927747752462
206,0.0,0.0,0.0,1.3742089703488725,1.33941457329347,0.8826328850321996,4.789447722930869,48.82442314581349,1.4435800816708109,1.7884093823427731,0.6602640781246099,1.7719568419318752,1.3702151765283037,1.469687155678709,0.6564591221247884
207,0.0030386926132325767,-0.0006077385226465153,0.0,1.055222105025786,1.0136918004519322,0.7706338286598544,3.2033774949604408,3.8662793776882927,1.1610069469431872,0.8444254424864042,0.6652988471865258,1.612219555395977,1.0503793828023154,0.8506479472724855,0.670322620957194
208,0.007329958034494798,-0.0013682588331056956,0.0,1.448860551565238,1.4374219148858678,0.9086828799488513,3.76922611642489,22.0284294454933,0.880488524521567,0.7342488562454971,0.6380535849069913,1.6844608329399697,0.8446067126338004,0.6964972674452273,0.8351988445784114
209,0.7003681410516116,-0.07420795585077558,-0.024089061180219848,1.0856824850045697,1.0685831961871144,0.7554221748265766,4.081940443116307,2.6029376709984646,1.4568915817186812,1.755937449269686,0.6380535849069913,1.9449883518187372,1.3387223343877512,1.3904523712685544,0.7906005358690097
210,0.9449408935070618,-0.13775767658247728,-0.1344330658634152,1.1381144050740717,1.099070230310508,0.7970502308553764,3.8100411562579026,4.93920238053867,1.7358387538128057,1.885326028395061,0.6684167106117298,1.7022844628004523,1.4222917937693471,1.0908066340293574,0.765881350053132
211,0.12051920015358936,-0.017349079347728474,-0.003576036029102069,1.1251162780847093,1.0983439955600869,0.7941117354544004,3.2813789232710153,6.992286410903759,0.8708891618595326,0.7120955274625234,0.6509067234006624,1.4786533444361156,0.7999982315958328,0.6260219665750758,0.8069939988874348
212,0.0026932658881175654,-0.0005027429657819456,0.0,1.2776846545801825,1.2574192081743403,0.8498217905226982,3.6524945925460037,4.6348507704165876,1.1291379013553513,0.584436578016837,0.6602640781246099,1.6809339141391704,1.1358157038863805,0.5911367517874009,0.8025288423569019
213,0.1330862008453979,-0.02914421144209415,-0.004313601650859931,1.1300201411069957,1.1469171665176516,0.787859230865608,3.8080121373661124,2.7057647750014033,1.3939510175379488,1.0049957272216896,0.675384900321601,1.438289656238271,0.9759721539803973,0.8174741303791372,0.8650864440179193
214,0.015230387118484187,0.0027894466400965423,0.0031356049587258697,1.121058767567839,1.0952214883099651,0.7798599004996571,4.698118264484676,3.4481920135020268,0.8950644051790161,0.8945915063206764,0.6509067234006624,1.5095423022073415,0.738344189931106,0.4575005915442789,0.8433618126892747
215,0.0,0.0,0.0,1.0493353250518243,1.0095389592893016,0.7047573453561425,3.5834824712476525,15.776548099275857,2.8588619796639536,,0.663668482632973,2.1484344131667874,2.865539782194983,inf,0.7866993077695147
216,0.7224795154145129,-0.042689523677491376,-0.0697112927075623,1.2944070334426856,1.3038304538520789,0.8659259291354205,4.320376983501038,5.248465000243233,1.610036940222073,1.086589227977596,0.6284777104787076,1.6133343827132236,1.3955957113070763,1.0047565651843464,0.9273062669018801
217,0.022117197290349635,-0.0046446114309734235,0.0,1.2214820642038244,1.174797149051217,0.8191442574955614,3.5126258602773137,3.3781423709193894,1.0095039691964165,0.4717765654194696,0.6684167106117298,1.5767556222742596,0.9948715377183065,0.499786973199173,0.8180505608771024
218,0.1328191576956293,0.00022271489188618876,-0.0008405101680055913,0.8640893722161157,0.8415361159893774,0.6791509583029212,4.2682424915934805,4.077649714691517,1.0110071761914998,1.0597062627186702,0.6333676938231112,1.4291554702590148,0.8486286149356215,0.7159501856966817,0.8679876259199704
219,0.8494729643170902,-0.1340141046511393,-0.032677284282226604,1.2772053173864615,1.2757116687911398,0.797579026494261,4.198571886240909,2.6735274401846647,1.7502429627240912,1.1984051335076713,0.6528756675646988,1.8859236392858043,1.5907159375432094,1.088242090244966,0.7932273428940722
220,1.2799283615743187,-0.20120532082825388,-0.14805467007129078,1.1098064824033047,1.0525933009524318,0.7175756480982748,4.157499171402622,1.7074053241163814,1.2322712688139208,1.148010251905938,0.6097226960127671,1.7711075294971945,1.0642080226508919,0.9018208749736232,0.8313408067229271
221,0.5405475882720215,-0.06066134362653587,-0.026431615083105764,1.0274836527591247,1.0083394517296602,0.7492365577564563,3.7710835052583263,2.839496632809761,0.9882900410996355,1.2543200328420758,0.6425374456860184,1.5009323476322012,0.8708837404360623,0.9667195324691809,0.7780031226330916
222,0.30788119980035933,-0.034479525848839856,-0.024249931314854967,1.3009233228969543,1.2576697844748461,0.8423803527843916,4.3747661414823495,2.0552920974877322,2.4252343555455957,1.5720709402705642,0.6602640781246099,1.6997881906892447,1.7328998580642816,1.1915516999549158,0.8313467948318026
223,0.4799654848628479,-0.00912886963980615,-0.03582481981326882,1.126673765555916,1.1084854407590483,0.7849163599850079,4.1540808299827,14.7114547998783,1.922766076223578,1.071661273961091,0.6547956803312163,1.6568789870342369,1.6612034879174118,1.0428351965119975,0.8205939378959817
224,0.375381759856218,-0.055325633026152204,-0.011711891218939112,1.2886131367120413,1.2398131412512077,0.8361861550748726,3.7388663409353127,3.004741784588235,1.2488688970208397,1.057221573963788,0.6652988471865258,1.7267210730488327,0.9883537429903417,0.543755324336059,0.8334320238123735
225,0.8342843180380591,-0.1128106046457516,-0.04883163225006873,1.107863070818461,1.065595576027753,0.7639485043270224,3.8028437912582933,7.392892431118453,2.3437232704346047,3.143507402239733,0.6333676938231112,2.1227666664182094,2.184771116264933,2.956892440237727,0.9110738662870759
226,0.734706797829919,-0.10596821319979169,-0.03972002089892142,0.9402485830949918,0.8894491352217422,0.6153343662224456,4.544376226731051,22.438223027405527,2.2688955716815533,1.629495187833086,0.6584896970785714,2.03196440847056,2.0778322583104627,1.5388665086540991,0.8303308195212434
227,0.6174184144890746,-0.1074620383924577,-0.007703649261743828,1.0932016518181784,1.0734019998197584,0.78829160595033,3.807132708910107,5.75656901102862,0.9825547785873414,1.0070770173305115,0.6333676938231112,1.6660670545983103,0.8363249095307095,0.5139966343506318,0.7988815360844947
228,0.13691851433392377,-0.020073203613342618,-0.006397709157882644,0.4116299703287301,0.379881830204697,0.4641372009806527,3.758057976779385,13.066918388047306,2.199583726625425,1.8575758352015255,0.6447042257417027,1.7130099049965202,2.041060134654629,1.9564014231558486,0.8961715921694755
229,0.07514945337785127,-3.653444693791502e-06,-0.0045664079285770084,1.2626659891018854,1.248117090695544,0.7646868561752033,3.159917174160951,2.9039326022757583,1.471889957294369,0.7384232169284204,0.5883313578629602,1.8462860552494236,1.3468137333037933,0.7089728860217611,0.9469595123077648
230,0.04141889013232854,-0.00031340060800704415,-0.009211521500684942,0.8827779780213908,0.8590961464912269,0.6610773411606564,2.5343850429624064,1.3127552440751757,0.7088258956273716,0.5121407350065759,0.6509067234006624,1.0576303069464894,0.6370629494485593,0.3466393009841964,0.8182036795664677
231,0.023777180941586273,0.0018562853259450254,-0.004995284980794915,0.41231833750780195,0.3660495615799641,0.4208300681318129,2.1912934121493044,2.209013858934931,0.962719821447718,0.9934826750091451,0.6284777104787076,1.066048297794847,0.8143966762658955,0.6189663619301394,0.8214888513464325
232,0.1183121997724506,-0.02350932665646638,-0.011633667647198306,0.61199855832373,0.5496303050752082,0.4744051176926734,1.4096766316874936,1.0918956186198445,0.48655644451810365,0.3039264722883218,0.5915533975974677,0.8737369045091412,0.44232683293666136,0.27389839848764114,0.9434878778943444
233,0.17838665982367177,-0.01435198626674341,-0.00972999299517461,0.6616548761309371,0.63413707474781,0.34837749236297094,1.005777939908801,1.0440458649659319,0.9123678656352304,0.7307786357113865,0.6008849035917525,1.086980204438402,0.7481043895280267,0.525365044472757,0.9498604616680761
234,0.18259715546719454,-0.02684524998648489,0.019847837759994845,0.32511558403202034,0.2715445819705731,0.33561849722973514,1.1381124194938883,0.9869141763761902,0.6716355712536786,0.7229338261469115,0.6284777104787076,0.9125754199785296,0.558454122751544,0.4449335299572875,0.8774037250910501
235,0.2483562119704947,0.11255343504922077,0.07125936512191822,0.43536355997535636,0.3914516906397313,0.2842004361878665,1.3557677107003465,1.3189286139631853,0.38931303965043523,0.30588483833094,0.6097226960127671,0.44048797788123945,0.292879526387299,0.2227908166046378,0.9214038384348898
236,0.13360005050702473,0.03373797462292012,0.022517271242007114,0.33204187911027483,0.24652012410187094,0.2402417112453521,1.0967849789556963,1.2397715552158295,0.3678038185721358,0.44525267530792284,0.581717464821069,0.44055702315770684,0.26856146691204297,0.26151110490425405,0.6158056109686669
237,0.09172436204887685,-0.013124061107711575,-0.00032884532612369757,1.2606296955083198,1.2229372439664632,0.8301943779042812,0.7876028778429113,1.0487515373824687,2.7788143245446597,,0.6097226960127671,1.9756823073889835,2.368834478535246,inf,0.8345581619520432
238,0.06065308892625537,-0.0011767623853401656,-0.009134262732123248,1.3881862357362482,1.366150831775239,0.8943886178163016,0.751842899944299,0.9780187178009474,1.739763058569551,4.2143543221238415,0.6468212168108125,1.8024834325910306,1.6233482300294857,2.2846398001864814,0.7939493809312161
239,0.44014747985292635,-0.027250539407767706,-0.0006254676495842952,1.6177869076988645,1.5561716233636518,0.927784962917128,0.8835784504913403,1.2477743347286894,1.8448263940440213,,0.6153451465759925,2.92537736709498,1.7416682226111988,inf,0.7985353111064439
240,0.0031545451979333185,-0.0003995757250715537,0.0,1.638410081781967,1.6120098452056606,0.908373555918548,1.498014128099826,2.1532969262733808,2.244965984815461,1.3829442742346088,0.5641709578113449,2.0691832274553352,2.02850023603228,1.6127879993193823,0.8600559250511994
241,0.03480825027392209,-0.003944935031044504,0.0,1.7254878401723115,1.693614314229341,0.949216415936915,1.6336196623944255,2.7585098975563396,2.111308896148941,,0.5641709578113449,2.202840316121855,2.11798669867997,inf,0.835154105601165
242,0.19080272692405026,-0.020352290871898694,0.0,1.7779802655743229,1.7310165402916708,0.9449713942157364,2.1784365354493596,3.0830201548688305,,,0.62595550513784,2.317811540325337,inf,,0.8431801248029562
243,0.1304266225636611,-0.009999374396547352,0.0,1.775104928514156,1.7438652633203484,0.9469150343953981,2.095151232537955,3.697557331327431,,,0.6125606311107803,2.6591013193703468,inf,,0.8563177124608273
244,0.0017038561114069211,-0.0001476675296552665,0.0,1.769364094875142,1.7388784590359618,0.9164042185497442,2.458745742803157,5.050611760968596,,,0.6309483474627791,2.447353993735416,inf,,0.8598503518331063
245,0.15085727406221075,-0.01760001530725792,0.0,1.5194202156356111,1.5002720367192741,0.833518682461985,1.995456002663834,3.1390961179967407,3.5001141811009884,,0.648888643467878,2.200329392289698,3.5067919836320174,inf,0.882721139526845
246,0.11203129772158599,-0.006309450769166065,0.01222261456026598,0.840565092917521,0.8001659519497665,0.39792833042869713,2.769163877062434,3.597232009014057,0.9893905903878288,1.2638999930018928,0.6284777104787076,0.7666502075247827,0.7469726020950227,0.7860775593056502,0.6412324558847601
247,0.0,0.0,0.0,0.7749357410433971,0.7471380423338466,0.5358557535813099,2.7185858655848514,6.986724990790927,1.4905861240467413,2.394545185913089,0.6380535849069913,1.8119621765455745,1.3302098419146045,1.182005083226928,0.8872554876942007
248,0.20084888977560056,-0.004989205087801089,-0.01941633821387323,0.5748597356324998,0.5223217725963948,0.46634198173554603,2.720831661107621,3.763269705759575,1.4364320550716492,1.9983769526204096,0.6284777104787076,1.5624483101026037,1.2250059137868747,1.3866553068014849,0.6155358843551699
249,0.09546922413135818,-0.009178046085977866,-7.363415204856422e-06,1.6317390155660123,1.628720488718757,0.967900996343068,3.126874338362456,2.4312874092168606,1.8940825415181255,,0.585052858160615,2.0134873564011024,1.4938115561435985,2.1766809348153204,0.8921070714521676
250,0.5273468067488035,-0.007196224836057363,-0.0788268631056461,0.6411515071313701,0.5954273440044152,0.47420565581433166,2.3394637147527377,2.095051265901371,1.319347517202928,1.4966312326689886,0.6668815377411301,1.4948203755135974,1.1999845988385922,1.2177737410096796,0.914707185558277
251,0.24762133981765555,-0.003915766596384845,-0.023059059318878708,0.8607491363138897,0.835271266954763,0.5140223297925222,2.4615582092987514,2.9038719728110904,0.7994086449851842,1.025184624184495,0.6509067234006624,0.8622761435679168,0.5920115887058416,0.4752024104203759,0.7955878431107186
252,0.1029863759258612,-0.008809335284462599,-0.002175878147629262,1.5201551235777715,1.4830557279697052,0.9143438432730321,2.5407060548092466,2.939781858233534,3.3839849081307687,,0.6153451465759925,2.3164586652599177,2.131707771918509,inf,0.9018814175817391
253,0.41275531181954067,-0.05023640616854812,-0.01442859268317992,0.8534596863530034,0.8102833039601787,0.5412607229720773,2.912151902858633,3.592439288181016,2.7076449984381408,1.026030410213507,0.6547956803312163,1.9634180778537564,2.640641613850308,1.1064117711029335,0.7193623445186751
254,0.0,0.0,0.0,1.7354617512195092,1.7211198063551496,0.9631432516313638,2.8953804734223096,3.043627104675425,,,0.6008849035917525,2.4079456086518722,inf,,0.9090887233838449
255,0.2501085777285058,-0.039994032099251314,-0.016726455926826464,0.9729275637560233,0.9546820864156677,0.6599672630768914,3.6498464584911914,5.0288534762000445,1.7746613157534454,2.0737098909874025,0.6153451465759925,1.2997090007883982,1.123412916058652,1.056757986849574,0.8261301027286385
256,1.2545271845172166,-0.2336518804785747,-0.1303436185027919,1.2062114610726782,1.1496495586325801,0.8052393647329716,3.8317865943704703,3.9519924880642314,1.7161179969797036,1.369020685018863,0.6207552362147116,1.8825598335545515,1.525997902513896,1.141493150698564,0.6204630764083823
257,1.5021053952953243,-0.37737436762637044,-0.23283800743433491,1.090495095024981,1.0546863910554394,0.6470522818881284,3.6987207206409387,5.494994159660113,1.9061543954313744,2.252929969753085,0.6509067234006624,1.6591535046800332,1.7697577155496378,1.8259210343786267,0.8283089120907218
258,0.35317434367526845,-0.03213045465731964,-0.04321285853410975,1.1900774351422736,1.1441453127195342,0.7714891584491933,3.6628471707439862,6.406866813818114,2.618265235938433,,0.6125606311107803,1.5972348952625235,2.2445367716213642,4.67542152453235,0.8466887967972488
259,0.26193323574503125,-0.044086192255022374,-0.003566831225274618,1.0865645524056844,1.0403522881700744,0.7658140238269453,4.345297694833481,2.4227936472549443,1.3983773251033098,1.8724399895839403,0.6097226960127671,1.500633334373719,1.1062149862195239,0.7980224664352215,0.6444224341474258
260,0.18650187428672946,-0.023647445453150052,-0.001841144032702975,1.1583306039285157,1.1408886363638222,0.7187254689744328,4.41625922321567,25.72017496000948,1.632185553286486,1.3782658719005307,0.6403206450210053,2.0469098166773514,1.401029827536936,1.5693846380327654,0.700587349643744
261,0.20102344621720655,-0.0315057418597039,-0.019108613965445186,1.0294718839351191,1.0036627314790223,0.6326091208197637,3.8313124501003943,3.2390371482766196,1.2365281158187293,1.0692780597221752,0.6425374456860184,1.431570705989526,0.9834368164188071,0.467594498223471,0.7530007773816818
262,0.216570141152271,-0.008842175242068956,-0.019873099163490136,1.2481146207347296,1.2213189873088575,0.8143918498396682,4.431301746225498,4.214072323262395,1.1253898261217015,1.0380424049848151,0.6584896970785714,1.6943908034997812,1.01833698715354,0.9589668387065143,0.8664695562734944
263,0.08136140000646444,-0.010574149965471593,6.059173883096389e-06,1.1624935536018124,1.1465831445785284,0.8146571832890291,3.8368210232052555,17.575701441023124,1.6283369516927209,,0.6566669596287297,1.6766466621275504,1.449194296773461,1.7894841553909195,0.8404272502789853
264,0.4556578515713401,-0.07193770380838999,-0.009500388462321874,1.0938992887959362,1.0375891658657366,0.7821425482689044,3.931704748572315,16.057079680716,1.4010684853068127,1.5137088404161645,0.6357360191111145,1.725971728690052,1.2443094124344147,1.1531490019927306,0.8590209376614593
265,0.18852516406021178,-0.02743984244465595,-0.009012318541893905,1.1527618209851647,1.1279869403420273,0.7808754747507664,4.009097667153839,4.160913274472271,1.7403717530030915,1.8752039638780642,0.6284777104787076,1.6760526615160845,1.3342293930526379,0.9930037767064117,0.7513455809204874
266,0.0016606848874610811,-1.0074581619779084e-05,-1.0179731898325988e-05,1.1587975543831364,1.117869150959061,0.802960338873114,3.8020092617880636,41.27398445415214,1.0697181895252028,1.32515128405888,0.6547956803312163,1.627828204212449,0.9477328138436821,0.9474274206599465,0.8080481834364767
267,0.044830343416010776,-0.0031702294366699364,0.0010253851425697574,1.0659681187881433,1.031414380458984,0.7773858829336019,3.9457840441672936,16.549374310526684,1.3213441235364933,2.5109492743171296,0.6547956803312163,1.724163127991246,1.1596303145447961,1.5344362408018,0.8280489750232514
268,0.08754262596757066,-0.01629944003747937,-0.0006254676495842952,1.260529788180816,1.2313341171154941,0.843613298476528,3.8875686941547873,12.605358793082361,1.0157550943207303,1.040618820509995,0.6207552362147116,1.688120434468569,0.9826339818899441,0.8424924691122652,0.7327983008500546
269,0.271221323883169,-0.025178884084197613,-0.03462674505830753,0.9502335913178944,0.9242379803116632,0.7340410878805907,3.829153819226855,6.153311256258119,1.2062345168337154,1.0548522905136033,0.6097226960127671,1.3611899092277264,1.0573049750410224,0.9425207077605747,0.8898454142574219
270,0.14352753367601917,-0.007896819871230067,0.00864812734196952,1.1367968050284953,1.1045852660814497,0.8023207809156284,3.520394594165686,3.801881413619542,1.279119274400543,0.9573300860847452,0.6068309995095971,1.514733976964803,1.090759635812315,0.9872679070459246,0.7709315344535539
271,0.3046786167489378,-0.051274654519713074,-0.004552848740891929,1.3413914190039893,1.304507563342068,0.8700298192010845,4.768607560029818,28.17096457877052,1.5047797015428674,1.1196916790046214,0.6125606311107803,1.7989855143197946,1.153048903968477,0.8546280714820481,0.6813021984843214
272,0.346418067846574,-0.01629617801462263,-0.029491192882354512,1.18185779009355,1.1378531953511895,0.8027687717035091,4.4528716187986355,10.894017385695424,1.959446134112827,3.3019609549699918,0.6357360191111145,1.9431251419015645,1.5847698928065483,1.9238325451394584,0.849750472934251
273,1.0290729628585213,-0.20547766175690577,-0.07547139410546402,1.3502874164694678,1.3245704012475052,0.8682054327096239,3.6527831783819558,6.924903110447935,2.176978620928591,1.3840259768125143,0.6584896970785714,1.8568314659717697,1.7949663132376346,1.1198206144163514,0.7937501494168505
274,1.494037144273014,-0.3014325821431476,-0.09895347506838255,1.3685917073723075,1.3108975474167475,0.8377555776206327,4.846595034872559,5.847137920521551,2.371736931417249,2.5056054502055507,0.6403206450210053,2.1223954367155704,2.2085156971528805,2.1713790370055217,0.7038046009929912
275,1.2600654283912098,-0.258738829220885,-0.11021558019560165,1.2688822546078358,1.2278983482495407,0.8105534045249421,3.710652075647109,2.6653433624424565,2.0418476488375163,1.9450958074620108,0.62595550513784,1.9183057905545955,1.8395665350462924,1.621414103480816,0.8991084972198947
276,0.7138552062009578,-0.0794635819713226,-0.05256127154214374,1.2493454404530244,1.2469107967551734,0.827382866829789,4.37255545322423,7.058001943745118,1.7004210288818238,1.3826704367539688,0.6468212168108125,1.968974088653865,1.4951630927821646,0.950412644943412,0.9026540329531619
277,0.6827227623353178,-0.07519838480939386,-0.07605084565747432,1.2463301352499252,1.2108080709002471,0.8391728727768022,4.204313142857681,10.791837061734963,1.5176742790796365,1.4490919818462482,0.6566669596287297,1.7528593202704985,1.466294320962873,1.4245263995165955,0.7944263226770351
278,0.7524652568329658,-0.12206505116905708,-0.044256158628305835,1.0548974330164864,1.0472258656389113,0.7446260641586261,5.956230807885521,33.60834036328619,1.4853474344064723,2.5831467353127,0.6468212168108125,1.8534221296201618,1.3092834237809843,1.7617520444540573,0.5290071385859897
279,0.5557828303262385,-0.06607412090165435,-0.029538820457683905,1.2564994111782992,1.2338217841366712,0.8262587342341647,3.8670728651782653,7.464810799039176,2.163679800416823,4.027074589693694,0.6547956803312163,1.565846423173906,1.6622383407796046,2.076921590745323,0.6236335823502832
280,0.6815483929939711,-0.11012877055434936,-0.08577436046378661,0.9755425972305658,0.950890080469852,0.686383375128664,3.876534044886197,2.8039867658737108,1.7080350054572448,7.056347989617609,0.6566669596287297,1.5311916892678459,1.445391765447384,3.931171824266907,0.6281700760300397
281,0.8004250432584864,-0.09421931261302602,-0.10452839650014141,0.9527841572828065,0.9061333134966874,0.6059235031304859,3.2681896981277396,2.845407197894926,1.363853291669373,1.5663969325651528,0.6380535849069913,1.4572415219392425,1.218018856339977,1.0118428764334613,0.8429035205637274
282,0.18592178596894923,-0.018306302149760378,-0.005863530026203024,1.3589447543342974,1.3299397978952545,0.8537504396659613,3.02836524183153,3.447287142772247,3.0923999708863796,,0.6668815377411301,2.1729222848132546,2.4765481600714168,inf,0.9172505813335771
283,0.07027197165741823,-0.006891122326749603,0.000532467858630932,0.8808291265614964,0.8247870673996465,0.5205354712596971,3.1461328027227795,3.721402099581136,1.2995058398975141,1.6791082500151413,0.6509067234006624,1.3321850354728586,1.1137573442970008,0.8721400951817893,0.7776452690162776
284,0.23682916157059447,-0.033339806581091355,-0.004952520891113574,1.1156987941461864,1.0239763059525808,0.7774036586546216,3.2650805713714917,2.797602105186149,0.7289822594721369,0.6469243793535009,0.6207552362147116,0.9885030659880797,0.48480267212144085,0.29148728288872033,0.6863645594448825
285,0.1735693922130301,-0.013282612585972839,-0.015039495707028084,1.4611505802540676,1.4486639468647156,0.9323458546035867,3.5801144585384406,6.51638297489699,1.3129616345449127,1.176523913061453,0.6153451465759925,1.8493885820646914,0.8783542523832547,0.6970644128533431,0.8034267120950889
286,0.526232349031398,-0.030256084074040207,-0.012071945932666472,1.2563655793080593,1.2509523893542362,0.8409207230275234,4.23085711815549,3.6257719418525953,1.3442754722652857,1.1876766173504956,0.6566669596287297,1.7178277030738889,1.1247067254081156,1.1878968079964434,0.7204783143901398
287,0.7862968523712726,-0.09778174314213559,-0.0796255331585624,1.0946914370686085,1.0470788015271317,0.7851501487120318,4.443104612595414,5.895627753309746,1.6002129867735424,1.517678575509554,0.6584896970785714,1.52402503458597,1.3635506360081933,1.0792555713289778,0.5747947961495885
288,0.14101366861996673,-0.014182651851990115,-0.016417405911535426,0.8885737811690142,0.8587614459195565,0.6811672238457347,3.9966627910714214,6.431135034140465,1.2079728509270014,0.8767325026756235,0.6425374456860184,1.5494409385278043,1.073961788514121,0.8217465421494128,0.7137595168433037
289,0.5861257225378547,-0.012463363041940761,-0.0827589238674796,1.0329611993617889,0.9793728005815646,0.7599289853085961,3.9724697291088593,3.054843505133913,1.418678763829624,1.7077098293795983,0.6528756675646988,1.6871592425166375,1.0822345888266245,0.9691428293794573,0.8748800926568241
290,0.34986636986116526,-0.03451804195434466,0.009116493569595097,1.0866222820464457,1.0444343795526958,0.777637775887384,3.6983592374371277,9.525659191942527,1.2125473851660664,0.9195989819304303,0.675384900321601,1.4846670032564508,0.9809600317995932,0.4951671871366665,0.8031761372006365
291,0.26054735726703115,-0.043060249626681875,-0.005079461730214164,0.9739156314605837,0.9283914777168588,0.73553666776486,3.908569946811471,6.247051224954901,1.1014106139034365,1.0009222510563347,0.6233814453054027,1.4159749485547284,0.8636534550363066,0.6242339444876289,0.747274501961675
292,0.09689994932783742,0.0015663852416025296,-0.006810215494610687,1.110736687811289,1.0866886625428767,0.7872646495825092,3.42405122407673,2.4781171528131023,1.2394075018372699,1.3961344254933203,0.6566669596287297,1.4460915475776208,0.9530044457972686,0.7141693470802777,0.8632434401935192
293,0.040791770964876156,-0.005530443221137859,1.976108706396723e-05,0.8597753529764195,0.7771532734897665,0.6547610077734022,3.151566663305826,2.75844651348425,0.6948592509920445,0.6559083560226496,0.6425374456860184,1.0504890134863814,0.5098413248406911,0.33834641324706,0.736590819653606
294,0.0117095712531333,-0.0014631364129292068,-0.0009958735502287861,1.112574104079763,1.0727855977273375,0.7455763272711065,3.096351990806741,5.088833093716509,1.3371459985021723,1.2253849852104204,0.6180765742263259,1.5704308973262953,1.2058981445292092,0.7369178436152738,0.7657393295496765
295,0.04302062241364691,-0.008659363337072703,-0.00026170274005447316,0.6337724925522882,0.5678520814451997,0.5116144784489505,3.2711068341413485,2.533959879498411,1.9977772011971455,2.23465189088882,0.6180765742263259,1.464664394419439,1.4335379425919141,1.0774706954932487,0.8255455416272057
296,0.011464619758716226,0.003573857331275198,-0.0035540406689384776,0.759170159697775,0.6556475792433827,0.628395934379459,3.7242994589616005,3.988424812021588,1.4560285381729567,1.2700614204106924,0.6380535849069913,1.1792440586937003,1.077624371570034,0.796492956126893,0.6098491250594875
297,0.0010725869724992675,1.485811315684438e-06,-0.00021957849572386883,0.9943270416907039,0.9580124039114045,0.703560220315222,4.288761287331335,9.292912773558903,1.621589522397369,1.0952622017828277,0.6380535849069913,1.593947401205317,1.2837055842830731,0.8869083282632944,0.7275892533461796
298,0.04134790385615756,-9.822598485735579e-05,0.0002718007894215498,1.207338199378957,1.1341371699081713,0.8480840438695272,3.43864229342747,2.4949362266929636,1.0835853937381856,0.6481654498062898,0.6468212168108125,1.4003932854993923,0.9378189851378045,0.5364830078739602,0.733470721875189
299,0.1485164027429125,-0.006182759792747676,-0.019065028673547448,1.1785164530425425,1.1657717357498825,0.8083359378703594,3.9318908853270287,3.31185003916626,1.810107034263966,1.3837800452820048,0.6528756675646988,1.8100592263994884,1.5941426642829657,1.2076572834564339,0.8862633091792
300,0.6216881387642673,-0.05433997850996532,-0.0603106016624354,1.0137701802381391,1.0142224613806696,0.7203510628767734,3.3465025634281145,5.217756548675679,1.28324778389166,2.239471713959973,0.6547956803312163,1.6469090458838165,1.1163015663956692,2.0176365877838918,0.7329273564242266
301,0.4075214981402985,-0.04271396357581011,-0.0494653338691126,1.0702034651455639,1.062282286833963,0.7602502927008564,3.9066613750092105,8.525507432939413,1.4808507849260122,1.7376038565841747,0.6447042257417027,1.5826877973581854,1.2653910483477278,1.1070836523828504,0.713315045970463
302,0.21439953312343224,-0.010620865735784562,-0.025473828818753465,1.291290694893685,1.256517672849365,0.8615419010686839,4.042328596793408,22.387933439010077,1.3577951423315007,2.6474184636617952,0.6097226960127671,1.779501571832553,1.1300530054803857,1.1227545939897094,0.9039382585803112
303,1.0198993395596705,-0.10887350389467326,-0.030394432025615214,0.8867491063278925,0.863646648509816,0.6468063872106979,3.0980619197023413,2.9300300306639926,2.4180254850128686,,0.6180765742263259,2.1916401990423187,2.4035796560926044,5.202907181743378,0.9492501616270428
304,0.042131983153513124,-0.006263396783889829,-5.640068913713982e-05,1.0264227294024089,0.9874168120449249,0.7382991010417476,2.49410935284263,3.1975346284984094,3.086869871344224,,0.5713653840954815,1.9204265214865173,2.6936722952458756,inf,0.9288168843210303
305,0.5227155235828609,-0.052271552358286094,0.0,1.280751526502082,1.2622439954863753,0.7455690899694654,2.2876705084914075,2.3905451748025377,3.197644470761098,,0.6584896970785714,2.5027991026295884,3.204322273292127,inf,0.9396620782200699
306,0.14169609516225168,-0.02138966541410886,-0.0003370691774363975,0.8777697693324411,0.8549463774433145,0.6007043357741504,2.476243707980243,3.9055121949478133,3.7894500162389333,,0.6125606311107803,1.9109935571517531,2.7303796775002986,inf,0.9490433274009694
307,0.4703551749621811,-0.022307912273646528,-0.011010640208909486,1.4001758416312995,1.4062833588739823,0.8398252224678762,2.41672898955679,2.4847074490554717,2.5494304441034785,5.296604734288512,0.6068309995095971,2.449539505950709,2.5380305152145506,4.810557015713042,0.9403335101268356
308,0.35550752530648044,-0.03396240572522595,-0.013438597648971444,1.1234570579318337,1.108390416947621,0.7426981688654763,2.6006981256841364,3.027506618423511,2.2377840912129687,,0.6447042257417027,2.1618574334989282,2.2372023337311937,inf,0.9464801360242998
309,0.19619338246155557,-0.018697395617767537,-0.008115699985311725,1.1306043637516736,1.0943827746486203,0.759057277332092,2.7715122964260717,3.834217523522819,2.2840831220992106,1.4085308840893669,0.6509067234006624,2.063218297488486,2.044549285065756,1.6027038802527562,0.928737463335282
310,0.05879770749785887,-0.0034452454567550964,-0.0028265100096831835,1.3909058877681344,1.3743536793668538,0.8167526340050273,3.341869622122312,8.540370048291543,3.5652990197630974,,0.6740851607140061,2.278760065318738,3.1150897279508625,inf,0.9472417415210034
311,0.07173631735979012,0.0037755697784431115,-0.01334553146019148,0.3818940750647751,0.36551115370633736,0.46688733135849997,3.1329931578602603,2.807419460091403,1.982947916356065,2.1329711229880983,0.6652988471865258,1.581174447161241,1.4788000951211036,1.6213570046713108,0.9144959705334988
312,0.40122274309845196,-0.04680932002815273,0.0,1.409266816358027,1.3949359968114243,0.8593375902675823,3.0106871610134416,4.916595825618632,2.0523861137970054,1.3829442742346088,0.6619902821573977,2.2617630984737906,2.0590639163280344,1.3896444480051726,0.9398516032133881
313,1.4668147812756334,-0.2430740903371651,-0.1269976646344507,1.0210159087138067,1.0157947116744266,0.6351582094455676,3.1691208157463002,3.4554130492173774,1.871002754399928,1.914130290887726,0.6447042257417027,1.8314016045004984,1.5373285870241555,1.588364335643572,0.9123923528714477
314,1.055434380598148,-0.19553991517754366,-0.09221434615820548,0.9828307906709186,0.9626328495559624,0.6464684385838465,3.9748003035690873,6.731763539050023,2.6196985849109033,6.910014846583045,0.6357360191111145,1.8644735415168603,2.2159681155362487,2.8963064934159792,0.5963394183496216
315,0.6474128288767718,-0.1033758336842118,-0.018554007199640822,0.9839446229134952,0.96610566434593,0.692865927285527,3.090556775070829,3.207816766341123,1.873582865549978,2.2127673134540022,0.6584896970785714,1.7984484573788515,1.7339972108932578,1.825385825808335,0.8869445127357518
316,0.1402688458805742,-0.028476287791533255,-1.1090747252008139e-05,0.9830784543991494,0.9391689563500426,0.6100480797504851,3.277974249264935,2.9007636885073733,2.2058546642180623,1.8542012982548375,0.5915533975974677,1.6370375240325046,1.7688374471807617,0.6971740316389806,0.8795563998361435
317,0.4512582991076269,-0.046886645784777206,-0.014785321759931806,1.0379981992355538,1.0172368782515488,0.7301471698065707,2.5730344852199094,2.4495234709476787,1.8134315150594955,2.118190322679673,0.6207552362147116,2.1298463420062714,1.5314179450746916,1.3560599951660894,0.8903258928612167
318,0.2951201703048045,-0.016970373934844858,-0.015424554988622136,1.0863572169857112,1.0775273835046026,0.7405174696704381,3.7538246450505,4.2249219678659635,1.9063714479700717,1.931536076714862,0.5978297680564633,1.8558358749351889,1.6548044181083486,1.5033339023182328,0.8644111640720862
319,0.03186865967134806,-0.002761950504850165,0.0,0.9649049169375007,0.9317460352537882,0.6282114624192541,3.244090946181857,3.6010558415748397,,,0.6357360191111145,2.4675907720227688,inf,,0.8514937754267458
320,0.09758953291486988,-0.010084251734536556,0.0,1.5043739321574634,1.4506009402321485,0.9131732784365518,4.279012493145539,18.358328510165833,1.7855274981801126,1.616205955714403,0.6284777104787076,2.3054781627764735,1.7922053007111418,1.6127879993193823,0.9153652627514322
321,0.10155117871446223,-1.628142493645922e-05,-0.015216395382232876,1.094324815964147,1.0583087339224522,0.752369402151276,3.88729067019464,2.0098528442856587,2.1538871107638693,1.605418705416794,0.6380535849069913,1.9377876703247408,1.792376848472854,1.2871597634494576,0.8030423588831967
322,0.5579929933117425,-0.006699254520395687,-0.06094318095622561,0.8843893083947387,0.8789637852543647,0.6538676020301176,2.967310037548985,2.927083157788186,1.2247818153987107,1.2414075170342929,0.6180765742263259,1.4413843274378506,1.147994343946861,0.9324808866846709,0.8253068515978111
323,0.2492026193186746,-0.05823387504437628,-0.0032248246972859207,1.244152907522801,1.2125087323908867,0.83126560805449,2.9874739153893106,2.8766789506193486,1.0925586009944692,1.2659979765486353,0.6284777104787076,1.46312741044732,0.8637503751157702,0.8189024842345597,0.9440603816304646
324,0.026866927369893844,-0.0025971363124230712,0.0,1.1428854166530842,1.1471215425237644,0.7393395435654185,3.557236186105735,7.002104903617527,2.0877696330594513,,0.6357360191111145,2.3565720705703526,1.9642549442314725,inf,0.9186023679959338
325,0.809160206983674,-0.09228357649550156,-0.04380057015263538,0.9191917345062923,0.8922001580646257,0.6250617017582795,4.38914388393178,12.834893639680336,2.5604550754237314,,0.6403206450210053,2.2351341504094395,2.1171179555632107,2.600965547086244,0.8640276783202472
326,0.37624734963595086,-0.022099879852188885,-0.010477986910937714,1.0262340785082371,0.939218209059205,0.6645899553195519,4.093918093432247,3.9958937185633623,2.9709454295472617,,0.6652988471865258,2.251997603183511,1.9893013719952533,1.5678440151352633,0.883221084055066
327,0.12002307418329974,-0.010451652308210806,-0.0004080134596715448,1.0631457479254622,1.0256285915491532,0.6438327482375064,3.447313582329343,8.687174642091321,1.3814804920269241,3.792527337512238,0.6652988471865258,2.348978132563756,0.9977310638143294,1.8264450272159451,0.814400679248437
328,0.24702331353997733,-0.016759754683948296,-0.009589398760315953,1.1284034441999513,1.1068156639349769,0.6967871479128844,4.5410874462645365,23.72380885301031,,,0.6097226960127671,2.348047467070803,3.303775268654687,inf,0.9192545909134707
329,0.10489687817503254,-0.01713315676858865,0.0,1.3133386409409675,1.2862946633327978,0.825739608893738,3.9505337326772705,1.7499668676612852,1.5565970140542462,1.605418705416794,0.6357360191111145,1.8419305864744187,1.4672955166489265,1.7080981791237073,0.9341990883145734
330,0.005176278318718742,-0.0008282045309949986,0.0,0.7604297189858547,0.65249572098972,0.6095992532406919,3.4793080316971228,9.539526468579869,2.189709954672675,1.670208199074192,0.6357360191111145,1.8371753327585376,1.790504501483342,1.3896444480051726,0.7817115660933216
331,0.18249661875499032,-0.027982814875765184,0.0,0.8565738778586196,0.8174568008036402,0.542603686596009,3.9913387181843683,7.982270800575527,2.681000760660697,,0.6153451465759925,1.9331694355155946,2.6753396517380112,inf,0.9247611410268293
332,0.1426071694028612,-0.017112860328343343,0.0,1.2611180953914078,1.233058806398327,0.8170282605928768,3.5621251013996065,5.774041869044968,2.8131545589544267,,0.6468212168108125,2.1515822194575183,2.169244795344307,0.6964972674452273,0.9333597729213677
333,0.11407564949312402,-0.019012608248854004,0.0,0.7587063290335707,0.6363999603827951,0.613252940778814,2.558858456417039,2.7090109855689017,1.49065414894388,1.008250824793198,0.6233814453054027,1.811894151648436,1.4103205744852796,0.6964972674452273,0.9382882207705484
334,0.0013752580770493544,-0.00026588322822954183,0.0,0.9385680890769751,0.8774449880581149,0.7169504064670724,3.1928446235462373,3.6625159186165637,1.4813581485059713,1.2197802381928071,0.6509067234006624,1.6446621775901478,1.1720874404354031,0.8142803031016107,0.9105165710393064
335,0.25882010401317834,-0.02633553920399804,-0.016720354541720595,1.2196879529128206,1.1953086547887999,0.8332733286108337,3.21938642369433,1.9427365412366955,0.8654331317207086,0.8287554067223832,0.6207552362147116,1.8332761494309886,0.7515245031776551,0.5980647347365239,0.8153620430664472
336,0.6880925787741782,-0.06773159313398107,-0.0533440363109804,1.339682421238853,1.2888524464632884,0.8403976860982497,3.4462162967555185,11.394372816886673,2.897471292970493,,0.6584896970785714,1.7499779352131,1.8768661279813836,0.4904280036713216,0.9271772647300967
337,0.6080506828966544,-0.08715167021739403,-0.036485301971592374,0.9758367526070618,0.9514462440665548,0.7011360982868036,3.331151323962439,7.842529841196775,2.045714980591219,,0.6125606311107803,1.913851776472537,1.813537532403275,inf,0.8264042029332106
338,0.3764830616843503,-0.049990653793405865,-0.018420638847760892,1.133579397163841,1.1157534340341813,0.8065801547178932,3.845862891958484,28.073377654958644,1.402257376225069,1.7453940390650597,0.6509067234006624,1.5872416380370429,1.21383801238036,1.2859583366222596,0.8267489239524379
339,0.8576181380667254,-0.13337824144818627,-0.0642816446134867,1.133340743911267,1.138604018174486,0.7848809369582433,3.969621368806945,8.194710627204767,2.616593723243836,,0.6509067234006624,1.7903604483143476,2.161906015314764,4.410776047959867,0.835063348125957
340,0.577064831512976,-0.033044672784118295,-0.07147712219150322,0.8187014873964683,0.7245931725848485,0.6473586969794455,3.462163114162581,2.5202457867616967,1.768672076316839,2.5653666514598368,0.6602640781246099,1.4253586420648834,1.5060434653892734,1.545668075906619,0.8760429118556561
341,0.5848763627016638,-0.02966870165731069,-0.0027442329246680913,1.1611100437244581,1.1624374589863475,0.77056547314836,3.3515875835526527,2.9076304212280033,1.6835957042919865,1.9927422436653226,0.6333676938231112,2.2413854731219893,1.5203036510055994,1.4114650994664422,0.9526142371906661
342,0.08181645799835585,0.010114081945238993,-0.01021563366007499,0.6861887179678554,0.635139377542243,0.5524796209268374,3.5433223088062977,6.142731389842268,2.221374736291041,1.3829442742346088,0.6284777104787076,2.092774475979755,2.2049110102603757,1.3668762752627892,0.7882187249240667
343,0.08260087150512274,-0.010462777057315548,0.0,1.193465756482628,1.1733252694936058,0.792551642041429,2.922976785937081,2.5793943514692845,1.816990028035876,,0.6822068148872973,2.0916940761267555,1.5359857581151242,1.3896444480051726,0.9098265013888105
344,0.3002805377378144,-0.0009028527660769683,-0.049121306100131434,0.9254873367184904,0.9096193051504291,0.6371190655058221,3.9066919287828337,12.663197307986003,2.9532994435505415,,0.6566669596287297,1.9123464322171728,1.9063886387874163,1.8984704239837529,0.8694717953960219
345,0.22223105956487446,0.0008762147359431399,-0.01778107446044116,0.8798787402294946,0.8672168252692452,0.6274915452379144,3.1564698310881854,3.0601837592613683,1.1822770733979524,0.834009122522763,0.6357360191111145,1.4940775621979405,1.166294203587528,0.6452124516737405,0.9259996746362125
346,0.33545394039097853,-0.037984387093586404,-3.372615072450183e-05,1.1632674608127602,1.123876106793297,0.7654357376363747,4.264865493253863,28.112011269757648,2.3414098395017384,,0.6447042257417027,2.273889662271705,2.337969511867183,inf,0.8426318954293839
347,0.0,0.0,0.0,0.9866664436474137,0.9560632856099676,0.5831130641875851,4.947087741492662,113.06133322605594,,,0.6547956803312163,2.0402208285265546,3.666900547395161,inf,0.6939300615200075
348,0.0,0.0,0.0,0.8647484257672975,0.809814320506617,0.5294821795185556,3.3576620997606805,2.5369948864261493,,,0.6333676938231112,2.4849066497880004,inf,,0.9148738601479062
349,0.4034092368010109,-0.05916668806414826,0.0,0.742277122515021,0.6073936736732479,0.5170595798109999,3.8175729603293207,12.355709350815907,3.687788025388901,,0.6180765742263259,2.0126555480017854,3.69446582791993,inf,0.9497074596111362
350,0.13158714719542305,-0.017983576783374484,0.0,0.5504784600425079,0.4381009596673011,0.48854063388932534,3.415527438339862,25.551247716609012,3.65387787233958,,0.6547956803312163,2.0465657010511062,3.6605556748706096,inf,0.8740600242735485
351,0.02768834067886764,-0.002584245130027647,0.0,1.7671266613947116,1.738163794317702,0.8896346025477785,3.3284884949676172,21.571602757594874,,,0.6097226960127671,2.3940914055722096,inf,,0.8720599747953224
352,2.0829911541714643,-0.44876222473663263,-0.1830784253620449,0.8888229946499202,0.8590794673306245,0.5307717140702234,3.2045068503775758,18.193824640475615,5.885322788485969,,0.5947193981915972,2.0815771538102577,5.394162162777819,inf,0.9529895176318605
353,0.9641120166716676,-0.13724137219042004,-0.026657670643763468,1.306715690202673,1.3160572886437778,0.8235008458807027,4.074903690546331,8.251449494223444,2.2405132954891553,,0.6447042257417027,2.3294996166460384,2.068656399957727,inf,0.8005116333854395
354,0.5275232002699034,-0.06381995632537732,-0.02898753120108291,1.2295528647615264,1.1167934390577097,0.8142929972432851,3.0076113449782995,2.2097325297429884,1.9911650952659272,1.268705271474564,0.5978297680564633,1.8728249219492756,1.6807469401388822,0.6446528306213347,0.95125439414495
355,0.3556078641834488,-0.047414381891126504,0.0,1.0092354741924918,1.0117682726980817,0.722467674876224,4.476757216351561,12.434868634857771,2.4897289513605694,,0.5677978065141052,2.092234130145282,2.0054493333423333,1.6127879993193823,0.9352863165262043
356,0.01465771356751896,-1.6287685142815558e-05,-0.0017914969881845228,1.1761916063949895,1.1780335371505326,0.6930248252103642,3.2104086125934264,3.0244045645915345,3.5928238404316906,,0.6309483474627791,2.1042808316934813,1.8827052122081198,0.6248731302372865,0.7466329444534828
357,0.0,0.0,0.0,1.7810112914711895,1.761946014473965,0.8975573338167624,4.710327585997141,29.557126830826164,3.2924979647388146,,0.6602640781246099,2.4079456086518722,3.2991757672698436,inf,0.8418938958767154
358,0.0,0.0,0.0,1.5509619445858607,1.5189179576620964,0.8023656629163733,4.362254300118288,9.2980042337059,2.299246191728531,1.0952622017828277,0.6509067234006624,2.3025850929940455,2.3059239942595604,1.1019623755533916,0.8647216914554282
359,0.0,0.0,0.0,1.7889511408782985,1.7512574379248256,0.8735359115407688,5.249513103564401,326.4698323370583,,,0.676637947632344,2.659260036932778,inf,,0.8809025372923439
360,0.0,0.0,0.0,1.7618271967295618,1.7294514978620672,0.8995840443045333,5.048642175150327,702.021392585183,,,0.6038851895711802,2.4849066497880004,inf,,0.848547694845343
361,0.0,0.0,0.0,1.768702457113403,1.7775959098284844,0.826100374766293,4.7269205098122,399.6108025451124,,,0.6233814453054027,2.336486644669727,inf,,0.8878824495194526
362,0.15431525052863662,-0.014402756716006083,0.0,1.2600380457650033,1.2328869968953,0.6908563634751091,4.790335557305235,5.691950347547805,1.6840994742369335,0.9122715248568488,0.6333676938231112,2.407575306851677,1.507786599841984,0.4088151949934463,0.8950906414248343
363,0.0756624840471355,-0.006557415284085077,0.0,1.3988450086446442,1.3778078386489676,0.7734286000781958,3.15031860033035,11.367545377168526,1.602760109903071,,0.6447042257417027,2.488245551053515,1.4271163556401458,inf,0.9023312794204852
364,0.5885444150656407,-0.04378008654583011,-0.017857148228248305,1.268981263964149,1.1486270112757888,0.7366962697516103,3.464063730289825,5.2733152240919665,1.4901486561132768,0.5995290571833857,0.6357360191111145,2.4241251775281416,1.2772768015846854,0.4597948900971144,0.8019004805234345
365,0.0,0.0,0.0,1.7708966314214991,1.7689302414193602,0.9246253037359433,4.570805799946358,4.06142487657169,2.0761026404143212,0.4021150212228825,0.6740851607140061,2.5257286443082556,2.0827804429453507,0.4088151949934463,0.9057768263877237
366,0.04916356731588314,-0.0035378398663837947,-0.001378516865204519,1.2318720468439546,1.1354325472445508,0.7153541333390441,4.737401432896452,54.58506648216054,3.3345305777760217,,0.6284777104787076,2.3362567860317767,2.8627181371839967,inf,0.7983079068323503
367,0.0,0.0,0.0,1.7819176544569026,1.7643541258922517,0.9026345127707524,5.029524638451416,259.472331111176,,,0.6038851895711802,2.4079456086518722,inf,,0.8912569732004401
368,0.0,0.0,0.0,1.7674570270532075,1.7427591976730428,0.8853679607070459,4.276192515306108,387.9547162431477,,,0.6233814453054027,2.445685936634719,inf,,0.8484617769556551
369,0.0,0.0,0.0,1.7797756754216472,1.7549647751339583,0.9056828788835674,4.448256538641628,219.80696878110442,,,0.6566669596287297,2.336486644669727,inf,,0.8660587210996578
370,0.0,0.0,0.0,1.7713568131389947,1.7468345633321012,0.9120626439737582,4.066726401731874,143.8858798416521,,,0.62595550513784,2.5257286443082556,inf,,0.8796614613085986
371,1.4911301758701083,-0.4097632088306344,-0.13201408840217171,1.442912260236964,1.419489275720183,0.8509497980787017,4.734262675366695,38.52337297135893,2.6308586142435226,,0.663668482632973,2.354931573366255,2.4206315985505173,inf,0.8377698889920442
372,1.1244834302693059,-0.23988979845745192,0.0,1.7892393087547303,1.7831278201673195,0.8806837702613504,5.916988009744978,394.446170639093,,,0.5748741956352443,2.462232332749128,inf,,0.892050236085122
373,0.5634063243274203,-0.05258459027055923,0.0,1.7719045459712732,1.7347768860253194,0.922724734381545,4.583557008592511,221.5518900976104,,,0.5113665138247345,2.6895556184660454,inf,,0.8625894606294472
374,0.17776537359595054,-0.020146742340874393,0.0,1.3785221279074844,1.3590673114792962,0.6904729814052738,3.637038740533057,33.94645560539231,,,0.5329562494928909,2.27919414020347,inf,,0.8935720508007315
375,0.08801130409275401,-0.006747533313777807,0.0,1.7381973988444543,1.7372740164171168,0.8921926377502856,3.601627233414643,11.46976669774445,3.0828432752105486,,0.6125606311107803,2.617600298180138,3.0895210777415776,inf,0.8863752623253095
376,0.0,0.0,0.0,1.7849179395375525,1.7506303544823982,0.9534199599029131,4.434579846172548,20.81893694794362,,,0.62595550513784,2.336486644669727,inf,,0.8561317877935347
377,0.0,0.0,0.0,1.7493924952198534,1.713392848396709,0.9323871052578978,3.7773178197010426,9.916692834107558,,,0.6468212168108125,2.4849066497880004,inf,,0.8858968886745584
378,0.0,0.0,0.0,1.2157110552177763,1.182971842970084,0.6956388108985614,2.898381969681472,2.1061723093614058,2.1572607971717233,,0.6207552362147116,2.445685936634719,2.162823150618887,1.1019623755533916,0.8937953135939841
379,0.0,0.0,0.0,1.6894811186888847,1.6681978218534759,0.9228346972498065,2.7960372438060284,5.6084459056547455,3.1747149290824312,,0.6284777104787076,2.5257286443082556,3.1813927316134603,inf,0.8322033893422318
380,0.0,0.0,0.0,1.7409599266610276,1.7296370787303657,0.9208892209948041,2.657202268143342,3.3994726264013098,3.215536923602686,,0.6233814453054027,2.4849066497880004,3.2222147261337155,inf,0.8308386931324676
381,0.0,0.0,0.0,1.7038868310850828,1.684069721221209,0.9204576084582722,2.622123856100197,2.3406936086485937,3.0411835364579085,,0.5947193981915972,2.659260036932778,3.0478613389889375,inf,0.8466480372859383
382,0.2981243733786769,-0.006975790337742552,-0.0357775523739681,0.8313965574150286,0.7924288963595849,0.642619346382552,2.632116064289919,2.5024423124462034,1.5223357921094431,2.3809186580847213,0.6284777104787076,1.6948747720512725,1.448069347849914,1.8828048120051173,0.8384355879125076
383,0.01657170302910099,-0.002761950504850165,0.0,1.325243470768734,1.2601252429035323,0.8713816400148358,2.239841020917805,1.6491250323774183,1.6654349068711825,0.6191305816296823,0.6333676938231112,1.8030900855704395,1.5061360175529055,0.6094858904555975,0.9204634521430308
384,0.2124638849933075,-0.02060240069483945,-0.005611182141397673,1.5759584464332752,1.5691520374259071,0.905159097476966,2.68239020433514,2.504229155399599,2.9097431655569896,,0.6180765742263259,2.1977247023779016,2.8179231335418984,0.9029793872359156,0.9038705565661099
385,0.18837588973971414,4.714432527293255e-05,-0.03081520631609291,0.579972604152922,0.5503077474609647,0.3669538322604139,3.163616815823827,5.064742283105145,2.3817587987743845,,0.5915533975974677,1.8536348729461425,2.2420439122890947,inf,0.7575577031875476
386,0.504076717180831,-0.03048064664987818,-0.009506354915980675,0.8857469332505404,0.8881421833374061,0.6521924938491497,2.01352537792376,1.7810170625830213,1.2895739180335932,1.526664205906054,0.6233814453054027,1.7744435914628236,1.0512646531076189,1.2800343626040274,0.9185704694233331
387,0.15610168023541365,-0.014087040495004113,-0.0062061779355996605,1.437256424980016,1.4339294377433554,0.8977469420919001,2.222221015695728,2.566648813566603,2.967298174033151,,0.6097226960127671,2.1438734018392247,2.8701007935225453,inf,0.8759621210612316
388,0.16304700170958855,-0.024640257624630915,-0.0007318342151177541,1.1641105178742406,1.106742735514305,0.8049917727370796,1.8592599478065839,1.81628787160168,1.242298079595092,1.1714299708296474,0.6547956803312163,1.6901660401394727,1.1123780073911718,1.0418203094236869,0.8668664085308497
389,0.536835969315488,-0.04844688515961751,-0.05793390364594785,0.5402695212277719,0.38416786618445603,0.494733271845565,1.417496481047816,1.810713336384341,1.0718896498941328,1.2382102557094645,0.6038851895711802,1.350841420877416,0.9406938359300447,0.8386176935559371,0.6910161486209169
390,1.0004185006591804,0.04263654363053676,-0.1242160361503627,0.8787474917782687,0.8554993921594701,0.534095940752912,1.7448434183517703,1.8467683459829232,1.0306425021082806,1.0818293515195587,0.6233814453054027,1.460874239475626,0.8855466442227203,0.7326929987946958,0.8220746679368349
391,1.355919120826946,-0.28108174300172006,-0.11303935056131266,0.9317607328632095,0.8402675840178886,0.672314702632287,2.27586400621072,2.50708633175095,2.2468082305100605,1.9169226309813168,0.5641709578113449,2.065670137595918,1.9357914304794692,0.924526251960584,0.9027766098212742
392,0.8185320515372917,-0.10291931218611675,-0.04167673722852725,1.6471981799217172,1.6173609850766122,0.9132478858012186,1.4531338756408176,1.736922587152138,2.2190381568679665,1.4132422214675595,0.48319206230712763,2.1897525624975183,1.9858020551501254,1.5382781928620586,0.8512894304257688
393,1.7402745900438767,-0.3658233530088967,-0.06868257937710887,1.7320272663538467,1.6932254251193788,0.9287279975185246,1.6402342556492773,1.6296742296865978,2.623825154987571,4.171100068721313,0.5783247308855777,2.4020371719657057,2.501239603810051,3.1030907918744903,0.8573298461496488
394,0.8573586868728436,-0.05987343485877705,-0.09384921831458212,0.5345946023014435,0.4894912425426704,0.5785783964009559,1.8581504408946068,1.5188631033868545,1.3127280505507681,1.241117535617949,0.6038851895711802,1.5826337096820493,1.0366427793667334,0.9856703968209477,0.8285645608110157
395,0.6033074142566287,0.03200267113461169,0.01366682792942997,0.9468116621806308,0.890242557863491,0.47971392084539083,1.5711181713884725,1.7173824681324474,0.737830714144629,0.8805411649225223,0.5783247308855777,0.9723908823429541,0.6286931323754703,0.5494478346258126,0.7725209173870244
396,0.6434887726340713,-0.08262886428998611,-0.02247430190691222,1.528763179285004,1.460576698739255,0.8976765135540523,1.490970173766672,2.2324231037533417,2.9689734749659125,,0.5370774965580548,2.211323501715721,2.7363369932191466,inf,0.8385848714370435
397,0.6869491776645604,-0.08675588654339358,-0.027610606271867785,0.751176168244778,0.7132614910751954,0.540474600210568,2.044430367434815,2.1945234801466142,1.6294708866496794,1.2950549995050862,0.5783247308855777,1.775099028334948,1.5178420345573558,1.310009366357475,0.9081992827540116
398,0.6017619661052593,-0.09912623315581517,-0.03366149731147429,0.5958159979032343,0.5485623462405151,0.491978573442233,2.1135602899569363,2.9453160130913876,1.5333925773321215,1.7997961115788836,0.5713653840954815,1.6724368785541741,1.2377295066701701,1.7005748458132024,0.8428002769002307
399,0.6520949191600682,-0.04019860632193124,-0.08085071195748743,0.4999769164997472,0.4428139715187738,0.5176785447929232,1.7210486267069494,2.074116473066435,1.9969343124906742,,0.581717464821069,1.7533082828538022,1.9983926488425432,6.046426105181957,0.8942912424101167
400,0.3116887257050422,-0.0170702735506187,-0.06357988823184735,0.6899131251594858,0.5834562512551572,0.3751632134476165,1.828145400463263,2.2845318209393515,1.0779423436392592,1.2493673690556861,0.6403206450210053,1.158857815683393,0.8679491093616961,1.0157840458285867,0.6737681681048951
401,0.0405048952878142,-0.0068362886231510605,-0.0004545925286554951,1.1636252291207605,1.1246748083472071,0.7741222453061423,2.0025862189153405,2.2344376966046395,1.4051542079003263,1.8630348189323627,0.6207552362147116,1.7357572791127702,1.206750233203923,1.158526038056204,0.906689016111739
402,0.07036229007033247,-0.013623408212032251,3.5588046164838905e-05,0.38352603174820593,0.3473882650625612,0.3409331176505878,1.5149035128911168,1.6332025127413494,0.6818131625454997,0.7855499317422081,0.6097226960127671,0.9589373065956277,0.5588841079729056,0.5043580149445077,0.8426633893110935
403,0.0,0.0,0.0,1.1570127700597854,1.1428584828188868,0.809543893428116,1.3807696308705424,1.4891048359677772,1.6060990111685858,2.076091454794554,0.6097226960127671,2.0149030205422647,1.612776813699615,1.3896444480051726,0.8594073033609275
404,0.043022200030037545,0.0032979180139161707,0.004444658900160426,0.5139426457520241,0.4005039458432867,0.41078551900923405,1.5431515543129366,1.8886214982309955,0.8384204585473866,1.1468733907647024,0.5883313578629602,1.0033021088637848,0.7179988967157087,0.641742056451666,0.8325389788640832
405,2.853761765397093e-05,7.463307910509765e-08,-1.120430396415376e-05,0.8383206377063688,0.7797480240067571,0.32556497617790714,2.613333124720269,3.2426310131036398,0.9633549330767999,0.9015433545764266,0.6309483474627791,0.9416370302927836,0.7224917546317173,0.5199821532663355,0.8679734159902716
406,0.0,0.0,0.0,0.9972464576168458,0.9651150040111774,0.7125332969364768,1.8151579094655705,1.728560401671376,1.7312621541225917,1.0952622017828277,0.6038851895711802,1.7719568419318752,1.6325794409957948,0.919640818759437,0.8208012628584808
407,0.07774152439400972,-0.0032073007634536802,-0.011045312042114768,0.2933224123996716,0.2657901195169598,0.39918758027280227,1.5785021859217279,1.9548372322864085,2.010040611792856,,0.6528756675646988,1.7279086845269818,1.7779087462652763,inf,0.8777254499410978
408,0.004284668264498484,6.256575964988325e-06,-0.0008774724564130134,0.5165637402004642,0.49384527578756376,0.4202741970655825,1.358154058100752,1.7597924918965087,1.7058620720833786,2.394545185913089,0.6309483474627791,1.5966862285089372,1.2329667943525215,1.2713805275114385,0.847426018811041
409,0.0,0.0,0.0,0.7017375132803364,0.6488700137583986,0.43225720636975307,1.5091442385628895,2.4717526202277176,1.7014091909729105,1.7884093823427731,0.6153451465759925,1.5141277326297755,1.2485546641254999,1.338351153617622,0.8680338766849305
410,0.000761608569004314,-7.869955213044579e-05,0.0,1.2715502320219376,1.2490128542565024,0.7309203167363104,1.702619530290998,2.370585951601965,2.7367481510756786,,0.6068309995095971,2.270548241755063,2.3379608454985434,inf,0.8005978516733233
411,0.0,0.0,0.0,0.7483103501907462,0.702066722059144,0.26517109408716116,1.796972282735173,2.133911111821253,1.709639690109426,1.7013980053531434,0.6447042257417027,1.5929086104828898,1.4751554358235672,1.9492602359405953,0.921196772376799
412,0.7873886889682239,-0.05342824915494654,-0.09814427000050913,0.9780418887433644,0.9023327886869827,0.719082852355063,2.5557913393050633,1.9154484496194928,1.1306181225124108,0.9293231271346184,0.62595550513784,1.5026284470111697,0.8876955602908829,0.6885483584647825,0.9407195947912113
413,0.7516783125198805,0.04235549347125267,-0.17375713414710092,0.9048697114992917,0.8777655623166277,0.5277660716745763,2.173254855366624,2.7113379717279247,1.293082280844923,1.2295765211077583,0.5883313578629602,1.2746337329135844,1.0757420239168096,1.0238551766019468,0.8786696648371753
414,0.33399908349196744,0.07164920219517298,0.0859348372370563,0.6555150217670012,0.5230032910390162,0.3679067702335378,1.5200759756479747,1.3391228265960473,0.43830796111215536,0.4802942760607925,0.6233814453054027,0.5741993913936033,0.35357367758958597,0.29492960491597103,0.9271905319682568
415,0.7762639062592603,-0.05903760728825025,-0.058939238055789114,0.665616161533873,0.6390962040904357,0.5521231638399436,1.228542648654857,1.5002565158192502,2.13533942881794,,0.6468212168108125,1.9483353096035938,1.5545257258350618,2.2177285575339267,0.8744711235764716
416,0.11754777276968686,-0.011646391475829593,-0.006169230749332746,0.6934772907311113,0.6594386994452823,0.26044979175264604,1.4270685632415734,1.3965249094854404,1.0936759793848483,0.86305390477934,0.6153451465759925,1.141658978210476,0.8744948242334415,0.7244195903638527,0.7241388077854126
417,0.14777777597903194,0.015589784541698862,-0.013589657930287088,0.6958069048582053,0.5768292505224581,0.3540052096466357,1.726932633190522,1.8530962335106407,0.7938857150660729,0.8393914138527582,0.6403206450210053,0.8916523212946914,0.5670693737607854,0.5140801494681524,0.6284418396486277
418,0.17797753491435142,0.011077222443986151,-0.012433902228031188,0.6336228850276753,0.5732474449463926,0.5144993835902304,2.028229224532313,1.937640060826248,0.7261671050842721,0.6271107576768804,0.6403206450210053,0.947552093759293,0.596254145245978,0.43758141553251173,0.6876085638612732
419,0.0863946350581198,-0.004056249997477258,-0.003932807242553647,0.3986402894099303,0.32421970889970153,0.3165368684210058,1.4444939565400943,1.2385822790472722,0.696252609007327,0.5899505566342194,0.6309483474627791,0.8327924630734636,0.5174057192903825,0.32478616639112856,0.6805617060650041
420,0.0,0.0,0.0,1.254516944591827,1.2411500646779687,0.8519506611553862,2.5012903845047663,2.2159579144516233,1.921951960587063,,0.6425374456860184,1.8325814637483102,1.7950983704935697,inf,0.8445823906895842
421,0.0,0.0,0.0,1.5300719755780514,1.4964126240726972,0.9035780193739348,2.071074056890145,2.580360226387996,1.7238820468249691,,0.6619902821573977,1.8971199848858813,1.412106118237464,inf,0.7503315681316152
422,0.0,0.0,0.0,1.578561013041886,1.552642584809259,0.9156594965897834,2.527895720274743,2.0484041830665793,2.2479528973409804,,0.6153451465759925,2.0661963149298153,2.0314871485578,inf,0.7690016475893122
423,0.015265125874569985,-4.2846311428595615e-06,-0.0020310654854664716,1.2781300579269237,1.2719564709895055,0.8369572128096046,2.6476559279967833,4.090466813317603,2.264538026795371,,0.6468212168108125,2.02646965691373,1.968331274972109,inf,0.7759360687945207
424,0.0,0.0,0.0,1.5858292053223306,1.5573157422317834,0.9415002147980011,2.8389411891959404,2.746635194637669,1.9425712477897987,1.6060878255488185,0.6207552362147116,2.1484344131667874,1.949249050320828,1.6127879993193823,0.8197839751089927
425,0.002872675092359644,-0.0009656003837972675,-6.733776099051994e-05,0.4033001583853135,0.30119956777354073,0.3166681271795279,1.775154100182173,1.9747691251890394,0.666219016822743,0.6439111221735582,0.6153451465759925,0.9613462119992993,0.5416817356414035,0.4943626478169309,0.757264025056859
426,1.8312055927281154,-0.3049984627091228,-0.2218845419155347,0.7903492610202196,0.7347588046956426,0.6941169183287654,2.0479063724653317,2.130297858501724,1.6491118432129679,1.833459861881662,0.5783247308855777,2.124717886549471,1.427690056881586,1.3568748564049111,0.8192687674014006
427,0.9712196784877332,-0.06317390486185503,-0.11532917448393581,0.7108051685845607,0.608022187211374,0.6173077283061175,1.9653482621031928,1.8197513897448216,1.151222220766862,1.0986030489503213,0.5490601803369085,1.4106781325177244,0.9919728753275464,0.8643068986086816,0.8782659016788152
428,0.2031142605126733,-0.021476162409651355,-0.0003220469660477135,0.8814599214415809,0.7902611189900014,0.5218487212118248,1.917510664125428,1.3591076808079972,1.101537353470422,0.8011546328289249,0.6153451465759925,1.2681360872322036,0.8668651469238838,0.5207728223807515,0.8560540282842102
429,0.12529635195740702,0.0014682006667645076,0.0014498633779941109,0.7152050292008323,0.6702228145278318,0.571261208769382,1.9606699563436967,2.076585744874362,0.8473848541348726,0.7976622710913567,0.62595550513784,1.2170580438745915,0.7174177275550587,0.55043087835835,0.8982580031772137
430,8.467073608603357e-05,1.4964235571730459e-07,1.511539022896101e-07,0.7821929958576425,0.7771358648372961,0.3307215032895208,1.908582326618149,2.140458632611441,1.2654502993049423,1.2065004397767227,0.6584896970785714,1.3344190139357168,0.9389309537899938,0.7985436667938444,0.8139643269840664
431,0.30357544594257757,-0.06463906099148656,2.3507612092861833e-05,0.7485966797198648,0.7056793396217945,0.5924902708553057,2.0296628915781914,1.9367544736184135,1.058190480346964,1.4040420518250767,0.6357360191111145,1.6220729550139816,0.8676452517712407,0.5848168027842681,0.9343812802338299
432,0.07829117647025399,-0.016702117646987518,0.0,0.7662420915010743,0.7190886821174817,0.5691218758333823,1.7380287556595722,2.2162432870277473,1.914464896286412,1.5289394759016466,0.6447042257417027,1.5605419337574007,1.6616727923763148,1.795109556113337,0.8720762183674778
433,0.08426061390172662,0.003729641606778994,0.0037332429870303094,0.7766805684947222,0.7279780978582651,0.5234546823712747,1.8095517579146645,1.7660669444143078,0.5889635401509041,0.6153061076838503,0.6380535849069913,0.8426014981727938,0.4780299741478162,0.5073080043622018,0.7576310117001773
434,0.08800729534266419,-0.018867111819834637,-0.019027535670356616,0.14228428290499973,0.08925433096058372,0.10629422331962031,1.2448014184724137,1.6090676427204038,0.3974079647184112,0.34333319273378293,0.6584896970785714,0.45900654170308314,0.27443036764824885,0.24469967585010466,0.8563613876100661
435,0.0,0.0,0.0,0.9750780938242077,0.9512245728592269,0.6593108263022442,1.3881133954637563,1.6619108502635422,1.711758316003722,2.2133783285698074,0.6125606311107803,1.7719568419318752,1.5372692611914698,2.4012453596836525,0.8371540101408298
436,0.04093013645978789,-0.015962753219317276,0.0,0.6675789352197956,0.5844277992766511,0.36979813462878797,1.8547734912616323,2.148444678362238,0.8002950956012331,0.9711767135895856,0.6566669596287297,0.9555514458274577,0.7442367448617871,0.7525867340962709,0.7524756637202287
437,0.16251655421106728,-0.019828703616059984,0.020100168366995796,0.9726719677451104,0.9735738908517992,0.6717853127648155,2.4358369298994926,1.2829035700502374,0.41935666232010566,0.5535471765131584,0.6380535849069913,0.8413121071024137,0.2990948712227416,0.2391986909402789,0.8703538868991435
438,0.04888584503461647,4.306533606293281e-05,-0.013673685719771674,1.0159240734672441,1.0013080154629597,0.7265379052662946,1.3972680533212993,0.13378362851823344,0.257956636110975,0.057691364196315556,0.6380535849069913,0.9315171792054464,0.23031893962969877,0.06935563473210506,0.9230631859922578
439,0.5537265601806967,-0.07736461205257898,-0.025113430480258193,1.3894918339726323,1.3813249100872964,0.854313665509699,4.931592404308251,21.557406848524394,1.5682177758595108,1.7802125290201114,0.6652988471865258,1.6724368785541741,1.4769647092206093,1.2415536776433995,0.758439822890185
440,0.35623528324625126,-0.017728739580343558,-0.06501125317290615,1.0022015315645993,0.9556692351957226,0.7421892434893873,3.43208662631283,1.9526285077959367,0.7748857580772899,0.5954956622264221,0.6425374456860184,1.353719615187717,0.7376145868910702,0.446832587350097,0.682430025446733
441,0.11041655669669008,-0.006783364752402564,-0.0027958969209244088,0.9903146858717956,0.9963924679179487,0.6728719073262897,3.4473191096861617,3.447373332548302,1.086738067891218,1.009126282291109,0.6153451465759925,1.379693969486242,0.8181307879220097,0.5682077262323055,0.8809798610574803
442,0.10931718778320475,0.015853461545130836,-0.012805900324716811,0.9382405213499975,0.8853795231718933,0.7197581892954695,4.025055142379481,1.8934658177364154,1.1236659051564428,1.207576049980009,0.6619902821573977,1.3106098545720655,0.8642663191003921,0.579043461088207,0.83749541735501
