,eda+bvp_XAp0,eda+bvp_XAp1,eda+bvp_XAp2,eda+bvp_XCond1,eda+bvp_XCond2,eda+bvp_XDist,eda+bvp_XFuzz1,eda+bvp_XFuzz2,eda+bvp_XK2_1,eda+bvp_XK2_2,eda+bvp_XPermEn,eda+bvp_XSamp0,eda+bvp_XSamp1,eda+bvp_XSamp2,eda+bvp_XSpec
0,0.10378355806875926,-0.00026985913834602637,0.00010546940797493548,0.8221072888067821,0.751790239315496,0.5711699311210232,1.2810463283497944,1.3828320984797215,0.953730829962774,0.6552682885409303,0.6619902821573977,1.0133524447172864,0.6506003200231123,0.35747147279213165,0.9055651553003833
1,0.09029444993683737,-0.004467097726656666,-0.0072711807651321915,1.082323670227571,1.0633555126067142,0.7400053551918807,2.2494804221106435,3.0255582904431506,2.9243821616719328,,0.6668815377411301,2.0829142311588087,2.4883914408765264,inf,0.9228888042470265
2,0.008626917193790733,1.0117695379231219e-05,-0.0013616680557397795,0.7366630067745461,0.6763170965030878,0.5134467940795735,2.338508073127356,2.552903937912204,1.760249690995844,1.3829442742346088,0.6447042257417027,1.8607523407150064,1.5778008274909179,1.1733060059329636,0.9142335899075077
3,0.0672117654371562,0.020009740066406045,-0.011882083462065644,0.3441494199558571,0.25459903539824924,0.3742737594873793,1.8308563990896098,2.225037326461178,0.8545907846650078,0.8755001454479153,0.6380535849069913,0.7679186206230812,0.590544427348221,0.41349379396057306,0.9467912706413536
4,0.005566108162330854,8.01343366475739e-06,-0.0011212350661309281,1.2661560528144296,1.2478611347624062,0.8326356459510175,2.789856682714391,2.51054285701242,1.2528914383006589,0.8839531081156208,0.62595550513784,1.6143387910338114,0.9701672239769438,0.561016090334706,0.901189486930399
5,0.07646002793141447,0.007036312654986346,0.019223232785509844,0.9004764894440207,0.8687811142802797,0.618967998047875,2.4418156968865135,2.492627826196162,0.38995365559930006,0.5198980568792658,0.6153451465759925,0.9160407631189477,0.3250956124690505,0.22069603959452988,0.8549169487093742
6,0.07707814154940812,-0.019012608248854004,0.0,0.37805483866249,0.3179898943779387,0.3037859887413301,2.524378599471817,5.786321856451345,1.986589813007886,2.297226301047683,0.6866242695638369,1.4132773724498353,1.5857938023696703,1.3251059268676013,0.7401488064917485
7,0.08795150795590699,0.0008412769061776591,-0.023707800938171077,0.4678866052523524,0.32195679853830905,0.4188560239694773,2.0126225848304884,4.161729933276957,2.563383914034779,1.8250755963662824,0.6333676938231112,1.308633976104343,2.1103879904703646,1.3331026323700472,0.9209214323391276
8,0.23483351804272218,-0.054794487543301844,0.0,0.28550353201875855,0.22269024944639518,0.2830650557359393,2.220156843344518,3.4979957497472545,2.255344061631875,,0.6425374456860184,1.4991893627034982,2.262021864162904,1.9492602359405953,0.7922204550700662
9,0.0,0.0,0.0,0.7476271185917834,0.7097882851032143,0.4851074487791257,1.7085599835253016,1.7135797127031636,1.1573622914595358,1.2338439931880383,0.5883313578629602,1.1086626245216111,0.9095792972861682,1.2943342682008476,0.803646831998554
10,0.014405440366872989,-0.002621452959238467,1.5829688420339154e-05,0.46638152025186014,0.3608567100091138,0.4811472757197614,1.82313689074885,2.3155517615268284,1.6280581263996792,,0.6097226960127671,1.1498354100792445,1.2412166642371314,1.1734488583039722,0.6969751095101602
11,0.011093990538694828,-0.0013682588331056956,0.0,0.7607714307820853,0.7436349353791748,0.40405719406663576,1.8788457609672669,2.027360622001484,1.9890003502013007,1.6060878255488185,0.6097226960127671,2.1020053107552856,1.99567815273233,1.6127879993193823,0.9476319687497144
12,0.11887252821371179,0.007243912597751798,-0.0036982074586392674,0.2400665695721527,0.1589671279172309,0.1390529456801614,1.2792086471307664,1.6058369220301218,1.028801446608244,1.2933742627160085,0.648888643467878,0.8321538526679554,0.7707498984152136,0.6962428159784343,0.7244751711195087
13,0.10074726959418008,-0.008731430031495607,0.0,1.6551191991233989,1.6519652797489457,0.9347828548195815,0.5072718365098826,0.985823099785282,2.5250528604622247,,0.6284777104787076,2.482243532368517,2.5317306629932537,inf,0.89256644803044
14,0.11288685755475561,-0.012793843856205637,0.0,1.684149132682251,1.6425340916505322,0.967961395485093,0.26355309197831894,0.4963494086131415,1.9658978047312683,,0.6403206450210053,2.228612050577852,1.8690714129097634,1.6127879993193823,0.8697066282628919
15,0.0,0.0,0.0,1.5856606446196913,1.5639092895999187,0.899730742906522,0.3002187547219542,0.6099791702601268,2.7375011226596864,,0.6740851607140061,2.2697952701710546,2.338713817082551,inf,0.8573262193325015
16,0.0,0.0,0.0,1.3618025161274208,1.3517402330085546,0.7415405850638045,0.4853630844462507,0.903349836967817,2.6708097481610142,,0.6153451465759925,2.336486644669727,2.6774875506920432,inf,0.8170269938157881
17,0.08623059034708343,-0.009510070159147281,-0.0014124712848166195,0.9425710392196327,0.8933109684886837,0.6370794329039401,0.40110502504380213,0.7012665476817468,1.8536233584741022,1.7197747839831983,0.6309483474627791,2.123695344048104,1.5479992853117317,2.0387768334471623,0.8604598460375431
18,0.26259118266901876,-0.022757902497981628,0.0,1.7826083952350287,1.758983833637654,0.937778360945501,0.9507111761551057,1.9170041659396513,,,0.6447042257417027,2.5188082014636817,inf,,0.8868060519929206
19,0.26343289557786187,-0.025465179905859982,0.0,1.7772070420440254,1.7315222293151584,0.9632413071162912,0.9636301435290904,1.7790792793065284,,,0.675384900321601,2.4299135414939608,inf,,0.9020206415731885
20,0.05808017966966006,-0.005420816769168272,0.0,1.7712469489903786,1.7378024905318985,0.9601942403865902,1.0524919117851832,1.7417147272314553,,,0.6684167106117298,2.400688057883602,inf,,0.8953318187996055
21,0.04245705329922779,-0.0029719937309459453,0.0,1.7848571630632422,1.741400245160867,0.9517908365393108,1.166936929830891,2.614295422404938,,,0.676637947632344,2.6877574978344474,inf,,0.8831200538649567
22,0.0481630000111025,-0.00034097736357183335,-0.002709345970464658,1.7811504219383103,1.7352302955754195,0.9023772577118759,1.290009147563922,3.0152035502023047,,,0.6468212168108125,2.7943345696992226,3.7228812513914256,inf,0.8712383512325066
23,0.05016510544318924,-0.0033443403628792825,0.0,1.7857612274674888,1.7445931223433364,0.951256011896663,1.530112426072163,2.2544766447176574,,,0.6447042257417027,2.740229099466445,inf,,0.8513105710381034
24,1.9459599256630442,-0.6704614208538571,-0.3598130899989501,0.15530386776307528,0.14954273858729092,0.12321982177058094,1.3354178075321803,1.3123380334392858,1.3646354422029774,1.6498685357128686,0.648888643467878,1.2608567460328854,1.1647752122926427,1.405323224013836,0.8398256183802343
25,0.6004609606783976,-0.0609626570472214,-0.029106487054538232,1.541641785840947,1.521443804909983,0.8705669712371427,1.2130919249051182,1.085102525632734,2.0722238697840774,,0.6684167106117298,2.274213618864355,1.9336729847568745,inf,0.948054498843938
26,0.05539424600281064,-0.020245590383468643,1.486006510507433e-05,0.3685773936172741,0.3016555713233363,0.12163692565745197,1.6282071291931184,1.1907986049927173,0.7333830618554809,0.6405028402762053,0.6233814453054027,0.942007479823272,0.4808125626460685,0.32587993729826753,0.7103867704822708
27,0.0,0.0,0.0,1.591347001648388,1.5789404308650619,0.8611588245264029,2.1098430352521222,2.1075050242525206,1.7014091909729105,1.3829442742346088,0.648888643467878,2.6127400212978853,1.7080869935039398,1.3896444480051726,0.9106381791072434
28,0.0,0.0,0.0,1.7586246625449085,1.7368600353857415,0.910915373718844,2.1322349678921015,2.3660915382435004,2.829874442790701,,0.6509067234006624,2.870569130599985,1.737939956653621,1.1019623755533916,0.9114650506199861
29,0.0,0.0,0.0,1.7678136582634283,1.7496692122305209,0.9372993805041213,2.1020346014382914,2.988860556704941,2.9411000779009258,,0.6547956803312163,2.7593434954897607,2.947777880431955,inf,0.9213771065804658
30,0.0,0.0,0.0,1.7161364693660954,1.7168392390026654,0.908830021845808,2.1554452623687377,2.569997470995468,3.2924979647388146,,0.6333676938231112,2.4079456086518722,3.2991757672698436,inf,0.9293333879942473
31,0.013122024860612987,2.0807527361519328e-05,-0.002513992250877987,0.5211847214041972,0.46196922362937365,0.40793111802280857,1.3827658395115263,1.1896060669856954,1.2553357063130621,0.8253544352996401,0.6468212168108125,1.670013924320906,1.1208745550903088,0.6169978904017374,0.9295057525136993
32,0.0,0.0,0.0,1.239138143064194,1.243534013591201,0.7740901091377003,0.9070170486664488,1.052694657607519,1.4076480724447475,1.4184671348931215,0.6425374456860184,1.9902104079518934,1.4143258749757768,0.919640818759437,0.9062712172824995
33,0.09534375051355191,0.0028182189323158885,-0.005413358121663908,0.5430403416653675,0.5164721754999864,0.3333936302407826,1.0213591039567185,0.9671773767624079,0.6629807765880077,0.6225553196342061,0.62595550513784,0.6695825752043021,0.5229741596403494,0.33812134372880176,0.9632724362927896
34,0.013368023892104123,3.098935953224635e-05,-0.003163752164503946,0.4933032317730968,0.4332286460241624,0.4818444593946855,2.4240325966111893,1.803611128284976,0.8653403539941626,0.635948557021379,0.6684167106117298,1.3309227278071367,0.7315961466767915,0.4339206911177965,0.9578144741927884
35,0.014616362611209568,-0.0029719937309459453,0.0,0.7085071705831156,0.6952668673525982,0.3154556924016444,1.4822620863249594,2.1747567761778566,2.488377840451035,1.6060878255488185,0.6153451465759925,1.602627820505551,1.907268978079945,2.2005746642215014,0.9386052495139987
36,0.07570638663148878,-0.005047092442099252,0.0,1.7426246551440188,1.7147468704589421,0.9447868567363609,1.6490726203754684,2.328807812044513,,,0.6468212168108125,2.747831071114055,inf,,0.8898727811055842
37,0.02196893232132066,-0.0016842848113012507,0.0,1.7625296122538245,1.707603404526999,0.9513544571569501,1.923213106333172,2.641379952999809,,,0.6447042257417027,2.58568508662856,inf,,0.9065568218057696
38,0.0,0.0,0.0,1.7774393644808368,1.7344061770392751,0.9437212822119679,2.095814870928663,2.460654078979605,,,0.581717464821069,2.870569130599985,inf,,0.8832265609529725
39,0.012899098139476095,1.5770974047439948e-05,1.584778016747168e-05,0.2828141130530993,0.2087481757824728,0.27637326849121513,0.8082711519711233,0.35126593276308815,0.2291905507200309,0.06317699239658611,0.6699045166045591,0.5219240208024165,0.18789469404550085,0.04473116793230372,0.9519215642236377
40,0.26104361852277747,-0.023726568163770476,-0.0032479390835831977,1.6874682684877786,1.6529115160427068,0.9442581927392052,0.2171989313282165,0.39767533659742804,1.8798089260534834,,0.6207552362147116,2.4343402862173127,1.6182227419898332,inf,0.8922546450608935
41,2.423731956423592,-1.0052551091759214,-0.05932309282494644,1.7607222660476736,1.7140360937572217,0.8882310562948894,0.6859950665437431,0.6683751512133584,2.3049571259829342,1.429783931873182,0.676637947632344,2.5236474781044307,2.3005082490492064,1.441745665656105,0.933018586126134
42,1.8079672377085585,-0.6420015343264222,-0.014893228707687483,1.7900002255238388,1.7730352307802746,0.8883019680953127,0.8177790676772403,1.3164988263120478,3.575591916524649,,0.6447042257417027,2.643511679964639,3.3044677552036044,inf,0.9266959527243728
43,1.0025321456921552,-0.12913264642225514,-0.007880080155672736,1.780740410231783,1.7355530603617655,0.9357099748237767,0.7446507983823862,1.2059323851777055,2.0366265024860466,,0.581717464821069,2.5798035816576825,1.8365844805335099,inf,0.8961791157612362
44,0.4822772581157362,-0.04642342653616332,-0.008234662716953452,1.324450932422475,1.279520858314791,0.8298930072543451,0.40751842829838464,0.5495704502449985,4.0165708380073415,,0.663668482632973,2.4716614230379794,2.954489315019942,inf,0.9430113804718424
45,0.18084507232750568,-0.01326197197068375,0.0,1.7866260334405677,1.7295067047426729,0.9339845401595459,0.48652430855809714,0.7939094787503427,2.9892216811228414,,0.6233814453054027,2.711221892267845,2.9958994836538704,inf,0.8738091905102605
46,0.1924281131733455,0.017358790122259132,-0.03475370210411097,0.23810219477118838,0.16864199415366762,0.12770978389803067,0.39908123288589714,0.4672455126111224,0.6063139536103528,0.8506331800594366,0.6153451465759925,0.4874889435867551,0.43775844633029204,0.4760929294081148,0.9690185266431607
47,0.12288969548484616,-0.007796733335288638,-0.0008055453486505934,1.6136988977508722,1.578356238960896,0.8698826270539936,0.370873790296271,0.42227474441753887,1.6034310257283046,,0.6468212168108125,2.714068273427773,1.4273678963281782,1.5690352930510465,0.8960341993308742
48,0.07077849358998009,-0.013857275898679959,-0.007131347487259281,0.18508749434778257,0.055042786978248194,0.11169204126412874,0.8107480789947047,0.8112985481881234,1.1950869811269407,0.7538224092621522,0.6309483474627791,1.0071275985459314,0.9928047110665118,0.662188959601367,0.9378414574111665
49,0.03899672865243651,2.0563425444101308e-05,-0.002490356240098414,1.7745182666179762,1.755966627328694,0.9508492333934498,1.0119865979119433,0.9020185172094002,3.5016255585322322,,0.6447042257417027,2.7872737998925974,2.5312462739729584,inf,0.8625917533685595
50,0.052640892325382355,-0.004386741027115196,0.0,1.76276961603644,1.7355602119923963,0.9510480608288985,0.6255807175234365,0.9141560271137027,,,0.6233814453054027,2.514816180194144,inf,,0.912029997472895
51,0.11945867893110217,-0.0068744871670637,-0.015424466233408705,0.15530386776307525,0.07331402522924907,0.30847939775468874,0.8508346903109687,1.0395259879104235,1.9039602377708493,2.0790136025637262,0.6528756675646988,1.714119646170829,1.6904166367568412,2.3059351798793277,0.9481347604631982
52,0.010897086696548612,-0.0005811779571492594,0.0,1.782753442157656,1.7473631453871374,0.9352304497952091,1.4471565683958876,1.648207527158076,3.1269242652460827,,0.6403206450210053,2.9412440882699213,2.7658772876517945,inf,0.8682094107579391
53,0.0,0.0,0.0,1.786515269726256,1.7634239067209725,0.9438098610169928,1.2714026739709603,1.9695274174385815,3.272301946406877,,0.6180765742263259,2.70805020110221,2.999071174819506,inf,0.8962183053347992
54,0.15439040505704596,-0.007831554149720504,-0.011080690611623865,0.3782133637254023,0.2990457836343184,0.3692468358009699,1.3131319639570342,1.107003938151013,1.9761170501755048,1.9662855618900306,0.6727386042041725,2.138578381903486,1.794214385011046,2.1229140489218037,0.9630215327083379
55,0.01893280125353131,-0.001893280125353131,0.0,1.7756562211847688,1.7830438280606817,0.9275083755253519,1.8015461722633532,2.690080986172555,,,0.6068309995095971,2.317134874008777,inf,,0.915590534252967
56,1.1368664269405224,-0.18569188943065462,-0.2448365681811466,0.39535130103941407,0.3444099669218893,0.46119751608702914,1.353286514296033,1.0258758373633283,1.6686006646945053,1.3416949147583408,0.6447042257417027,1.6421906989059083,1.4753326317020048,0.7310033632611054,0.9636846116543429
57,1.6513132048369914,-0.16922029330793387,-0.017928536573591836,1.6898573506052708,1.6544438905063583,0.9005915038473659,0.13845594980003645,0.27595566592263016,4.214021561177357,,0.47824363442641393,3.575947672959792,4.070417160659048,inf,0.9293241955582047
58,1.0867328233448077,-0.13293508469835436,-0.13048585665288323,0.7273445384488472,0.7095765675555521,0.5123275931399662,0.1134253623383964,0.21139928043423872,1.9401450792076989,2.848776208274985,0.5641709578113449,2.2108165308556864,1.6711084434151802,2.6658275706798635,0.82632770249575
59,0.33638122473932275,0.051883045400496736,-0.08355799693396618,0.18880655353635273,0.061058899168729586,0.21702794079543114,0.14917901679271062,0.2093300289050873,0.6344802700913159,0.5673122464265159,0.6468212168108125,0.8088573660553984,0.5098198843173236,0.4102952307565682,0.9281429129635653
60,0.22604923311522998,-0.026372410530110163,0.0,1.7629866043765179,1.7130734503439151,0.9492186313440389,0.21785077797352423,0.4774853312121116,,,0.6619902821573977,2.2677543435267467,inf,,0.8805946609378357
61,0.6483019892896845,-0.05186415914317476,0.0,1.7639799874420454,1.7276622120614875,0.9412736071298716,0.28399865059425466,0.6355308554498007,,,0.6357360191111145,2.7724109602626,inf,,0.8685274233052311
62,0.4003183783825123,-0.026687891892167488,0.0,1.7704490810073157,1.7417893311934098,0.9487745913096147,0.3785506157091252,0.8512477637207323,,,0.6566669596287297,2.807686391277557,inf,,0.8183458235901429
63,0.9428655718611482,-0.1929368189748335,-0.1012709762545679,0.5913967943086064,0.5982334372666412,0.16091069190443463,0.3972263511730983,0.6567158077392791,2.4529889974256047,0.8436428047642225,0.648888643467878,1.306333708094796,2.205422864134423,1.083463282905704,0.9809455774382715
64,2.1796200069673026,-0.6030530851517626,-0.2822662312426684,0.5173404436157826,0.4838786343782625,0.623600671949721,0.46432060387900664,0.6261919095215522,2.5014611487502396,2.237777288416201,0.5947193981915972,2.527814150799277,2.2398749646865896,1.8777018990287797,0.9302516349258148
65,1.1900590771991753,-0.2367058783636949,-0.03886939143556699,1.7417871532045393,1.6885031625529028,0.957366196025009,0.49509092147806283,0.8159197802735323,2.7319350489813474,2.24694549018326,0.4928685327679205,2.2106138144552356,2.449364608027851,1.8497467268784045,0.8894977060876677
66,0.31625485511771634,-0.04232869328639739,-0.022924606420173826,0.08467349851939517,0.0619568029299417,0.09349718690795088,0.2561988679494402,0.3300048161666876,0.7072518069274695,0.7061190266934472,0.6207552362147116,0.908818717035454,0.5542607007067478,0.4948133480832832,0.9682700684223486
67,0.9177460876978716,-0.11822775356744505,-0.007197545084597389,1.7033646072984912,1.679337226442034,0.9525658497404589,0.08287037839215394,0.18201620472233832,2.8320566045489373,,0.5978297680564633,2.516741373308019,2.690314401961693,inf,0.8782961952179266
68,0.41939065190651126,-0.03634849482751677,-0.014910849672232794,1.5505839781862052,1.5163049152381032,0.9000478405404286,0.14415326989813618,0.29283481052204785,2.5559150842599405,,0.6333676938231112,2.267110704800386,2.2227486346767114,1.2206121233299008,0.884472690685748
69,0.6028772434795063,-0.05956642688492239,-0.01076925152102001,1.766622520307703,1.7226642942672963,0.9214280551832646,0.2512380009395868,0.5110149832148743,,,0.62595550513784,2.405233241066159,4.119529785659872,inf,0.8932628794015498
70,0.024026342451474957,-0.0026428976696622453,0.0,1.771051132645792,1.734996765590995,0.8872359166625166,0.2738685570783705,0.5802988628714851,3.473790185363655,,0.6180765742263259,2.2266533880270316,3.4804679878946843,inf,0.8635036200732911
71,0.10355732940599839,-0.010253516718492258,-0.00010221622210758093,1.0322889365010788,1.0125257794498388,0.5883936455555557,0.3177119270046381,0.6453238459810922,3.37548906747004,,0.6309483474627791,2.355517156330813,3.3821668700010696,inf,0.905600097993525
72,0.558965554702596,0.1145729081613337,-0.16462123538140766,0.41383175975687725,0.37929437511536535,0.30244509208489695,0.4201233019619803,0.4913924047051904,0.8219320854185139,0.8264108218310731,0.6125606311107803,0.8472052720810406,0.6506912656201524,0.5668972524545367,0.9746675928415293
73,0.8967702911891109,-0.1102092506962617,-0.1423210752458552,0.19517169521930086,0.15624135218463217,0.32525894239989894,0.3629808894158092,0.47815738615727194,1.3410034074619621,1.6697759932743268,0.5947193981915972,1.6103271966189845,1.1271518151740378,1.3825252972096562,0.9610014353531319
74,0.2961224879614011,-0.03849592343498214,0.0,1.6061996776924896,1.5936614460201464,0.9153324326274302,0.6658195206722102,1.206480401124431,,,0.5883313578629602,2.257293103802339,inf,,0.9046482522784203
75,0.31465040345805556,-0.06879539556529414,-0.011873780175714894,0.7548981803481469,0.7226324159456389,0.12461141258741971,0.4609874201043539,0.6214125188366137,1.2589855323994177,0.8714026732472245,0.5641709578113449,1.1012825172239886,1.1032688354986917,0.6713259590230318,0.9596702167553288
76,0.4207048068434485,0.017681708065928003,0.0038480585139725743,0.19804851594381867,0.1622847898021782,0.08919210315510685,0.2897635836187738,0.34812253329538584,0.4940193795256698,0.5835365969971091,0.6509067234006624,0.4350312437099312,0.3188336185519415,0.30312575171541767,0.9547065366337681
77,0.09388119036830311,-0.010233713644021532,-2.0070744535627015e-05,1.7148172954348908,1.673235708511448,0.9612825039853707,0.34873414786905155,0.6020335894350797,2.1647019746973513,,0.6097226960127671,2.1965248222219462,1.9421199988967346,0.9810615680319371,0.8546502544915787
78,0.21191860331712742,-0.017659883609760618,0.0,1.7654078415678163,1.744349253942165,0.9113402180954946,0.46943772152017005,0.9278491327191192,,,0.6153451465759925,2.596508826369303,inf,,0.8401436379547232
79,0.08299147859373707,0.0016522157157812314,-0.005437017526020632,0.10696905971831198,0.04403542800119674,0.05648256369664834,0.25107622058130274,0.29737289583086024,0.33904617453798724,0.27565704447408645,0.5883313578629602,0.36389139619823624,0.2346529253568431,0.1373479978786364,0.9744095393507151
80,0.16204193581888932,0.011754862121594906,0.0003371937138731962,0.12288817977761199,0.050841118273251364,0.08092132829097554,0.11202943454155537,0.11568650082271913,0.5687278262282228,0.575929505592035,0.6584896970785714,0.5701235796966092,0.35764948928657986,0.31930055899077286,0.9641116898553902
81,0.485997929529935,-0.044350260610362235,-0.0058695254410643825,1.6616055763487578,1.6148441354428507,0.9036939678031125,0.14248653075805778,0.29813371975814995,3.458926789126758,,0.6403206450210053,2.46968968398314,2.6189071515828277,inf,0.8671533095345297
82,0.8857363285830016,-0.044286816429150076,0.0,1.710691820407272,1.690004181350646,0.9399275411601938,0.18680714191745657,0.41639595012547603,,,0.6125606311107803,3.205904758503722,inf,,0.8614518871232305
83,0.021472111848364457,-0.006754073921688304,5.780896301811026e-06,0.8084123020720124,0.7754453389497862,0.6740759379028048,1.624362950738786,0.8860797718758815,0.5554836226893182,0.41819289051514197,0.6602640781246099,1.0540214053402346,0.482320952023315,0.28711419860776,0.9542994535002569
84,0.0032568854704719875,0.000928696865641028,-6.44914729099849e-05,0.8477699880067269,0.7873126055438755,0.6729694468214326,1.6176760920068518,1.2080760610982488,0.8959938922767184,0.8584404037310761,0.6357360191111145,1.0245257453154115,0.5806988334658203,0.45519895706284225,0.9562866211665124
85,0.06488983404894964,0.007511634983865534,0.006711596432530914,0.5931320710449873,0.5207429178307839,0.438760062038993,1.0213034221939723,0.5744557316476713,0.3862007667935533,0.31025430331731746,0.6403206450210053,0.7839475448864419,0.3167001471437383,0.22123315576529035,0.958861312562144
86,0.1295844838307058,-0.007828149787469804,-0.010722485184312638,0.6821651800248362,0.6526444137858879,0.5304253793320871,1.1838152338569086,0.933656648795324,1.0583564950689208,0.6553067660536581,0.6357360191111145,1.2794149994927946,0.909841408194248,0.5706135421449641,0.9525304004089319
87,0.038467742201175686,-0.0007963526714987786,3.328518151991637e-05,0.9997787842403466,0.9705090702956051,0.6670074021810564,1.364794342697617,1.0779008444364546,1.17364781805062,1.098785902702612,0.648888643467878,1.2925207147139846,0.9934257926830394,0.7432276533795996,0.9400017886157379
88,0.35158748396366096,0.007775847661012789,0.03947679438119263,0.5788903028000126,0.5305020577286392,0.543026152261823,1.1876391728174585,0.9975262131832403,1.3407871582952007,1.9594341877473755,0.648888643467878,1.258781040820931,1.0661632781176595,1.134235345261912,0.9423972361617186
89,0.2564021530651922,-0.013185428959572629,-0.016777876282534326,0.5241151066378492,0.4843007375166194,0.49782203441373496,1.1277318737056117,0.8770080123938271,1.0435907404698295,1.2133895039094031,0.6584896970785714,1.1503618274701937,0.843840276548038,0.8244072876510424,0.9465923415053402
90,0.1401294888022137,-0.012844886360571718,-0.013093213185291112,0.9623994202136121,0.9564173446521589,0.5497583610874535,1.5293003372783218,1.1099133027481625,0.7504198428395635,0.707377695382828,0.6528756675646988,1.0177391566615543,0.5642997815844315,0.455280121580611,0.9528495382456255
91,0.013802398552921044,-0.003818663599641489,0.0,0.7690576516796981,0.7129728326304051,0.5744044315291691,1.9111531829710178,1.3282993095496731,1.053680304374891,0.675841464810134,0.6425374456860184,1.2952762071779407,0.7742590090173891,0.5498937932533519,0.9153675005421145
92,0.10374733176473722,-0.013608260175620796,-0.014403519400858253,0.6575999688218978,0.6176180892239642,0.5847348909895673,2.0950834324223577,2.006980322891013,1.0769534040426452,1.3715050386422702,0.6309483474627791,1.3363619923716816,0.9105781772104706,0.9786246434368452,0.7541087586278813
93,0.0,0.0,0.0,0.773154728349274,0.6738364240024957,0.5522798233508532,1.7285466909531875,1.6880578693089585,0.452678486005481,0.6062842480082293,0.6447042257417027,0.7479554170549403,0.3741984801962034,0.39866282352942833,0.6309705030984647
94,0.017064333554431876,0.00012342508462936767,0.00014571667602016058,0.30667374100099976,0.24665143182562776,0.24369503390911854,1.5423845392806967,2.0521086428534563,0.6046382328816833,0.957740390913737,0.6125606311107803,0.5737259812537847,0.3131408010524844,0.28013141922830526,0.7672706276741306
95,0.01043465099980778,-0.0026782270899506637,0.0,0.8189014980708503,0.7960104606926769,0.6619476243814233,2.5472219077414224,1.9367061565745205,0.8477026024124483,0.8482179479788081,0.676637947632344,1.3683671296238276,0.7552353078417782,0.5911367517874009,0.8791234901635133
96,0.16536839786924828,0.0014893889830444595,-0.006370970435016526,0.9508634513931394,0.8814076336838659,0.7101196398259888,1.9443351744227213,2.2956518291150614,1.3270764745228074,1.4815933553044482,0.6380535849069913,1.5021292955582581,1.0879897327122734,0.9511069979953268,0.9487431114314581
97,0.1723974275678715,-0.0006021399092702162,0.0011063567709292885,0.9625536842415587,0.8971121211181619,0.5974392269040246,1.3107820362437421,1.0151315923810587,0.7649752359413514,0.6907393272276856,0.6068309995095971,1.1053012768189063,0.7031297266971207,0.5679202397176277,0.9506451456095025
98,0.04037491537999169,-0.019777624469213353,-3.1288339076634096e-05,0.5153357100267952,0.4921478678268689,0.3893695374373175,0.9141883434342848,0.4997642657599274,0.32882612911107456,0.37276278517820916,0.6380535849069913,0.7068855659297277,0.29179089412578246,0.20215314116489272,0.9531756070356969
99,0.20721774044165622,-0.029412842672806437,0.00013690790758058569,0.7113311402598893,0.6715116829809833,0.6096865488196884,1.149550050056213,0.7297076927960022,0.942728057340941,0.8262417500304858,0.6309483474627791,1.0493777787904113,0.7101726814156278,0.6217171548224754,0.9442646979319371
100,0.22917223548273585,-0.028598166743165607,-0.026015270987934897,0.9083801432371691,0.8463447200066612,0.675721154096702,1.5051296084051917,1.2817760925941675,1.2200641934012921,1.0211762500818584,0.6284777104787076,1.3118467641055387,1.0224583537790484,0.7103840003959349,0.9512173642173608
101,0.10061530102570816,0.007532826118360515,0.003777429129818717,0.6492884376299715,0.5881073773931529,0.4822562878237113,1.403719017267789,0.9718405960373409,0.8718786236608578,0.8176882410623806,0.6425374456860184,1.073919676077738,0.7339691750802004,0.6104812748298174,0.9545572352900304
102,0.6448080701967109,0.022954794965936554,7.947547015962897e-05,0.42962396014864823,0.4090459251536806,0.40199117453263156,0.926353993459331,0.6162392157454707,0.7117445229871109,0.6463078391990371,0.6602640781246099,0.9485270042307752,0.4879852063830751,0.3582517676345034,0.958179383848656
103,0.03744182202988776,-0.008290650095890808,-0.00333601194818664,0.7377741338611103,0.6117097556909258,0.5588351376273389,0.9029326768548521,0.4029467136818151,0.26724225653197736,0.13063714471740848,0.6180765742263259,0.6168653824027867,0.19890151170506937,0.10035718498697835,0.9558282803578866
104,0.31116949144055595,-0.03336145633898244,-0.0008653656725694514,0.7171758735329533,0.68987308538636,0.6007535544448613,1.639664445746982,0.9824302462169008,0.9771281514709194,0.6999281457681136,0.6528756675646988,1.1905813894315134,0.7375325010383603,0.4088326300414829,0.9156114936090519
105,0.9239992183348169,-0.1273909222607567,-0.014107518944134437,1.1077347084577034,1.0641008420217604,0.7248197665096866,1.9696466148475962,1.4164821920893824,1.3367445515524863,1.171117050994346,0.648888643467878,1.727033465666412,1.1268135175473806,0.6950773104778185,0.92307472872988
106,0.4622774342367531,-0.018766095331976845,-0.0365051244077676,0.873809368390449,0.8567853482512008,0.6802296749511897,1.8149721718420322,1.2399329726995223,0.9541870205622582,0.9017429841975306,0.6207552362147116,1.3545803856303629,0.8595869124361685,0.786912581814055,0.9413469163052088
107,0.08136856037791232,0.014460091335464172,-0.005790130511780248,0.4362646122119963,0.3491912183703732,0.3474833136374513,0.720641971661196,0.4991946800954984,0.623223044565312,0.5252369045823843,0.6425374456860184,0.5830379578799152,0.4025433088261484,0.34588826546389484,0.9397727416773953
108,0.20602363256446327,-0.021220899118409332,-0.007306318954320941,0.5993702751994476,0.5298908850582965,0.5271674067700457,0.4208466885628964,0.3006546795808708,0.998016530162902,1.33601676113783,0.6619902821573977,1.0709322728948003,0.7860415013168568,0.8426123484784236,0.953579904142787
109,0.0529326073902519,-0.01230596055591217,0.0008355739560485936,0.899269258698869,0.8076673529806864,0.5966141807616022,0.8592582407386758,0.3908883367405679,0.3713683050794559,0.3434641018076716,0.648888643467878,0.7342933016776252,0.272925558561274,0.14156454567557425,0.8775007991874293
110,0.05895326780387381,0.004964321448179012,-0.01475709441188013,0.6756853736154995,0.6625268296029718,0.5513735301344463,1.4833343642134036,0.978290746288786,0.7391583460554413,0.527226660714848,0.6713451011121618,1.1436096545988454,0.5836737954448449,0.4016284871104419,0.9153414459488353
111,0.3168554288861431,-0.08612467204857699,-0.008579869730980696,0.6039389328984558,0.551826213396637,0.5115004516912752,1.3933808172833824,0.5539187655212285,0.4123851806298801,0.23686864298220967,0.6740851607140061,0.9892497916309855,0.39230028586559684,0.18387094952074368,0.9496582896275974
112,1.1649524975994054,-0.14929672097781743,-0.10828755749756336,1.1619706684775923,1.1337176112363745,0.7586901286244495,1.7745667293214291,1.4558188176899116,0.9905091602904066,0.7582075123561997,0.6547956803312163,1.2556560382777957,0.8050291749195967,0.6819564326744366,0.9607151657625282
113,0.07434364349547097,-0.012631569947977421,-0.016785912296931993,0.21741154249979316,0.174761264242682,0.2164317330503136,0.8222516105839945,0.44404195984135164,0.1411167337470536,0.10046925214374738,0.6713451011121618,0.3714180114691095,0.11076616705245985,0.07561659089029292,0.761214317427283
114,0.2185076657466123,0.013443868041770272,-0.032091455851974676,1.125506191144849,1.0994419769601458,0.7763145008765913,0.9574117951256453,1.014350196242108,1.2952541897708085,2.015524010919974,0.6333676938231112,1.870802676568508,1.1316185851362797,0.9275394444100258,0.9397185826133015
115,0.10377246337961239,-0.004429186491822713,-0.01314328016198528,0.713776752550465,0.6898355701485009,0.5893578706362445,1.3073761956644565,0.8859428273668559,0.8572257472181908,0.8052733828989015,0.6547956803312163,1.1520833913560824,0.7550869293833004,0.6900841622150616,0.9464686586127851
116,0.13345045736409253,0.024476219338318617,0.017060252317547514,0.3589260611032323,0.3197734299059409,0.38461864567981063,0.8358898930970636,0.31642982826386123,0.2638817688058877,0.11382082596006475,0.6380535849069913,0.6015813759243082,0.25319624007229685,0.11035328129702371,0.9506058771270681
117,0.4396475596116265,-0.03271842012885104,-0.02943716181945369,0.8063903601837183,0.7896403502279793,0.6515578312629733,1.8718566329291912,0.64172477158926,0.638304703551237,0.6033673204804345,0.6284777104787076,1.1137936106637738,0.5328847547115226,0.41619015946184434,0.7505413322807937
118,0.07913386972610288,0.013101445560663456,-0.003658900944802,0.5762053042157935,0.5527340581617791,0.5301800047877542,1.3462246708702235,0.45731136913933,0.3500005702867511,0.19873658176519104,0.6468212168108125,0.7701962255683008,0.31988588209643376,0.14053892392374054,0.8960071421607831
119,0.006691891882780254,0.001883545032782905,-9.875500035579684e-06,1.1045468019290317,1.0807671162799979,0.6947859176585715,2.4861726721949617,1.6991219322359492,0.6845964571203899,0.3004119542570121,0.5947193981915972,1.2780978706428563,0.5141950741913425,0.276802304791493,0.6400777657699287
120,0.013943142155006288,0.0056363165684894505,0.0036129760077453724,0.6715161538139414,0.6156281478175166,0.4698720055738152,1.1365164121133522,0.6289091306192927,0.1752784057930303,0.12766312782980185,0.6668815377411301,0.5699271006013529,0.15438973448185755,0.07686108969043996,0.9236444631997773
121,0.015267583953543745,0.007261679295773066,0.007349657020373173,0.8051941709898258,0.7752645313989439,0.4588477269645944,1.229571982874172,0.5447992065426819,0.3867638722757465,0.3183989243042651,0.6125606311107803,0.7631882202309076,0.3120656788599672,0.18603419412435493,0.7124267802916292
122,0.18318820189773827,-0.0070325818410693144,-0.01319089553393301,1.0812702509789183,1.0185264979096567,0.777847685364171,0.7111878762239482,0.6225968928960683,1.4878630356428486,2.2847786967042656,0.6528756675646988,1.8074147088386283,1.2421872746280935,1.9543887679108656,0.9485671759504521
123,0.36145242611018796,0.015831770657568106,-0.08135583939895322,0.40920771757934815,0.32081828388396705,0.29194078684211877,0.4439124007767085,0.4437546123848405,0.5182628401595013,0.5749099907020185,0.648888643467878,0.6169271546485363,0.38353051861207643,0.39198890734447606,0.9574228116504954
124,0.030257159679983176,-0.009195180281794522,-4.268949974075881e-05,0.6302996521147199,0.5484014098527585,0.3953154602419326,0.8059855002467817,0.9095280470856278,0.901873144103355,0.7438643149449391,0.6207552362147116,1.1609842695609458,0.7419302490332716,0.515330864675233,0.9354626410643919
125,0.11777788741152445,0.023819458068617086,-0.006825185136868847,0.5491156319687858,0.5016128744537376,0.415579567261549,0.9735585270742194,0.8947899285975847,0.43571211308010155,0.46910939677388047,0.6380535849069913,0.570595287089542,0.29968692357705806,0.29322421791950015,0.9453077402181225
126,0.08263618260956244,0.013437822463476287,-0.00015513965380135192,0.462668972966836,0.4020567520358807,0.4882986079410907,1.1235366909309124,0.9835327704015331,1.0587361178600874,1.0787186151658865,0.6584896970785714,1.1924102790740323,0.9167118500406415,0.8542505216659811,0.9540570735798588
127,0.03165587928643547,-0.003147257051093852,-0.0065550579718015815,0.122888179777612,0.09265584997643779,0.23699955359582922,1.11541840023895,1.2442308785706688,1.113526477544181,1.6010396910098612,0.648888643467878,1.076720342252011,0.997402037950225,1.0959632804965327,0.9629160833692286
128,0.0019987387504990482,0.0007572223305719874,0.0007539220122697902,0.6324164953847959,0.5464497567839044,0.4428345169490671,1.1879153609015283,0.6317590986663395,0.3372960152342269,0.3025175300510827,0.6509067234006624,0.5465679490861647,0.2741348637789917,0.2050618213255347,0.8460206402642715
129,0.016393286283090093,-0.0008545730959047086,7.633167182168228e-05,0.2730027592884021,0.24709739448963444,0.26288856100502667,0.3217774098114143,0.28153515519358735,0.7571486745293862,0.7062277055943698,0.5947193981915972,0.7370061895509695,0.5416502511670543,0.56481746419671,0.9511371617939373
130,0.02078625601475609,-0.0008776801230020483,-0.0033837396526526452,0.15818068848759306,0.08235976368616474,0.16434288213010917,0.13701763721058022,0.16021371230531375,1.2832270661622787,1.4455418864611114,0.6207552362147116,1.0291484170080452,0.906404443308624,0.8721335309608875,0.9429805828774013
131,0.005211350558690688,-0.0002779386964635034,0.0,1.4642790739041907,1.4306499835349773,0.9017734918185418,0.061197675299921137,0.10156714692516264,,,0.6309483474627791,2.9362062942399643,inf,,0.8744002947008442
132,0.4440989085161697,-0.034397914014837896,-0.0040906580565634775,1.5006570292174601,1.4815227465912022,0.9128506273743501,0.05797321720122284,0.106965741513845,2.0161875669555833,1.1708553172376652,0.62595550513784,2.5723544856483107,1.9425688224920024,1.1955481546666844,0.896832858888164
133,0.15066442572296718,-0.008452647651671724,-0.005467728851092099,1.1445185680011083,1.106135716221386,0.7866874997101249,0.06784564093073059,0.12100501615398401,1.5386971513433652,1.819147257796402,0.5641709578113449,2.339249077365637,1.4624258708936435,1.485592582102171,0.8641016002633393
134,0.7106338915031644,-0.09751467612240736,-0.018456910973941615,0.4032981570755061,0.36689564170332295,0.4419288251772655,0.994277000156324,1.01574220058424,0.8545173137435685,0.8652573240208357,0.6284777104787076,1.207460360266914,0.6613961593461081,0.529872433933926,0.9168351357414354
135,0.024346328468988036,-0.007109884097397889,-0.00035632329975844286,0.5216473641247608,0.486044318268362,0.3613765054143208,0.825101554105562,0.9725097678921888,1.151511160849866,1.286343084659996,0.6207552362147116,1.1928863387735844,0.8793809991582512,0.9991467952599036,0.9049934566361114
136,0.2631283051225747,0.027757460231510253,-0.043885202747404095,0.43351149446569087,0.34478377096630514,0.40721217549116456,0.5940345958877116,0.5216609338082383,0.8162012735927419,0.656136227926058,0.6207552362147116,1.056255472589285,0.5952204511917141,0.41551017663149103,0.9477235346139188
137,0.530049038584065,-0.03388982861130994,-6.3869561218819065e-06,1.0881932950351398,1.0740274711710696,0.7234046655460187,0.06977287937295065,0.09901455921806213,2.2807718663979157,1.025497671998539,0.62595550513784,2.9759296462578115,2.231126129011901,0.9326510149793619,0.7871414002321653
138,0.0,0.0,0.0,1.363315438599037,1.3669444685383125,0.8852963251150608,0.09393588747307498,0.14196227318676954,,,0.6528756675646988,3.506557897319982,inf,,0.8848982456002304
139,0.3330428087625919,-0.0177622831340049,0.0,1.410059747836314,1.40577421920801,0.8865981213885556,0.11592201306293239,0.15840459958921183,,,0.6068309995095971,3.0300937010713023,inf,,0.8805447429986217
140,0.12985257096941,-0.01776832807345511,-0.014627575914415377,0.12288817977761199,0.04529496704954821,0.10515421029804463,0.5662348702634364,0.6242039565888357,1.0835327321087098,0.9842074840197417,0.6333676938231112,1.0084364793354863,0.9046623417517293,0.7455264966874715,0.9495886898149648
141,0.1492311256690059,-0.02632813269737786,-0.026568679704320163,0.35284147125441817,0.21887779571176294,0.3232299055863433,1.122216245758512,1.1378517730834021,0.9804742969450727,0.8418065842493598,0.6309483474627791,0.8883513631849136,0.8999474344141607,0.6144750226504038,0.9562287904187793
142,0.13376217120945183,-0.050151328459934016,0.0017916253301916846,0.4595499637092131,0.41567348799552933,0.355836305866158,0.5571150226886569,0.30624860774368146,0.15796853092248136,0.1280691026128009,0.6309483474627791,0.37576068540183344,0.11684308052309429,0.07984118717799282,0.9463051456632897
143,0.8362293960596838,-0.08846027985606406,-0.04548633006091991,1.582844195123244,1.5276024879241223,0.930632790725421,0.6828749284511382,0.8369936220571568,2.3599074535795097,1.3551378913718,0.6008849035917525,2.206870954388025,2.0531347237349236,1.5868776401739264,0.9372654939471109
144,0.3810560580500694,-0.03337404637162798,-0.0021911857130451624,0.7710718280538469,0.7560389616799683,0.594607855679252,0.1807258955771894,0.19816608841241737,3.164430590812323,,0.5915533975974677,2.529346291220174,2.283805198342449,inf,0.9246386554033974
145,0.15992466072087272,-0.012793972857669818,0.0,1.6362697672504538,1.6048213910157008,0.9054757979477958,0.1540017852903827,0.17140040099256484,,,0.6528756675646988,2.6324790142551358,3.0746423616665797,inf,0.8978798029550539
146,0.3995412234175304,-0.03359736044233103,-0.005024957821363569,1.6614872642677598,1.6435750558498123,0.9172903575684594,0.12502999806152768,0.16906823526982395,2.4047311894340644,,0.6207552362147116,2.6194290094486816,2.392874341748271,inf,0.8827010356252077
147,0.05329401045935716,0.00016168637379808306,-0.004780500613609037,1.4831815116925104,1.4728698637850919,0.911025515756518,0.11023185703541903,0.1638386512504525,1.9594734776953364,,0.6403206450210053,2.4934766004710673,1.6224321396668737,inf,0.9364433459196001
148,0.09617938719377903,-0.003782475273465853,-0.001988287958160889,1.5126794596633568,1.4835758290049679,0.9515012222375869,0.10651739284468457,0.19408681803885963,2.1649968720659407,,0.6403206450210053,2.8780480082073328,1.8922589098206124,inf,0.9013149424515594
149,0.1322708360494482,-0.010140764097124362,0.0,1.615796853840903,1.604384136173477,0.9116714058548387,0.11823332550109135,0.20768684929124373,3.0522333726444932,,0.6547956803312163,2.648210200746193,3.0589111751755227,inf,0.9038186122554384
150,1.5296625893644875,-0.5225052810117863,-0.03147412796909114,1.5326028839268344,1.4685256586032975,0.6971260070877173,0.3168046106988633,0.3467620806274436,1.3101002639023125,2.881476193562165,0.6125606311107803,1.7732648865918907,1.1566796464240972,2.355127606782028,0.9614578936894905
151,,0.0,0.0,1.7287295591873098,1.6771994706507136,0.9294360809882325,0.4329920582179931,0.5812450513766141,,,0.6357360191111145,inf,,,0.9117113901625012
152,1.4227874703357428,-0.1416150583831259,-0.019634188254924932,0.7914056723672531,0.7480115029746477,0.46928229021671714,0.19570730231399183,0.19502732984056562,2.989991531844302,,0.6038851895711802,3.335721799703244,2.8091529607042727,inf,0.9705116217284678
153,1.270021838256588,-0.18093507507777956,-0.06316554986456327,1.5966889142258152,1.532905092060364,0.9500656067034217,0.11943208965302318,0.218804566864614,2.68639021444828,,0.6068309995095971,2.7255355154432297,2.332890442489375,2.341805806147327,0.8858542140046975
154,0.3476707594936816,-0.031301565356982516,-0.057243228962794934,0.1824414118534046,0.14753315496171218,0.2785632640871293,0.1767903454939087,0.2667297079912798,1.219889108995181,1.4807366357829905,0.6233814453054027,1.2182219916659007,0.9737165812410814,1.0920685413437698,0.9354428149952054
155,0.35559974181741866,-0.031128370197325186,-0.017962340445549053,1.6473445938975866,1.6054599003088192,0.961569625219421,0.24516372017752824,0.40495209043467406,2.759201986606022,0.8079516693687595,0.6357360191111145,2.129939830530623,2.1371720756806205,1.1950324344945833,0.9118959934381378
156,0.23120611456064452,-0.020808550310458005,0.0,1.7622536147444572,1.7174269687210804,0.9647244826678962,0.37611610622253205,0.6953674206668568,,,0.6547956803312163,2.521708956312105,inf,,0.8931397833908933
157,0.1542126746116341,-0.014393182963752516,0.0,1.7595075282734882,1.7297366455161916,0.9494233254502308,0.3590172051492423,0.6926905813421779,,,0.6602640781246099,2.4601489986622735,inf,,0.8789066326827928
158,0.004204403281548496,-0.00043445500576001127,0.0,1.2387067682919797,1.2232481150108534,0.8110493015910256,0.29077188055464226,0.41068805802278474,2.040367512212421,,0.6284777104787076,2.2737817000583744,2.0470453147434506,inf,0.9272035522950727
159,0.27373744360774,-0.03785902414535636,-0.002827645604161204,0.6903788765193296,0.66674551254667,0.48715105786714163,0.1614459500765018,0.22456191411608784,1.5393757780757293,2.439591639889657,0.6207552362147116,1.616126900584897,1.4344136094640891,1.6000920500158626,0.9222142203762399
160,0.17637663099345852,-0.01215573921929334,-0.0018542987446053614,1.7621194070094361,1.7379110563558864,0.9525906440135103,0.3735007824011484,0.7037113977732827,2.9153368951263943,,0.6333676938231112,2.509199342357045,2.433777303265396,1.3229247471873014,0.8581450650729936
161,0.6081831426998161,-0.10894091316739861,-0.05015450817419002,0.8097373144988526,0.7737499566541135,0.300244227885993,0.3564572100081406,0.5326109055432094,1.6559009763132162,0.959828529098966,0.6180765742263259,1.479336004887827,1.4483223377943544,0.7101056106263245,0.9495583320101539
162,0.04252525427617747,0.007604656820462775,-0.002328481091595752,0.06698765724152846,0.0322133790533347,0.05870450697345916,0.14240726867433362,0.1872141335691751,0.39899465036834014,0.5054582674251772,0.6333676938231112,0.3613844288729895,0.31713689949163626,0.39748181744262556,0.9687052166179948
163,0.11546331098447576,-0.014625352724700263,0.0,1.4816257392846566,1.4670877318955418,0.9216708356914693,0.09668160359724975,0.19024005474473907,1.7167270172203626,,0.6180765742263259,2.1334988864556745,1.4941809477862051,2.082791628565118,0.8973975515959084
164,0.22711002868305227,-0.021510528474941754,-0.03741434998569527,0.3426359977067818,0.23309085125979373,0.37034769117946365,0.24823365830387972,0.2579188199344007,1.0211339334378855,1.0883320520028152,0.6207552362147116,1.0602894143489505,0.8020355909263772,0.7885575227705411,0.9458694720899632
165,0.0017401205116672465,-0.00021461486310562708,0.0,1.5766863414565835,1.5345948022982534,0.9153448795998955,0.2570234991518147,0.4105828858852602,2.5072535443465,,0.581717464821069,2.0945777403760766,2.5139313468775293,inf,0.8754761645459153
166,1.783999673399148,-0.23054112485898462,-0.04895215730688187,1.521027751971943,1.516116006475902,0.8541072332967022,0.5605782279512713,0.9974749737010217,7.4478106385555165,,0.5883313578629602,2.343638595791756,3.3534993361457768,inf,0.8915002544063546
167,3.001283397245062,-0.437491204305398,-0.3235164583728386,0.8061788982004021,0.7021306970929511,0.6297700925161608,0.699863966433294,0.36018274079344825,1.6046314068416956,0.9696300233739575,0.6207552362147116,2.928281330969385,1.372677480615715,0.7840408978000183,0.9386706456487557
168,2.10375945167684,-0.028050126022357867,0.0,0.582914217936777,0.5590124800539563,0.41558658778224195,0.0733868443673985,0.08318230162691682,,,0.585052858160615,6.242778975388888,inf,,0.953190198691622
169,1.327014503061559,-0.04831878261619269,-0.004761797506269669,1.4133884067226987,1.3499440991594938,0.8370265431938229,0.04501321383217044,0.07271922996343314,2.733153648439287,,0.6333676938231112,4.5088504149824145,2.6220484153139325,inf,0.819538757520499
170,1.5665343559182103,-0.06153686676147487,-0.027233413407223718,1.3453357549995542,1.3231742349744973,0.8569202575296817,0.04238330485898785,0.06256633918944202,5.239688158384908,,0.6125606311107803,4.0817574467166295,4.617757301493563,inf,0.7904483369470034
171,0.9886983805797606,-0.07344907961384349,-0.05012394797551371,1.1841261769066844,1.1242443573007168,0.7997163363297564,0.05655832407938817,0.08801508188461482,1.8589627528599841,2.23600788114454,0.6357360191111145,2.537042404208529,1.5666793198261688,2.0674012624477554,0.8067563192964801
172,0.5373899153542862,-0.039553303629746545,-0.019559587059224934,0.6955590256145429,0.6764414360106439,0.6390815917358021,0.06314262038986695,0.0942466320256022,,,0.6619902821573977,2.5026633713772592,3.5916955988933554,inf,0.8267254375175022
173,2.4257942121690594,-0.7607699285543437,-0.2937359499292317,1.5615738873827079,1.5434448259623563,0.8234724784584756,0.33621583916360975,0.4504920691006954,1.12964877414857,1.099912157564622,0.5978297680564633,1.912572089444803,1.0165404967677922,0.9178512003312502,0.929664308192765
174,1.9419277253460983,-0.18813614304168186,-0.11609920059587352,1.3520622663710378,1.2948928231538765,0.8264965332143747,0.17816282448878196,0.3181395803636662,2.7530270734360727,,0.541134803179459,3.535872284988757,2.3148646026241075,inf,0.8648449619641267
175,1.7360729867465308,-0.2966642049049074,-0.05447675192210005,1.5808710106434953,1.5349703435643502,0.956452829217533,0.1582985276541659,0.29856856351891226,2.1849259962444556,1.8718009489121072,0.5783247308855777,2.7027310396246103,1.9215087090838319,1.3672247983995398,0.8644260772777244
176,1.0226731499542092,-0.1024623377298965,-0.07632957762549211,1.6248176509466725,1.5957174331901982,0.9510216576162965,0.11386152038405463,0.21647613945309546,1.5680731783350337,2.126095345511769,0.5883313578629602,2.3868124701222193,1.4020101015197695,1.4366574709537816,0.847393515052144
177,0.3152786815748233,-0.03409633380307599,-0.010771881464509372,0.3302536418502132,0.28352206382712947,0.37696939533085655,0.2611873026683427,0.26712128188079365,0.8581961290047739,0.6997235202709714,0.6309483474627791,1.1205511961868635,0.7335802539340275,0.5453317178496417,0.8428892667318382
178,0.3606737367661915,-0.03879423414532952,-0.023940260881631294,0.1804308202057063,0.14412581289623852,0.3271035600805655,0.12474085061497212,0.15355320557642313,1.3638618192055525,1.515944184618226,0.6125606311107803,1.5250457032124705,1.1826712200996192,1.174747279874512,0.7801050796024613
179,0.23705373876569147,0.006504184256367826,-0.031930813403660364,0.1914526360307307,0.16624492435044927,0.4097211236251309,0.24934262733573864,0.34515528631997194,1.4386691297290017,1.46223093019991,0.6684167106117298,1.4414312901260036,1.1787606704545222,1.0419373784574957,0.9445844455179584
180,0.32322512551732185,-0.026958510210802138,-0.013056228056196224,0.5069811766912112,0.42550755013343666,0.5229834698509024,0.18359414410925207,0.22651533688119893,1.4181153908377333,1.848951055766222,0.6584896970785714,1.5409488715521789,1.1085180054511339,1.6588963287559972,0.8787851512206191
181,0.2657792974783247,-0.03366537768058779,0.0,1.441793972217575,1.4031091607627928,0.8872325197815557,0.34368203042222645,0.6590158149344985,2.400297435798259,,0.6584896970785714,2.201533848924318,2.406975238329288,inf,0.911645661218768
182,0.4111249630624003,-0.02740872619397184,-0.02251549172455202,1.7202580884950622,1.6899233572265278,0.9642416749865922,0.18397907732323585,0.38371766918476,2.742081072223277,,0.6333676938231112,2.099190837064854,2.4678275829588614,4.643321951952467,0.8529352836704834
183,0.48141764589849084,-0.06115707378635487,-0.04397205099091112,0.3228811643939279,0.28325060854067263,0.3217770026245661,0.22813284568222952,0.4290813664992241,1.6966946502667986,2.3131267256579875,0.6380535849069913,1.683922023695336,1.4782584574963193,1.521552027299538,0.6728749598552926
184,0.3011739100896643,0.07711063395492507,-0.03670150234348393,0.391232717594698,0.24051844904984665,0.24104612665969677,0.3363525025048785,0.3499343096263276,0.6486093458720892,0.6422789681719788,0.6403206450210053,0.6962408499128712,0.5102907809747328,0.45918273148979205,0.868880030524156
185,0.33564517177800457,-0.02568766089685316,5.273470398746774e-05,1.1260015019226168,1.078924573135428,0.6820310072173401,0.34409837959923956,0.5238218000675853,2.2206786390862288,,0.6380535849069913,2.094307043329533,2.225684200424896,7.087573705557973,0.9177949045663898
186,0.1873241971165629,-0.012184218483121179,-0.009045857190089282,1.3163921948017279,1.2450827747364213,0.845930236266401,0.4505631622592953,0.6656671003464207,,,0.6584896970785714,2.269687749069935,6.142144926688476,inf,0.9167728261339722
187,0.6304137795739841,-0.18608377982886865,-0.08813630899444086,0.5915221615982252,0.5105061286872553,0.5673328284975704,0.5935426778316907,0.26068181739425944,0.2708276980250341,0.22274186645028027,0.6740851607140061,0.729165914413689,0.19241657190623457,0.10278850574922953,0.9705683111666057
188,2.18351529142008,-0.223510064254838,-0.009398233496637197,0.9217447000522851,0.8084009431136402,0.7309601173834996,0.331371085462097,0.4861617191004354,4.376910112709805,,0.5370774965580548,4.251388311831787,4.265804879584451,inf,0.8796433259166979
189,0.6093878978614431,-0.08468000197375675,-0.039287532517645336,0.1824414118534046,0.134219217676326,0.32538832380504307,0.21393145255906898,0.2552806849138961,1.3007248292503697,1.8955734399649515,0.5604843169999094,1.7537574470950474,1.0585427753809618,1.4516471241322713,0.9619438016292309
190,0.8673137824449604,-0.06020036817365611,-0.006293688480457516,0.9117832252866555,0.8982091107377904,0.638077359312651,0.12561968042216676,0.14494790417471515,2.7060603649651727,,0.6584896970785714,3.2698767643347972,2.6487504588209183,inf,0.9185699115010274
191,0.7498817799930315,-0.059027617149715404,-0.010961348982967543,0.9011936611873544,0.8549593441517335,0.7970386699267775,0.08613022558048333,0.12630090539674793,3.874988062266286,,0.6309483474627791,2.910778567673827,2.786359364263705,inf,0.8763372955777191
192,0.7176500369153583,-0.06702798234194748,-0.0245103913919763,1.185785743830917,1.134946413793198,0.8204385784068058,0.10902619293790337,0.14422192600900163,2.015963317487995,,0.6008849035917525,2.337406607936082,1.9155429844626575,5.545177444479562,0.880819316297143
193,0.026578926492694256,0.024065269279809044,0.024719204729301225,0.20443785628945746,0.1425658566381519,0.13692171627077024,0.1576068335087242,0.12521746014929022,0.1616842812889194,0.18901505051233938,0.6425374456860184,0.13734819115122343,0.08500400669908464,0.06535950467006865,0.9643767560162505
194,0.07784200092542065,0.04326210572999361,0.04541943470477443,0.34279426695424653,0.27263281588365246,0.2060669953524541,0.20227943458075115,0.15700094678446766,0.5132416880875827,0.7142294913530245,0.6528756675646988,0.4606431312756834,0.30734733444938905,0.32699507422068835,0.9498560933104241
195,1.1798663263341636,-0.033407043230716305,-0.14010823287011187,0.9268969426286024,0.8807268087138689,0.5398933181268601,0.35384593147925947,0.23449202017704163,1.1035302575504198,1.2274488232524234,0.6284777104787076,1.3955818006229752,0.8932099702387348,0.744988570329811,0.9532579772244565
196,0.9236854205999298,-0.15640915044864911,-0.07143325329933357,0.5781665913085003,0.5617111764917844,0.4702633872090342,0.13782713027507512,0.20574404553104506,2.382764334556283,,0.6403206450210053,2.084699786494375,2.043546327403407,inf,0.9567655650847492
197,0.0969301962454005,0.004365647676747374,-0.02707611305097846,0.4776303913146993,0.439808572485741,0.16608073174668692,0.18900107571471636,0.16949971063037145,0.6586599151411702,0.8985705812701241,0.6309483474627791,0.6751762952387089,0.4985187995537568,0.617731096645469,0.9602998720726283
198,0.3756816110277012,-0.030054528882216096,0.0,1.2070115906071128,1.1669651424611858,0.7930690128302849,0.10628264557618894,0.12446689567897501,2.4599402247920064,,0.6547956803312163,2.61122601646667,2.4027481788951004,inf,0.9306303985232414
199,0.4416409948267537,-0.012136073573200852,-0.024667342662361952,1.37780932083785,1.3477839034447943,0.931944573425899,0.050426269095603625,0.0820538564610169,2.3586151235353645,,0.6207552362147116,2.648681269295377,2.274248444381773,inf,0.9131840737989961
200,0.28795717704524004,-0.02696577797578518,-0.0018299397287388213,1.379244380836817,1.3711223622083653,0.9127921311107474,0.1272597458675762,0.17815673468436113,2.8369894868055643,,0.6566669596287297,2.4348474499152633,2.8157385138115836,inf,0.8942984025757168
201,0.4955896910894973,-0.06060680097153005,-0.03480068119606665,0.670396584887326,0.5830914787562639,0.5746012958270978,0.20655162358409399,0.2130681915578896,1.9036532321708823,2.8197826245568254,0.6547956803312163,1.9345526678886062,1.8119558990619664,2.085107279215513,0.849904786372467
202,0.27718748374344426,-0.018642410103407947,-0.020769088968189187,1.153273160585912,1.133916101987634,0.7654329109314874,0.453114328813679,0.5246674804121368,2.6037257597901005,1.35714788169706,0.6125606311107803,2.067337316501797,2.3545858151713968,1.3835229967595075,0.8883206414007767
203,0.2010888446116954,-0.008006138028610606,-0.020816596365732402,0.982950870098267,0.942538924337712,0.658337294575284,0.45876593525157155,0.5350801218888797,3.623458271940762,,0.62595550513784,2.0344256870311286,2.56189488367998,inf,0.8812537403974506
204,0.11387552356689906,-0.012205199637391192,-0.002219033347749356,1.1816456806409574,1.1619258027389094,0.8349521777771535,0.45270556555637215,0.5299560784162249,1.9446426392525316,0.9169459907975483,0.6309483474627791,2.1423576758953793,1.6906487892145423,1.1843178171371307,0.8507620550628976
205,0.07279087311430259,-0.0037691502247913407,-0.00520839079263931,1.443893202332137,1.3857661399633843,0.903532452062108,0.45738906256378564,0.6254000833154201,2.468758990729828,,0.5915533975974677,2.1375415751750455,2.131950340093009,inf,0.8565743269291745
206,0.5685814151507589,-0.11395143407498971,-0.04367002659709551,0.8042290071958217,0.7788221107142528,0.4128643780661965,0.48795657359943584,0.6018302889279481,1.1002756922166157,1.6174487587183117,0.6207552362147116,1.3645763579987167,1.0276903405408377,1.4736151508907367,0.9440128652096106
207,0.4366965739719116,0.05477510577976688,-0.06848421818288256,0.2700312213237379,0.2414776120100222,0.0628802650430173,0.18886201865892294,0.2665781092925713,0.9885782945254682,1.0672231421054565,0.62595550513784,0.9091496237227886,0.6867141686841938,0.7428091485136117,0.967565287598765
208,0.9304595682088898,-0.07442873564865045,-0.0031095617020903735,0.9643531397138315,0.9395073484207627,0.7561570083399526,0.03167651153365258,0.05034648139306859,3.5117916285730186,,0.6547956803312163,3.1355053271019897,3.501374997744748,inf,0.8428260904400724
209,0.49631839375130454,-0.053688902211119605,-0.0578630034084765,0.37943480340877395,0.3438000437809538,0.2718884841238909,0.1445023446188434,0.1095810775914906,0.5931169909457358,0.8723371675059848,0.6233814453054027,0.8555876817607505,0.4976588253129397,0.5918195538797949,0.9424289414402222
210,0.14739043787284506,-0.0054022433845591425,-0.010810704781453816,1.3057550456143685,1.2587325246480097,0.8169655673506052,0.07689474442608688,0.12192356029653416,2.698843118067369,0.70473513078353,0.6207552362147116,2.2935152376545056,2.4913133877080567,0.9256428374444354,0.8080641612454507
211,0.4873191074798204,-0.04866411488051174,4.581064797780669e-07,0.9471963897141503,0.9165311512241543,0.697911085937691,0.09226695666398761,0.11210998770181362,3.423880224233411,,0.6180765742263259,2.475748712003235,2.548309602425162,0.7067528326157239,0.8688626745713627
212,0.16247527465632508,-0.0039526884178254194,-0.012591249816788289,0.08467349851939517,0.0712861102387233,0.40813161116588187,0.07463966070853247,0.10483468629160714,1.9384499759015101,,0.6468212168108125,2.0575495952637373,1.6679938432217905,2.029532330558224,0.9019429361349213
213,0.13736748776467977,0.0003435369818044487,-0.01059407435965623,0.6121017100252494,0.565090007351364,0.4032544907302285,0.5915291459417026,0.40761440080978517,0.48898291573489894,0.38556367144929243,0.62595550513784,0.7331361887763086,0.36125170190536493,0.2585576640906847,0.9294734383687301
214,0.5380635698847808,-0.014764979081786228,-0.08669522788005554,0.6725695336959928,0.6307531628436879,0.60716779414887,0.7816910809489935,0.7141252052514215,1.0704443817413791,1.2026458169314924,0.6207552362147116,1.3878511278081418,0.9067657955367271,0.9492918497991011,0.9223088498963291
215,0.07415330106797545,-0.03006633661235375,-6.773430308529369e-05,0.8008742888605002,0.7957276922431733,0.5914256940838417,1.4120797625439512,0.6896969099351489,0.38664145323269067,0.21569054699223203,0.6602640781246099,0.720609737016283,0.322599381054115,0.1555918978531441,0.9526911124000889
216,0.0,0.0,0.0,0.9770565360890694,0.9417475298416333,0.6968961888912844,1.5917603162301912,0.7676338307491655,0.32980554526302375,0.24700602795381246,0.6038851895711802,0.916290731874155,0.3249225253929769,0.22076296349050673,0.9559675445494656
217,0.3414449521621159,-0.03381185701840507,-0.018959255418860968,0.5268815724471215,0.5065919477315842,0.5324658011558756,1.9283216963195375,1.1342415753658739,1.016186481577923,0.24808820341349486,0.6068309995095971,1.3882963637905636,0.9177391194038353,0.22666183042994972,0.935427545975472
218,0.8811452229428389,-0.20428344361364534,-0.07825765810525007,0.27825589959769326,0.27277804692935814,0.37512730952488765,1.5108663656910675,0.8187603902970362,0.6340415906195134,0.4672686886712448,0.5915533975974677,1.021064999655767,0.5746891856924111,0.4017183001312022,0.9599204425928839
219,0.6165835305172964,-0.022052093734834632,-0.07298352410061457,0.578436781130574,0.5810742461722916,0.5225257757877599,1.7888453927907304,1.4828451280467039,1.2530822048795716,1.5526899534190344,0.6403206450210053,1.1817040845345628,0.9874190626907818,1.0478101211835187,0.8598754016017887
220,1.2920963455840087,-0.3139831773071933,-0.05344828136492169,1.537222244895359,1.5535877127229734,0.8959430527669595,1.4414286283197786,1.79329913756279,2.3056670249759645,5.601855450942616,0.6153451465759925,2.1003701359723372,2.0334084954951703,2.4616019624724768,0.9271966361564319
221,1.956640143223947,-0.4269789003697544,-0.15585911931521623,0.7269408053156586,0.7014282600580433,0.7296562949921432,1.151842830610286,1.4178127196234425,2.6895471479675663,,0.6468212168108125,2.6452319087100586,2.5027515765374204,2.430940067575828,0.8932542642816639
222,1.1659764200434952,-0.09320772705717052,-0.011730150746744048,1.2337612891705874,1.2328865924854666,0.8757983908592206,0.9352456751572071,1.1510446961837413,3.172037184865794,,0.648888643467878,3.392568054964101,2.978044291934672,inf,0.8892036267973374
223,1.7248919799639653,-0.08301601883947385,-0.02047749995836407,1.3223102583770345,1.3007737561497816,0.8545383814064601,1.0213673844870599,1.1964669463763717,3.087810949470874,,0.6566669596287297,3.9436283448434772,2.8587664184808337,inf,0.8971152430199808
224,1.7749733167068091,-0.017749733167068092,0.0,1.1567294636025405,1.1511032475936833,0.7293385077694325,0.916246954920787,1.055125422252286,,,0.6380535849069913,5.947979435168243,inf,,0.9495862528106636
225,,0.0,0.0,1.2884411405263894,1.282941020169496,0.8306592678613509,1.1371967124080502,1.071606311772499,,,0.6684167106117298,inf,,,0.9482428740939023
226,0.706570200892086,-0.00235523400297362,0.0,1.180654089461894,1.1454546851129253,0.7636690317708659,0.9766119528276566,0.8161490691004384,,,0.6619902821573977,6.410352675548287,inf,,0.9166635220711177
227,3.1661955670392876,-0.021107970446928585,0.0,0.8716116768394071,0.8615526596341342,0.6743821948901784,0.7047006091135106,0.7773580332900697,,,0.6153451465759925,8.075360439137198,inf,,0.9390848710673999
228,1.924885309300585,-0.05750660592018768,-0.013072522087500439,0.500922988045584,0.4103365594298033,0.6242839242386597,1.114702696896363,0.9155757297613687,4.730981566503141,,0.648888643467878,4.878146111050177,4.73765936903417,inf,0.9625677638135853
229,1.6671511839485607,-0.22212005023386266,-0.005723944905773953,0.5354583046174165,0.48215282173966806,0.5780457718416739,1.7230589037524222,1.2187359036030574,4.065548954437452,,0.6333676938231112,3.4641371814360293,3.9544437213120984,inf,0.9737386105401891
230,1.2094045872262267,-0.13618592405318664,-0.004911277789873126,1.1168835978695775,1.0383592829572157,0.7470674346196706,1.4871446349988104,1.1765459970970555,2.8262944324221504,,0.676637947632344,3.0774244890660207,2.6533866579780994,inf,0.9520168578946107
231,1.1664386277116923,-0.24643413244384832,-0.08052425305646435,0.5656920339094522,0.5599418704416713,0.38813225513622207,2.072024177822035,2.024422189118823,2.606739019046836,2.7382935425233303,0.62595550513784,1.9220200263955511,2.3348434653243246,2.506310558451154,0.8941530029584136
232,0.9225388442768379,-0.11476646904148663,-0.04514026396649858,1.2399194552957744,1.231836473022905,0.8152349807235693,2.4357957251241205,2.223092254887475,3.369042892196374,,0.6207552362147116,2.43713287498316,2.6696462796659985,inf,0.925498485917553
233,1.1241770697705633,-0.15650683188138617,-0.04959229757655046,1.1795624975979646,1.1125602447175003,0.8119261607435175,2.0190116569451044,0.9769243004699177,3.10287082158924,,0.6547956803312163,2.2553834915097517,2.9557373300081298,inf,0.952987176514445
234,0.3589448164791667,-0.030560151452819782,-0.005412112565780183,1.240635997645967,1.2163421386512294,0.8189218787876242,2.328112107125828,2.2750417581073856,3.189090447327022,,0.6447042257417027,2.235445790156417,2.6153408029979426,2.2129729343043585,0.9529718903022032
235,0.3527444400476092,-0.039907735216151284,-0.037723039228530764,0.8258255256229989,0.7651667313814118,0.6379151687508551,1.79212832896183,1.6075261380475612,1.9590470475426114,6.356327929769901,0.6425374456860184,1.6925176345784059,1.6466443561642967,3.414442608412176,0.9465546533535513
236,0.1901064428404579,-0.003903743278885888,-0.025567841645004828,0.981667560827213,0.946831855958251,0.7161673959892757,1.7783478568511075,1.3794400032396008,1.8842900119931085,1.994926303662614,0.6619902821573977,1.6041740133145594,1.5929946808930684,1.2424870533028902,0.9446691381290655
237,1.1778781116284431,-0.31759805138365615,-0.11960326055179996,1.19330664250693,1.1558930310792828,0.7804973826788889,2.096330739557157,1.9652924220864483,1.9034271811540608,1.7364936569784832,0.6684167106117298,1.9431251419015645,1.719004197136457,1.6361880275100154,0.9668623467914472
238,1.205915970547598,-0.32740547388179364,-0.06250735659526303,0.267340685656489,0.233925612347106,0.30651734108276346,1.6297698881480254,1.4470817722137082,2.56835269196321,,0.6547956803312163,1.9771256562082349,2.3420305144287727,inf,0.7631719637411978
239,0.5620704483077343,-0.048571755303099484,-0.04847942163364568,1.2658455188202211,1.1768752221506467,0.8433212286747227,1.9587786590128853,1.6272330249931393,1.9744504331481725,2.3702757368040643,0.6668815377411301,1.7411931056573673,1.753216657726967,1.5046263948685699,0.9120704246331245
240,0.15348960891272048,0.01195174225062548,-0.03174960816846074,0.21731486237733605,0.1678485059409862,0.2730683155817611,1.2469432593655572,1.1915047000537295,0.9160472183058066,1.3112686911796745,0.6528756675646988,0.8631186479619148,0.7241773275652926,0.8374567514410456,0.8067860730284471
241,0.4261895789152456,-0.05796852408377553,-0.005959912753511315,1.487892948906444,1.4557229024517944,0.8919284008224287,0.8037911390458932,0.9790693443109573,2.451735371661536,,0.6566669596287297,2.144537255057213,2.242836985943264,inf,0.9243519267956269
242,0.4112273504655903,0.011391460615509524,-0.0034754683009092235,0.9630201503861638,0.9455635368759362,0.511046194744903,1.2169806072608507,0.896823185328288,0.8475262118224963,0.7042512036153097,0.6509067234006624,1.0067626350382306,0.6244097695418758,0.5123218503351452,0.7628854040215407
243,0.0329414363318078,0.0008833411565946324,-0.006908354951396687,0.7434465956455305,0.6961042694923542,0.5737222790980571,1.0389311843121118,0.37988357085562496,0.1910345645859707,0.10802655293567448,0.6380535849069913,0.6586598745459115,0.16469723667854472,0.08684110665054147,0.7179943973080916
244,0.19952181215922465,-0.0030451347532288453,-0.01216084462905228,0.5361170077833227,0.4368014431666507,0.4874824474583168,0.9242289675022111,0.7066550711514491,1.2867767540898511,1.6897206980854238,0.6403206450210053,1.3503696721820584,1.0144454973481214,0.8859527331065711,0.9141642770168251
245,0.6207844611610568,-0.08814025622438243,-0.035832188031613976,0.7990331282460629,0.8009616953635955,0.5832623762981874,2.012625078780774,0.600743747047193,0.49088656055541213,0.3239820215056527,0.6284777104787076,1.0865849084553914,0.43820552991842454,0.2723836635557383,0.9431491545686422
246,0.07437138269504871,-0.01364030722312998,7.483554500762116e-06,1.1228481272106263,1.0973036168301555,0.7559075064203282,2.54635528734075,2.5290334929759344,0.7754754490428604,0.6115643412463664,0.6528756675646988,1.2190112428578617,0.5633260877912885,0.4122906208398033,0.9597795285177939
247,0.037380827180879025,-0.01458482847423831,4.138142752126237e-05,0.9185393360874068,0.6988190268432626,0.6292835828021129,1.4287328863909825,0.8587323222925072,0.2560851709865122,0.16460203383895167,0.6207552362147116,0.6623162643896929,0.22500915308034933,0.1323832736026015,0.934282192137943
248,0.3194542826728378,-0.05073233320880992,-0.006118016219958621,0.8832302045184773,0.859024061465935,0.5342848189744301,0.7543521107930894,0.62825020572137,2.1078993347629154,1.9505737339350644,0.6727386042041725,1.7189428066462582,1.6472092332730965,1.932165326628682,0.9548892061870311
249,0.02839256519170548,-0.007439757112862497,1.5537214330170728e-05,0.765357186179819,0.7315845300679255,0.6138847408396793,1.4866312193848472,1.1545188649066822,0.9730753137074865,0.7820261122373869,0.6357360191111145,1.1079894504807066,0.8273325073912191,0.5782585525006821,0.9534931602602249
250,0.11685252041127973,-0.013684037746287545,0.008758778721986323,0.6697835971883295,0.6561833549933186,0.595078025458473,1.8835408754489076,1.321256855908329,1.0201407941183374,0.7578524246817168,0.6668815377411301,1.3567355588783463,0.7356786541055281,0.4729796877168125,0.9420079103839116
251,0.00027964625691959713,-4.474340110713554e-05,0.0,0.4340987069103599,0.34675118171858604,0.5272513287471924,0.4173366576730426,0.43994092837398163,2.768972004609096,,0.6699045166045591,1.8328592801134809,2.775649807140125,inf,0.9275093673618343
252,0.04793151109279362,0.013522242752671117,0.0006626361664443872,0.9494239563316569,0.8940506762816111,0.5500469446052105,1.318017014317723,0.8524039528026253,0.2196419906600453,0.17203569876981947,0.6547956803312163,0.6366408311196383,0.16004137183148903,0.08910626680962747,0.9566861086471079
253,0.6567809561229688,-0.14819315955094897,-0.05067612142538882,0.7039897344169037,0.6783643319979243,0.5980982259389288,2.4582111140426584,1.9972790812387768,1.6112265420647074,1.624333081106621,0.6528756675646988,1.348484899724344,1.3248418653194804,1.188848434656754,0.7419747156434813
254,0.7295359456514554,-0.12257548042656814,-0.041598487797505995,1.1873424258705985,1.1940689116823338,0.807766136114464,2.1630646702611043,2.1791891697014982,1.4222895485473679,2.1592896747354984,0.6425374456860184,1.6080499871592524,1.2554851167833527,1.2870271382777243,0.9529271488462185
255,0.17867245739981255,-0.02322741946197563,0.0,0.9846344089142645,0.987234505500899,0.671000473609185,1.9114213568495397,2.1411445620499086,2.213597522194837,1.3829442742346088,0.6425374456860184,2.1005516900759584,2.2202753247258666,1.3896444480051726,0.9255231983570698
256,0.497539310836854,-0.11386868621648252,-0.019858780335869575,0.6211640725369194,0.5576952439200689,0.5526715570058954,1.7844346430481988,1.2626374072091233,0.7758674137806303,0.7521790828727027,0.6425374456860184,1.1463330248795214,0.6321812175985129,0.47327212285086767,0.9681915491564453
257,0.5592916152328129,-0.08700223755163133,-0.018170134799590315,0.7678396664722205,0.7170231366633963,0.6031366628995993,1.810991333317643,1.7026147632486885,1.004257095783536,1.3907463281806318,0.6284777104787076,1.2314962718597333,0.8678759053089815,0.9995008553047896,0.9420833875056712
258,0.22733383084487263,-0.007717530493424815,-0.008672431406100932,0.6434123881675116,0.6064580366348176,0.5839934359293615,1.2006301749887893,1.1425904793387867,1.3295921848827683,1.379050167025818,0.6509067234006624,1.456430743308921,1.2280657048395538,0.8216911473713119,0.9584192462477699
259,0.19473266365219027,0.01758973891403401,-0.05680050848431904,0.6139070459730126,0.5979897542711544,0.4058946592270625,0.9578592838998898,0.7171203595171526,0.8306777168445959,0.7061842808513069,0.6547956803312163,0.8953177657265929,0.6589482726329681,0.405596550424893,0.9545892058606061
260,0.045797818561374194,-0.0030045045911756413,-0.011650797348464102,0.4414382209272042,0.3821154438227842,0.4509555368348666,1.4030534571717739,1.5095788771656011,1.0911509545064257,1.038266574791961,0.6425374456860184,1.165215161336058,0.979227230561192,0.8579788698075377,0.9569798810330095
261,0.05710471462806997,-0.019012458606498285,-2.244626952503948e-05,1.0324135895400395,0.9726178862047131,0.7562109721820612,1.557636127187139,1.041287378247491,0.638126659457806,0.5387242012810298,0.6528756675646988,1.1086962951221295,0.5380974038557397,0.23503636734003344,0.9335021851200754
262,0.05100944951130872,-0.002474189483832854,0.0017529424995823169,0.8410754211253021,0.7642705473921271,0.6386917321218769,1.053533753765038,0.7731860992755066,0.7883507293971384,0.8212122777856964,0.62595550513784,1.0160496816862874,0.7199597724372756,0.653829469492043,0.9263692889316523
263,0.31787110433035326,-0.03562716782843324,-0.04297845917940744,0.5027604284893619,0.4768553324196695,0.4749699277339523,0.7658283640937144,0.5607227153934738,0.7964801965291564,0.7385428464348313,0.6309483474627791,1.0090763233572548,0.6700690015016657,0.462077062362014,0.9657144783101919
264,0.031440520274088675,0.006308686893095234,0.003528851892411939,0.9056423867660938,0.848173678749395,0.3866206184747379,0.6063819999347145,0.419184984653593,0.4331488477601888,0.4427293001251513,0.6233814453054027,0.4715871045034329,0.2439647524146638,0.20107226385729612,0.9529714552844071
265,0.07055681746568246,-0.023903116928857087,5.757156443719422e-05,0.6080355320924218,0.5619302365543976,0.3788821594707634,0.6558829927106362,0.5285763049472189,0.4743797171132711,0.7230765299050333,0.6125606311107803,0.6467089864541605,0.4159893323662805,0.41371527397335933,0.8860034855269737
266,0.016627329805974235,-0.004711076778359366,0.0,1.0038836690770903,0.9724423500889421,0.629441299997839,1.635965516928921,1.5190384449425685,0.922375543965468,0.9404702403383745,0.6528756675646988,1.2700730381293184,0.8535293993362872,0.6424300461749516,0.9070597074451323
267,0.1283713262187457,-0.01102922856812288,-0.008329985021753417,1.02199410799637,0.9580351858681038,0.6461906981574175,0.8938816399940934,0.5154458811182532,0.9822985104551601,1.2277728819738862,0.6309483474627791,1.1952333272725353,0.7601437139557026,0.6686384309308984,0.9236982570129669
268,0.011913753338663598,-0.002002891798047772,1.511539022896101e-07,1.0550266383629643,1.0603926128936616,0.7361292891529263,0.6008680184102327,0.5331985856968999,1.6166432250442568,2.2992350061087636,0.62595550513784,1.781215255352384,1.44155703979494,1.7979133348024334,0.9424716197624041
269,0.2848486503904381,-0.04446239809709342,-0.013674959469091433,0.4625118578531371,0.4256107799543307,0.38008431898719564,0.707528851780665,0.5214243183613483,0.9792057699550331,0.9723707453306274,0.6180765742263259,1.1002469573445701,0.7575810918531896,0.7222687875939894,0.9330209656645492
270,0.05001906388589774,-0.002929093567906247,-0.0077416400610852715,0.8357424529006048,0.7931359826343348,0.587512711890807,0.9734029610282091,0.8307718866635848,1.4777360767100525,2.5594355641836666,0.6547956803312163,1.5762718163247607,1.203632488545433,1.8319548692686942,0.9360458874711411
271,0.1054149836349894,-0.022120202171743757,0.0013438798845154254,0.6166757928268218,0.5510078566530972,0.4541173301796441,0.506674132359727,0.3230645626520995,0.5450872324499333,0.5592493061063379,0.6528756675646988,0.805445285985759,0.44690110262439275,0.4011014648203911,0.9523347008009139
272,0.11359150424165848,-0.015660529634782337,-0.01901992207067509,0.5908983721934851,0.5675740375624696,0.4524879134264503,1.227505464085725,0.5377319170662773,0.3571279181578773,0.20148899095544273,0.6380535849069913,0.8142105907664714,0.3495804239266327,0.17723259564687208,0.9581478968552257
273,0.007728508339137841,3.094493583333203e-05,3.140279425376457e-05,0.6296514209678418,0.5634816272391215,0.49863139031915577,1.1030321469122364,0.6439916258057266,0.46480484059994126,0.4269580534143481,0.6509067234006624,0.83345705079794,0.35884340052250857,0.20926548450274854,0.9504547157697057
274,0.011519297281434498,0.003399830916083111,-0.00490881746741065,0.8473156466356216,0.7940511834578924,0.5302197014946056,0.8874324289646134,0.6018197686577299,0.6018538202345017,0.5035307046333852,0.6233814453054027,0.8596478830137587,0.5521238429784893,0.4199767514521704,0.9438600786962041
275,0.0666724548004454,-0.023382032785585757,0.005631486546975772,0.4402756097103302,0.4151964988365342,0.3602882512419579,0.705023169982589,0.46413480769617854,0.2884497431100762,0.2470094390001339,0.6547956803312163,0.5366943907177758,0.23189498500902803,0.1648192572149661,0.9547762774440004
276,0.01830806817211477,0.007098060908633949,0.006613412946340892,1.0664986385890751,1.0325437352212417,0.6906602858276797,1.0737521630641387,0.5293400269232549,0.4312761415911087,0.436061890278623,0.6584896970785714,0.8525858914851614,0.3217921529573285,0.24187164196826397,0.9514956050012592
277,0.024592217764184524,-0.005060892010146877,-0.0011093077588896069,0.6892758760767236,0.6098202805091881,0.5502573048630964,0.9715914287109456,0.6167307465745914,0.5680991035075484,0.5473554742273152,0.6153451465759925,0.8920047059939995,0.486762499816828,0.3977752976123672,0.9539547418988162
278,0.02163240161439851,0.00024661584527882995,-0.000656734343426349,0.7167641058875276,0.6931900022227129,0.48952714660900065,1.0553519905110924,0.49120702988766496,0.33083448995636056,0.20150211765362577,0.6125606311107803,0.7142800255368291,0.257846465858506,0.18397367714540247,0.9496892113163032
279,0.2570746189306144,-0.031470533446615004,-0.019076195252794956,1.336141298026881,1.3299494953189792,0.9040568065606699,3.068790177391363,3.0654152108385864,1.0158707144160544,1.0444866156992276,0.6602640781246099,1.690346735818326,1.0212096046131718,0.8020634706449451,0.9475179307787954
280,0.11833780358850382,-0.000778644767238941,-0.006498349129936298,1.00715469036343,0.9780702140732113,0.7063611402234935,2.196508749256173,1.7676539876797897,1.2866870080960313,0.8627707553153303,0.6333676938231112,1.468613732500705,0.968773401319319,0.5290021105000566,0.9547212931911822
281,0.07964974000095905,0.026818235429296303,0.0061219320940995164,0.7000132801019895,0.6317694182755618,0.4820195479450632,1.9615611506878545,1.1835812648494919,0.7105442848484219,0.4999364138919163,0.6180765742263259,1.0582704093847317,0.5767132572393411,0.446415345206556,0.6953608757131335
282,0.2612353901117101,0.006454901480497238,-0.015463183613903357,0.7558898978564775,0.7516809586081499,0.646821982042784,1.45343836251581,0.9737602015906588,1.10268521360178,0.8554242956282838,0.6528756675646988,1.457766493913024,0.9147643053232453,0.8344713530675694,0.9390087845275091
283,0.022300838359348284,-0.010892558126593285,-0.0003327658703801777,0.7115421304177166,0.6373424065869561,0.5124612023196984,1.1500479399703527,0.5284832951992402,0.3680236249229788,0.2609723850733326,0.6038851895711802,0.6803406465127269,0.28307081048667365,0.21492969970616763,0.898591870707866
284,0.034887652924152204,0.015430912878741437,0.015511954712188247,0.5930139706398034,0.5614848819522921,0.5258939319070584,1.4240265225638808,0.7613246689498006,0.329707930440439,0.2622106185582882,0.6425374456860184,0.8285088184906219,0.28329003198166347,0.16749633832127056,0.8527126439931608
285,0.027463161149177066,0.0030319743284846403,-0.003139689792835739,0.9217437240467026,0.8655143044396651,0.6986096123267026,2.32951597753543,1.4157016141057475,0.8203687496884474,0.34720894570199623,0.6547956803312163,1.271419253093479,0.6414537918874156,0.3267372488517628,0.8756880188676066
286,1.6208258570459218e-05,7.463307910509765e-08,-1.120430396415376e-05,0.08467349851939517,0.06375575563955968,0.0799113355740145,1.0251524575415287,0.6598924705715965,0.24411433115461442,0.15155531986327853,0.6619902821573977,0.3759224872273109,0.19542012525887517,0.1419165765566964,0.9597065409379901
287,0.10342458385443541,-0.003655245291341168,-0.008287326262632184,0.7099732203514685,0.6384198741783356,0.5740534860140623,0.9948457005125396,0.5399912500070011,0.5314155876553878,0.5439216613301914,0.6403206450210053,0.8594641632121843,0.39299885027418574,0.26252367379794006,0.9370249891376121
288,0.02177569756652609,-0.001650970282208163,8.169261468933889e-05,0.838668621184283,0.8059264485367027,0.6768458178128753,1.3170207097337427,0.6046044547141092,0.5759492973385567,0.32721338794257604,0.6425374456860184,1.0336676000277274,0.4966511079537736,0.22594492556171344,0.9520920714487726
289,0.06942835022100959,0.008534684728163315,-0.02474481414002385,0.21302129952620005,0.15828863710441582,0.2043944959829306,1.3837947187943624,0.8374013999089345,0.3207893416578582,0.25167500715828317,0.6699045166045591,0.5003803659044521,0.2505607244979057,0.17942039405971208,0.6106777693149668
290,0.19364968884670467,-0.016817753091082965,-0.003265309450711358,0.8940146637002085,0.8539831874207283,0.6739090269224245,1.5790266762855298,1.1055857540697145,1.1471251677831154,0.9605761128364588,0.6403206450210053,1.2834570260065026,1.0087377889209437,0.5795514788455536,0.9502780260710333
291,0.1868998077973561,0.0011650735574672832,-0.045309743119474874,0.3190334136545234,0.30884859397067704,0.29317403212184895,0.9295780859668438,0.535322667656842,0.3817105538953034,0.3354924821486226,0.6468212168108125,0.6300889211360258,0.28362180847474205,0.18653622773380235,0.7474018745468285
292,0.0950671524037381,-0.017132419675738187,-0.016926689557884546,0.2256559932866077,0.18803834903716315,0.3102006143408105,1.0830062224282238,0.8295716526093981,0.5940810631010951,0.5914030862343836,0.6068309995095971,0.8303934011295933,0.47372719130780694,0.3913594698690212,0.9598168304568719
293,0.20340942130648587,0.03470961780090086,0.023415402221583156,0.880627937037216,0.8508932467448261,0.663943291737509,1.2425031031187768,0.842403805155101,1.0041399265208149,0.8856718064772436,0.6233814453054027,1.2353870305060939,0.8418347544354291,0.5845811649953673,0.9168564505524793
294,0.08137150203320108,-0.0008083121635871805,-0.018576109350149077,0.7681068991295797,0.7298301842014722,0.6046322000581119,0.9977729460527697,0.5610561366553404,0.5587926466800457,0.6251637402372929,0.6180765742263259,0.9521482181318663,0.39796423034989703,0.3170722861646611,0.9116094740068239
295,0.11728240160834584,-0.012984064872985313,-0.011657664253222469,0.7834530416521712,0.6803256639066849,0.5976390415274666,1.3231494728143607,0.8291519900341804,0.6797273775052401,0.5776695938951345,0.6207552362147116,0.9102810484726679,0.5094092450434416,0.295416824190863,0.9525752198701449
296,0.04329446183139258,-0.018039359096413576,0.0,0.7942578614076622,0.7703402747268987,0.6034328803067737,1.5247276315508507,0.612234659293619,0.46127962084290997,0.2813578983385703,0.6309483474627791,0.8940129567775048,0.4186592644717721,0.2081444995312952,0.9202039885867748
297,0.03262616077848848,-0.009511301841848133,5.378778136464445e-06,0.7989343947353829,0.7444881972343728,0.6319324695068709,1.2274285075987028,0.5838322283951816,0.26435174800190275,0.2083069610795749,0.6740851607140061,0.8299856227514881,0.24020119173291787,0.1603581454445294,0.8365505988137173
298,0.003044814018745222,0.0016178366165603122,0.0016426475817144424,0.9554307034451457,0.9007421366591116,0.546487819950254,1.195379261636925,0.6829949714942647,0.2632427128602736,0.2604985954951637,0.6357360191111145,0.6499599853334094,0.1955099171576638,0.10409039689478511,0.9465118119021405
299,1.1403773846555594,-0.11180407869301368,-0.11673462370625443,0.8068481873174024,0.7976030699983931,0.6071675398318153,1.0175952135781259,0.7185614793259469,0.5803570478603575,0.4973844340617825,0.6528756675646988,0.9568234163967319,0.47847446498471646,0.35606166782527965,0.9636291220683096
300,0.03477952216223905,-0.017273829340578726,0.0,0.4200826565094404,0.39172445458699523,0.4026959599653173,1.4213572030216968,0.759468226483472,0.28330659809392456,0.22230583842914436,0.62595550513784,0.7076067739844278,0.24592441083092317,0.14181976115038716,0.8412434067754422
301,0.2948295530434772,-0.0301240548037814,-0.02255851579567939,0.6736351557899876,0.6596024263888421,0.441207621741143,2.100449401099978,1.4972789549560637,1.0423426606288775,0.8330504809812569,0.6602640781246099,1.0489019131024504,0.8891172297745372,0.5535764950618093,0.9466548674934484
302,0.20604649555293186,-0.016649697222294074,5.273470398746774e-05,1.1539626057337249,1.1518733572103135,0.8042423561671398,2.592428163894923,1.810864536831228,1.605630318461616,1.6619429138257449,0.6233814453054027,1.7915594892253888,1.4303765689394061,0.8784265763828689,0.949363044561533
303,0.13475923991689343,8.070532349165743e-05,-0.004986094565221123,0.8967982228293795,0.8885256114386962,0.5447537067419487,1.8933625379411971,1.100944500761066,0.7149344159037491,0.2552985037682607,0.5915533975974677,1.0142711402343587,0.6566285498889461,0.2225234328812503,0.9546777039821375
304,0.0759261606277188,0.019136524643054736,0.012972388078751361,0.7343106827090369,0.7155140697751683,0.5847508647176398,1.5564768071826576,1.059195170883064,0.6264817802647039,0.5801036392302801,0.6509067234006624,0.9054057444392141,0.4933661381917892,0.35723441689123386,0.8282160243167819
305,0.027516487994658643,1.932148781620506e-05,1.941654867505284e-05,0.9817303798122894,0.956009087998783,0.6927169139559726,1.2886043468062545,0.6520406032463342,0.4885256101479909,0.38493841050765104,0.648888643467878,1.1287279125727332,0.4189879412333704,0.31189428233012584,0.9192619096832364
306,0.07161370175889557,0.006629083698166345,0.006651020331188903,0.8283607904460352,0.8086422946950467,0.656378252013508,1.8753378803614142,1.2906584624569721,0.6040510282496024,0.5164900979490591,0.6180765742263259,1.0395889482186487,0.5052062818361844,0.2869532473895853,0.6750758226639886
307,0.0,0.0,0.0,0.8143604064947586,0.7846170250874,0.6645986649232483,2.6475282675175724,2.773489300424859,2.1169246349345765,1.7884093823427731,0.6528756675646988,1.791759469228055,1.9694517576383472,1.9492602359405953,0.7359230298143645
308,0.24805577659329553,-0.006665676103904526,-0.0502394412015401,1.0844735475836187,1.078534609536252,0.7492799506575573,2.238222193483062,1.8960483891297586,1.3986371857673996,0.8252701288796562,0.6652988471865258,1.5277555241308511,1.1359588631513071,0.6528355203197124,0.9089931355184112
309,0.09839464840926224,0.005248818818928483,-0.0066038459876643085,1.1423636073622694,1.0370686597226793,0.8041109422453422,1.9280599191652161,0.7227181116630861,0.5981242229155824,0.21698501037150292,0.6153451465759925,1.4097677173055327,0.5443538309768732,0.18191386074139104,0.9563003996457667
310,0.24144255219785568,-0.0373729475934398,-0.014262730002955963,0.9536254681643043,0.9102886996774998,0.7079295179752364,1.9810584612199806,1.0587161034284989,0.5696139301061592,0.37463407969683266,0.6403206450210053,1.2886837989221256,0.5369082588423812,0.2888550931141443,0.9526414233698222
311,0.11001538766486255,-0.00304573274074367,0.0019582210430757196,0.7781514780008968,0.7054983400052351,0.5375857943653394,1.0754996215694754,0.9204830648813245,0.6102173547933253,0.6407378356775839,0.6403206450210053,0.8833396317344692,0.4854641409842358,0.3562320644664419,0.9541096619679607
312,0.1768046549383764,-0.02731876132128982,-0.01674589446540413,0.9912816136051191,0.9300946172905405,0.7272570729537033,2.0988693473660365,1.7467791315412144,0.8249454678409077,0.6735599582592386,0.648888643467878,1.4268386164354718,0.7258907210141963,0.5640253042826882,0.9526192180520353
313,0.10235861405555251,0.01371677115350662,6.934366641056511e-05,1.3126025543003383,1.2893884913781755,0.8788192089902563,2.8139300150556803,2.7997183897943114,2.051212091569195,0.9129406449888731,0.6727386042041725,2.039793569387391,1.7166512042223114,1.2442401896333852,0.9415849762756522
314,0.5803432591769562,-0.10464024057187205,-0.01901899754291594,1.0906409367422258,1.0625388641184832,0.7797837309131541,2.4147181644372697,2.103848243279558,1.6177925400363031,2.397602443602807,0.6425374456860184,1.685059850568999,1.4591724313034358,0.9655643849085874,0.940983491639063
315,0.16814445971301076,-0.0014837173435295753,-0.020360876933777052,1.149537281652656,1.1147324806691163,0.7611151390667096,2.3621537547825304,2.707449589558561,2.2761659304365676,,0.6425374456860184,1.901425536782491,1.9761960419283227,3.340288628575163,0.9440259495498021
316,0.052482886901938794,-0.017730001739687203,-0.000894641933376687,0.7352106341133661,0.6581806008721824,0.5832269011428728,1.317655137425822,1.1551785540354287,0.6111164245447266,0.6107372911348891,0.6180765742263259,0.8971419130353941,0.415365162265776,0.28308272198121115,0.9542355837378242
317,0.015184490468717655,0.004503294040590254,0.00018207494497222802,0.962663469219425,0.8831373589054532,0.7020214000918041,2.0280910068939573,1.4803560639903153,0.5744435675612044,0.5200817088635438,0.6425374456860184,1.2352723800941823,0.49307420128381174,0.3339975137644072,0.7627414781125867
318,0.03378798032698809,-0.00031519194183307966,-0.012294256951018562,0.4468099415942183,0.44995088029437513,0.4271084290014723,2.022897164904616,2.069378824107737,0.861315798030292,0.9446648492470987,0.6547956803312163,0.9452619290116204,0.5924239589384832,0.5413113080214658,0.8743323479852305
319,0.14751171068841978,-0.014848451846634188,-0.013327120056583893,0.759055402793124,0.7411122055123732,0.3503947523081755,1.8248621115249621,1.1176446378528642,0.7551622486312619,0.4128468586173379,0.6038851895711802,1.3100743352084816,0.6846993140386175,0.31405310467042274,0.6620395747113912
320,0.19990962468127865,-0.018753130254825612,-0.022209842463034722,0.9117966428238514,0.9105868930599352,0.6922753620402436,1.3734828552881249,1.3527784835896879,1.191730219721555,0.702646268541191,0.6447042257417027,1.6239313252517535,1.0859538917961862,0.6270861923149444,0.9528891492582342
321,0.7414600362823383,-0.05909375088381438,-0.10343602123491943,1.0441479698401306,1.0485635191109726,0.6942470652590687,1.6727472963852947,1.8364274231274413,1.527252557394926,1.9640114669649993,0.648888643467878,1.664598323611376,1.1958263579168367,1.2965047558855092,0.965150540846926
322,0.2508599656522781,-0.037324008090123914,-0.012575765090987095,1.094820405130521,0.9951729341095732,0.7427625312698933,2.403227224185727,2.079373917731193,1.06114390166139,0.8872522935652122,0.6284777104787076,1.321047757398639,0.8790810330849701,0.6870480765160363,0.889923460691915
323,0.02701478564172608,-0.00032881795294508517,-9.16893294377252e-05,1.0195939473497155,0.9876908207533273,0.7589947295902599,1.900964449461321,1.8330223099193306,1.7166456102425571,1.5077748212773328,0.6380535849069913,1.631626717723249,1.3802349377606253,0.9357885275874226,0.9038565800427518
324,0.06245017655626661,0.004588655517882536,-0.010096065612363835,0.9186558015569055,0.8834211570035404,0.7041297538763397,1.2330951005619035,0.8242094006214029,0.8987977188876802,0.7674928812598776,0.6403206450210053,1.1840612505005925,0.7666157977424011,0.4698160882205867,0.9494556986002999
325,0.261704115937909,-0.003042769284047106,-0.06019565605721394,0.7759686149326845,0.6560936014140073,0.6040798388968218,1.8034068784991153,1.6655165903923554,1.050748083326236,1.0644789731173891,0.6309483474627791,1.1919344458994827,0.9088896371504216,0.6929655770000165,0.9534752347588722
326,0.057939262711091004,0.0004104522682494109,-0.009752731637161696,0.44965313119034983,0.4207395322422031,0.4162760448294875,2.07690403115897,1.8457905836201283,0.5350592065035586,0.4000699916190767,0.6602640781246099,0.8914626271082494,0.4465919858435727,0.2963023265913714,0.8035382955129238
327,0.23251830166222157,-0.025837924547124094,-0.019217837778182055,0.7332622980846307,0.7251082367406915,0.6214836971186856,1.7797043381210047,1.3253597423335748,0.7422796384148183,0.7755033068175514,0.6699045166045591,1.0312028924388554,0.5617057180440342,0.4478251700938965,0.9431904720839837
328,0.05338616297318949,0.018458102600829415,0.0005707858349243838,0.5419646349215843,0.4642463516158118,0.49699564715995237,1.3642980889928618,0.7143031396028159,0.6626843419686483,0.47883758437209434,0.6425374456860184,1.015098688440292,0.5837290448817929,0.3778967836453423,0.9532450840721398
329,0.18031423725301188,0.014266640201210948,-0.012986776570411203,0.7854543160825624,0.7719742333801988,0.6649294041986891,0.8767560214178243,0.6683237974632071,1.6650042781885726,2.5147239172136224,0.6038851895711802,1.5173652911032094,1.420727203004367,1.5587216672428903,0.9488915132089931
330,0.11661568010088934,-0.0180436508627294,-0.00357209983760989,1.0288695240910821,0.9573362308265058,0.7019056859330719,1.126972839246079,0.8148732148911579,1.3323690286483667,2.2750036757478793,0.6207552362147116,1.247228312996893,1.071599086098575,1.05022552924012,0.9511962074578099
331,0.7554224374138956,-0.1199255359414027,-0.10401754936135024,1.0400902468249542,1.042249937554883,0.7213563302376799,1.0701070685928809,0.7730683657193089,1.1548960649768512,1.5169040171752224,0.6566669596287297,1.3132504469386075,0.8841741504002791,0.8345107248790651,0.9515101152371734
332,0.07445507392960779,-0.02362118690472534,-0.0013655888148849723,0.7944787666457811,0.7583665626063257,0.5358929729485601,0.720381424676707,0.771568302604283,1.2566492444440895,1.3791146860215107,0.6180765742263259,1.115419406984491,0.9915989024655795,1.1205059163721713,0.9537506478850651
333,0.5608940834909674,-0.08197727337988789,-0.07479666005754836,0.870204809654195,0.8266158440182837,0.5052568809762022,0.9925884517102367,0.9285616988825927,1.3810040024465327,1.0165528804783255,0.675384900321601,1.3608432286903664,1.14944960748805,0.802283353830211,0.948763867942592
334,0.1544437595879969,-0.025091583865037573,-0.01043048084020171,0.6005427447812008,0.47974773128906384,0.5372568531718263,1.2764463299150361,1.0930845081874765,1.1438820516699117,1.4253436194007176,0.6447042257417027,1.5184299030006745,0.9831482810752978,1.4171338095029704,0.9421568551676327
335,0.19659417341490498,0.014525537148419074,0.00822209427476528,0.6378402413503375,0.5528650754343506,0.5544936351187868,1.5458839655323031,1.330201059366089,0.7294313112725158,0.7615269251207887,0.6425374456860184,1.0686005146001383,0.6020038330714494,0.5823443784369933,0.949908326181673
336,1.268442211885344,-0.1326973939821564,-0.18930449272538402,0.8189014980708503,0.8215638946238297,0.6266829988541991,1.651760269377869,0.8861622729901288,0.8548046928481308,0.4459548171405587,0.6566669596287297,1.19424251968336,0.6549342204146458,0.3725454688386139,0.9510279509129521
337,0.1764526829798606,0.013668113789465607,0.010356693733305639,0.542146470086475,0.5232325844927267,0.43959548884482846,1.526758106263281,1.0158892157395643,0.9273393651571434,0.6715961035606304,0.6207552362147116,1.1237933538653684,0.7477310838315491,0.5562460207202735,0.9236935359525239
338,0.15102480969409235,-0.014242093671946874,-0.015079698077592471,1.1497955055600841,1.1201531524951518,0.8213950978382589,2.079640210833886,1.6024922824314065,1.7217693872826987,1.3823867052210002,0.6528756675646988,1.4943251053335957,1.3222387254178491,0.8190908621251937,0.9293315615303034
339,1.16505052356944,-0.18491030435482647,-0.06591008134890919,1.0690984930711391,1.0586857808910544,0.753468739579247,2.5402395372925617,2.1010131792082074,1.6177428277748593,1.670098905551616,0.5915533975974677,1.7144281262917314,1.2268159619781898,0.9493436364381598,0.9529819965232358
340,0.8700276214204471,-0.09758053566746938,-0.11758031228325094,0.34102260279914126,0.2989694715063286,0.4078602588735813,1.499695399318737,1.111713597749884,1.0900396880251777,0.8207547147780623,0.6509067234006624,1.311228118095665,0.9075265777909176,0.5584669640769262,0.9433648517168377
341,1.5668038480788729,-0.459948797604682,-0.08320986972932717,1.165516512859294,1.1260822309855107,0.7780091926849125,1.3356648574113223,0.9832852528897724,2.777613015655155,,0.6699045166045591,2.2263444759100715,2.567836255022771,inf,0.946640233388442
342,0.26145047868732246,0.014519570033888596,-0.0017473632741581702,0.5136298859710372,0.4669146816203796,0.4500095374447605,1.1489354137903245,0.8595363856887082,0.658385593028041,0.7200688284592853,0.648888643467878,0.774959972427098,0.4956671700463273,0.5002192051744228,0.9451131475363223
343,0.8964966402354958,-0.12967485822636682,-0.08688110692730022,0.5788448596389066,0.5538516422232136,0.508067625228059,1.590547939690013,1.0683836583019521,0.7638274289092762,0.681375517473299,0.6584896970785714,1.121369275790726,0.5810371159253196,0.45521293102781446,0.9154783404463533
344,1.767171445964452,-0.3248030095540258,-0.08164642301779819,1.0329124764667488,1.0219919368695165,0.6686622264522233,1.9012835148010105,1.3051659987447968,4.446774639076635,,0.6233814453054027,2.3097216085633656,3.86673472389445,inf,0.9433202019593778
345,1.784902521210114,-0.34258180557659546,-0.09174447458453225,0.9936054242664087,0.9469646903761216,0.7389671265876223,1.7734814196681201,1.5056022889521448,3.534281521506285,,0.6468212168108125,2.7191111484616353,3.163000861718983,inf,0.9598289036181947
346,1.4877981803493163,-0.2772630922266831,-0.14119161675494898,0.6790567679564361,0.6377732822802915,0.6067222652959104,1.9563555410926259,1.328481416979091,2.6695585303259834,2.142733739729307,0.6528756675646988,1.9767245169674272,2.0984712264159127,1.5797965671034293,0.9616414954327507
347,0.7836312658463203,-0.18061286832157003,-0.09594982326393886,0.25251842945491937,0.242332002048571,0.20785192895361687,1.686195883346239,1.624007015555555,1.6798681126090134,2.9259043477488738,0.6619902821573977,1.2471509674944956,1.4860461160296705,2.6954821008871144,0.6740069004080135
348,1.2618170938868933,-0.2651039679212629,-0.07680257091332875,1.2088484213324053,1.1775651784695238,0.7918937124253164,1.8272668870273705,1.7808164853929604,2.6392707943738762,2.986756785946292,0.6566669596287297,1.98396975877238,2.36054702715185,2.3717002811590286,0.9156579702357461
349,1.100071038936017,-0.2141749901424874,-0.08673251652651891,0.5651413797559585,0.5244644997083576,0.4004334122635845,2.4138368530889522,1.3330429425470172,1.852585867951395,2.716301793066758,0.6425374456860184,1.487761232291338,1.515555284620961,1.4297695213750579,0.6815733014101693
350,1.5241884800413443,-0.2752187756505255,-0.06483818658813742,0.5663884309169291,0.5405790981795555,0.548652227770238,1.9575484245884154,1.3838589365567275,3.9509925309670955,,0.6652988471865258,2.296603021316498,3.3058269590794156,4.706522680248379,0.9512846162861464
351,1.7723386413131283,-0.374859064251745,-0.03186268637106409,0.8252705384472195,0.8058608185212839,0.6758638858736533,1.5296265699966545,0.9734029059366818,3.5149018364847904,2.9110705583137153,0.676637947632344,2.8887730365324678,3.04652123910846,1.8087090275418283,0.9466561311385051
352,2.360735385445692,-0.13972108438541475,-0.009792156692812392,0.8619470709455159,0.7982864876053648,0.7331791080466173,1.133935910131498,1.0566744859377337,5.291639564017007,,0.6097226960127671,4.499809670330265,4.135166556742356,inf,0.9527222974592335
353,1.7460637076247374,-0.3921518548966821,-0.0899783320485033,0.35473155617010393,0.28512873887170537,0.43261889577607776,1.2185288127037504,0.9257941831817047,3.353294583431972,4.574860146578394,0.6619902821573977,2.3674199543323335,2.8959593608544227,4.198275485070333,0.8191497657236924
354,1.2952912484462074,-0.263128482790201,-0.008882679383502554,0.7443360201821471,0.726587010397991,0.5384776091099368,0.9605156490513447,0.6567832255653933,8.047050336479055,,0.6778444222523095,2.6606896297423726,5.702352881846607,inf,0.9696063860756099
355,0.45790920779790234,-0.05111929004978634,-0.029404790525761254,0.8608439289534475,0.7949329630734642,0.6187596993685901,1.840476145019179,1.4814922139652331,0.8717849608615481,1.5726251211876863,0.6447042257417027,1.2668337210832827,0.7582038139395799,0.9124258304071527,0.9553116392870522
356,0.9427447592553866,-0.14696548649921187,-0.1634606865823584,0.8805655611034812,0.8676003224405298,0.5999256416728839,1.9954836741896498,1.5006490716233523,1.4404093443785018,1.2640373161497116,0.663668482632973,1.5382548485778607,1.1788360971764984,0.7846636908991111,0.9584849395975346
357,1.1577595903862137,-0.3448386108844974,-0.13029299675765815,0.3745531330033298,0.3285169080253009,0.5019706857826736,2.1653151019508967,1.5628891372222182,2.4961339953304744,1.8454398064463986,0.6668815377411301,1.567816237743281,2.3587565486995965,1.678873787492462,0.7227505121247818
358,0.6322038210910075,-0.11710793861506666,-0.025970514619642088,1.1170177295833479,1.0401966548904682,0.782461593145652,1.8462003492699528,1.6486300510226812,2.0752018902311287,2.0217927624433853,0.6619902821573977,1.8634703167820552,1.8877574661001637,2.0251253846088173,0.961530096820324
359,0.08355086156350756,0.010583269318737668,0.011550315970363018,0.6577971704383887,0.6017110543965177,0.4039472140773961,1.5341485371282702,1.0806457572533135,0.5969626966025623,0.4386408819522784,0.6425374456860184,0.8086328571676452,0.48692743515658216,0.32000748048540983,0.7143450845312918
360,0.22031255060554078,0.0001542768682322379,-0.052546133491294375,0.8075588483546907,0.7370303437456561,0.5756575922708849,2.7994214502307053,2.553701949708972,1.084443814407923,1.6417011509019799,0.5883313578629602,1.3581605218761195,0.9430921258841478,0.914295387015259,0.8145977617917654
361,0.06649680162222238,-0.012623590296592097,-0.00034976999760765565,0.8671679011614768,0.8481159225999804,0.6359062718446541,1.726167431867907,1.2600364684884153,1.165957039310653,1.1243611886072222,0.6468212168108125,1.6088825111424003,0.8525680626092588,0.3712184740162164,0.9457241991552979
362,1.4552427699851085,-0.40586214051248704,-0.23088088657327996,0.4435352165094831,0.4189083412237,0.5435674253823408,1.5095578180101925,1.11276612171211,1.4625125494716291,1.0193414220627104,0.6528756675646988,1.9092675426900074,1.3247219199882412,0.7547946038833592,0.9373836437329248
363,0.7012531932278703,-0.11468753812699028,-0.09450185848480605,0.6852719628721583,0.6237387403909002,0.6202297621109167,1.7701792762643942,1.3456640677675014,1.7514765375738603,2.368877488373908,0.648888643467878,1.4273941720053165,1.4241415621056501,1.5439139208950556,0.9527999238587783
364,0.3674965033763669,-0.017875965592630785,-0.04673898500284667,0.8197871865723734,0.8081335117672674,0.6515012126780381,2.2779514557290645,2.124713255406893,1.5422840145331855,1.9048438758303525,0.6566669596287297,1.4747127881463702,1.2656884431734994,1.3857780544222498,0.9494626921047673
365,0.3125576152944639,-0.03238532591849308,-0.023752947648791187,1.1411526599193964,1.0776371413517634,0.7672139256191999,2.4489908273212264,1.3400043809864557,1.2759627360187187,2.1630858591106343,0.6566669596287297,1.806670081963809,1.0881113844210557,1.2714171996052195,0.9591925947753607
366,0.5109797159829458,-0.040052423559301026,-0.0002786843342526685,0.9656033772812657,0.9286066707702878,0.7024933096176761,1.8275167515359658,1.29863639400091,1.0196745799387208,0.9870889653909071,0.6425374456860184,1.4170285204897517,0.7202304756790335,0.5288498371452534,0.9493197179851586
367,0.246736804463365,-0.02166651741055954,-0.02254220518061313,0.4253206825704049,0.41884110874479086,0.2865018935969993,2.0312419884410304,1.3782061299994077,0.5452727873332147,0.43988851057688205,0.6684167106117298,0.7853843092485902,0.4514560987029628,0.32169317462078006,0.7652858712415155
368,0.34707012663942766,-0.045387033593851475,-0.05595889698695055,0.7367116028513805,0.7270290133580845,0.23014857286306425,1.6943837755925544,1.4941808392712188,1.1397703043557896,1.0883516644620692,0.6566669596287297,1.1285218190742534,0.8086488529276589,0.6799729704126217,0.9155330308536775
369,1.9646864323282365,-0.3704331589876115,-0.14799394855991305,0.9393018257008248,0.9386046440897758,0.6762002095359951,2.014411179970053,1.661528668323717,1.7294723712760613,1.5357549181046093,0.6207552362147116,1.786838264908987,1.6281200320032054,1.5110295231237785,0.9525781033817812
370,1.3928067315966184,-0.2249082199730706,-0.2247965108188419,0.7035314525549716,0.7058188392257062,0.45229051654799796,1.9398834908757734,1.7055450483239476,1.2656993862115897,1.4429300625211374,0.648888643467878,1.2153333883781154,1.0202163032797718,0.7451845063186687,0.8600066112420546
371,1.801170852812122,-0.5357731354619337,-0.26211220071119035,0.7890343160088527,0.776103374698615,0.6345713121013684,1.3322999663805786,0.9227237599893376,1.9942636657042077,1.3724484642084083,0.6713451011121618,2.271732629511281,1.7303366566016487,0.9377969370951186,0.9272985566286449
372,1.097779551165449,-0.21948848668148152,-0.03802160357799149,0.6078741959779373,0.6031848291038704,0.5619957376113771,1.5573439526524706,1.0610304339568724,2.72338032907495,1.4940449973299006,0.648888643467878,2.0587678341892035,2.3780670369796733,1.357601971755455,0.9545683712451869
373,0.8929878612908975,-0.14938162954377399,-0.05418259871307486,1.3965550622137395,1.3811785957485854,0.8737199507558567,2.0693876560851527,1.7765245608615166,2.00773351083186,2.44419148778103,0.6740851607140061,1.9183814535516428,1.8304839374924602,2.1412466618035912,0.9656261796680127
374,0.4497930968456889,-0.03768681694484922,-0.036998020476556634,0.9674785021066683,0.9288641533249975,0.7021627638171182,2.1219858178356183,1.80852880828949,1.6258199083165774,1.6111766073094012,0.663668482632973,1.7770679204850652,1.3980568703570004,1.440095730999527,0.9146409350948472
375,0.24702848546886375,-0.04469459066049464,-0.0022408215785894685,0.6638951803975326,0.6558067424237825,0.47798781396717155,1.5570996335120197,1.5873669187685437,1.620926330693664,2.534703295390646,0.6180765742263259,1.766286673255024,1.4974702992858935,2.4467144902660802,0.9577944569573716
376,1.183858622558545,-0.31371540414697185,-0.13925245161430716,0.712470652413187,0.6360595219450802,0.6049550784701688,1.9090295580214245,1.7766451087126123,1.66679126876207,2.2557688901402417,0.6425374456860184,1.7846514577686772,1.478815028205201,1.1932836948959396,0.9651536507178334
377,0.9717379588024807,-0.23399111821454693,-0.057530269426197274,0.9089081500055619,0.8994564458163764,0.727900818597606,2.260661837845902,1.9276384644081905,2.6538328122772654,,0.680118107274185,1.9237682121484205,2.288609416985273,inf,0.9242899702265898
378,0.7834449530774441,-0.11159730723815174,-0.06792759313680745,0.9809746933787489,0.9435534296888919,0.7174120943668097,2.136571352863501,1.6750425716723076,1.8864958209240632,,0.6380535849069913,1.7970400536719804,1.7808945064902288,3.025609344416936,0.9258739838541635
379,0.10041301875606719,0.0042524382358376245,-0.003209328789409528,0.6323896946963673,0.5461956794217232,0.5349023882681706,1.9240653816255262,1.0699027992202956,1.1183070506249826,1.0060210606780187,0.6403206450210053,1.1852964464725042,0.7994007320126948,0.7223535222839277,0.9181486352296376
380,0.050842727471144065,0.02423780632104512,0.0014168070810504294,0.5151867775619526,0.3683603345248763,0.4250020724701979,1.2782090907050956,1.0236810648057568,0.3640914843670003,0.35840765800942537,0.6180765742263259,0.602473997653996,0.2475349417966596,0.18722606954255053,0.907445104738276
381,0.07394788495245962,-0.013769879040401292,-3.372615072450183e-05,0.845445976982359,0.7949414192644807,0.6507454180310135,2.057362313138266,1.7872174924296926,1.4117048731403619,0.9521613581421544,0.6357360191111145,1.7237893427887878,1.1507090659510868,1.2265351416330228,0.9045649617915468
382,0.7313714374955698,-0.007292660887578184,-0.07269566728664595,0.8164663607252944,0.7860849070710385,0.5448053613662793,2.65305242173336,2.4943337312135316,1.2822624908247762,1.1699953288424867,0.6233814453054027,1.1599559189091617,1.0094589577877906,0.8438027111980583,0.600163447244298
383,0.5700484364310834,-0.08368987175825798,-0.018550923504744722,0.7939191988754358,0.7138065473822576,0.6546238248164694,2.2937993679105597,1.8618294395646666,1.5999037811973174,5.590581534249079,0.6668815377411301,1.6387523001028756,1.492163523787666,3.9459157851355293,0.8394352918473535
384,0.1738503100493956,-0.038054476392740996,-0.009782977286525135,0.18508749434778254,0.16829011284354728,0.20503424629623448,2.0788529825831636,1.6384254229645618,0.9478770174930816,0.9414433119179156,0.6333676938231112,1.0027870899936222,0.7368860660361013,0.6769519863418711,0.6982113516969356
385,0.2551029511360637,0.015080176466308548,-0.007708801044998798,0.6100950978669211,0.5759364053030526,0.4946539343579162,1.3335122006936213,1.0450208509871464,1.308914299441764,1.6842545963355255,0.6357360191111145,1.3379699138453471,1.1997750829586544,1.297316967488016,0.9477832154135428
386,1.1440095990962402,-0.25806368692447323,-0.22489498462924898,0.45925652043737636,0.44149828941487373,0.5318709315222377,2.30820939820377,2.223880637057184,1.587856557302616,1.3446971316787741,0.6180765742263259,1.498443298159181,1.4409086419587023,1.2640637171585793,0.8922969740841795
387,1.2369950737596884,-0.17129095739955422,-0.018381620576931334,1.058210840600868,1.045538125469584,0.6932354522990185,1.6367991083225315,1.1300537413950895,2.759062037770207,,0.6357360191111145,2.4954958513422687,2.4506009216164157,inf,0.9443900259404828
388,0.8480782826881926,-0.16155304232221634,-0.05360845147014276,0.9650466870406186,0.9423152420215605,0.6767056860467856,2.47556771044109,2.6215979954966095,2.2242478654197613,,0.6584896970785714,1.760260802168684,1.902301343627879,2.597508326702386,0.9674777699413204
389,0.5965058193220639,-0.0690674820218716,-0.01353756701747048,1.356118977206587,1.3489099834316833,0.8630621601420356,2.3162449813743513,1.985798338217832,2.296142741549141,1.6217557444992983,0.6528756675646988,1.9548275691001231,1.7860471801321938,1.5618969676651002,0.9497193432368815
390,0.7298802556929521,-0.10761484533627486,-0.04323563246782838,0.8710844817739122,0.8568257868223423,0.6748789179640614,2.0085588468638162,1.2904653225057272,1.1092267161294835,0.750942777355157,0.6602640781246099,1.3301661073422895,0.9161436776844212,0.6228877376380474,0.9611228165469111
391,1.0493084362703557,-0.2654239147193305,-0.031594076127857265,0.4645533459105574,0.44151160881411483,0.5370188086085557,1.8998259097297996,1.5111062470087333,2.8916317164755925,,0.6403206450210053,1.9230837754511056,2.7558525607765945,4.243721963296701,0.950451930449718
392,0.719871715102893,-0.11778670385417567,-0.07819114275170512,1.0870861501903244,1.0324020047566362,0.8046818065423245,1.6373257482959451,1.7495445916170478,2.036387109727221,2.711591521383843,0.6566669596287297,1.733553456163693,1.8408075445076513,2.0524604328487284,0.9597187276733044
393,0.43114745665600135,-0.029398835058238204,-0.041332786768861755,0.8673689546115306,0.8252339372761827,0.697793189888214,1.7409562877537144,1.9383851411374244,1.271882272490305,2.1377939021843004,0.6357360191111145,1.5499642795487503,1.0885598589048495,1.7443917804051658,0.9523711858212308
394,0.3852263773934204,-0.018912283273789632,-0.043406885272357296,0.709956654798497,0.677056443457552,0.5863146929163316,1.064480911477256,0.4096111971503622,0.5806536307941168,0.8242221347088085,0.6619902821573977,0.9917928377740393,0.3901554257691712,0.1477546808720362,0.9550079090223169
395,0.005049902260684879,-0.0019526288741314867,0.0,0.8443445685280393,0.8215076993989456,0.6499644279294626,1.8577348801955493,1.2880696412606165,0.2601183410854369,0.18703890893221767,0.6778444222523095,0.9540214445186141,0.22050043824984553,0.14150042536609908,0.9258598178665831
396,0.036901607808002654,0.000999113037563169,0.001401026044649551,1.1330203331889814,1.1182777207765793,0.7483987466378933,1.6522827326820637,1.0744548884676948,0.26172985603205945,0.1812211896426882,0.6357360191111145,0.9500773476264871,0.2351463980099254,0.15571491376268096,0.698391063032073
397,0.014900640164539146,-0.0037280609876344183,-0.0001957742556942234,1.0252129049571097,1.0216273416587105,0.7516734244811819,2.727740363529653,1.8299620364193232,1.0253379079397749,0.8429512389725622,0.6713451011121618,1.3436180868394543,0.8388164050241297,0.637665213047249,0.9156261253626267
398,0.017382445370459354,0.003978880996780222,0.0011843233812911576,0.4825881937576758,0.45033397172133344,0.48850769968651864,1.8842028092830743,1.0126230852906046,0.4852699158112553,0.331856290908518,0.6509067234006624,0.9524937805381156,0.4636185275095144,0.2885524543294912,0.8432494736397412
399,0.07401166186773726,-0.008512089267462962,0.003214379536016207,1.0335829076980818,0.999689544920711,0.7452945087458079,1.582031741354231,0.6675502596996403,0.3613913733397085,0.1857765791506733,0.6699045166045591,0.9304178288389158,0.35307929902631324,0.17474685256787273,0.8697961027083521
400,1.5176823934157267e-05,7.463307910509765e-08,7.538631337940465e-08,0.5057812180840343,0.3453571592110072,0.3508299912326068,0.6335512930599796,0.3155915679915071,0.12758330455202435,0.07644488571574197,0.5883313578629602,0.31017007993377643,0.11376454445804926,0.06080820628782664,0.8104742583403396
401,0.1855164279032494,-0.043589837659796064,-0.0038763666220488456,0.3458280430384208,0.27356203536255136,0.28777980498564065,0.21607259412770108,0.21811699617694777,1.581150737396262,1.2857719939037346,0.6180765742263259,1.443876394085517,1.4255169574254558,1.2404033152700493,0.9352940072529897
402,0.0296036948276104,0.0045140584150557515,-0.0005136756818880858,0.2026936958102423,0.15803500273414378,0.2235391910688403,0.81919353201844,0.7269194718082659,0.20254474240197123,0.10383118779122559,0.6097226960127671,0.3656676382340983,0.15858100586403312,0.09090921760011962,0.9652754671127418
403,0.10168632631639958,0.00667047904819576,-0.016715225952268535,0.2127778966817606,0.14892527192026508,0.17191873599869154,0.1646430711644489,0.15616040630097883,0.5703822630385714,0.8557779405711048,0.648888643467878,0.6949933280865265,0.402419680006101,0.543916982110023,0.9527410284912191
404,0.15782751485501215,-0.004789419807355561,-0.006258506232495288,0.2703566767940242,0.18120677852573838,0.298104200903664,0.07192115314617262,0.04756020682949953,1.7498311141422678,1.1822961763658146,0.6668815377411301,2.771700228178666,1.601476791218233,1.3372944434100986,0.9442604069864124
405,0.0,0.0,0.0,0.7869245334008617,0.7466243370907407,0.6601784954184982,0.045679452723731556,0.04726957861526299,,,0.6380535849069913,5.703782474656201,inf,,0.8857392313258977
406,,0.0,0.0,1.473088986570825,1.4709617928913876,0.8340215619035066,0.014326065636587436,0.01904425347736955,,,0.6547956803312163,inf,,,0.8484213388906314
407,,0.0,0.0,1.42946726103765,1.407210504070858,0.8369344504309228,0.015412400906948332,0.019708535225304302,,,0.6233814453054027,inf,,,0.8564548138781977
408,,0.0,0.0,1.4004518663381835,1.3760439706307785,0.8427996093268014,0.017045647437453543,0.023462621135672004,,,0.6380535849069913,inf,,,0.8499746251393612
409,0.0,0.0,0.0,1.504196146701078,1.4797820272950895,0.9361149942551803,0.020730904340416672,0.03496774668090402,,,0.6447042257417027,5.0106352940962555,inf,,0.8496948904206912
410,,0.0,0.0,1.6193087277206981,1.5769786667990642,0.9281597011348005,0.01806171773812848,0.03234970763388108,,,0.62595550513784,inf,,,0.8528937412091404
411,0.0,0.0,0.0,1.5500905160687164,1.5324582108781437,0.9309491715742672,0.025126292992501388,0.04332911192017731,,,0.6380535849069913,5.703782474656201,inf,,0.8739213810425199
412,0.03522134702333379,0.0015992972984445186,-0.018290498359298545,0.5089560754005663,0.4863231999539688,0.39877969673356384,0.4713203989163889,0.26582565106778444,0.35484612933815635,0.40703806884504706,0.6357360191111145,0.45110773098690066,0.20813197198899566,0.15700460806420133,0.9545360222689567
413,1.358158859194878,-0.01358158859194878,0.0,1.185843046322847,1.1044192938960904,0.845881757029012,0.013888846109307218,0.021829486647568667,,,0.6509067234006624,5.43630310952194,inf,,0.8312387128179408
414,0.4209027460101514,-0.0445121102598841,-0.012132620644408239,0.4240750436583659,0.3536225832116026,0.2035526274388144,0.11417294891996818,0.0649768821519756,1.4958083862569092,1.6229064895471572,0.6619902821573977,1.8970459135551558,1.3801654883260084,1.7384364340386358,0.9536119347587977
415,0.18091644158712106,-0.003618328831742421,0.0,1.4956037594776153,1.4932756552096118,0.9396399470215435,0.04340678947259428,0.08286917369770896,,,0.62595550513784,4.029806041084529,inf,,0.8451826185114568
416,0.035988312937459216,0.011463493720369113,0.0038591170987439874,0.1515848085745051,0.08853695313385333,0.07424583990622804,0.14850490684661963,0.17252557256788864,0.330669877947467,0.4067472730244874,0.5978297680564633,0.22321299817003126,0.1753923585904234,0.19369146361955042,0.9422997590336429
417,0.06716690271280508,-0.008641263501092143,-0.002928652689603243,0.3108102892920412,0.216455060358959,0.3610031422019159,0.19262029340544823,0.22820155829502092,1.0223158441969844,1.5651498380874322,0.6584896970785714,1.2219482131141934,0.8252197680153468,0.9815467263883692,0.9000155597284029
418,0.2568907037396985,-0.014755399397138758,-0.018640392089022056,1.6913773731040336,1.6519575125587265,0.9343770590822851,0.3157676745990562,0.594742641385856,2.2418963393509004,,0.648888643467878,2.168734306936592,2.1087321322502324,inf,0.9116749993522824
419,0.26513937662747816,-0.022248861364384115,-0.01133545967509645,0.791928284246723,0.7670918311727075,0.6449049651628814,0.22855906451147287,0.4076047668286814,2.309273516668687,,0.6038851895711802,2.151391160993047,1.845826690498331,inf,0.9076100927595617
420,0.6156702297401351,-0.046049243070996684,-0.03161568857897676,0.8917307134842992,0.8719143545125221,0.6525317730038571,0.7908578938192756,0.8273671524815516,2.1220515395564257,,0.62595550513784,2.0099154790312257,2.004386375517339,3.67969102805953,0.8929165782823135
421,0.11377651544715967,-0.012594627986390564,6.30053677474823e-05,1.5051638802789715,1.4591758097364826,0.8938448849798895,0.9154840800882023,0.9542730310841362,1.0987141731224592,0.9180783432490007,0.6468212168108125,1.8152328254136971,1.011038007075944,0.8263838448013311,0.8671441608671401
422,0.44121331366732636,-0.02717280084739397,-0.018519314404512786,0.7330222804401697,0.6477951178219704,0.4551903812295712,0.15975066688149986,0.09438747942980474,1.3740813243865155,1.5826418746603983,0.6425374456860184,2.086578057249156,1.1124951403228653,0.7969354639292179,0.9283829328461984
423,0.12366369422220744,-0.0032976985125921982,0.0,1.3508256999331087,1.3272925952294277,0.8519682513493148,0.03562926082217444,0.06429913427720715,1.9918148238917321,,0.581717464821069,3.7086287494989545,1.9984926264227614,inf,0.8712306362388247
424,0.057862076173313064,-0.004243218919376291,0.0,1.5733633564242855,1.5326171700443172,0.9667564120437174,0.04821997579227839,0.10152985332561362,2.7534574586374654,,0.6528756675646988,2.6460148101827574,2.367959385179013,inf,0.8534375480269384
425,1.665498563222902,-0.34517658873834606,-0.03233641892551169,1.6265999147038523,1.5586981820867611,0.9461219201837884,0.16473529219035254,0.2914759682659043,2.363818496079227,,0.6180765742263259,2.9412440882699213,2.1564025828159643,inf,0.8735760331934217
426,0.8262744841705782,-0.052168143417096344,-0.002916822194275536,1.6256285570772526,1.5675427687442096,0.9027430797751456,0.055205098975436094,0.11101879285848879,3.54669787173118,,0.6038851895711802,3.388281156395609,3.1909700556144918,inf,0.8883637959570704
427,0.7638309475152498,-0.04328375369253082,0.0,1.3210178693405736,1.2786579072994757,0.9222569624965845,0.05289895503684521,0.09526316042252836,2.6074686367047404,,0.6097226960127671,3.194996551078258,2.512124824843458,inf,0.8754215076883647
428,0.5280024317378255,-0.05440115700261754,-0.023039199652263535,1.0508948027137277,0.9731945085468235,0.7568825532935041,0.21556274009910545,0.25485919286029546,2.4687019412853926,,0.6468212168108125,2.2588872377283264,1.9023096314816148,inf,0.8358179345990167
429,0.11305363752338045,-0.004290503274401714,-0.0013851207090508945,1.282159726941839,1.2420156490898167,0.8277210046721467,0.3189812435091093,0.3706077133421294,1.7295503481007106,,0.6008849035917525,1.910017617732675,1.3883223784897725,2.0134003906577296,0.8527723816599806
430,0.3212655541080639,-0.02582624775798303,-0.007408447957540754,0.579972604152922,0.47148331815908107,0.3878449385969937,0.16179820145704,0.13847047957540734,1.9890132346138747,,0.6333676938231112,2.502120630522688,1.7547428611971874,1.7616297277760258,0.9499058772965121
431,0.0,0.0,0.0,1.6193416993691618,1.5749790493409281,0.9600477040686838,0.024510347598589173,0.05383734813973194,,,0.6333676938231112,4.605170185988091,inf,,0.8830642907085827
432,0.6110522076715008,-0.016294725537906687,0.0,1.5725895102963496,1.5307413410352204,0.9471839569525418,0.03200463246597948,0.062201284892308674,,,0.5978297680564633,3.8480054533047023,inf,,0.8614698336254464
