,eda+bvp_XAp0,eda+bvp_XAp1,eda+bvp_XAp2,eda+bvp_XCond1,eda+bvp_XCond2,eda+bvp_XDist,eda+bvp_XFuzz1,eda+bvp_XFuzz2,eda+bvp_XK2_1,eda+bvp_XK2_2,eda+bvp_XPermEn,eda+bvp_XSamp0,eda+bvp_XSamp1,eda+bvp_XSamp2,eda+bvp_XSpec
0,0.035986990517871395,0.0019350209214489544,0.0033913215052550315,0.42261609321541116,0.35407609922338046,0.1682734661243433,0.9645047434011349,0.9288443520565628,0.2065336379368947,0.2544122377073047,0.6284777104787076,0.3056650230309874,0.15585910347382462,0.11871112224447253,0.8503806529321611
1,2.469189707663546,-0.9588914838290672,-0.25153775593983724,0.9405194274813721,0.9150127298076359,0.7796065395278382,0.9130308173771937,1.077134485271735,2.1977358783776597,2.909988892442974,0.62595550513784,3.0675863773219745,1.9700775891622004,2.9687036011660717,0.8918566601897756
2,0.12177026847132595,0.04762056143892479,0.03428958039009031,0.10060391803536385,0.07774104180611505,0.06642030374210436,0.4805541551349318,0.4355517161087846,0.20772598090236677,0.20542477455446553,0.6284777104787076,0.18248156959532005,0.1291593106733483,0.11093647744945855,0.9855311576556655
3,0.9694592762191784,0.029915378823842764,-0.09200298026860843,0.8424502879785741,0.8161892024471159,0.39909880881022936,0.42713266622247636,0.37756145418522075,1.2902670587436196,1.4583375825794909,0.6008849035917525,1.1966662291434977,1.0286492283592472,1.2201821830559902,0.9529302878337513
4,1.775062939380217,-0.13434939346910407,-0.34367451209516536,1.053772665304113,1.0615715387455205,0.7886163514711728,0.5431481395267058,0.5395846101830445,2.301412008965461,2.508176145708652,0.6284777104787076,1.7483169113852182,1.8420252524190173,1.4786287073049837,0.9367420968423464
5,1.345307770351723,-0.19501227971206814,-0.23141340182903236,1.0043226129326175,0.9973712388516286,0.6480139021037664,0.4039447413803902,0.4257544815979032,2.2419522963406053,3.8464823316346486,0.5783247308855777,1.5680827267521864,1.9742942683727485,2.6557018013460465,0.9181518819873234
6,0.0029840399507276177,0.0021719301686956337,0.002185565709894796,0.6401030177125321,0.4089274580075909,0.4197356549991476,0.7570170187064806,0.42383524041957343,0.06604204889484354,0.04225970397656864,0.6528756675646988,0.3260841578092861,0.06760061176334692,0.040865919430627964,0.634116247530224
7,0.043409719247664624,0.025828208549967847,0.009145343504439851,0.28922259120732874,0.2392548668792044,0.2344868747777332,0.8288322674972712,0.7560899974944906,0.1810617207107884,0.1530272636918327,0.6380535849069913,0.2913183051697201,0.13132687214829716,0.08756952198921766,0.6353941703247232
8,0.1803876517757866,-0.0205422863000551,-0.007678771350658427,0.8813902932149852,0.8422041830962786,0.6489667164678363,1.0363556294200493,0.9082007602106703,1.169450827770186,1.365740611652759,0.6309483474627791,1.249628995633652,0.9725032174087523,0.7416708229396435,0.9539160727866991
9,0.21341245714094678,0.05636232204701856,-0.015688002956965957,0.29874863549611025,0.24661379353795293,0.304260174442293,0.7402397233358943,0.6757231549538508,0.6294273474624948,0.5810073490318739,0.6333676938231112,0.7394471145944644,0.5343522419670004,0.3910925407243327,0.9547954907809888
10,1.0266321035021033,-0.1959171044127932,-0.12339003349224686,0.9693152361837432,0.9290149328934995,0.6515374718095588,0.7227510832663571,0.5820142950897567,1.0409861703244745,1.2952085440436025,0.6380535849069913,1.5635620436111664,0.8500787642898363,0.7076546886283341,0.9420774293278599
11,0.18306951097770696,0.028355807925491805,-0.027058883912709192,0.2550882258307015,0.23906033321375364,0.12716609095615627,1.0966324856839864,0.8923403805672954,0.25177781624361245,0.2439687741824823,0.6380535849069913,0.36533135036851894,0.19995045919353066,0.1526363199898164,0.7960343311446112
12,0.06323632040227561,0.010427748488959103,0.010644258577389959,0.3437253214808031,0.3124048832080883,0.26993654620322427,1.268169485779572,0.8950250323198523,0.3262172951367614,0.29910508191874824,0.5713653840954815,0.562313868929088,0.2703252904494564,0.1999045293198607,0.7185594783228018
13,0.13465415286235688,-0.0098907945838164,-0.009149566589063272,0.8652964484969287,0.841047257389882,0.6675567999189187,1.5977075936261456,1.173878105823744,0.6916798656159675,0.5339867450550733,0.6468212168108125,1.1239984750585257,0.5393677794011306,0.3841460496482366,0.9473779494061518
14,0.04932945255689278,-0.013647815207407002,0.0,0.6199504057947957,0.6054511595464988,0.5525050845719199,1.3182972098187957,1.0363407653403744,1.0355960249755596,0.7255801359022626,0.6566669596287297,1.2968599960123235,0.9445254771096656,0.6358726456287923,0.9527641204357788
15,0.02399507414458046,0.00011039603613092162,-0.0002057129897774998,0.7731096050433495,0.7500219278444265,0.35576590467435476,1.65282567208257,1.1064869151327328,0.556957713485075,0.4046901617890265,0.6284777104787076,0.9545408051396715,0.5258688943364183,0.34690786515267935,0.9392044037123117
16,0.015028240312707193,-0.011654575142462608,2.3052035841309774e-05,0.7390725637805536,0.6996378801202527,0.16536507880875304,1.1041192252902146,0.7741835614695693,0.11035986682912562,0.10791389143627605,0.6284777104787076,0.2526581878644059,0.09326523753544255,0.07137812448427122,0.847138563660524
17,0.004704568222511708,-2.6703492486900536e-06,-2.7258066925312137e-06,0.6506033000979886,0.6214460389560077,0.4359936602749615,1.6261915784629364,1.0099826273256711,0.32736963063894825,0.23886446866051697,0.6233814453054027,0.6194837516453735,0.2555850656871994,0.1489308646264909,0.7293720688397733
18,0.17193752107017643,0.03452526107678702,-0.01939228219340236,0.562965192507836,0.5094141514827434,0.41106342584028127,1.4416602489373749,0.9084761211787622,0.3655668385805051,0.2265577590095605,0.6584896970785714,0.6038550730811836,0.2592108975556739,0.16608244637118794,0.7337734690452549
19,1.9349438284906253,-0.6068636142528212,-0.3487313022354359,0.8315872511552397,0.8153047996838828,0.6825388031664147,0.23559922214884263,0.3222160257061295,1.8379965485911123,1.898475511947534,0.6038851895711802,2.0519128461761653,1.631647446460171,1.7425904454215853,0.9442991391079074
20,0.381160689895874,-0.012902033251141226,-0.044087352869889275,1.1408541032542705,1.1392743067108493,0.7646452000408257,0.3093903376844952,0.3058918716272472,2.5897013716678905,,0.6008849035917525,1.8565469102324947,2.1707622506534476,6.28164349975835,0.9337821493884001
21,0.13337257671334599,0.05696332620770664,0.04764296190362266,0.25998205414125564,0.22203354742142806,0.21152191344936855,0.3686185851617111,0.31244593552681055,0.5052659256236858,0.5233658631754456,0.6333676938231112,0.4837510265067084,0.36703810647150764,0.3495975167012245,0.9620899246371063
22,1.5005508120252076,-0.47438800452102886,-0.20198301910372943,0.7711683089338064,0.7376188931472449,0.740762043059569,1.3059683775873945,1.1323637856691244,1.5439757042533258,1.0724797894015612,0.6233814453054027,1.9555340887354316,1.409652855403691,0.8846425209233734,0.9391512866417281
23,3.1666881010603523,-0.7802323166822333,-0.08964858548733165,0.9040552435131964,0.9004052516141245,0.7478702202400936,1.5906052668295736,1.3803367676029028,3.2073743771688292,4.88364895445119,0.6652988471865258,3.30316364139079,3.0354971057013804,4.375757021660286,0.9463892485442466
24,2.0670222064827133,-0.3658873173466752,-0.033051355072734906,0.738793424210823,0.7410565844517384,0.3012185371842533,1.278257587473081,0.9259242513705581,5.2933048433360685,,0.6380535849069913,2.706384921783149,4.894517537758934,2.4203681286504293,0.7946240905304802
25,1.8119486066111299,-0.1625042047670167,-0.03077031327150381,0.5203280287446402,0.36741262078622067,0.6010971242825413,0.8457105057211435,0.9620603289818421,2.6359445932487255,,0.6038851895711802,3.6897687382988202,2.587897496090508,inf,0.7913106799640749
26,2.1702177399200413,-0.14741768362173438,-0.040667853838002525,0.562429798345806,0.500113025327973,0.7075484864236167,0.34092600928140776,0.424770101162801,,,0.6068309995095971,4.239755764995958,3.948933359448243,inf,0.9451240719513229
27,3.5332274110383968,-0.8742125626408259,-0.3270847571122289,0.8042492298381076,0.7888612803782177,0.6487095570636665,0.5962077163110271,0.6623373914008949,3.497376964570834,,0.6233814453054027,3.4726933833672256,2.7587218333713475,inf,0.9498535466993362
28,2.643649570604076,-0.07930948711812227,0.0,0.8848808989442524,0.8596042943510389,0.6788537421560272,0.4745989675550551,0.6478461794376363,,,0.6547956803312163,5.2548322546082975,inf,,0.9531327761053524
29,4.532195843759508,-0.0755365973959918,0.0,0.2730027592884022,0.2477353586964811,0.5418943961102558,0.5030659741798333,0.7187399067326261,,,0.5883313578629602,6.214608098422191,inf,,0.9553546794836725
30,1.8322592376714855,-0.2573619204262944,-0.0052619036399518225,0.6822160874045917,0.6267099072517641,0.6517115498802185,0.6267217867410325,0.8886936570895737,3.698598739611799,,0.585052858160615,3.575154022124482,3.7052765421428284,inf,0.9449100735594107
31,1.9464253017463193,-0.46720517689917096,-0.3849381326422204,0.696076487465216,0.6160603193691343,0.7437947494948869,0.9823166335685328,0.9779533267154286,1.681525434326265,2.4570461435369575,0.6097226960127671,1.962310570423094,1.4469189829363254,1.6703986122237875,0.9550212001675707
32,0.999960320296451,-0.11812495846486326,-0.13311819984608525,0.8943545953794171,0.8711884832396138,0.6880942093553696,0.9075263959575252,0.870859345204828,1.945844471400852,2.7348163638798413,0.663668482632973,1.7506815074702085,1.6837280083980604,1.9472894596188188,0.9387601378690962
33,0.46452564738935354,-0.01528153400082799,-0.0408372212030203,0.7638073945197849,0.7242232568917437,0.6456779674705072,0.7621823085300075,0.6067673736163102,1.0607935995052038,1.0817436548821406,0.6547956803312163,1.4129121590241827,0.8644384627913216,0.6959680569015867,0.962673201911578
34,0.5260224798897549,-0.045064370889607436,-0.04330909250425252,0.5816159621994699,0.5241440924357396,0.5484924753899703,0.30851971513008064,0.35713738987703136,1.6576982178442847,2.2469875106976813,0.6528756675646988,1.5679228248250274,1.3937301350761009,1.469563918963525,0.9358897650449159
35,0.6861099133389764,-0.14180898090685862,-0.029345416501628953,0.9237246831851585,0.860203584692869,0.6965177238441292,0.3186217157594727,0.3848830067618311,2.0652059330501835,1.8568736886241135,0.6447042257417027,1.7987840841650193,1.9524436987171998,1.6623757391236138,0.9359373141407834
36,0.3086556965069333,-0.03885168969027965,-0.03773267932832088,0.16921395908888537,0.13371674027650687,0.19030042811219,0.4989680497537593,0.6207162437171712,1.109724497030017,1.3421092246264592,0.5978297680564633,1.0099910970145813,0.9327463127274981,0.9270477145456969,0.9665306598933019
37,1.169211310733303,-0.1675724385298784,-0.049267304872020155,1.213087849383088,1.189487597367488,0.8076887768288179,0.6029735625475645,0.765932270212169,2.6312486890127986,5.055894859256403,0.6233814453054027,2.320749063621717,2.508954527969639,4.786101888492992,0.9454315967808823
38,0.8627469875851856,0.051305867073093814,-0.14768398825424478,0.6472154162811156,0.5619021475641647,0.5624871582061843,0.6073622065839145,0.629419433814561,1.2066455153651188,1.6076795065743155,0.5883313578629602,1.3263915683868475,1.0424520426101909,1.0461146859151542,0.9458359624082876
39,1.022513903301293,-0.11564009073814208,-0.189881952485811,1.0474727308059364,1.015491103071852,0.6655542738165963,0.37956452264982243,0.29830102577932416,1.245283527015201,2.158931529170362,0.6180765742263259,1.3887417980963697,1.0511914860488996,1.460490585439525,0.9683705096813022
40,0.8926668373833251,-0.1378443419311691,-0.05907875773234648,0.6445394054368621,0.6098038659613806,0.5795017438147961,1.0740492447614198,0.916511703456331,1.3186582512123535,1.1643950253515991,0.6284777104787076,1.6106608821790576,1.0975559994802515,1.1769478362659682,0.9582251684369518
41,0.04276649864498034,0.013693712362798025,0.016195314406523158,0.18592973281183492,0.09510904527000491,0.19037203153673432,1.2843921956013835,0.6465331555044298,0.38004384950788256,0.3193166300805477,0.6380535849069913,0.5085689127954902,0.295063000939727,0.19203276799935637,0.9045260377817533
42,0.46490595972111015,-0.03905702037765563,-0.042969418110019225,0.5480983122533019,0.5369675356518679,0.2242275730403932,0.9077371167517206,0.7669183408728238,0.3304734580003664,0.3473147177614312,0.6619902821573977,0.5400256015038591,0.2449932329279687,0.19803511360200957,0.953424495912071
43,0.9167577171994749,-0.14497477088454602,-0.05596891122945541,0.7438443020495072,0.7347842922792709,0.4575413148974353,1.3496575283434478,1.2587941155168703,1.2525137353645397,1.5635962302942654,0.6380535849069913,1.3980071330492077,0.9790620712060739,1.0148381304997813,0.9591405973453245
44,0.3140727983154958,0.036106456895697886,-0.013643497670894567,0.7303031353732096,0.6206123497355096,0.5146735594199939,0.6404620130047091,0.5595292883270084,0.8740127869916269,1.297200232811548,0.6333676938231112,0.967145525925804,0.691482630699068,0.7531519548390234,0.8481720554841407
45,0.8359164549678635,-0.019050108802105503,-0.0815159354118809,0.6249132887910465,0.5923909769109,0.5193367674736157,0.5476689704232183,0.3815126624584023,0.7542678483332722,0.9088549935246372,0.6309483474627791,0.9472082345089565,0.5862464809779943,0.4408663393396677,0.875023638555657
46,0.013977899903545418,0.010031720745322846,0.010076531656946788,0.3108102892920412,0.22341912770309647,0.17422399761197024,1.1932664902131656,0.8365783688797421,0.18863994480380014,0.14429522670259248,0.6699045166045591,0.3193485758170991,0.1672181337281069,0.1419586200158642,0.9472385514899768
47,0.0109727538619879,0.00954569746433296,0.009643100113479689,0.2599820541412556,0.13944198751265052,0.18126831653012246,0.5102095804370744,0.3279159237353132,0.1293313976346337,0.11185547238927103,0.6547956803312163,0.21616793757778455,0.09559434243002363,0.07034443852312142,0.7757473978664479
48,0.2995691368749149,-0.043334453551617136,-0.020267921352713762,0.9901135638993888,0.9705182736744282,0.6668250100716671,1.2034317438055058,0.9765256286261015,1.0403518329184496,1.0144803747647297,0.6584896970785714,1.2857855961930889,0.9390157489133653,0.8346993757976823,0.9343148379773433
49,0.059704411857676276,0.01446848593777661,-0.0031806725321101084,0.38970139467469306,0.3258438293911828,0.2846695758554839,1.4861258953563525,1.165712565829807,0.6181320624011495,0.46134680223201496,0.6125606311107803,0.8191136090243482,0.47162817742880175,0.287089798911786,0.8135012448588524
50,0.047245653766048876,0.00021806157380162977,3.2522769520048483e-05,0.6283412384475459,0.6231686397247033,0.4275638556372744,2.2333643450855725,1.770183507591529,0.6648490956916983,0.4910738618428369,0.5883313578629602,0.9641979526195462,0.5617161387659023,0.34626037703025175,0.9081890415988352
51,0.03020203353010066,-0.0007380600913227571,-0.009217331283332929,0.7763061538542277,0.7235147022820628,0.5788910485175061,2.1832277364811423,1.8245336819465239,0.576364878593971,0.6352391496268819,0.6566669596287297,1.1202786516411778,0.47498245055771426,0.42641480263080167,0.9463280393724648
52,0.013781151582531898,-0.007258073166800133,0.0,0.540543152212867,0.45308253520695374,0.48205246040003247,1.9837400809205572,1.331909694857445,0.2661367692442788,0.23083009538328897,0.6468212168108125,0.6468150613643616,0.21611922809876283,0.14705680755145703,0.7734129804005028
53,0.09622769655694027,0.019525463518917353,0.019261361354436624,0.5384729888712736,0.4902974055518058,0.514396071257451,1.510483177562337,1.0747762385295825,0.6536019955016295,0.5215347091946901,0.62595550513784,0.9112202750610494,0.4453426989266755,0.3015984381712642,0.9427365389339515
54,0.0005084113174079621,0.00016146295859702716,2.182804079563878e-06,0.852675934599172,0.8074683576867826,0.5108936996587171,2.4227968081506677,1.7641998610669156,1.1382619221675854,0.9999520219785029,0.6619902821573977,1.1609842695609458,0.7871171675021161,0.9346990553367848,0.7681741447905668
55,0.04165782026220231,0.01912872803528415,0.019234663248414142,0.4533250735864962,0.4233222091288963,0.32792283624443797,1.7289040842652927,1.282267159393652,0.4667827754747999,0.490265286474447,0.6619902821573977,0.7911275889201491,0.4161841166713016,0.31350501518912144,0.7238420435336255
56,0.010421686715194486,-0.004320773069847595,2.799868665540918e-06,0.4980688921349139,0.4678175020729343,0.4708059193677372,1.6241804851509336,0.849371210543886,0.4511091501114649,0.2000700088533156,0.6097226960127671,0.7973232128101119,0.36771381923923924,0.1648349885352259,0.7806446095077125
57,0.032858070824377396,0.015131116464936992,0.010563227619609566,0.4077103836089264,0.334794450861494,0.3662593558153441,1.242373829590655,0.8013658212673853,0.3647704814970823,0.35952534465898695,0.6509067234006624,0.49886045570771753,0.2562330530712138,0.19740027175918426,0.6830642786094958
58,0.05339282162901548,-0.0003334203048578569,3.281753871891245e-05,1.0225898763262569,1.0258934146359577,0.73300669707841,2.3088853053027036,1.7361634529854655,1.3404416109787107,0.8620669016878209,0.62595550513784,1.4155629832455354,1.1158763806706817,0.8821680378226198,0.9530391360188595
59,0.08397460325473935,-0.013003111046701602,3.717619395267671e-05,0.6896557604933852,0.653038605204748,0.5643510911571405,1.3547929091085806,0.9311018182599999,0.7567771414748369,0.582084978580665,0.6528756675646988,1.1390871212338278,0.5788024994277715,0.40869011710528785,0.9477147216079568
60,0.0652563758815632,-0.013703838935128273,0.0,0.8300789345035394,0.822274740527472,0.6570630533755649,2.93784225602567,2.928631852938283,1.1641583782054783,0.8768454770089809,0.6547956803312163,1.5766480896111095,0.8723767482891241,0.7765399751187637,0.8925108725632199
61,0.4764730873463937,-0.07575565719304073,-0.06081447334927899,0.978042593281794,0.9409264972080421,0.7100969784389822,3.1618489645956753,1.8599442147324736,0.5746207498900892,0.47131774592182074,0.6333676938231112,1.0259196032746691,0.49398234384857637,0.39485412481408044,0.7353408049566548
62,1.4450946695007898,-0.36719694177548395,-0.19104437231907098,0.8072546119251343,0.7320965827836624,0.6376349139884999,1.9706035570454539,1.782366668737291,1.3490170035961064,1.2056062619265016,0.648888643467878,1.424388597874906,1.181857403772255,0.9523852213011701,0.9600926823626492
63,0.09656561280470673,-0.014153459680720386,-0.025369372350584007,0.8614295736518474,0.8236470063905653,0.6663082111922052,1.5231665685520483,0.9193000045639634,0.29008193490079637,0.16682912468487968,0.5883313578629602,0.8479313943608118,0.2903577114601963,0.1369808100166177,0.9609582824630227
64,0.07944981317372811,0.041492604092163224,0.03225407125712895,0.8127786328493742,0.7753131687968211,0.5265086926109281,1.4040404485798852,1.4250031712240796,0.41311025860476974,0.5882864284683611,0.6740851607140061,0.6798580951226082,0.3175824385091299,0.24747001265367022,0.828027706533871
65,0.17219628847515225,0.027165216958641963,0.027376905286360262,0.8754084725526503,0.7770200930554129,0.641401477919054,1.3854365708019498,1.4191357284868982,0.7504490135180765,0.8604086023847982,0.6233814453054027,0.9159019185829514,0.5657292893634925,0.4305648144035578,0.9236149279494626
66,0.22924395151381458,0.012094960332115906,-0.030102401421235256,0.5891697473880868,0.5111150323734215,0.47752632174387993,0.9835387324029131,1.0882260871288136,1.3029082445035256,2.4588157750411437,0.6425374456860184,1.058782786505494,1.0582452488364487,1.4478654389910024,0.9348714251362749
67,0.027200159173879794,0.0003755754617846014,0.0007861972685663417,1.070579555638942,1.0187669563221267,0.7433148858850709,1.6350446374242213,1.3630823400224432,0.7902307927527809,0.8220937886559169,0.5748741956352443,1.0404062756037478,0.5745468175184628,0.3847329616151939,0.9548304049691421
68,0.051983224118691294,-0.015113164760350127,-2.168471163598235e-05,0.7612044352244103,0.7407552312649351,0.4148929413055283,1.0472316821381018,1.2085022539922663,1.8399546793109547,1.6010099830813247,0.6357360191111145,1.2549542565031166,1.5098426784849819,0.7521854796677674,0.9561022742290293
69,0.1253065628509327,-0.0007683204007201336,-0.010552191161757318,0.5712889717015404,0.501099776202931,0.4805092840520815,1.1517021118629633,1.2637442292218146,0.9279142328220884,0.8588846845360202,0.6425374456860184,0.863856422025734,0.623314694684181,0.38623234155865027,0.9492965418333532
70,0.26955277388292687,0.0515724060437627,0.034062176449874026,0.32195468142618694,0.27243928108723847,0.24574112842330115,1.0243496491626531,0.7874207745372042,0.3026202783278617,0.27352296528012654,0.6357360191111145,0.3806099071099882,0.20179128551579303,0.13330975700961362,0.8010212988784062
71,0.7295341839366655,-0.03005846811325824,-0.18817959320203972,0.42005865377864815,0.3892838216098997,0.2856780289671737,1.2000248135741645,1.2468469368584003,0.9197588874468317,0.7870318441485441,0.648888643467878,0.8367353223982815,0.7367457445168715,0.40637661188431107,0.9568499299351036
72,0.35611562817868775,-0.05661056539652522,0.014540121265037946,0.8575882337080564,0.8408604634991559,0.5378499388566027,1.3359497052204798,1.5877082471580384,2.6634892797409844,1.460926718495889,0.5883313578629602,1.5726774882685308,2.5196690712908967,1.5786460922737826,0.9412987630450518
73,0.4205695313299256,-0.053343459089204986,-0.06860789735410412,0.605492319685103,0.49918827008467237,0.4819800135502612,1.0936190494597515,1.1460051831247753,1.3770396065543558,0.8215728722470613,0.6038851895711802,1.1710396226036959,1.0492488943310752,0.5929370317847401,0.9410467597382292
74,0.2224638962650641,-0.022713612561815623,-0.007689786594409802,0.8432589028799622,0.8284862757106584,0.6116886731977799,0.770831051987193,1.1470447184562365,2.0080903471498806,1.5980286818619638,0.5947193981915972,2.09097445749356,1.9868408027773299,1.6326562025361075,0.9238923529112195
75,0.018018194884366626,0.01367599793042175,0.013787901832895848,0.4302611147932114,0.3829873832557743,0.2767903888131952,1.0782068631748967,1.0459179932641227,0.12286183341482936,0.12724831085074137,0.6447042257417027,0.2998596224579369,0.08645666681146653,0.08336739116541193,0.7655879639548093
76,0.008153032938403243,-0.0008424800703016685,0.0,1.334072160259379,1.3200400103927936,0.7967241470020809,0.9309484226150004,1.2872651953860026,,,0.6468212168108125,2.2770256475397743,inf,,0.8957313211518085
77,0.015389210435462741,-0.0014876236754280648,0.0,1.1777024911626044,1.1401243480402778,0.7238251328597095,0.6216332782010915,0.959126225173666,2.2528531521588206,,0.5883313578629602,2.348978132563756,1.9718488822380689,1.3896444480051726,0.9188918669752992
78,0.0,0.0,0.0,1.0853318327592922,1.0873779213735069,0.7498124969308644,0.7381071420131263,0.8785251789841017,,,0.585052858160615,2.1484344131667874,3.5586869627549285,inf,0.9428332952402669
79,0.0,0.0,0.0,0.9507376117897043,0.9322745478948002,0.687541431945773,0.46909877773627506,0.5825662133576073,3.757861214428048,,0.6528756675646988,1.9425823589626385,3.071391836399132,inf,0.9355513512676801
80,1.0330401338227961,-0.12428044097815749,-0.28920346285549975,0.16280166969132603,0.14576249004612196,0.27353622645709913,1.7151808218312385,1.705202469759289,0.8544663771531743,0.823317544820014,0.6125606311107803,1.1754933330040673,0.6146008569049265,0.5583021752289643,0.8428122555707032
81,1.9878133235977349,-0.7719961874127932,-0.30649054263556613,1.716876908221939,1.726655198824202,0.8584186005390891,1.3856445495420422,2.1467714684025196,2.603924991911434,3.5981936242702797,0.6068309995095971,2.3016965989329305,2.4225074046131967,3.4252644077447925,0.9486762774855466
82,0.03752025869504739,-0.0035347997421791393,0.0020828633213871503,0.4069815786448911,0.29614527159698717,0.22229705877122555,1.1653849469104582,1.2408449056917972,0.1621608123457082,0.14512054358645754,0.648888643467878,0.2519431973433202,0.12333223960178652,0.10220496270619303,0.826094003266719
83,0.02898133369258527,0.0008963972160020602,-0.01549118477960424,0.44078576121961277,0.35315589749372506,0.2814687273206636,0.9726480253092603,1.0044094771368388,0.11611867245343203,0.07904529898352598,0.62595550513784,0.2923150101755085,0.10710175939845251,0.05571138355330409,0.7977675977044885
84,0.0,0.0,0.0,0.46662302870725303,0.3122434886984303,0.37237226934755724,1.877276452942813,3.1837068408650095,0.07111407692923497,0.0410847278256424,0.585052858160615,0.29661070319608235,0.06340314200816476,0.02744763846434245,0.5875469066455774
85,0.007603333613456436,4.739606222723368e-05,-0.00499887699765084,0.42462754614623727,0.35503992732387774,0.3492075386923231,0.7675128218262985,0.44654695041799586,0.104980961771077,0.03429729146115523,0.5748741956352443,0.33277242271472374,0.09582484945048717,0.0356098559667164,0.9148326388561739
86,0.0554244766701306,-0.01529814686193352,5.273470398746774e-05,0.5154584230751312,0.4894942509099228,0.42538096338501913,1.357998905622127,0.6849933584568704,0.2281543296091531,0.17614385625852313,0.62595550513784,0.4887742559044715,0.20768952962551698,0.12363331851115739,0.7469210710905128
87,0.057511675276345396,-0.006760537403092421,7.191196173008535e-05,0.4064914941373871,0.3246239938210638,0.3849328713073639,0.8029947066153622,0.621500393684754,0.6137486696564758,0.6476820423603319,0.62595550513784,0.9854621907354537,0.5186152060408202,0.3375728420652459,0.9542835902283849
88,0.04437569369774108,0.0014530513331350442,-0.013559122660021518,0.7663689737053868,0.7728830377595977,0.4510069859360365,1.4309984456104392,0.6405676319880107,0.30137146182563856,0.1527506565986963,0.62595550513784,0.5984836744504544,0.22631729745166596,0.1330064401749683,0.7235508143385675
89,0.29917077634991257,-0.029929795696839512,-0.06231329419455081,0.7718231572409,0.7303474800585481,0.627907173449826,2.7851249536536504,2.277841305402046,0.8423966359243579,0.49498416549120783,0.676637947632344,1.1615875878296231,0.7087822819803432,0.42193491377652287,0.8945270749706334
90,0.49827733961415344,0.07550388053414347,0.03306786871395834,0.6364968394951126,0.5177430387536365,0.44381182101650857,1.8729385335731215,1.347742605074931,0.6844103435938627,0.5619217824198687,0.6528756675646988,0.7804252597781195,0.4746849056744866,0.3215916890446693,0.7534583632511338
91,0.06424831459217178,-0.008800571794105618,-0.006099793220032113,0.8113299016719857,0.7234652898310862,0.5939563189100975,1.7351597670828305,0.7422609084477674,0.2664283944493964,0.1350512755901839,0.6207552362147116,0.8420081717871902,0.23305036392718415,0.1073702390468459,0.8395636420327093
92,0.2757707937673404,-0.05007387383796657,-0.015618798134855304,0.27466743290571033,0.15708379898446145,0.27546852889411033,0.7445137161913469,0.7760133830513475,1.1008059095245002,1.360374140902715,0.6566669596287297,1.0797905344275218,0.9614564614543448,1.1006677878502058,0.859789609369976
93,0.019647373233331256,0.007511631819094934,0.007855965369763834,0.47040213058414543,0.33102917012728555,0.36337430205886767,0.8273789327141494,0.5503375719800193,0.12961638801943148,0.08796375762917255,0.5883313578629602,0.360555479359556,0.10813345891564388,0.07429645992237985,0.8076226231386938
94,0.018129070284600528,0.00015995851056357924,-0.013566555278283298,0.20345191876613714,0.15758876426132576,0.17733156971232047,0.8667725956500736,0.7219437404165178,0.14821158371597415,0.13819485207638973,0.6547956803312163,0.2746122996894022,0.10987440203357043,0.07963205517903475,0.8770817005059852
95,0.04964179465465893,0.009070995129801394,-0.0024535002803656378,1.0204044797840262,0.9655477686838888,0.7200810332916342,1.3372395172760203,0.7824310783433939,0.5286054630972199,0.3242290814704916,0.648888643467878,0.8873524025607812,0.42432935185006354,0.2310325259803474,0.9328725127908731
96,0.010459477784487527,0.0011128246195349174,0.0011148654728662345,0.7511359239081896,0.7134596655915407,0.61740915589549,1.714052922540218,1.3124682841815807,0.6108176772648043,0.4875016191789903,0.6207552362147116,0.9248550792019331,0.4962607968599937,0.2752122085861868,0.9438159772947743
97,0.20934541992284508,-0.05012359345547125,-0.019408923826597063,0.8384770359533915,0.8187917559035657,0.5992997246931773,1.8870222790351634,1.3785400123157825,0.21151787813244438,0.21491025501081346,0.6233814453054027,0.627921395642238,0.19520792803108855,0.13894360085595636,0.9173979912471748
98,3.150018494475448,-0.4737135360093612,-0.04078948475496197,0.7813056007981157,0.7465494547340649,0.6122776462247274,0.9901396068041434,0.8179093569506115,4.107313757074868,,0.6403206450210053,4.249050951983082,3.9396381724611196,inf,0.9618031004900751
99,0.47990873261836786,-0.022204567760507332,-0.031936090660430516,0.5754644148327706,0.5386236149176791,0.28499512201095356,0.9743595623466722,0.7141816363550485,0.37612622660954587,0.27374070630603975,0.6652988471865258,0.6857964854595632,0.27462030445714725,0.1746174653853668,0.74163842464668
100,0.11132619563933165,0.027189754244746067,0.027837501855184424,0.5376906821687175,0.47395555983580506,0.4259827521993335,0.5830349913467341,0.36723421767585007,0.3759049972158464,0.49280541556490004,0.6425374456860184,0.5850304667084021,0.2569003406277149,0.2090983945938352,0.9538811139765775
101,0.03362728153938865,-0.005828819628318628,-0.002860515218099808,0.5420727776130385,0.4876170409202429,0.48764918334201385,0.6967075860058316,0.5763421684074956,1.0965131024518329,1.3611945988040426,0.6602640781246099,1.159105669097072,0.8914245290883438,1.0594912217707029,0.9456890935339418
102,0.0,0.0,0.0,0.6221438211746035,0.43299851885379975,0.47327395086861673,0.8867028820287043,0.41976407956869877,0.07382017928110354,0.04597497967721956,0.6468212168108125,0.3955147772549963,0.07516463583677017,0.04129501844940547,0.8861670126340786
103,0.4229005923217821,0.028557970560991547,0.005607648357290385,0.6640714165783432,0.5948706678959859,0.5011876668236251,0.47588122539448424,0.2856585642810253,0.6337021553563592,0.5949501052392121,0.5915533975974677,0.7342933016776252,0.4354212244836332,0.359783247961927,0.937258510872166
104,2.0595094085311514,-0.5440573707936798,-0.38002477681379954,0.632539035761269,0.5970490593769063,0.7315296717535409,0.9585384794470864,0.8923726509305413,1.7304696347349848,1.879131851341466,0.648888643467878,2.5064708277038408,1.4206658155343534,1.215127093336498,0.9596585116353108
105,0.28949448064084427,-0.014147125946139039,-0.02360336181458389,0.3757666405756983,0.35031427038793855,0.3378227693538638,1.0703858667680426,0.6253659384969898,0.21378118341251143,0.15498626970534876,0.6447042257417027,0.4697369981283048,0.1843390531150362,0.1234193888867504,0.9654663002459837
106,0.0273074255626527,-0.002117879918740677,-0.00045858565331334186,0.365475179675118,0.34046802811350435,0.3459946398643514,1.1233497115568705,0.650705580353728,0.23314385734481177,0.17689309431555936,0.6547956803312163,0.5256572934365703,0.17163178629071021,0.13785698774816685,0.7724123545536382
107,0.015002961160895278,-0.004850957442022807,0.0,1.1824209580328038,1.0216345977814814,0.7890952206106492,2.048780244611867,0.6157414237394381,0.4860695256778254,0.22386968246209912,0.6468212168108125,1.1370066766554214,0.45924083509298314,0.1823983183342675,0.8788607671482883
108,0.02112900522410365,-0.005894013801225959,1.2655627320071628e-05,0.7040402266267923,0.6469374015590756,0.5655354320258807,2.66830341190224,1.8884701321996138,0.7428921891278611,0.4416812054085613,0.648888643467878,1.0423894975718317,0.6463321513680423,0.34264956430969806,0.7314502070110401
109,0.006965830750544019,-0.0031485594253738763,-0.00021816025922477783,0.39383678143134243,0.3809031322962808,0.3276674338289305,0.8597347389553894,0.6713930996793663,0.5207182207820893,0.5326334600696798,0.6097226960127671,0.6719947021955509,0.4015998234972711,0.3201945171893293,0.8929939761930825
110,0.833922723621939,-0.057833953539008554,-0.10454270479266844,0.31704627525377327,0.31927965359154115,0.3661490321388084,0.8203995902373935,0.8083794888741264,0.9036847164177267,1.1396900072602576,0.6547956803312163,1.1007144967599798,0.738416143884093,0.9318593602320112,0.9511434134833968
111,0.7463038635328773,0.1093947609690592,0.03912101373421828,0.5276052805847133,0.4215241761877858,0.4018005441955443,1.2174074880189942,1.0445572829553507,0.7798157474111187,0.8488340536625009,0.6038851895711802,0.8318729932362537,0.5551327319541826,0.4854577814525813,0.6130495621015677
112,0.08468396103762842,0.00705335531238295,-0.016668420119825847,0.4813288158314576,0.45646508784493756,0.39869802861755355,1.5758692493729936,1.24695693545767,0.4096384147847098,0.32132282572881254,0.6468212168108125,0.5898688311064436,0.278081573209334,0.2208105683019579,0.8390838896160395
113,0.0010993756250561463,-0.00038844605418650503,0.0,1.172041845343063,1.1589923383560412,0.7227795120744622,3.235431087499076,2.4248321172717344,0.5810710880349691,0.41133726157913986,0.6180765742263259,1.041381655213838,0.5548658565345664,0.30756146128827344,0.7880171013766131
114,0.02295070218036277,6.231631757082183e-06,-0.00520839079263931,1.0626445872531152,1.026089779681054,0.7405414974700801,3.043072620380566,2.865421808950075,1.159960706992937,1.249412881610086,0.6584896970785714,1.4959604286743267,1.0665474671372255,1.0685220253156098,0.8526462784468969
115,0.0,0.0,0.0,1.0716617446017174,1.0080446819827875,0.7305221512145835,3.6389059086680295,3.9099593210395054,0.9726710653102627,0.7526505785635368,0.6153451465759925,1.4696759700589417,0.9052408956875702,0.4451828391643213,0.8725700766731772
116,0.0,0.0,0.0,0.8982180017324877,0.7455932106475249,0.5473659113276033,1.0741553033164606,0.3074938894384802,0.09603357254768913,0.04015505931303962,0.6380535849069913,0.706570200892086,0.0952763965912003,0.04109041486812896,0.6856843444376725
117,0.10138556460527451,7.176779103068229e-05,-0.0006124778215307811,0.9940627996732937,0.9923861806127688,0.7056093924023015,3.4264924148155353,2.629742825782762,0.8997357869450344,0.6416679833887476,0.6425374456860184,1.3353900312581233,0.8478330264422826,0.5775249324022534,0.7451723239167866
118,0.1981753654438381,-0.03428241723635597,2.223992271633765e-06,1.241585843119773,1.2176643887133638,0.8430486988716877,3.8280363419483856,3.989454910866908,1.140291152313208,1.200219553840774,0.6447042257417027,1.7695414606616222,1.088363107097041,0.8681000189942021,0.8758297626847835
119,0.2594699227743443,0.01129866945240493,-0.03518212930591108,0.6590768030914399,0.5743481592878779,0.5606116799954263,2.0171639893559887,1.3979296742921852,0.8876487126873912,0.9165256077589036,0.6727386042041725,1.016817271032992,0.6373855843209201,0.7268243750580604,0.9568329195407748
120,0.006842975652829628,1.682524878230231e-05,-0.002297817133058845,0.5275255631105547,0.5251652920565686,0.4819363922382902,2.243092774806572,1.611959792813484,0.9584617669071239,0.6385037992871128,0.6207552362147116,1.1043956467571767,0.6823099481681992,0.5225684862194662,0.9495174822617658
121,0.046299893432437726,0.03876667131222554,0.02122806264388194,0.23036313070440706,0.13064091025151237,0.17630325464249433,0.37704580125138343,0.30743635013099546,0.2580472108625357,0.27975259524837204,0.6333676938231112,0.27806916558972566,0.1138711495875268,0.1002089507353063,0.8408394297223939
122,0.004705813318986651,-0.002839174035788613,0.0,0.6570358421941449,0.49974955900449575,0.5085815197048978,1.0284787046366988,0.35513417780133816,0.12939048207180714,0.09363509958131123,0.648888643467878,0.5084580582919125,0.11106698239741916,0.05399381970403695,0.6425054112818419
123,0.007447556326724394,-0.0024576935878190503,0.0,0.41908794292077234,0.3874277543947081,0.25212125082461295,0.5421088004671335,0.6171147221642942,1.367604907349432,1.4730599153550037,0.6357360191111145,1.1139628411730538,1.225862704762188,1.4247357678164427,0.9452827348194185
124,0.047212421971931096,-0.010971187589267089,-4.504420418350031e-05,0.6941466279194286,0.6653612809398985,0.4457537144349142,0.4211853427376185,0.4481459635277202,1.7410183290679564,,0.6727386042041725,1.4745185945347297,1.5254448399915295,2.017360847720793,0.946891142222951
125,0.11858677561737295,0.0018375826450300614,0.001643148599338215,0.2891380910659447,0.2649218633197281,0.21281524263958493,0.5309383240949728,0.4076786866366918,0.12555569370567418,0.13590606903985594,0.6584896970785714,0.2677632572796753,0.07358529370521186,0.05820075669397299,0.9392781824088808
126,1.0634162544089412,-0.07160424814965821,-0.15272846550465424,0.8096124927301209,0.7887676072015827,0.6221260143748538,1.902193240106365,1.3344077337978568,1.2920496616396426,1.2761151397912058,0.6602640781246099,1.3472873460120856,1.0516862857841869,0.9370604239594696,0.9399965793908901
127,0.762672197309337,-0.09108785548222667,-0.041254034296514086,0.79096749474532,0.7736302429244003,0.6680790518397336,0.924632229515127,0.6764091381690457,1.2471607670887137,1.0614464961495298,0.6468212168108125,1.4151511875818725,1.0470811451672555,0.881639982293758,0.955620289098735
128,0.46414116511516135,0.033759976653205764,-0.01515613014042605,0.9214247328830683,0.9045271623398208,0.7169242958248816,1.1029729129675705,0.7889142797976898,0.9495483318862669,0.7215306071263476,0.663668482632973,1.3186357126460757,0.7557519547310813,0.6791830490268624,0.955096154355819
129,0.10186632029306564,-0.0088639282993103,-0.006205498449117812,0.7642190911138504,0.7425211618700309,0.6458352750667407,0.9769497803746818,0.8583366747050087,1.1427473420060594,1.4093429535965385,0.6425374456860184,1.5409488715521789,1.02430053091836,0.8476832354100375,0.9489638558648245
130,0.11430070883441973,-0.020954754993377754,0.00017261414876462364,0.612624308349321,0.5828787597480669,0.47231595670821547,1.1741278329667846,0.9789070262741595,0.9800930663951708,0.9100378853309118,0.6468212168108125,1.0989123336771118,0.8580362936045971,0.8344831827595524,0.951972378664841
131,0.29192315007692726,-0.03153022121776838,-0.03986116450252551,0.9832042492180425,0.9480517313260931,0.7081474268619217,1.0053604586876712,0.7838116346482815,1.2967244498798596,1.359261758716251,0.6528756675646988,1.4826094901610332,1.1403339243106188,0.705003505450911,0.955349389801881
132,0.021285163844885737,0.0028711738512458788,0.0012412582700734413,0.409709656466736,0.3868796133957079,0.26268048674821487,0.6821718935323767,0.3121991180625817,0.21791443105083827,0.17067214517099408,0.6309483474627791,0.48148259453208025,0.19081675351502705,0.13014200077331517,0.9567153146065165
133,0.006248941217254035,0.003500480699161574,1.0057517122810666e-06,0.5009895636151509,0.47254617787466685,0.4228060226792202,1.5511302148847002,0.6361495045106633,0.3026626166052775,0.21307699816351494,0.6068309995095971,0.5836950469988655,0.21296250993074478,0.14563497748354576,0.7456419578031475
134,0.0019123487499207988,-0.00037606839672931234,1.1724559651043998e-06,1.0153221524206884,1.009551849799304,0.7076838429602257,2.614258750977722,1.0919785391079735,0.5371231916287823,0.19510085183855627,0.6547956803312163,1.251297376333758,0.48647908569624243,0.21266616542660985,0.8268014779224253
135,0.0,0.0,0.0,0.9326354635565532,0.8846532843931083,0.6404151150986656,3.1861301397438733,1.9773383896893861,1.0671025104358989,0.9774791661264444,0.6180765742263259,1.455287232606842,0.8845383133283996,0.7315885872564973,0.757302136743923
136,0.054763921351591235,-0.0006499830130253965,5.273470398746774e-05,1.0320719007273635,0.8960299890533612,0.7025432823265251,2.057796088700155,0.7187506979931153,0.3419071936809841,0.19535219580193405,0.6778444222523095,1.0326997119773946,0.2799312202279241,0.14929735106279698,0.826699535234031
137,0.0020739252701546854,3.316624958565103e-06,-0.0004803194370941428,0.87505502303838,0.839139062542114,0.6923714636369839,3.4350585573882224,2.6889077370640098,0.7630974639521872,0.32689159998529493,0.675384900321601,1.4716102066387726,0.713093090143775,0.3477143356765045,0.8607950799802379
138,0.0,0.0,0.0,0.9477027083804235,0.8275535647205872,0.6460264354503983,1.679072851454798,0.8521065296671955,0.1623282206233027,0.07145112619741624,0.6547956803312163,0.8285851514550495,0.1690060231543321,0.0684893890562435,0.8959315319382871
139,0.0,0.0,0.0,0.9448125461723402,0.8398041860200819,0.7020077695145583,1.9394042159090326,1.0366885918176492,0.3626230982471997,0.2009230626777848,0.6468212168108125,0.958850346292951,0.353821874956326,0.1351193645164053,0.848637451535968
140,0.07412036089827004,0.008114045455253606,0.0037182634559667777,0.2700312213237379,0.24098744905481256,0.1543173134741119,0.9474837286345535,0.8290830099847457,0.3770347587439381,0.35574885700159536,0.6380535849069913,0.4210864890111212,0.22611053522260582,0.1684191539733162,0.9728690583491995
141,0.0,0.0,0.0,0.8280526102039903,0.7932857952314025,0.5141835156055425,1.0553901698230586,0.6436275249418322,0.08987922756658628,0.03771139991249172,0.6528756675646988,0.4515090466095711,0.08512833427399276,0.038035644873172035,0.695803144683446
142,0.700476261146301,0.12626810896906293,-0.19902218899225071,0.5379227524804734,0.4149032968390462,0.3707816636104389,1.514094207650429,1.4657189573152984,0.8911322625177066,0.5533595910467474,0.6180765742263259,1.040594984520804,0.7485013672877673,0.4640638578579514,0.8041599082645332
143,2.048097227127793,-0.8193789610254221,-0.2637013564526718,1.6222099849374105,1.5778785279706384,0.8211308105085935,0.45189096930649036,0.8153588584407919,3.063853448617055,2.080213382747973,0.5370774965580548,2.338097136217635,2.6758770591441357,1.510788831364261,0.9375663656994933
144,0.7538729269862391,-0.11381587389098495,-0.014342523696675697,1.683596501216909,1.6505452616645089,0.9317830061203201,0.24564493736211593,0.49090091820119786,2.5808038457933713,,0.5947193981915972,2.242221943266955,2.239747808934979,inf,0.8964064497512129
145,0.4422929651801158,-0.04329860263860223,-0.008302243299077946,1.6118811920944287,1.6017274573431408,0.8930920306879949,0.19605202809539868,0.3865227190226948,5.3613988084318605,,0.6180765742263259,2.3506088842355766,3.8979007658622966,inf,0.8818183640901253
146,0.007950046868926294,-0.00047700281213557767,0.0,1.6444858225757866,1.610142172292639,0.9115923703629177,0.2487627405558901,0.504146672961781,2.879597878143132,,0.62595550513784,2.8208456952475545,2.193128500114216,inf,0.8873034750586163
147,0.09358357668571173,-0.012123583698287093,-0.0006661717820935098,0.7094039634594137,0.7028855808183841,0.4037084087307261,0.2797731782362887,0.4872130675954382,2.381534031988939,1.2678749444498214,0.6180765742263259,2.0476845100666443,2.0867878432462357,1.5759991094941177,0.9247240404091169
148,0.29895503270743584,-0.026905952943669226,0.0,1.6359786761425188,1.59523671107961,0.9053028624152579,0.3289652662287999,0.5606662273581439,2.6159451936775207,,0.5783247308855777,2.495226382194855,2.113282705058751,inf,0.9232612492515894
149,0.07995608054797759,-0.0055845360304493975,-0.006408876051747241,1.5861769970837627,1.5737109054891851,0.9239779286010291,0.46350130654070887,0.7181752027699959,3.0509298747410494,,0.6068309995095971,1.9348603128687285,3.0081163327537124,inf,0.9309269914897951
150,0.0,0.0,0.0,1.562347003681557,1.5338091180355866,0.9046228911329103,0.624315209260332,0.8810176259062946,,,0.6309483474627791,2.5257286443082556,inf,,0.9232557077071682
151,0.2916958766814268,-0.05153293821371874,0.0,0.44926784212436893,0.37707048731556214,0.46463753875387903,0.922228685666866,1.3077731759736602,2.515796822229089,,0.5713653840954815,1.81012712658624,2.5106998882155853,inf,0.9414453081344475
152,0.0,0.0,0.0,1.5234644319743815,1.5171364857015555,0.8981491805768528,0.8817687083794794,1.2816322821693409,2.7692498209742666,,0.62595550513784,2.2380465718564744,2.7759276235052956,inf,0.9055827196279715
153,0.12355167164693664,-0.016851119462811873,-0.019390704220289542,0.4302804089984229,0.3531593135020796,0.2705327901166931,0.6943841927170898,1.0064307142781526,1.2097421963971293,1.274580167423741,0.6425374456860184,1.2678202063166812,1.0082311515655091,1.2371955275885878,0.962576218142738
154,0.0481611438346089,-0.01555165374228999,-5.5480434148749615e-05,0.6450105559638607,0.5682988774700483,0.12826909946891832,0.6452790336411778,0.9247762821389095,1.2763291249541133,2.7129584707387897,0.6233814453054027,1.1301373560759669,1.1775719544355243,1.6171738106462594,0.6511328768031477
155,0.051567027901764435,-0.011688526324399939,0.0,0.7107168508476062,0.7000630482543402,0.258628813349537,0.702446195300754,0.8730452954802554,1.7168947293163515,1.7884093823427731,0.6425374456860184,1.4986421942863346,1.643529824173844,1.8751522637868734,0.6650041681433606
156,0.9777677182520546,0.0502349375675466,-0.24226141620505703,0.27979550255740415,0.23835395931661882,0.2262783185039067,1.9086769840887137,1.9208001698445967,1.3250470140630148,1.1933047857338905,0.6447042257417027,1.093027910374209,1.1345527869769096,1.0871332244228997,0.8737604606913412
157,1.2864086760200988,-0.287246201731548,-0.29136164132203135,0.6586207145380504,0.6201865280211454,0.4456275535921662,0.48784834374412356,0.54884563915186,1.5183480470853672,1.9177904843511029,0.6425374456860184,1.6071627248595992,1.314286988607427,1.5965239274909102,0.9726955313945472
158,0.27498673786172845,-0.0191243866002205,-0.015707266862265104,1.4431276853954658,1.4033379884790111,0.8829338683141091,1.4991173807901075,1.7700488810977113,2.7998194390301703,,0.6584896970785714,2.2074769538005707,2.7033130053259686,inf,0.9102931265455163
159,0.0,0.0,0.0,1.495434471821072,1.4515723099574642,0.9280926511793172,2.3333035925784755,1.6447266553166853,2.0761026404143212,1.6060878255488185,0.6699045166045591,2.0149030205422647,1.900458886151396,1.795109556113337,0.9260707593456482
160,0.0,0.0,0.0,1.5372012782561655,1.4833023235254554,0.9373624330952923,3.611941927236411,2.980588023222411,2.9670755643041864,,0.648888643467878,2.0402208285265546,2.0574626349610607,1.6127879993193823,0.9342442190665418
161,0.002881776716476582,-0.00032660136120067927,0.0,1.625673718370769,1.605109459410972,0.9482905961892305,3.1682915195223464,7.426682412613591,3.5202727506202947,,0.6180765742263259,2.1801708227703918,3.5269505531513237,inf,0.8869479922264439
162,0.0,0.0,0.0,1.6062161369975725,1.56555975606499,0.9556964605552947,3.7574355034465423,4.219726548730095,3.660222744864132,,0.6233814453054027,2.0402208285265546,3.666900547395161,inf,0.925664191294438
163,0.0,0.0,0.0,1.4401683707538466,1.4132523818432923,0.8260851565896012,3.766012936324939,8.55825195882564,3.0170859848788476,,0.6584896970785714,1.9902104079518934,2.3306166068499317,inf,0.918018038186427
164,1.1419297791512895,0.055957939583825556,-0.19715101791735734,0.8332861833216731,0.7192785891454877,0.6756122094667044,1.9034006582932212,1.7381419202411479,1.106812240140487,0.7850543134288521,0.663668482632973,1.4686619915553194,0.8722020359825106,0.4747713842443174,0.7831506540160513
165,3.9085023854801406,-1.3637829860981594,-0.14835410005389318,1.2596052455543585,1.26506417484598,0.6454706880602684,1.0848509788444982,1.5334425728996188,1.9792804921061598,,0.6125606311107803,2.1961251818929184,1.9116424006613228,6.606650186198215,0.905703758161947
166,2.601740345120881,-0.8298561574722567,-0.2715472552955828,1.1345352493941452,1.100042675713794,0.7050695128117448,1.3762948119656975,1.9886116116093917,3.570636116894285,,0.6403206450210053,2.3579803562156134,2.834976494674597,inf,0.9510355008988869
167,0.045596824730886214,0.0316444699130251,0.02678111021257326,0.3688815704239162,0.21043939315943666,0.2893173312380992,1.5206050242936082,1.798918680478019,0.1702856140732604,0.273412131549395,0.6097226960127671,0.22319910841303237,0.0809436263704031,0.05408897584354812,0.8526669710557537
168,0.010185578333818012,0.009277702103573702,0.005165466306951992,0.16921395908888537,0.11922508081346336,0.0870209749302515,0.48202747131985346,0.4576139217955,0.0759381984207057,0.1499610590501143,0.6380535849069913,0.10177436101133101,0.04099320483922195,0.03554868954956207,0.6528840408879828
169,0.7132258843345299,-0.06656774920455613,0.0,1.317806083653612,1.2453770511494413,0.7741897153996514,0.5861163294876349,0.5636736521082601,,,0.6425374456860184,2.7770430725891617,inf,,0.9328822891588484
170,0.20777220245280476,-0.022822714338056813,-0.0007248019399277249,1.323806242545954,1.3130626840453279,0.7848398270941052,0.6970730765243484,0.6793966203161113,3.490155544896958,,0.6652988471865258,2.2795198200630495,2.842047034740488,inf,0.9489545225204565
171,0.024794263615378863,0.02291863503447711,0.00010848661080369026,0.23489795569407362,0.15513449161841858,0.1341243367472202,0.78149247471622,0.6735701307076424,0.042624054313097785,0.012047838646140542,0.6425374456860184,0.08947501531649173,0.035471114149607755,0.01851375298026711,0.7820242093612237
172,0.4400472626149668,-0.0366706052179139,0.0,0.6797591490895795,0.6259663255963847,0.7015575540650199,0.2106349852415105,0.24846432979837746,2.9742294016608053,,0.6619902821573977,2.726214171729881,2.9809072041918343,inf,0.9426561222295905
173,0.5249356478093191,0.0007746916946753113,-0.015935986633195676,0.3225158348214933,0.29229274531355287,0.2319378036948742,0.40996700824370796,0.395500757681317,0.5190166993374421,0.6207475718043913,0.6284777104787076,0.557897820043253,0.4240283306371159,0.5125475099532105,0.7941334758391586
174,0.6461698906318982,-0.049827714038058135,-0.09679984653075707,0.8840758988323355,0.8652159829192103,0.7029500972864515,1.8058351967096797,0.9440131777292131,0.8631601937445894,0.4986067369928205,0.663668482632973,1.2030473068049932,0.7015076565684063,0.3513586103114995,0.9455243553965977
175,0.6807392309899003,-0.013420796468679053,-0.16549293494540035,0.5709229592356019,0.4806208260008206,0.5121771362491083,1.6953413874629957,1.6268236366117494,1.0929902434109944,1.257266138434797,0.6309483474627791,1.0878042399515175,0.879897179106453,0.6734692532046946,0.9314623298768895
176,0.14229402180167222,-0.009938374962448288,-0.00618828084174123,1.61381061012478,1.58426101104166,0.884832065025296,0.8908374199235709,1.3524863636901112,2.0899963749312334,1.520386703501717,0.5883313578629602,2.2504144058503384,2.0318674519513524,1.4281896050053067,0.8351025236462281
177,0.9189693218538396,-0.10506206487891195,-0.10532322759508278,0.6632154098000554,0.5790453575091142,0.6086162169499938,0.840885663784757,0.9381196204548037,1.8687783225828352,1.576853564710792,0.6180765742263259,1.496506131279956,1.6065639200688797,1.0510245152790387,0.94643512178195
178,0.3212547219601366,-0.027631829903704483,-0.0023519441459082654,1.487723655726549,1.4625356861453198,0.8718698073333557,0.4635970789754205,0.811552666618689,3.195470261452372,,0.585052858160615,2.5049733119383144,2.8000330427605187,inf,0.8960838039387761
179,0.07508854739502023,-0.0057567886336182175,0.0,1.6345286101133265,1.613050510774508,0.9134203585975721,0.331204773632481,0.565249628633636,,,0.6403206450210053,2.612285579117831,inf,,0.8586798583374277
180,0.4389326678067626,-0.05058923110362036,-0.009398233496637197,1.6631171152048907,1.60617353240079,0.9438380198030764,0.3650009037855035,0.5279071046144828,2.846307308076617,,0.6333676938231112,2.160989084754124,2.8233289010247584,inf,0.8528727922088895
181,2.186466929109499,-0.3722319468344847,-0.48446697453678217,0.49937525216975315,0.43449822286850664,0.28639834404338516,0.49010000663231446,0.598635939313344,1.9318612481014426,2.290659564420817,0.5883313578629602,1.4448184129013524,1.7142174116108313,1.263812804681953,0.9044064068393921
182,1.5325500615451688,0.24282375346715535,0.18553638870105682,0.38763381672966285,0.23025187079707726,0.3518459160062124,0.7849768618880932,0.9252448627027331,0.6372491515853294,0.5529613566802476,0.5883313578629602,1.464279926902208,0.43195156392255807,0.34327447876805944,0.8815707203020595
183,0.5044991341819345,-0.10054529053401612,-0.050779766995473374,0.21264162803939587,0.17741121844022928,0.1628035163589744,1.438933018503882,0.8553284808941832,0.6509927410628658,0.4781514596563951,0.62595550513784,0.7131004858741541,0.5070769817457994,0.32811308383264604,0.8111742854964321
184,0.0981374473247136,-0.01019788920208582,-0.008448225789609765,0.7381249220592108,0.664805834651118,0.6153115399171694,2.1389366642319736,1.7569440765924078,1.7740037924785583,2.190155195512726,0.6403206450210053,1.722917720270649,1.5292851087136188,1.3596563451546202,0.9530688008011333
185,0.14161468572951946,-0.019826056002132726,0.0,1.1034791364476122,1.0479136136765421,0.7176192317639978,1.8764907823947117,2.3321312226209034,2.3078597952842492,,0.6447042257417027,2.040306302264801,2.2805207125370246,inf,0.954052930477192
186,0.07393907351439469,-0.011337324605540518,0.0,0.7520674886063993,0.7419375396651737,0.36902523737057497,1.9240070141329424,2.6006703085065093,1.724622513352693,2.076091454794554,0.6403206450210053,1.8963795183581575,1.7313003158837221,2.082791628565118,0.7616263654885795
187,0.3290116620971895,-0.0066264980897623865,-0.04688087910976352,0.6633365164500385,0.6164334878322335,0.5874415684717906,2.7454806345156695,2.012562360032876,1.640261896318919,1.7023097209610467,0.6668815377411301,1.6613746886654932,1.3379194764548583,1.61033037121712,0.7161608933119371
188,0.0,0.0,0.0,1.3369270237897133,1.323308155200868,0.8770611279015106,2.9920541876749605,2.2205204953199456,3.1536615198845985,,0.6284777104787076,1.8536348729461425,2.7548742143074634,inf,0.923304386831782
189,0.0,0.0,0.0,0.9222274274841171,0.9132114868869361,0.7025855604321031,2.858966715575592,2.35110159344509,1.8937810836203666,1.7884093823427731,0.6447042257417027,2.0149030205422647,1.7463082063241377,1.9492602359405953,0.929332450652121
190,0.0,0.0,0.0,1.0253927666570217,1.0175776151451934,0.6607003478254022,3.1572790192551596,3.7777341842003587,2.4815677485224854,,0.648888643467878,2.120263536200091,2.488245551053515,inf,0.9478700237982643
191,0.0,0.0,0.0,1.1343842466554253,1.1193090988915622,0.7692087131814558,2.87920968345215,2.7206237782067895,1.6453197243218671,1.6060878255488185,0.6584896970785714,1.7525387560747736,1.3896332623854053,1.182005083226928,0.9465175758799191
192,0.0,0.0,0.0,1.5691293155433688,1.5276729659112327,0.9392756985292728,3.1131246493171956,3.247222527318686,2.3239388043189027,,0.6233814453054027,1.9902104079518934,2.3306166068499317,inf,0.9354906765772988
193,0.3121242634334504,-0.03496632632296502,-0.023346666946236487,0.6302996521147198,0.6064951403242439,0.5149470464329247,3.050452375928219,3.53986415127773,1.6278512184976877,1.4705910681619605,0.6584896970785714,1.5318597777887257,1.4056035876412896,1.3934477684384359,0.9337746265400096
194,0.0,0.0,0.0,1.7296080274817949,1.6788393317912043,0.9128181692575609,1.496626586672135,2.8221451919173983,,,0.581717464821069,2.9311937524164198,inf,,0.8922009914484116
195,0.0,0.0,0.0,1.7563818195706804,1.7123267845297496,0.913549214515918,1.6441012916703224,2.962821122360978,,,0.6425374456860184,2.6127400212978853,inf,,0.8636323897635921
196,0.552069088051255,0.049026061188920333,-0.07907959148489813,0.5814812319692471,0.5568637162699275,0.451260072191386,1.2630091030290986,1.1236616396080403,1.7203145480044528,2.4108148858974587,0.6602640781246099,1.520054351299415,1.3289835431037726,1.0797922293413398,0.9449237408142546
197,0.3721857425396407,-0.030262911732112242,-0.01688061565624225,1.5117960556373533,1.4778645596389883,0.931182905572236,1.0098981778057479,1.1277725470702977,2.93586776402988,,0.6790044388599258,2.3059239942595604,2.325133962680659,inf,0.9366948317942098
198,0.39139816912981196,-0.04793297500763008,-0.010776750361841714,1.494361872900296,1.4405500718150228,0.9096924894615204,1.0030967032476876,1.356243774372996,2.4631922769581007,,0.6509067234006624,2.064531035610754,2.3573920960624397,inf,0.9210801887353715
199,0.32258240285331613,-0.03717065041392755,-0.002614512604648104,1.5132008038936076,1.4656313100900886,0.9323337140023609,0.8923286199932653,1.2469485832623244,2.484514223071932,,0.5947193981915972,2.2405497020745933,1.9945906701129639,inf,0.9117291071200123
200,0.8656161444823565,-0.18335854182365607,-0.02965703468560252,0.7939438956342286,0.6751431860455526,0.4719520699886229,0.9062941375552359,1.4575618896017517,1.4124141469244345,1.4867216298181498,0.6068309995095971,1.656645995420881,1.2627427115457763,1.2116198396270348,0.903711629538391
201,1.2275480096141616,-0.24118684731667894,-0.0478148031928331,0.29333321208856106,0.2534683504448894,0.30432399050548986,0.534710406384283,0.9676425955733324,2.40910418005319,1.5111244207405374,0.6207552362147116,1.780226233414382,1.8685781717403576,1.8894636310238881,0.6725508461598204
202,0.7231012053341839,-0.06939215195864401,-0.059296505299190824,0.3347837836896255,0.25315178988847514,0.20210993588923876,0.5199914851049549,0.8477845248740454,1.4288862624094265,1.5257559719240332,0.6284777104787076,1.3850950805444084,1.1715224167975922,1.4807168101633204,0.9458867394129918
203,1.9407647976040185,-0.25623304271455893,-0.5038587788031608,0.47025060352967,0.38856066558306207,0.5828161783853222,0.7848798265638108,0.904210893301311,1.2077602360382163,1.7347175405966402,0.6380535849069913,1.6459866429589671,0.9428001373164253,0.857059353055645,0.9359732153165972
204,4.367163410425186,-1.5969616474882855,-0.8840759477748996,0.6689763230275055,0.5871376968103369,0.6848627426460852,1.1040344325938554,1.7657068368954452,2.5111767853463203,3.5196603508455975,0.5202020156036558,4.264737548150782,2.3806534663638645,3.152736022363656,0.9495787514230359
205,1.9567948102890573,-0.32680463784046193,-0.12523233231595607,1.6313830901292745,1.5922736101559996,0.9025542400896638,0.6810078295556877,1.1532639427467295,2.728355485874532,,0.5604843169999094,3.2172105455491393,2.3882360283861996,3.404223102578692,0.9332960447512101
206,1.3984217069433307,-0.41124248333565894,-0.10290849606450542,1.6948422821993556,1.656179386687021,0.9404892778060083,0.6746687773204588,1.1863747987747648,2.3324073335412567,,0.581717464821069,2.162726536928652,2.212214151355744,5.086714111972693,0.932520582468255
207,0.06830670733714381,0.0448394643986961,0.011011766187066507,0.19509921375953443,0.07366470737799884,0.11458715404194933,0.6257044289364019,0.9691110075519302,0.08765127701626621,0.14082795062787193,0.6380535849069913,0.08800581066888216,0.04074970305519164,0.03151757355326188,0.878277705930314
208,0.20644092883797427,-0.032000102811972846,-0.0089325354597848,0.16744580799690306,0.14854312087269048,0.2464853841674836,1.2358395062570389,1.304275151807004,1.90680424913554,1.9519535105738666,0.6468212168108125,1.5414677859948331,1.692803724351341,1.5295037058185557,0.7032698272225235
209,0.32630487073412695,-0.03959171877028037,-0.0006525486202619519,1.099499958115811,1.0970643470876764,0.7833071615892558,1.0000296299615394,1.1789945283571086,2.5754472404596545,,0.6425374456860184,2.2658246688284764,2.403587785887969,inf,0.9081159011251324
210,0.2911111840649691,0.07411967230602814,0.02228676211277006,0.7746999779654179,0.6239240504579759,0.5463265022384439,1.9448227321739144,1.2107316535769055,0.3533063652942144,0.4010988069061595,0.6619902821573977,0.6957282865276453,0.27287965556987825,0.1843197467828563,0.9404666301679394
211,0.0,0.0,0.0,1.2134863402911167,1.1863113820550766,0.8269698986252862,3.440137669644385,3.879410271488447,1.6307916237589573,,0.6684167106117298,1.9902104079518934,1.6374694262899865,2.082791628565118,0.9435525201901118
212,0.12000123296648879,-0.012558106751176563,-0.0002420247652489083,1.2981604163243234,1.2799346540622054,0.7933308339959455,4.6009496892755335,14.904127728911753,1.4848214853123376,1.9406471012805975,0.6652988471865258,2.2716248999124695,1.3648729633345271,2.0739735995600013,0.812821378397941
213,0.02969222401805702,1.0807347716130025e-06,-0.0036631216969986455,1.2452132925336101,1.2166203826374302,0.8068379668804273,4.154921720472461,5.386055634274143,2.127442768330488,1.4586038370797496,0.684994737851132,2.111046881095167,2.129480191305015,1.4699443904068157,0.944693675089661
214,1.0388141676022877,-0.22349274991175233,-0.11130512663509654,0.5741721585923727,0.5161383558666717,0.46708687325607745,2.5055421439841967,1.3961975961001403,0.7990875950755393,0.32082992656813314,0.6380535849069913,1.5022790148348948,0.73192079862622,0.29250152598393114,0.8148027311900272
215,1.7829156843638811,-0.2256058768036866,-0.11717102856452344,0.29685989721468664,0.15214814728239168,0.3290426964824341,0.5186063739683258,0.5357477325394575,0.7609809625184738,0.7301283780275345,0.6566669596287297,1.9983737185910542,0.5274938242520449,0.40992007858354806,0.9569260249599894
216,2.047348772798367,-0.771041987597699,-0.2106925530223375,1.5724821645585605,1.558153900049254,0.8606697846266663,0.4232550038402286,0.5165920538149449,2.702864617991117,3.0988469657906337,0.6038851895711802,2.260270879053855,2.4294893752348563,3.0042326283193836,0.899165167493108
217,1.8404093263185617,-0.22067167276063948,-0.21869921445230373,0.3254829957685335,0.2634130877387753,0.4887752172304416,0.2917985977613171,0.30759846040024175,1.629716807896036,1.859552599322358,0.663668482632973,1.5841492715418326,1.3294911132936864,1.3938973978476232,0.9549340385013773
218,0.40687929878280554,-0.04633764421188516,-0.03358284982321248,0.13766330170126675,0.051617986128606665,0.18436798424651193,0.1158857354420767,0.10987278952702963,1.2079268079060688,1.821791304726221,0.6566669596287297,1.7645983611656824,1.008168154656219,1.0449569213078433,0.9638066605408688
219,1.8607058147253057,-0.09875111190178484,-0.02529594241323553,0.8365844829383429,0.7990602842022372,0.8324974761982595,0.06732215481247147,0.0845082193696429,3.522352950641011,,0.6403206450210053,4.382026634673881,2.6817328927848365,inf,0.8892029100125416
220,1.0378431864253195,-0.026132784040921054,-0.00500251155183853,0.40768188553235435,0.38399828498785576,0.444735443082403,0.0603893438940328,0.07912499085231828,2.851048798003518,,0.6357360191111145,4.390955265418183,2.811917064503253,inf,0.913196410534156
221,0.9500256791219742,0.06351539327063271,-0.07149714482888314,0.5917598466220986,0.47394816500925413,0.4078460924282435,0.3615765685755623,0.2455799110746954,0.8596088285959753,0.7681570857707175,0.676637947632344,0.9520906360053425,0.6769265953267807,0.4998947058220089,0.9439269146521081
222,2.0283803030497274,-0.27886615784263213,-0.14487860400364472,0.4436422811594401,0.41324138764974455,0.5306407049746352,0.7596851618422981,0.5285845320302679,0.43004478319843964,0.26907952650085515,0.6125606311107803,2.232748133405266,0.33554012532178534,0.15453722795731306,0.9665169723267087
223,2.1826521220890878,-0.3749969552162479,-0.17988764260418855,0.21919314046826835,0.19180873951598584,0.7211211947430431,0.3207097089051884,0.3447893325196067,1.5129296503211218,1.2196396607022681,0.6125606311107803,3.132188574475996,1.3370918908194465,1.1699634882231875,0.9708393157844218
224,0.000881060508334054,5.0841118544518206e-05,5.151095015304874e-05,0.29997797586387004,0.20979365571129371,0.14369020149921538,0.20904578920116168,0.14808761644951102,0.013834991194331198,0.007958069140652451,0.6284777104787076,0.0769530411681281,0.010616067082245948,0.007034654458604004,0.9050078342089023
225,0.2404697035362944,-0.02169314329856683,-0.012640132714932896,0.744076963818376,0.6964726285490176,0.6025280709137323,2.4187256262493135,0.565367772691606,1.0145145133374822,0.2291413822366195,0.6652988471865258,1.3645328693383778,0.8380058028216103,0.3183406380868298,0.8723192761307004
226,0.5623441211372703,0.04834841949676519,-0.032191751629980614,0.9704449558177504,0.9396383889138977,0.6387731841335031,2.60953406757424,1.8740140214376253,0.5943154764396479,0.5723101614716986,0.6528756675646988,1.0370155904514593,0.49504984286498355,0.303854931697382,0.8482012229875473
227,0.10025733104879503,-0.003326581548449066,0.0008203972331975035,0.5413822376813976,0.42575666437191395,0.42321656840625466,1.8687914511448152,1.3532386839848018,0.1876181578475462,0.19041695510182394,0.6468212168108125,0.5375689487415016,0.16387925685783022,0.10027452986608391,0.9234776134468932
228,0.8444083471157775,-0.09111990190894828,-0.10552936613400055,1.1024415863812624,1.0422685585624754,0.7871738237986263,3.073598738027116,2.204814052496672,1.5657618043922408,1.4817022568604152,0.62595550513784,1.6708996901233049,1.3133432833829304,0.9790733263094614,0.8679162027779755
229,1.654506742899002,-0.6356045843257061,-0.19032715206188655,0.7187225395984095,0.6471569630593682,0.6416653224517384,1.7511798526266926,1.4694012456112335,1.3901175774629497,1.2335874415469978,0.6509067234006624,1.8488237698497327,1.1764517505112337,0.8923185301166352,0.9647594417587055
230,2.3453439191105714,-0.24383630203973064,-0.006333715998730323,0.928137861625887,0.8987218917296083,0.7870184512888297,1.7850500370420523,1.683742956984671,3.9114801914646327,,0.62595550513784,4.2313104172952585,3.369592042246824,inf,0.961444310157354
231,,0.0,0.0,1.1246067043023045,1.107971683103645,0.7656554038016944,2.0539762135691557,2.3667068985377524,,,0.6468212168108125,inf,,,0.9352160040590937
232,5.128732233122608,-0.11967041877286086,0.0,1.2861393498976903,1.2841909306526016,0.8232957106689295,2.125085342305318,2.2662481860482346,,,0.6068309995095971,8.316522495954086,inf,,0.9514011824744135
233,3.6566101935451507,-0.024377401290301005,0.0,1.1008451117532114,1.0540743399997856,0.7910562017398541,2.0695227948969,2.0506232495810885,,,0.6468212168108125,8.63497622707262,inf,,0.9463337339395763
234,1.9221855424272618,-0.019221855424272617,0.0,0.8562477383286118,0.8099089510862427,0.7615055986947667,1.8412357408175366,1.5713075382206627,,,0.62595550513784,6.15006957728462,inf,,0.9426375029757447
235,5.0106352940962555,-0.016702117646987518,0.0,1.118389697236352,1.0982485379804667,0.8155665976291313,1.7943474822438084,1.5477706588253632,,,0.6584896970785714,10.714417768752456,inf,,0.9455556417265852
236,,0.0,0.0,1.1518991980540232,1.074871294438345,0.8098411820860014,1.221921525560823,1.3957935392889145,,,0.6380535849069913,inf,,,0.9100191592854204
237,2.851237544013054,-0.17107425264078324,0.0,0.9288658865759035,0.8621431130664736,0.7874241033995989,1.8915242702891906,2.458262250908101,,,0.6447042257417027,4.821393294457727,inf,,0.9564195755922403
238,1.9769214310771783,-0.12520502396822128,0.0,0.7846592129102564,0.6655871962224506,0.6598975066758853,1.8227648563790095,1.1658794208221563,,,0.6333676938231112,4.243618264969855,inf,,0.9648096835019748
239,1.594072393396328,-0.4208101474566926,-0.009589398760315953,0.9337886514534927,0.8870683084181035,0.6782517968802285,1.5912004271570452,1.1273618548522182,6.100858915829707,,0.6727386042041725,2.7350788734901292,5.839272731766057,inf,0.9634473637982954
240,1.5022380162935087,-0.43158010431046717,-0.045597288974658215,1.488362672459911,1.4328950387431434,0.8930143325830859,1.6038991174109567,1.0363720332295263,2.9588234106734035,,0.6403206450210053,2.2334737100113404,2.8899570782302595,4.897839799950911,0.9547090262657709
241,1.2973028048226298,-0.1936534250446289,-0.09175319201634963,1.0629812475214417,1.0458818374844192,0.7521008706979139,1.3957747983979736,0.8289937876072193,2.8997723634942,,0.6447042257417027,2.292524757190544,2.3148701238196585,inf,0.9467587577869663
242,0.8684466840112538,-0.06100069449076648,-0.07946941519642972,1.116964179409669,1.084021401135503,0.7506940905141759,1.2148844185188066,0.676713593877021,2.0933830263515425,,0.6566669596287297,2.0144864406570484,1.884291338021077,3.6801457741451817,0.950779678879398
243,1.8359224324683363,-0.6028365589223874,-0.21294322499678542,0.7958930294117432,0.7570311557868958,0.6359180270550184,0.659705534348342,0.495149661706607,2.002085232554283,2.905775420571567,0.6619902821573977,2.020418201230375,1.7455823068210552,2.459780890968887,0.9287327860382494
244,1.0106648878911986,-0.0752571126925316,-0.09227151167251002,0.9081867607876594,0.8365036025618985,0.6396532977827001,0.7976084385268406,0.5483006753910219,1.6128423299392471,1.4222012786113012,0.6619902821573977,1.3588089041850302,1.3609765531356008,1.0011581570471513,0.9548260563319554
245,1.2096698493716027,-0.26106781096736553,-0.10588945425079725,0.7329187490349628,0.7155888817754534,0.4463022773336369,1.1582114599929383,1.0661225330541402,1.712289103430457,2.238596140034458,0.6309483474627791,1.5544237712130125,1.4839840655105565,2.0009699262383407,0.9404205994296276
246,1.159805870999186,-0.139233216102649,-0.1743950027296434,0.8921530229407407,0.8630495970219227,0.5959765337396894,0.8649720753435917,0.967979314057624,2.5772826806001397,6.225747842779959,0.6333676938231112,1.8980092690707653,2.232999277522927,2.6418274144890743,0.956995561726144
247,0.6981687426406638,-0.1377183897788689,-0.09545735569289371,0.3899056461795566,0.3371504348837001,0.31456698200408467,1.3918931116001516,1.10305287664289,0.4059719899580072,0.30798402683818465,0.6284777104787076,0.8568694481577739,0.2939137128392452,0.18507160336480186,0.7706418758764304
248,2.0659983147467447,-0.6141561522657156,-0.046270861674421765,0.6218082024829037,0.5803968010331676,0.47181668083262385,1.909332455769162,1.672334892709313,2.9955785970999047,5.610070923896007,0.663668482632973,2.7885374520148964,2.658022157674232,4.574710978503383,0.7267185768143893
249,2.1464022811138372,0.5054323126515867,-0.2660187081322045,0.4243602536946263,0.3790018923266762,0.33920189652170696,1.0273658231651481,0.6270794284065311,2.218628849353173,1.848029735430473,0.6425374456860184,1.4442059997388839,1.5577679347385833,0.829493674211824,0.9531361499738497
250,1.9511502803417862,-0.2415943997375074,-0.3708710987914522,0.40811423889019377,0.3726910791387747,0.5724818572637536,1.335890935936545,1.0758955061600177,1.7015138686895996,2.0241394390345135,0.62595550513784,1.8633986963702074,1.4188311662279047,1.5771159839519173,0.8320498419042645
251,2.2456639277366652,-0.3719298725897008,-0.3141613508340343,0.7807094154915464,0.7393839422908564,0.6550256691404439,0.8992608439896995,0.7124581963432899,2.7482176480777687,2.5544897807670672,0.6333676938231112,2.3779074774616653,2.5179121422060087,2.1050260823804745,0.9285133890292085
252,1.0758223049997642,0.18854605820481274,0.009787858841486918,0.6091669329269639,0.5124006160976013,0.47836451277166087,1.224990597028985,0.6633678517096369,1.250753317358533,0.9150041051591448,0.6309483474627791,1.1219150342379456,0.6856351208964336,0.4124314093244565,0.7686303512235387
253,1.9509781480251,-0.3516842936393876,-0.35622714079847495,0.9718742368796197,0.9365811260894039,0.7522724635358893,1.697368529266167,1.51292353068665,2.2062138893051384,2.9171548882523894,0.6652988471865258,2.1436838104081897,1.8039663726631077,2.4763081445327684,0.8307382216262112
254,0.9804497428911089,-0.15113322236182714,-0.1600468021771132,0.3224982526351572,0.287939723761858,0.28952241590620004,1.2779401530565606,1.1992939533725504,2.4094189007408042,,0.6403206450210053,1.5201051578534714,1.7422002249420654,2.8877641944890837,0.9534275109696622
255,0.24467399609184856,-0.005742401973019798,0.012147260797206294,0.9325033042898578,0.9008884983843238,0.6536632745321272,2.079550864039787,1.423628399388683,0.937688658240739,1.556183878072385,0.6403206450210053,0.9579521990233505,0.5505349062416237,0.444380524357838,0.8334466713943324
256,0.9084912535314582,-0.17887709110217212,-0.15543737436126098,0.5545873567331129,0.4698916400274908,0.42244875494976275,1.8087341990274433,1.5106088621013454,2.052947712069129,3.7502974524524464,0.6684167106117298,1.4800679443159221,1.7977325592023083,2.9881008892915117,0.7700219848862827
257,1.8773758606550035,-0.4580175329591861,-0.3087912640212131,0.5861642401726423,0.5740095889449806,0.3651126111076092,1.4094218674539836,1.491523270103948,2.7134207370873553,,0.6097226960127671,2.0999163948692217,2.411965856695313,5.797070409079758,0.9687780687211828
258,2.4605525894525977,-0.46534909736373054,-0.6085966481075173,0.6401020206454876,0.6055288860440944,0.6769894390464413,1.844465331060796,1.5003216028432864,2.1312114741688237,3.0227702394152773,0.6447042257417027,2.308379626702382,1.8846809084588765,2.258677356549883,0.7093388666417063
259,1.121858866761813,-0.05346523966540073,0.025667872055716745,0.35536628107267804,0.2482995702166994,0.534739520758933,0.35265632308304323,0.4012026344899487,0.4219480612981034,0.5191706258043037,0.5883313578629602,1.1071486196903961,0.29486870189473086,0.27546153461054285,0.9675065418612403
260,1.0920434569337472,0.02706875443921919,-0.08728057165058611,0.3015857801954124,0.28108794242879814,0.565988970068156,0.3306688770303724,0.3799198477226216,0.46951232457220515,0.48151210395454436,0.6097226960127671,1.1228025274693272,0.3567773977065593,0.2904832859704081,0.9785881875660958
261,1.3831589318767035,-0.11413774917786201,-0.2848629622160652,0.6069328473018116,0.5873648704169859,0.6403743290089957,0.2071948915988762,0.2583548221843397,1.148280848376022,1.5170870694517908,0.648888643467878,1.5121095684735384,0.9257862770451073,0.9679791256946207,0.9489744281085347
262,0.13413480450226004,0.03766752011263985,-0.01026956436556234,0.9169113897148906,0.8797085784783544,0.6610305669970926,1.01201768111428,0.637629206870058,0.4735943366121493,0.4574310850221354,0.6403206450210053,0.7688530098042334,0.34270943803950454,0.2904548737413889,0.9535068043869712
263,0.2646126923995806,-0.042643744833075564,-0.004485521217899451,1.289164373272282,1.274127455136176,0.8422463547297748,1.822966255264358,1.492864342439424,0.839060983950639,1.1260175193921982,0.6509067234006624,1.370464757452354,0.6963457811619325,0.5595060774612537,0.9443578895749547
264,0.7292744946319392,-0.041698513044772734,-0.0881777150778646,0.7693137373865736,0.75006280850588,0.5164293358676526,1.1008384616056164,0.7481030901616161,0.9037506359030407,0.7539311168887302,0.6602640781246099,1.064532975015247,0.6746972972009673,0.5234932873527006,0.9546616687149766
265,1.5811238762537574,-0.36933013765455575,-0.20350236019011433,1.1541143703619494,1.1195843541368098,0.7658042940328321,1.4037465070797157,1.0885150920251934,1.9404061643466417,1.5201353168120875,0.6333676938231112,1.7150453721603502,1.6891565185221038,1.3621808888893567,0.9432556890110672
266,1.6479281233609275,-0.32416173329814246,-0.42444073706356433,1.0986719319828961,1.0855722242904293,0.8195078563844331,1.2781331146766417,1.1934266234971187,2.0848829859608875,1.9771122597016697,0.6468212168108125,2.0540770681177345,1.8370545782790353,1.7575315290383517,0.9497585989368832
267,2.9317393739885564,-1.044867580684268,-0.3069128601654466,0.8519430168410003,0.7953613884876664,0.6919475844091555,1.4897273183398294,1.3479430774857324,3.3407915009320623,5.3015675236306405,0.648888643467878,2.7518279484481054,3.0426088944762264,4.5145158177199605,0.9509186435733803
268,1.0545975673493804,-0.14809647061773312,-0.18398978316250547,0.28906852050966375,0.24868240808551037,0.4117373004230681,1.1377160532765032,0.9005192563527213,1.3663200125840782,1.1257171484639419,0.663668482632973,1.3835425951475364,1.1953817367465853,0.886278379743946,0.9485612733293683
269,0.7869346544787725,-0.05324697871457107,-0.11793949667952097,0.6242677514423774,0.6018256196609064,0.4330007950273284,1.414156741173159,0.9756209408521068,0.8457649609407595,0.658466558353883,0.6509067234006624,1.1179650171839246,0.7041849333681988,0.4285808943072371,0.9371813304304738
270,1.0924310208332029,-0.10291108740245808,-0.12217093641893409,0.9273030866469537,0.9039579187474905,0.6732308058439674,1.2989480793759363,1.079019105257174,1.4295388602381642,1.2050096130575245,0.648888643467878,1.5599601540239478,1.1625270948760318,0.9721867389222929,0.9231198519358833
271,1.7329551378258092,-0.572901423267763,-0.2339060169213259,0.8033916511460936,0.7875509608320915,0.6799079350558979,1.2540682147254816,0.897574264873805,1.372760813444307,1.1723275628375585,0.581717464821069,1.7278461434844021,1.1913366962658822,0.8026790483275704,0.9518715671341695
272,0.8371453048260841,0.10837645587430256,-0.014424895078296363,0.26372692200671044,0.2239646854194712,0.18794989282422908,0.9414927401764768,0.5943715367915688,0.6203907633095866,0.4559265506831894,0.6357360191111145,0.9621310843524933,0.462349858152638,0.21221397888598173,0.7419399150489636
273,0.016719609868288993,-0.0015146101386396375,2.2867369196972673e-05,0.7856638204520972,0.6697250935616134,0.4962236736992913,1.5120058422303495,0.7830878078440497,0.21569878973804996,0.1321722852859622,0.6357360191111145,0.5842130578488295,0.19846989542939666,0.1025937250667594,0.7841103028696396
274,0.02575040765028899,0.011844285564917208,0.011710852784815026,0.9875567779318695,0.9559434526065271,0.5798004985117623,1.3348980355968245,0.539993254321504,0.2353132597706369,0.19120713572118345,0.6357360191111145,0.5443441070592824,0.1784836609355008,0.1343820165757268,0.7615615282420136
275,0.03920071422020447,-0.007451461823960302,-0.003804639991761372,1.1054612005658992,1.0881458606064554,0.6775592052414977,2.243050173065341,1.6089181260970538,0.3386361287490413,0.24683967760447112,0.6468212168108125,0.8879732607146409,0.2833172534514543,0.16994550510435108,0.812724490301209
276,0.03565778797132062,0.018085705229721,0.006996452464417463,0.5674505454107492,0.3286999565697772,0.3987332249573623,0.9082027467640412,0.49992746922025355,0.16089502654785087,0.19675004154952858,0.6668815377411301,0.37180469661555116,0.10286759165631439,0.08268216951005136,0.9614071827246777
277,1.0724853128284828,-0.16957823927359725,-0.007930328576846245,1.2846652305180624,1.2685548744929704,0.7757468898791936,0.6617270341467447,0.6932049415486117,2.612655896009438,5.77866228787806,0.6097226960127671,2.3097216085633656,2.4952554485597003,1.2747117233997556,0.9618651128518312
278,0.4027335304951122,-0.05672412379286725,-0.01845280189955368,1.3172494876716094,1.2545495043485286,0.843363635516391,0.5211619501974387,0.5264111055921301,3.7756859026997676,,0.6566669596287297,1.9247576706909189,3.3472423875397443,inf,0.9465268289416839
279,0.017031588573052786,-0.003612678721711166,0.002365166069693352,0.3338016463597539,0.29022545943986994,0.22492181747418108,0.8932085987594344,0.8043739548102542,0.3310117778059025,0.36872091728625633,0.6447042257417027,0.4275743936962653,0.25610662160459974,0.19606351691582327,0.9488296848316968
280,0.5630918958021652,-0.04698033228907661,-0.031766108684637084,0.8946718460144286,0.8760745967472906,0.6653666078625987,0.7993033318317776,1.0406081110175787,3.9703300529865295,,0.6309483474627791,2.152442434564326,3.0648071088949287,2.756328201368001,0.8960708355727344
281,0.010446315556914757,-0.0010004658762167709,0.0009089938121942956,0.5672499896653388,0.5530198706441889,0.23646253147576798,1.044986690077963,0.9441314806105492,0.12147519953640128,0.11470614829448064,0.6068309995095971,0.27215874079993924,0.08909811264390474,0.05336673244923176,0.7433949985632533
282,0.04260430780963389,0.011158157093014518,0.007332442824866069,0.4735947302481874,0.4438379376767963,0.4764185494478038,1.4238317882073195,0.8901422811940227,0.2702040658565476,0.22248967387807955,0.6425374456860184,0.8071374179776325,0.23986329362689857,0.16840759997733573,0.841080703570172
283,0.01955539791853391,2.8643966914250127e-05,-0.010481733218755269,0.6812260348519527,0.5950675883025383,0.5361896520675925,1.5935168012767722,0.9424456313328566,0.20315132263403088,0.09497705691861077,0.6509067234006624,0.568827530500973,0.19055442383477925,0.09273490621082657,0.7590291629147238
284,0.05829329349352014,-0.01535056728662697,0.0,0.8531483200601201,0.8109876024887972,0.6755935296470904,2.93373637055619,1.9875637145986333,0.8271375977185459,0.43196798437256345,0.6528756675646988,1.3469454510559793,0.7225897651393506,0.3828397085901857,0.8692233831315205
285,0.0,0.0,0.0,1.0632650362661722,1.0390527026782643,0.7377812364923396,4.226363553195693,12.586405158864922,1.7371272735749899,2.2992350061087636,0.6207552362147116,1.6607312068216509,1.2738014468602834,1.3896444480051726,0.680004256024424
286,0.03480285753103177,0.01535221332661099,0.015511954712188247,0.6290842178853158,0.5457091978282231,0.42010531166368026,1.5984092199804092,1.2790497130156089,0.5752969129138126,0.4505674046088293,0.6357360191111145,0.8210815672727041,0.4199010626871325,0.294637034826316,0.7821849307044699
287,0.05301404029449157,-0.005654830964745767,0.0,1.2158790027755808,1.1814079182620099,0.7975911801382622,0.8162298727441999,0.7831198399045542,2.743397682226529,,0.6547956803312163,2.263898710604212,2.7500754847575584,inf,0.8576198890524692
288,0.01797544721484907,-0.0024476326267968028,-3.3521375613953033e-06,0.4760773486028991,0.3543706764647662,0.3555947386472053,1.003971071087907,0.8597428012458435,0.542482547036037,0.4413357343761636,0.6566669596287297,0.8012521996650577,0.4768057850515424,0.3076091490996285,0.9418590602633444
289,0.0,0.0,0.0,0.8354020804856042,0.7928691226510138,0.6142638208996432,3.5381336734392757,16.792758822259618,2.21586458278948,,0.6357360191111145,1.875141078167106,1.6347557204183902,inf,0.6469634929951844
290,0.0,0.0,0.0,1.0863573040783823,1.0587107346458038,0.735282457529883,3.4284460562977706,2.81264459355408,2.2739283837442414,1.3829442742346088,0.6233814453054027,2.0402208285265546,2.2806061862752705,1.3896444480051726,0.7525027818802438
291,0.032222342433525133,-0.0054777982136992726,0.0,1.1160785809065012,1.0615275154425485,0.7034121523727456,3.2200143741012295,3.3005535935402595,1.7153187371521326,1.5007273098909921,0.6333676938231112,1.7879002589023345,1.5213258442210107,1.3026330710155427,0.6908390655947168
292,0.03043046559407537,1.6990616105393846e-05,1.706711144916495e-05,1.144776380138723,1.0871849484140932,0.8062492989157687,3.2109728628355327,2.4415652181109286,0.8779949555407836,0.6326386798347147,0.6584896970785714,1.2960880932337415,0.7713370465676332,0.5483497851916643,0.6825258483019655
293,0.0006324085591861033,-0.00020447876747017342,0.0,0.7225183013840422,0.6799415665491899,0.5724272639929777,2.390373739337776,1.936577678319015,0.6995523182438242,0.6353767027026768,0.581717464821069,1.1296902442389711,0.5520794409475953,0.3911156178940454,0.71747391452291
294,0.0,0.0,0.0,0.8237740048402752,0.7944319981795237,0.6627703672857144,3.4946706633021987,1.9428882797727227,1.423777454374631,1.7884093823427731,0.6468212168108125,1.3862943611198906,1.2297845614435092,1.4849546278094976,0.923946810249233
295,0.00046146103017270784,1.0005725883248146e-06,-0.00014866810224359133,1.0140182786031084,0.9782337713113834,0.7263988027230186,2.5998515976591485,1.614974980990708,0.5352061086716515,0.284331985566499,0.585052858160615,1.1398857739838857,0.4570747502724444,0.22169064044004105,0.7709424010700495
296,0.0,0.0,0.0,0.9961791043002488,0.9555747782320848,0.7472389840409949,3.085641295577182,3.8341533496437648,1.5500095445175421,,0.6038851895711802,1.7525387560747736,1.3896332623854053,0.9588615319127183,0.9357027332295957
297,0.042547953798842575,-0.00550455101192868,-0.006408876051747241,0.8723686044848573,0.8410806052734131,0.605266566658301,2.758347184820288,1.7296618503599142,1.0383177927500367,0.591357020861411,0.648888643467878,1.2948299506541756,0.9419674018018669,0.47794183679696406,0.809222437864028
298,0.04836961444151204,-0.008700869292021848,-0.0011342856444189343,0.9975222727493858,0.9850533927888034,0.7325096012599605,3.248926315940764,1.3627211635482799,1.2542304253340093,0.8839531081156208,0.6652988471865258,1.612999804000461,1.219858047695097,0.7981720694316037,0.8161738633845154
299,0.0160315792839567,-8.159225937252185e-06,-0.007580121635135586,0.8594588010747876,0.8073709553026056,0.6168313949943438,1.9236653006180182,1.1393271704460608,0.36096823247644466,0.1514906853539084,0.6403206450210053,0.7543372399838759,0.3267953788035886,0.15200202954132658,0.9107251592830542
300,0.1395099455102663,0.009854241198412453,-0.01568007496572195,0.7378200174201454,0.6847707725718105,0.33442488194773384,0.5616758253388802,0.5161776022910579,0.6953219219832696,0.7165203386861253,0.6125606311107803,0.6169683382656991,0.45604118302290597,0.3327621867035456,0.9620398632397842
301,1.1693581019522543,-0.2536580407846602,-0.19242644825951966,0.748069279906443,0.7414881483353759,0.32693003887138655,0.5401614755987395,0.5355059771103917,1.1560784807215208,1.7048977029238015,0.6447042257417027,1.2875557217709512,1.0631697465510292,1.11589971866263,0.9828838354953056
302,0.3660707364828216,0.02832549795091943,-0.025491529727780016,0.1963043554646035,0.1622376118479039,0.1872760849544963,0.6634205997951006,0.5406435313170276,0.6712038644723248,0.5745136141135021,0.6153451465759925,0.6621654429512168,0.518561142093822,0.4241108148823838,0.8327153522299706
303,0.18509124186769632,-0.03236462323189718,-0.019378393273348934,0.19509921375953443,0.1255737837576524,0.2348568889555773,0.8824000973206885,1.1580706271312884,1.3332891580902615,1.3554686167173082,0.5567373465730988,1.24321425843505,1.2200613712266555,1.104763737946018,0.9586883946284614
304,0.12852009786593,-0.0137885042963913,-0.011042238845934964,0.8232130339632499,0.7793915050580461,0.5382899707667639,0.7957482380290775,0.9832170819161893,1.6268416622850002,1.722316827308605,0.6425374456860184,1.6802777265652926,1.4686057264828731,1.5052435776664566,0.9323267567147909
305,0.01212712443831451,-0.0029415965392782673,-0.0018688294879198218,1.02690239161089,1.0075908386198111,0.6776468042900942,1.867478787503921,0.9645656635606379,0.44971635675026356,0.12458497781633128,0.6668815377411301,0.9332391031041125,0.3972211775083533,0.14590467759727252,0.9138815414177678
306,0.018769173779330208,0.003998104900105309,0.004020845344839662,0.7036860954632658,0.5956472903130466,0.5500365921465382,2.0008530878240114,1.4703715020803159,0.35173134375884674,0.302925810386778,0.6380535849069913,0.7668894076407394,0.2916051344314811,0.21466956612548313,0.8057061625620667
307,0.0012262023555657208,3.5028151393476847e-06,-0.0005062457809212932,0.5590766614426212,0.4991954533151308,0.5029433171019252,2.4226016964449,1.843824999595335,0.4683849970322772,0.18066023475130016,0.6528756675646988,0.8927369789204196,0.36167178760228963,0.15199760308011853,0.7175593062484659
308,0.043205518274735406,-0.014854859990837495,-1.820633350739292e-06,0.7321932876843659,0.6936294680921403,0.5991828129642244,2.087630221462891,1.446755449044316,0.8561294513189619,0.6598807860641174,0.6566669596287297,1.0030294187743798,0.740447951835627,0.39312258490977786,0.8860854620206655
309,0.015525754129266907,0.002853161619459207,5.012314653040327e-05,0.20162166157688996,0.18528785323672747,0.11404924731475329,0.9497911179561125,0.8866305869108818,0.6553545052732871,0.7016018599662809,0.6447042257417027,0.7225302204708153,0.5063805969240971,0.4728251491855541,0.657629541072761
310,0.32511939465902134,-0.029496959885727835,-0.02617008585503057,0.8513480638168828,0.7971590279491738,0.6179632994131231,1.0127011437611233,0.7904492329430612,1.5297530552917362,2.8083029000138358,0.6652988471865258,1.530678078573453,1.08494488228283,1.1905396538723858,0.9443209433189186
311,0.2855301364109604,-0.006804575699533175,-0.04139083885725412,0.9311344635936962,0.9000121176177924,0.6519016194176257,1.938195888197616,1.6608985928746591,1.0655952811341434,0.9264954412711421,0.6309483474627791,1.308633976104343,0.8887906212345434,0.7719903678977311,0.9463959568294917
312,0.11441372596582942,-0.004548790958656412,0.011472343359002494,0.880372295089038,0.8044571750566946,0.654247647519566,2.510167322530548,2.3875607562135497,1.1081649565175005,1.071109344640443,0.6125606311107803,1.277180896592757,0.7546987481566244,0.6111633950442183,0.7973472303231927
313,0.011347264548148706,5.2339160708443286e-05,-0.004856014486091396,0.816605602195285,0.7665147784694957,0.6212299027266287,1.61735236403945,0.6246583727608701,0.3598418561226271,0.21606249770662853,0.6468212168108125,0.865624022638976,0.3063836716059102,0.18175494187251973,0.8110609313789815
314,0.14644620073464024,0.02850455524633172,0.001450760887596353,0.5323718715410537,0.47700159387672725,0.4600089943610815,1.4998586214134288,1.2382721754069042,0.5345243425338886,0.4498497724845217,0.6547956803312163,0.7003956092847734,0.41502379769971753,0.3347381478023527,0.8368755635033764
315,0.06763450301348559,0.00838906623420866,-0.03674171613618875,0.43104477666532925,0.40707207789645106,0.27041256574196737,1.171723983193264,0.7978711315110312,0.22368090379899164,0.16451859253752515,0.6425374456860184,0.42147593338052947,0.19337365107127877,0.11231409691895286,0.9487184441267652
316,0.127853990544582,0.09459837223742293,0.0641451539978409,0.23173705308824025,0.16583298047144773,0.16841817339175466,0.6205520554322302,0.6537134290727825,0.31138056885702653,0.4004098256563722,0.6447042257417027,0.309155427970756,0.20906786154604573,0.1696931508043828,0.9696150846679477
317,2.32319331214433,-0.9501101952549774,-0.3134755282284755,0.8539990216054175,0.8431168093431781,0.7599108681845421,1.0664377671446974,1.233686251676214,2.067065718034169,1.9965409070238578,0.6566669596287297,2.808791770903742,1.9166645809588516,1.2014696741078175,0.9407476268592736
318,1.2710766895821706,-0.2544375426793637,-0.36800114065706535,0.11826719857387902,0.08699652898258793,0.34705089111077103,0.9750595919986681,1.4340660845891282,1.8697352744911084,5.002600897312555,0.6447042257417027,1.8138006001049352,1.6168255922480321,3.2764583911670186,0.9673990419703898
319,0.2553274957858638,0.0077962973943626335,-0.016133239060488636,0.21103373620254542,0.1894529403056557,0.22172538558144878,0.5075659019810893,0.40547616477089954,0.5254966570311437,0.8113339447975628,0.6447042257417027,0.5064094634462517,0.35950506110283637,0.32565404984038576,0.968977276598656
320,0.029777989211686222,-0.010192002435977544,-0.001557772391335691,0.4886631174957221,0.461872725375728,0.37481178975888874,0.8834458681946777,0.5379859588730697,0.20531537234048797,0.15308820786931454,0.62595550513784,0.47911164827646296,0.1669823254869307,0.11471363304972454,0.6862224441907059
321,0.22986033450884186,0.02178570229402546,-0.0067723821781470045,0.94526465537466,0.8795130170057891,0.5789499665073754,1.8089125054788597,0.8207811129919795,0.4851665092866402,0.38816493263244894,0.6447042257417027,0.8749088940953859,0.41684325880255774,0.24836701522559598,0.8565294582715245
322,1.3009981817485072,-0.2222382658333823,-0.28159937684005415,0.4011295167073579,0.3180150932065143,0.35958582199991707,0.593093049472433,0.5827221313032288,2.0506996546075373,4.660703246643412,0.6284777104787076,1.738345092593419,1.551310914335829,2.2599757878996947,0.9615303694481095
323,0.26839829814409544,-0.026597178768286142,-0.025147941628663587,0.6401160450173896,0.5970705007660881,0.5263220207196485,0.8458456177068223,0.6039523107953475,0.9241844666032869,1.3031297298106295,0.6038851895711802,0.9660355182170437,0.6917759785012725,0.7737439775726896,0.9636835791429297
324,0.10251099350089679,0.03518361930192715,0.019367386063364245,0.3558535975082434,0.3239321755283997,0.28398756335420977,0.6451720407739373,0.45127968976083976,0.1201727012987767,0.11014960847789397,0.6403206450210053,0.29474398620824216,0.09537284495312291,0.06806363461879383,0.8199664330936001
325,0.0,0.0,0.0,0.29576869146651186,0.2545233779210287,0.19461360727821156,0.47265368694795623,0.36689784162881606,0.051876821336932014,0.02320014520883898,0.6468212168108125,0.21484474849951468,0.04985891690040744,0.03859602594695681,0.657143157625602
326,0.006533348786223133,-1.4069302374632511e-06,-0.002916822194275536,0.888966884481196,0.8126307758194026,0.6571155266086328,1.3898598772053563,0.43377254463703396,0.3123632340594549,0.13906421035074087,0.6684167106117298,0.8103054114474867,0.2874738909167312,0.1018326539259298,0.9153202151602915
327,0.2910213078918546,-0.002826496367510256,-0.015643965330456616,0.5756001458527062,0.51909016088373,0.4893764872888803,1.254213629412594,0.5986759852921508,0.32070541971301575,0.21070071902018495,0.6468212168108125,0.7386328107210768,0.2357873945540824,0.15888705318983737,0.9676530896925972
328,2.978044560588948,-0.4493834886786493,-0.0469572714195087,0.2256559932866077,0.2056628810078013,0.48952990669162827,0.37844957132772566,0.32377725479368136,4.456928819135275,,0.663668482632973,4.235908126543888,3.4827773686545784,inf,0.9676161442213814
329,0.05216847994604714,0.039163061415971784,0.034796612372719846,0.122888179777612,0.10646187756764909,0.11655619789947447,0.6292602253325329,0.6886531789297391,0.13062442992942266,0.15869686890693518,0.6180765742263259,0.16623825592578687,0.08511903041637002,0.07420358521761647,0.9297233282136567
330,0.717463863909309,-0.07767048050344828,-0.013091783992784461,1.5778396614269181,1.5180481105919357,0.9413038251375478,0.7604264829642474,1.3368987870086184,2.4199487283078223,1.089672472304041,0.6038851895711802,2.1874722858935414,2.1208909198657686,0.9789043246021419,0.8960375202342928
331,0.7026765106950295,0.010221088923623112,-0.15073025899454645,0.2917515995753884,0.2678842722315264,0.31653034389654483,0.6961438128958563,0.7628799595547214,1.2613137418994895,1.3579710062124295,0.6425374456860184,1.2226649373380885,1.045626088431991,0.941184674586206,0.6706835122036292
332,0.12470021535210078,0.03179703916950105,0.028779373221230864,0.06236667603779548,0.024214716953953462,0.11254054093233497,0.5786255226018566,0.5317849997548907,0.664404887844814,0.8521316413009177,0.6447042257417027,0.5231231515763969,0.43372919205388105,0.44448797569488385,0.9642345858476347
333,0.4319226664427087,0.020876493228981274,0.0031813876948785236,0.28300747329801346,0.26013986489902957,0.2835504919740344,0.6896870481294083,0.33862085291142674,0.3595595391001699,0.3296551334174285,0.6403206450210053,0.5523616076839248,0.2707677159894015,0.16483644490771962,0.884668921524629
334,1.9055182312819352,-0.02549452327803059,-0.2689496278832564,0.454773466242763,0.44084176943377784,0.3860900686597863,0.5465908679291344,0.46135440229856484,1.024223551686239,0.6844031773053507,0.6380535849069913,1.987531073746414,0.8721175115069102,0.4362882857513382,0.9110065007959381
335,0.05606394920710436,0.004103354013933899,0.000917606084958611,0.4483777959746395,0.274444996748787,0.388348349473663,0.8996409876084855,0.5802724654513803,0.1524781249865342,0.08192922585098616,0.6566669596287297,0.3913156850037448,0.14283543073246482,0.0631405791802143,0.925099401659901
336,0.07228551732420262,-0.009269094923102489,-0.006413874762579867,0.21103373620254542,0.12113957703971583,0.1491871254481202,0.32785892990728743,0.3308692459556119,0.051868989740673555,0.03882330503861578,0.6284777104787076,0.1445762905516959,0.048577052129464116,0.03742052295234056,0.9560928337956489
337,0.8257986119992854,-0.1056437375637659,-0.015428044145234259,0.717954539716142,0.7045908624618946,0.5337025908936481,0.2619161630429361,0.41468935098216253,2.4577065793931556,1.5979927712793107,0.5915533975974677,2.2085889074152694,2.0569394671903303,1.4584568073681212,0.9364745491175687
338,0.025527429563232673,0.00982161768970425,-0.005680709537938179,0.6009244876360267,0.5340394850546035,0.3938123003234634,0.8783331604757931,0.7028002735509449,0.3477538933007534,0.27392438503936195,0.6038851895711802,0.5095301669363517,0.2467934997891054,0.12497536715775429,0.6862793541047373
339,0.07805373196589985,-0.01535056728662697,0.0,0.9928879636375028,0.97109923049294,0.6740321658858243,2.798809770543781,2.8609062268502723,1.7546914152184125,,0.6528756675646988,1.6431670651782282,1.424896981128229,2.6424074165005407,0.8323140769058491
340,0.04255984353454673,-0.0002689487141697266,-0.011364075185273046,1.057546211337062,1.0213299448613689,0.7673793285965277,2.4059686152460253,1.5328721528491953,0.6527023547011686,0.20803863412599707,0.62595550513784,1.3099919730620775,0.6121799482225027,0.20478060306630752,0.9646045166306905
341,0.1706729645239985,0.03845084111526108,0.015492184668981196,0.5355421631348376,0.46867434330455043,0.413095422734463,0.8189738013858995,0.6689879123528693,0.44812056368733905,0.579702759125119,0.6566669596287297,0.5462033602519765,0.30349367214445194,0.27604667366371516,0.9553735350715813
342,0.0,0.0,0.0,0.7623918662198983,0.606400187740084,0.6303859382411325,1.948545149645765,0.8260406569701562,0.286641041744032,0.20823638216481988,0.6038851895711802,0.7911275889201491,0.26203343684404323,0.12471094388954937,0.80532268383543
343,0.035864661758524194,0.012477766385896674,0.00040154976253494595,0.8815682029114995,0.8415768722919339,0.6097616523637451,1.7901903095551313,1.0002114298124227,0.2828191969634699,0.2173684583495184,0.6233814453054027,0.7908825209125507,0.21606257922973507,0.15099265461063857,0.851815312537472
344,0.0001206637160174967,9.131115593677233e-05,1.2279239662576645e-06,0.4502936352750481,0.3714093365622309,0.2446993968161011,1.085963412072103,0.9675635354630803,0.15140716518454703,0.14884891860689323,0.6425374456860184,0.2922554775069391,0.11182725319197463,0.08632317226165089,0.8114689947310886
345,0.008172051455747587,0.005973543321351989,0.00013334095241501753,0.42379085263452326,0.308498048003654,0.29265103366293976,1.009475989524704,0.8258730208414125,0.2037904648585861,0.1853724772757533,0.6038851895711802,0.3141933748934397,0.13932466920364528,0.11399551596547826,0.8701625373509076
346,0.0,0.0,0.0,0.7332189828895339,0.6573866189414392,0.5668036003694616,1.9271001552259255,1.3453881410825919,0.2779122808559759,0.22622435475921832,0.6403206450210053,0.6603573577369544,0.2427429734515047,0.1726421433889027,0.8860106704862104
347,0.0,0.0,0.0,1.304408780311545,1.2487329070086064,0.8148804943391675,2.477802592909563,1.2283397677444388,0.2818858844823292,0.20285547453665795,0.6284777104787076,0.9501922835498364,0.25711942204161425,0.096440509951294,0.7661236327356906
348,0.004256372179546333,0.0015442006992219632,0.0019688780871284298,0.7652689465520103,0.721959244027876,0.5318275047973704,1.3549394184407433,1.0912173584863403,0.15489130894377945,0.1187530956542424,0.6403206450210053,0.5775987385146293,0.11895423518014892,0.061689920242544084,0.9381324901027428
349,0.04411906941595073,9.982715777384805e-06,-0.006333715998730323,1.386772511402183,1.363681591504001,0.8791841252419805,3.481054725507426,6.219982400802725,2.5999341557256925,,0.6468212168108125,1.9625477902083366,2.1054794636963905,0.949297028342325,0.8617374178797228
350,6.956044303155414e-05,7.463307910509765e-08,-1.120430396415376e-05,1.2173698312899157,1.194242097360706,0.807396701586425,4.261318109333692,2.921233430593319,2.0940314296811167,1.7704111462201564,0.6038851895711802,1.8326509106041315,1.5722198764243327,1.612453495218588,0.9205648481835591
351,0.02863144592255264,-0.0050582221129843,0.0,0.8020609217867892,0.8009764067443422,0.6115965711782998,2.6951036605707688,3.1567055381763662,1.87429492634277,1.381270633676579,0.6403206450210053,1.74838074592611,1.5608453571972352,1.3026330710155427,0.8099233370867358
352,0.5117909529640784,0.1010512159610153,0.023074810553722513,0.8229887216251888,0.7446908773664113,0.33835453065983473,0.8335348394237905,0.7107820308453574,0.6582319856073293,0.7182347555767027,0.5677978065141052,0.7678707267558817,0.462522107212465,0.4526916186340522,0.6815838430675758
353,0.059982789844720316,-0.0005513823685058955,0.0017904622058246764,0.5288400138484083,0.48119792346656376,0.3481055492426484,0.5146021317018052,0.3105469180129773,0.05844785417446642,0.05810421683902938,0.6425374456860184,0.26489190069459556,0.056032936649122365,0.04097005606307156,0.8194815859206761
354,0.06439262652283732,0.01785113378553109,-0.0010340569444085845,0.6230922249701509,0.6090722056543897,0.27520638864525093,1.0941298665500077,0.9827382708116015,0.4078011575146458,0.46810790532598956,0.5915533975974677,0.5477393703844352,0.2782537235089393,0.2271042294883272,0.8405976677070152
355,1.0478740342995143,-0.25123814563064106,-0.12880111451652165,0.7291420795209136,0.7097672940065104,0.6133500229402981,1.306424042139245,1.2847060796040415,1.3284662190788685,0.9875416118413274,0.6008849035917525,1.5248925364901942,1.267445481134605,0.8965414364891371,0.9699017897431741
356,1.3034564776378859,-0.36837014414429414,-0.19651958641875833,0.6786459849683542,0.6327744539002421,0.6478286275687422,1.0919211788627115,1.3250245626081516,2.0471586378436224,3.4219944573488137,0.6309483474627791,1.9177006925859021,1.8288078743646705,2.1316272948504063,0.94805628041454
357,0.007963051543325505,0.0026873954910110577,0.0013389296082246642,0.20058914285127497,0.1683108648046498,0.09756826406485385,0.9982945533896322,1.055445940659345,0.3449486921988466,0.4603411325834795,0.62595550513784,0.3589155474551844,0.23137424766505305,0.2043734486322193,0.7495456807505783
358,0.10791152338679434,-0.004979800054289319,-0.006382033912235206,0.28250963716792243,0.2554531387948682,0.3234336504887016,1.013939157287512,1.1702737416570133,1.3908205991582403,1.4294113422056407,0.648888643467878,1.2721326895089955,1.1756066359375654,1.4309563672235903,0.9555388705665363
359,0.07541082564312791,-0.0007993806107590463,-0.011775863034135763,0.8141031171136237,0.7251623595772323,0.585194511887245,0.9839843859853245,0.9128219117709185,1.2103777722047113,1.9864923604007994,0.6333676938231112,1.401611065231784,1.005470719092911,1.3871581854470676,0.9522253002721565
360,0.09128466867804738,-0.020624452154201948,-0.0031095617020903735,0.8725264076179278,0.8076255746869269,0.6711836847077991,1.1560211484106302,1.1690703846937547,1.5405547129156352,1.5480971608159289,0.6566669596287297,1.3898116506479308,1.4052499274439092,1.3059719722810574,0.9498798090329105
361,0.03772400369295631,0.0014905273656048244,0.0011911645653233712,0.9432146861226919,0.9332850847177083,0.7256913384643348,1.0529450899489419,0.8985915003482536,1.1767964802465658,1.6570733802816862,0.6509067234006624,1.2537857135430521,0.8902773156789348,0.8581345438564345,0.9524004082464593
362,0.06268676684048059,0.0029498484922001467,-0.006416837579630165,0.4952259149862209,0.4295080314745741,0.41362364965552734,0.80951713394389,0.9027094102865587,1.2775337082930776,1.4142868832742814,0.6284777104787076,1.1064764637249118,1.0750716342263003,0.8070982292132934,0.9507903346046228
363,0.056753856675266896,-0.0058190253070673145,-0.003688787645356734,0.6657967614208261,0.6053066303999766,0.5655763973173944,0.6499019819720498,0.676463450979003,1.1892004851250764,1.3852423556402174,0.6068309995095971,1.1006142913387829,1.0303544902203714,0.9088314898289397,0.9498011395452031
364,0.033842105391682656,-0.010716666707366176,0.0,0.33943175862966707,0.30659332749142465,0.3639351113342233,0.7036775059110647,0.8114601628248387,1.3678358531843477,1.5165380357078464,0.6008849035917525,1.167033894786769,1.1727916511484726,0.9727506440733855,0.9547498706450847
365,0.022902817589195535,0.005246175087213357,-0.00020005401035087106,0.8558228041971829,0.8128111963206179,0.35393297247469047,0.9058438661272631,0.9312986053788157,0.750617604489055,0.7642706169473287,0.6333676938231112,0.7377726955986024,0.5253605252379554,0.47363314009745755,0.9537608080340222
366,0.07201519230428596,-0.011290886315276655,-0.00023154445340909947,0.5776398507822341,0.5409669359318139,0.5420311917684016,0.26084355845339674,0.31883569160523256,2.4364620542426354,,0.6153451465759925,1.8693607152516065,2.2417909652868753,inf,0.9491106109154144
367,0.033161526015443026,5.2420424693444545e-05,-0.019065028673547448,0.41111247534112,0.3484838758402424,0.41035544495988513,0.8564796216069114,0.3548875536642372,0.17547613025487677,0.09887345012366267,0.6699045166045591,0.5620994251661428,0.15456661266010321,0.08115053924469968,0.9550780173447351
368,0.3800610709676176,0.04771318557124024,-0.05268450480799426,0.6084173168279992,0.5865214223761442,0.46683678567612663,0.6802276994273853,0.65869148033823,1.6145138677553899,1.9315677713117658,0.6284777104787076,1.389767050598863,1.3831772904213373,1.3068400698705704,0.9512055134496608
369,0.18299443360206688,-0.015859517578845798,0.0,1.2630723395038213,1.2397394011290765,0.7672543888604393,0.4726306379486799,0.542059001641433,2.112692477691847,,0.6528756675646988,2.4902542561145955,2.1182548311390104,inf,0.9435731128111822
370,0.13811587577161136,-0.024292240188057528,-0.004251707471408818,0.37503723138414163,0.3359982818083304,0.369956298341746,0.34379703849432225,0.37068758646249356,2.4875454218019297,3.5720649356990055,0.6566669596287297,1.621004548805566,2.250196462102325,1.8392704518991068,0.9525684122619853
371,0.07898775950774266,0.03361059443494858,0.004333700297839832,0.15525433535522937,0.11882068948602113,0.11359596509116797,0.41162393064814523,0.6678842192601875,0.6419842415197875,0.8493077517814874,0.6068309995095971,0.40669920262297793,0.38949019527185236,0.3643337561130306,0.6128549562246212
372,0.25004415013267883,-0.016669610008845256,0.0,1.4115884416971094,1.379120761590148,0.8319684027755463,0.2755165120262962,0.5451925398670574,,,0.5677978065141052,2.836641435475197,inf,,0.8890392274876942
373,0.31736256949567077,-0.020577017793491813,-0.015390740082684203,1.2618961692059758,1.2087408690101682,0.8255100482477621,0.3703641573702599,0.4993930710098905,3.434833083188002,,0.585052858160615,2.2656104902026843,2.7433595245745104,inf,0.8813059166410777
374,0.6793403569396006,-0.07151368558506596,-0.019065028673547448,1.6251384927742338,1.556766048115615,0.9277968836199674,0.781788089844522,1.1391758297393935,,,0.581717464821069,2.331670673889142,9.07589427542326,inf,0.875461149313231
375,0.09947163537909441,-0.008620875066188183,0.0,1.518106721136118,1.4699426455535014,0.8749309510317367,0.279052179165834,0.5494303280746435,,,0.5883313578629602,2.5056537229327893,inf,,0.8905543044572456
376,0.0015015929104399588,-9.009557462639753e-05,0.0,1.5437166113055303,1.518767523223118,0.8515507275297566,0.220643167776106,0.4558861850298281,,,0.6125606311107803,2.814893296720259,inf,,0.83827462881073
377,0.3814559112937378,-0.027973433494874106,0.0,1.683258586960923,1.726482044036046,0.9341862480272597,0.2286713943288817,0.47330039432652893,,,0.6284777104787076,2.7459251535311364,inf,,0.8645946078723286
378,0.3340423529397504,-0.016702117646987518,0.0,1.600375321661562,1.597303389061566,0.9007071222625836,0.2707335362630006,0.562144029557696,2.63619450548323,,0.5947193981915972,3.0642490679074563,2.642872308014259,inf,0.8228241483960795
379,0.04319055834317438,-0.0031673076118327883,0.0,1.5971289387522978,1.5751622238574916,0.8661550473733319,0.28048724991199664,0.5485471602342997,,,0.6207552362147116,2.641014799766052,inf,,0.8835806279650861
380,0.16970077672190143,-0.008282162196264153,-0.0035968921742689473,1.6202078857064826,1.5946349722535305,0.8930919897832457,0.28988783110013305,0.5829343349559004,4.6382280738768955,,0.6547956803312163,2.737307382169328,4.0452847538588035,inf,0.8510143095830793
381,0.23025850929940456,-0.01535056728662697,0.0,1.6343250782918912,1.6164279311935144,0.9138730414277572,0.29546590297458936,0.5743177230017695,2.9416262552348234,,0.6125606311107803,2.758817318155863,2.9483040577658524,inf,0.8362208204815872
382,0.0,0.0,0.0,1.6709014532110773,1.6583956881553517,0.9296701857610978,0.6091603464579479,0.8507884941448249,2.9411000779009258,,0.6068309995095971,2.0661963149298153,2.947777880431955,inf,0.8867657601723238
383,0.007012367568998253,-0.0006077385226465153,0.0,1.6423973836428627,1.625035421173373,0.9004610993935818,0.48490014074352106,0.8099811121441063,,,0.6468212168108125,2.4521168269650095,inf,,0.9094639888438995
384,0.008154212805873293,-0.001005686246057706,0.0,1.571551840350397,1.5509634922081974,0.8856848127090817,0.4051497643267801,0.6701095908171952,2.2136883033668844,,0.6233814453054027,2.1004609089039112,2.220366105897914,inf,0.9207250807231246
385,0.0,0.0,0.0,1.6629697815855649,1.6204357931801356,0.9274953004593481,0.3890580239438136,0.6584539318780711,3.132155314663635,,0.6097226960127671,2.5682882587270512,3.138833117194664,inf,0.8484795056880458
386,0.03209046237280206,0.017628993625171757,0.016152217573823714,0.7981000720125581,0.7869075241242555,0.43824966799499426,1.0436435457788837,0.799414717326201,0.2570123744663229,0.30265282987121434,0.5713653840954815,0.614582487689282,0.17605502525928424,0.13938597190461843,0.9405490826897085
387,0.0,0.0,0.0,0.5700001562918662,0.53352336830771,0.21050603709177718,0.844160434325468,0.8062289030983457,0.0674871513030978,0.010506947776144169,0.62595550513784,0.2484613592984996,0.060497315105463245,0.021615434862575222,0.7652190324966726
388,0.1270807136037562,-0.005848120451788855,-0.006414378194708204,1.2832790998114596,1.2545325071258635,0.7851453738701195,0.5306521662805597,0.7944298648224607,2.3730309653367105,,0.5915533975974677,2.3470015026544475,1.8056786365806168,1.8168055011541426,0.9130648703225159
389,0.036633372239209726,-0.0035412259831236067,0.0,1.552523712621048,1.5110798910592345,0.9332043572362647,0.5068670196775077,0.7838565880016771,3.3359830766785534,,0.6008849035917525,2.364460496712133,3.3426608792095824,inf,0.8963074375355835
390,0.21189223311750055,-0.019018857725932075,-0.0014640581420929796,1.6726936422381442,1.6378735568909242,0.935681218452821,0.5219673805781169,0.8515801623891648,2.6230190843246657,,0.6602640781246099,2.3842773085060753,2.3499896730386727,inf,0.9065243181773687
391,1.2896612428264211,-0.31375234054828977,-0.1797917436992527,0.4362646122119963,0.3647190364267127,0.4734226520421177,1.360070950817566,1.4462679616142065,2.135293024502275,6.736769910903717,0.6425374456860184,1.8289768570448712,1.8746778826512194,3.1713107164630556,0.9681332381674893
392,2.300169459929786,-0.8793453635338395,-0.19726492939312124,1.725357255749136,1.699033940841393,0.8845879738728654,1.0371564282490486,1.9448071689721833,3.2320006496333513,1.7713604510993293,0.5748741956352443,2.499005574167502,3.0708289279789605,1.8123787564307907,0.9496462009913957
393,0.6142846241363588,-0.06347607782742373,0.0,1.6874628427458935,1.628878850181794,0.9310294428275382,0.7081999026946646,1.2197845501842788,,,0.6180765742263259,2.4753524369831887,inf,,0.906469410331364
394,0.20004664187058518,-0.019337842047489902,0.0,1.7446953875966622,1.7234269789802634,0.9382594995160096,0.7343982475467111,1.3161579331578652,,,0.6602640781246099,2.3965295391705874,inf,,0.8397687423291595
395,0.42042776770635354,-0.025225666062381212,0.0,1.7431703804852012,1.7394864621244144,0.9429407206020731,0.6481236632279899,1.2855461814071725,,,0.581717464821069,3.0048851446849256,inf,,0.8189961258164048
396,0.0,0.0,0.0,1.7454014841449421,1.7176856716586029,0.9354510370525986,0.7961123294164103,1.6315175598535006,,,0.6125606311107803,2.995732273553991,inf,,0.864546369477111
397,0.09862303054019274,-0.00624612526754554,0.0,1.7470717299017196,1.7427888878593278,0.8994763111315958,0.9151676973327826,1.7927792144626276,,,0.6403206450210053,2.8058468028264767,inf,,0.8713764496813381
398,0.029857078889730496,-0.0032842786778703548,0.0,1.7708287965990648,1.77340927427939,0.9357776751239619,0.953113467762872,1.7939535189435882,,,0.581717464821069,2.226447436013123,inf,,0.8896631179726867
399,0.0014739805076383191,-0.00011300517225227113,0.0,1.760090395294182,1.7505858723653323,0.9153736198249388,0.8594408286134758,1.589961577804182,,,0.6602640781246099,2.5697385853046977,inf,,0.8572460603440732
400,0.06879988412004658,-0.005733323676670548,0.0,1.6943072017864311,1.6887108923822056,0.8823204806016083,0.7464284753776562,1.4055447733347355,,,0.5713653840954815,2.5312996893577107,inf,,0.9019543319007101
401,0.0,0.0,0.0,1.7143743625951635,1.6933059729592306,0.9039019351748729,0.9868484318355955,1.7943911748972365,,,0.585052858160615,2.70805020110221,inf,,0.8680609034898135
402,0.10379694370765868,-0.01972141930445515,0.0,0.6018366399274232,0.5315236181847359,0.4400199332247074,1.4799071591063273,1.8193690441630803,2.0498075540722605,1.7903287687285765,0.6468212168108125,1.704725870263113,2.0564853566032895,1.2561130553806499,0.9613471257302593
403,0.07093110219284546,-0.007565984233903516,0.0,1.3916138494711254,1.3789063842687868,0.7811093957701233,2.0455201980681332,2.729613888235198,3.4339760933123062,,0.6153451465759925,2.26646748007838,3.4406538958433357,inf,0.9392925833815331
404,0.004437742243013286,-0.0004473623944805524,-1.120430396415376e-05,1.3347707987716397,1.2913935438031505,0.7637825037866726,2.0367033213181864,2.585640953801713,2.733190771158564,,0.6038851895711802,2.274105621672177,2.3355189146652946,inf,0.9389709705266013
405,0.0,0.0,0.0,1.5414085298963691,1.5186373599792735,0.8728313020762838,1.6411602885777237,2.209495074609408,3.3288656089096893,,0.6309483474627791,2.371577964480997,3.3355434114407183,inf,0.9201420397384283
406,0.0,0.0,0.0,1.0316852267758923,1.004891610782289,0.6723195280939535,1.6433718734024974,1.65364254401659,2.3320360145515218,,0.6509067234006624,2.2697952701710546,2.338713817082551,inf,0.9376683168982635
407,0.1415930520349521,0.012032715882305034,-0.025818215492716803,0.3141757944291902,0.30513336060067886,0.2590437005362211,1.0260415770800362,1.1954972812662068,0.14464851974055595,0.11509289012044095,0.6309483474627791,0.30483576682623953,0.10502230958664995,0.07475847000071253,0.9284954578656212
408,1.860013423251705,-0.5136175175106007,-0.20510893699934396,1.0341390604750575,0.9996132410023759,0.8004231590810623,1.9358944091412162,1.5768467747402573,3.226792982610922,2.148378782114892,0.6380535849069913,2.463667146795581,2.9228744531672946,1.9779720815149764,0.936694203062252
409,0.8401133421219816,-0.13905378261128493,-0.014421983864705647,1.1736669755237747,1.1394801479602694,0.7522215038415782,1.9895007210672775,1.4914246868543486,1.5895801088435546,1.0107632124209427,0.6207552362147116,1.8811008312531354,1.2844975578274644,0.6193026089082073,0.949965247159723
410,0.010142888696100442,-0.0007438118377140324,0.0,1.6707212827455016,1.642728503927889,0.8196799064847359,2.5499335514349584,10.640397116048968,,,0.6207552362147116,2.6218725048611575,inf,,0.8997672588012084
411,0.1648338606019303,-0.01065816061338291,-0.016814149486938806,0.4294323946994279,0.3303832642933076,0.4932537824035463,0.6836087641567219,0.9953481394326508,2.1169991052295107,,0.6333676938231112,1.840809667203347,2.0767843832742545,inf,0.9178655849197057
412,0.16128725999321442,-0.02461524462687554,-0.016986031090443544,0.2479229545603823,0.1802498631825039,0.27685085644527485,0.36897767228351236,0.47195285214082117,1.3688571285734021,1.868440904396542,0.6547956803312163,1.3838085643853293,1.2239439154015166,1.3503144641427067,0.9544904863529065
413,0.3043913144731061,-0.02900812426670002,-0.0004163694657002351,1.5186580899265159,1.4866520441659337,0.8491970721587893,0.2779821384903644,0.4326619962044045,6.100097591087947,,0.6652988471865258,2.410417797797261,3.421198048368825,inf,0.8417829426363114
414,1.0901816184768855,-0.02210109006810068,-0.14966562968055008,0.21741154249979316,0.19053259909236916,0.25830435961947973,1.9698822167054935,1.8621122200892641,1.1755810183632178,1.0933512464339503,0.648888643467878,1.282975929096289,0.9443986251908136,0.7743757915924514,0.6778227266623336
415,1.689873050986898,-0.3909166301044088,-0.34860029596705333,1.6678752194933129,1.6438758710779393,0.8831392996697126,0.8938058499480843,1.3964542940994558,1.596258904971925,2.24655722743439,0.5068466436745385,2.1853948255826423,1.4191434800975433,2.0632337314529825,0.9001381323289157
416,0.61919728072483,-0.09300407935328409,-0.09263429088420767,0.7599198988148073,0.7202232663042266,0.4773446490459278,0.766166101131329,0.9566876991393662,1.5730729733277644,1.8035342519416562,0.5978297680564633,1.2525407709608463,1.318504909149076,1.4885754460537928,0.9428353486446537
417,0.31146222809339824,-0.036954806901107425,-0.011840942166858298,1.3248620521701726,1.193725323836784,0.8251629673305502,0.3623319755427589,0.478819681592692,2.2903457788018704,,0.5978297680564633,2.0440743978425444,1.778209472830732,inf,0.8908169727802114
418,0.14164555971203557,0.0024235326643775104,-0.026425333272848472,0.5318030563265482,0.45833673867712005,0.43339611983043574,0.37196366730662456,0.4177343120340997,1.2031024683752314,1.919351803233369,0.6528756675646988,1.1124407966046437,1.032665826469469,1.2031821029326406,0.9449587835999917
419,0.25286258884898927,-0.03195003125045144,-7.923000375386175e-05,1.56901564949351,1.5329733872200817,0.9099769319483744,0.2546019273072897,0.40613360802203524,2.304323813738841,,0.6233814453054027,2.1371648209085565,2.1895322317130637,inf,0.8053301848716609
420,0.5082286345746552,-0.056116521619275155,-0.03812052300911686,0.6169596334883,0.5615099420572048,0.5595454603080121,0.21391175757512593,0.2607832478575066,1.4141876025569136,1.9097280008241684,0.6309483474627791,1.6817099640840971,1.2177025384642166,1.8012901101613414,0.8747600784351868
421,0.3327638797468365,-0.05021502735105385,2.9608953040997227e-06,0.8410883357424175,0.7779348504852182,0.6344681973419565,0.15654013283002305,0.2113304822044491,1.3427743827394854,1.5338419121570097,0.6380535849069913,1.916340559385438,1.2903871315471156,1.3401735869315625,0.8612817832648788
422,0.09128907248092036,-3.379338330767451e-05,-0.010008004589593566,1.5576443829682605,1.5303586275753145,0.9124437795839352,0.16373842863230514,0.2532768849939161,3.0304836564366604,,0.6008849035917525,2.237005447348064,2.752194566028127,inf,0.8213337163151921
423,0.2012095582239799,-0.012992753072824253,-0.019200776243012533,1.5497365155715885,1.5217519111992273,0.9328712815405245,0.24694395352471296,0.35657630284817177,1.8783175689961338,1.2344908237409915,0.62595550513784,1.8911379132083337,1.622854962599166,1.5033314064395527,0.8555270142505566
424,0.35190010091417706,-0.07898986013699918,-0.07535358994177303,0.1774930122970747,0.0888963565874835,0.10456006946801277,0.6385927309744677,0.49851658894944606,0.2899990730747454,0.22674054889025894,0.6333676938231112,0.43685258134979704,0.21255420070986034,0.13342200404579663,0.8570919228802552
425,1.9943415125702038,-0.45425051274874795,-0.3412953661042931,1.1340735172103498,1.1033551773891015,0.8440398882290352,0.9349638310797365,0.8918676822228111,1.7287421866511055,1.6376964236845064,0.5451288209179292,2.690210282973879,1.498444958719463,1.5117994428701844,0.9305873579454732
426,0.48317588062588146,0.09242539857611942,-0.08562767331984122,0.28564303609786573,0.2624101133097824,0.17154855381517023,0.7858634257185604,0.9585457757408272,0.883001671429768,0.9016713155226845,0.6008849035917525,0.7561343131307233,0.6324738338394367,0.5019408814217448,0.9652420722400219
427,1.5158401181944168,-0.18260818147465557,-0.009398233496637197,0.9415820787797918,0.9397849659371933,0.695295442800041,0.5693383216915668,0.8674104503210635,,,0.5641709578113449,2.8156354117821474,5.70155777963409,inf,0.8606668774972056
428,0.3936266222241526,-0.04209722072186024,-0.00776215142653242,0.8800122810866623,0.8447314237303771,0.634328948049723,0.8658872784127486,0.9205026015103288,3.3480190993249437,,0.6233814453054027,2.269042865126692,2.7449313302350786,inf,0.9347519847182368
429,0.018158726064578887,0.0036306864716896155,6.965936311791737e-05,0.24907779374947878,0.18671248292158568,0.1563964626280356,0.8462678564832326,0.8401055317422916,0.31919404092286047,0.375302144633266,0.6602640781246099,0.3298939212610904,0.2243999421589934,0.2295320166042368,0.6761708033213691
430,0.014074428185771115,0.012587694863395301,0.012649654696739124,0.16280166969132603,0.03748361386793625,0.08962371216234931,0.652381049336854,0.7748974202287594,0.08839558397957842,0.10400438931336797,0.6333676938231112,0.12019845042336903,0.0733053957731549,0.06562676328438849,0.6128471555377041
431,0.0,0.0,0.0,0.34954651054090197,0.22638966282197556,0.1847754075178426,0.7338434916687891,0.8411379752545179,0.07615290291237885,0.06920783385219863,0.6153451465759925,0.13162844247843647,0.05403201558103274,0.04417208140553709,0.8021154959676474
432,0.0122657316572103,0.008430129770239677,0.00852116686046224,0.16280166969132603,0.11211803071092663,0.08962371216234931,0.6795975175232554,0.6247345680633536,0.3639803042419266,0.38608022553777005,0.62595550513784,0.39269696883048605,0.2830906534435491,0.22493054933331535,0.6545008418449054
