,eda+bvp_XAp0,eda+bvp_XAp1,eda+bvp_XAp2,eda+bvp_XCond1,eda+bvp_XCond2,eda+bvp_XDist,eda+bvp_XFuzz1,eda+bvp_XFuzz2,eda+bvp_XK2_1,eda+bvp_XK2_2,eda+bvp_XPermEn,eda+bvp_XSamp0,eda+bvp_XSamp1,eda+bvp_XSamp2,eda+bvp_XSpec
0,0.1014931142806037,0.018918351254012887,-0.005379482307223286,0.929922273408805,0.870160514793454,0.6986620714411924,3.2728741013843847,3.635908513409859,1.1405653452510514,1.0020638565727165,0.6425374456860184,1.4391795651984312,1.0021568698881944,0.6295984265886306,0.6540306102797447
1,0.24025635457840847,-0.0006954790958020457,-0.02766698209918036,0.8477269743109409,0.7704017572307584,0.6212258466984456,3.3045593201860193,3.674785094573923,1.4733670141363964,1.8663918266040536,0.6447042257417027,1.6641874652050093,1.3929475105692575,1.9126783238017337,0.9043588735660497
2,0.003808967854816552,0.0011120984007957893,4.532717670582918e-06,1.0613363503982736,1.0479659693794696,0.7607063658468755,2.7763883919572847,1.8398766755276852,0.5207506336798281,0.4179119469996167,0.6602640781246099,1.196298622625371,0.47832987534594246,0.3369467324782768,0.8737125128470482
3,0.09115248655183408,-0.001784625209704089,6.633313386875117e-05,1.095921483204284,1.0906740201919378,0.7710403045712073,2.4190941432766566,1.0012215359475438,0.40842695499621184,0.2619449455788376,0.648888643467878,1.110145204481834,0.35813077983105696,0.22890084242921632,0.729243903789772
4,0.06623791240978665,-0.015020584318799868,1.9113323170494995e-05,0.935574531298578,0.8732083888513642,0.7025680299717061,2.691521712159283,1.993663848351133,0.5320814444352604,0.6541043018829911,0.6778444222523095,1.0369215686696773,0.46450933316569126,0.46977426344117684,0.7262651504185949
5,0.004756742380783155,0.0009515628840363901,0.0003877873788827907,0.7127730034629697,0.6613272594447152,0.6120625962952941,2.3650623348236812,1.5711751545855805,0.556499348420658,0.5937890971767699,0.6425374456860184,0.9806811158364314,0.4599521083833081,0.4158425597280069,0.6760506032601937
6,0.007933446908312285,-0.0007263410435010085,-0.0013596605077831304,0.8866996015941306,0.8617636004654339,0.7129310733403931,3.0464083754650018,1.809138676828142,1.0245913058005502,0.8948992979459759,0.6602640781246099,1.2108482378953764,0.8434888518922953,0.5689125096220731,0.7453671835463921
7,0.15214782393651807,0.017165933518359475,-0.008988953465020592,1.039588284786677,0.9758924849271018,0.704103223420714,3.284715714770103,1.5714976387979376,0.7531787319080055,0.4022007734846509,0.6233814453054027,1.283617443091266,0.5516063975508732,0.29350132026938786,0.7510605552587759
8,0.05470321275595543,0.0032927635401433786,-0.003915612913505465,0.9390021061110243,0.8675350178913025,0.6290120284600211,1.7638636035030224,0.8925947097331031,0.17947670741393612,0.10836915601422321,0.6380535849069913,0.7069080958099825,0.15744926878920748,0.07651070873153122,0.5682121838752834
9,0.004544478169687026,-1.2982285513911482e-05,-0.00060543226707085,0.7857020549161492,0.7268614846044676,0.6183500907106428,2.5206289323153768,1.6742289182876586,0.40287388704920013,0.3963035323341043,0.6619902821573977,0.802565299884701,0.34586768376736454,0.27669461014580715,0.9114751378204602
10,0.012847159206707792,0.0010507655611534713,0.0010728382456555007,0.5547771167219964,0.4662187245633647,0.3400228599349275,0.9847385375009103,0.8397857565403252,0.09381900727705934,0.09629675628876222,0.5915533975974677,0.2839409311080002,0.08270418515058214,0.06377888989077751,0.6373807895933441
11,0.058297548505965704,-5.3512911395312e-05,-0.0031898973205541845,0.569024550103949,0.4954813152038993,0.4871816934033291,2.0501941328514266,1.575823758042271,0.5078897108582584,0.5007206213429645,0.663668482632973,0.8135837336818922,0.34202227650633793,0.2589506606496322,0.8291563122769411
12,0.05272557261844296,-0.022417587711789172,3.448345565885226e-05,0.49300759824685664,0.45646573128883927,0.4909271619474071,2.2017911034811184,1.4954073306132187,0.5357532819009861,0.48899324584414655,0.6008849035917525,0.8666543649886904,0.42190850763786497,0.3115849929004523,0.5896350370669444
13,0.008595737048523776,-0.0034955997330663353,0.0,0.7705899849284407,0.735585102314137,0.5983925834912956,1.9251319659036135,1.7904489679658235,0.6008463269552402,0.5758347586698903,0.6038851895711802,0.9052408956875702,0.43243262776712416,0.3297466715177533,0.7769702229568675
14,0.08218505068361785,-0.0016827880907873821,-0.002607107191705635,0.7219030260783426,0.6348966128122336,0.45375241548147466,1.3675995457643242,1.0123166291345025,0.3287893754572237,0.23420574122225143,0.6425374456860184,0.5089939689370208,0.20073436677034082,0.1422061833130345,0.6219573841081373
15,0.015390330849314765,-0.003012386831075505,-0.0013574501036418647,0.7849496346915067,0.7559136126426474,0.4281438692745283,1.570182935514287,1.3231277884066501,0.3303685879236161,0.31093363679867686,0.6309483474627791,0.5106774865906957,0.2362221499684966,0.2102998991585938,0.842233549840569
16,0.03557851111276687,0.009710625022283002,-0.01171856352289178,0.29332241239967155,0.23727164214379137,0.2353038049652589,1.0515766033219904,1.0655687533675247,0.6233015626678569,0.7788282686552912,0.6333676938231112,0.5222798626999995,0.3854090819608391,0.3669447882527459,0.8579029002537639
17,0.13152930309383704,-0.0005907759234389937,0.010424297547756228,0.7434101488011869,0.7026038500526883,0.4918484768203083,1.812514917324087,1.4236149187725586,0.4345273447050926,0.3620891695249099,0.6447042257417027,0.6902402985272281,0.31637030768604457,0.22218630082896398,0.7173648402756863
18,0.021087724837528198,-0.009770645841388067,0.0,0.8055979406027415,0.7272626631005585,0.5699003439785315,1.6145342625384196,1.2487971741859265,0.4193394410361449,0.461449284352878,0.6038851895711802,0.7761423907306648,0.3060061719067798,0.25887504770253156,0.7664596873537529
19,0.012004463639706586,-0.002458513877611054,1.507726267588093e-07,1.1324717829065505,1.1165231597724414,0.7024895801745252,2.807697325371381,1.2966201951249139,0.9803521774464521,0.87815336254219,0.6584896970785714,1.5851789982133155,0.7899767876155656,0.44531684468761645,0.7233592515024857
20,0.15363230475453596,-0.018802674906829,0.00022341652243667437,0.8748464992715558,0.834937446513619,0.609798758046793,2.6459782588985115,2.5334226347420907,0.7995147307877254,0.7136429445015116,0.6284777104787076,1.1395731817232087,0.6974626323744818,0.4753751730476465,0.7895178731952153
21,0.2410099594580979,0.004238054249063664,0.019455328673201183,0.4088979922561592,0.3295864199983977,0.3458321575611324,2.383091148281887,1.8260841463702957,0.5547966788137382,0.4321796471382111,0.6180765742263259,0.7367276056838167,0.42276767150786454,0.3856645646858228,0.5843871403994805
22,0.1409835566297541,0.007389446472254105,0.007429117494388265,0.5739530449389365,0.5020263859731133,0.4321011536628873,2.0355546675598877,1.6954907940297392,0.659101239861081,0.6287638541261354,0.5883313578629602,0.7814927805627118,0.48767060930043715,0.3877738535574608,0.7783887400126985
23,0.13450833275769558,-0.011284985444832075,-0.004856014486091396,1.407341314590492,1.3979753375427606,0.9070405982502715,4.66762934493006,6.7952354134097135,3.51475223186814,,0.6602640781246099,2.1856913415225465,2.71758543425321,inf,0.8759595683611554
24,0.003867266427812889,0.0015266564252616461,-0.0014871895464096247,0.760488339071883,0.6921215167915016,0.62025877781852,3.1287711353946546,2.8182848368550033,0.5634638736240694,0.5439477272334221,0.6207552362147116,0.9362383696838511,0.5186679830859736,0.35115490116909004,0.7740674713017712
25,0.08758890477500746,0.024807464386830867,0.02138265423907712,0.8284792944444486,0.7348301058495645,0.6412552374013962,2.4287983505170083,2.2125873661688265,0.35478726779874337,0.3379937900408513,0.6180765742263259,0.8169482885418918,0.30088079905335047,0.23455779594059936,0.8968336455398213
26,0.011257084739115818,-0.003939979658690537,0.0,0.9152207862316832,0.7777331795116817,0.6821728945186886,2.57070860946227,2.409042244700889,0.5415465129735165,0.5887571047010686,0.62595550513784,1.056447196507431,0.4610194373878593,0.342857227201649,0.8136967209608976
27,0.00021547587585104216,3.76961415868857e-07,3.807789445285618e-07,1.0244235078497277,0.9773536395502903,0.743242321980286,3.853705316919767,2.647166507263647,0.8570541398152937,0.4970197271240342,0.6566669596287297,1.3472873460120856,0.7493681764024384,0.3563649385111547,0.8002203679290093
28,0.0571060103379755,-0.007633471394963936,3.0752429393512276e-05,0.7565723164813883,0.6402789327128575,0.5565778646880499,2.122962552677928,1.734250595360877,0.4463483654347533,0.5549139833116665,0.6509067234006624,0.7916914733632993,0.35125591801400385,0.3192206023217613,0.8887883579792802
29,0.12952508975542776,0.016864399440372525,-0.02945555177504692,0.8691843242863148,0.8163395647787257,0.3883412844201719,1.976878995412601,2.1697738472955717,1.468605920902781,1.3769265830998108,0.6008849035917525,1.0626018511450765,1.2210524541895305,1.0283119425996057,0.6052177308460223
30,0.0,0.0,0.0,0.8996351290531199,0.817997928156898,0.5272349436626533,2.9313198475624525,3.747901447298379,1.293438862347809,0.868935383168342,0.6233814453054027,1.2264456601779945,0.9841681542772408,0.7918074472495522,0.8278550849463346
31,0.0,0.0,0.0,1.3217473809983384,1.3057098904391136,0.8552701617514865,3.613331637464271,3.4804389913191716,1.382955459854376,0.8233284862991859,0.6468212168108125,1.5448993912965292,1.1664897110711956,0.919640818759437,0.765527600672381
32,0.0,0.0,0.0,1.339964372086478,1.2949971981017967,0.8862104954392066,3.9132371445786633,1.4273416203911995,1.1265259309066995,0.6432770780397703,0.6068309995095971,1.529395204760564,0.9996723408132061,0.616454559771691,0.8643959390806704
33,0.02018888700958996,-0.0034994070816622594,0.0,1.1689028107561994,1.1368429103907542,0.821687698861266,4.485550619581351,3.42425404547242,1.4504193853210523,1.3829442742346088,0.648888643467878,1.7651175382816338,1.3029465080248233,1.2561130553806499,0.861784931185701
34,0.012575508988589692,-0.0021797548913555466,0.0,1.2702835924359934,1.224883844809634,0.8454228214819272,5.39362690045858,55.27893386112198,1.6360460875365377,,0.6309483474627791,1.761812392860103,1.380359625600076,1.8751522637868734,0.8310659956754306
35,0.007884624468503474,0.00015460171131271628,1.2874718782452136e-05,1.1569207394857606,1.1199318197916592,0.776373651822364,4.986804956352603,12.673764971745026,1.025739243913254,0.6027857166850337,0.6180765742263259,1.5836618761191166,0.7724412062845909,0.4904431959524278,0.5416229359955902
36,0.011351305277539291,2.287038811369258e-05,-0.002709345970464658,1.1282196424812507,1.0604396269509704,0.8022793698999034,3.455237412740918,4.222913207327609,0.9193125109040564,0.6208042221877119,0.6668815377411301,1.448926552311426,0.7482980250247934,0.6800335414145621,0.5294172180320478
37,0.0003806855265904121,6.077906551874018e-07,-9.070336528158493e-05,1.1136342557215821,1.083368935689894,0.7934235173525288,3.2316527747295853,1.6154099002876152,0.6213791586445466,0.415360247972903,0.6097226960127671,1.441478255019754,0.5774327869200494,0.43346388284571213,0.7869515129647612
38,0.0,0.0,0.0,1.3150730849063366,1.2917508924769008,0.8751952847146213,3.475179191607007,2.809081321165988,1.0262805159156438,0.6897970936746634,0.6357360191111145,1.6784307839210517,0.8098147671324631,0.5141757106512727,0.7021521171697737
39,0.0,0.0,0.0,1.0495329639464417,1.0019975541264785,0.7159170149224269,4.672317543317017,25.938310774018273,2.0019946682605996,1.9425600621700312,0.5978297680564633,1.7525387560747736,2.0086724707916286,1.9492602359405953,0.6952686613874139
40,0.11789499963847579,-0.005908749566494325,-0.0019862480944530907,0.9579522015346723,0.8963840394813466,0.6900051095467726,2.4319088557910757,2.8707656585635637,1.323246914678517,1.6679052565720291,0.6153451465759925,1.6073290265867486,0.9986159515783078,1.0631318486527002,0.8568458183189152
41,0.007787497850417366,-0.0010642913728903733,0.0,0.7057633803016583,0.6198571048378905,0.60555997419939,3.5595574525859135,6.217359066703725,2.6049318886198867,,0.6180765742263259,1.99689939610269,2.611609691150916,inf,0.6514989996050968
42,0.0,0.0,0.0,1.1174355937404026,1.0003181534595387,0.7901245362529793,4.160416920319422,14.009258498108593,1.7014091909729105,1.3829442742346088,0.6008849035917525,1.5141277326297755,1.7080869935039398,1.1019623755533916,0.7291147600360764
43,0.042762901186829044,-0.011688526324399939,0.0,1.0252365243950563,0.9914538319331125,0.697347668098384,3.3794761610017043,1.756541576790155,0.7262908722155876,0.5707971427479336,0.6068309995095971,1.3089630181835672,0.6604887394547801,0.37372387518217626,0.7624562262920396
44,0.0,0.0,0.0,0.9791711892464791,0.9401430190028799,0.6239874384613963,2.6812927952943304,1.7247892867732992,1.0764615908338357,0.6918017719270414,0.6207552362147116,1.6262450307504817,0.8620005203030333,0.5831685821382241,0.7778131701145143
45,0.1252342106185708,-0.011688526324399939,0.0,1.0361454135293793,1.0062778426023613,0.6832792465199856,3.1892610015829477,5.792925631058363,3.293608459022842,,0.6403206450210053,2.406835114367845,3.300286261553871,inf,0.7532973478549222
46,0.17464023560261008,-0.03197228189498676,-0.0017914969881845228,0.8522555664328572,0.847077018326419,0.38972550847538406,3.0335763345185693,2.7581958400585025,3.4665301151073984,,0.5947193981915972,1.7710422276393334,2.6592413800423214,inf,0.7354534560662285
47,0.08548294747967836,-0.018052426758605244,-0.00018393537039280522,0.7931884317956575,0.6888273590245504,0.5689969783780103,2.8331363686516418,4.8684913904028155,1.7085144602628246,1.6318042717581773,0.581717464821069,1.5753585987812377,1.4965350357383171,1.539965539619333,0.7515864350732738
48,0.3344088534011413,-0.025008248216789392,-0.022923687437374194,0.744076963818376,0.6320416456601204,0.555315772323059,2.68052725424406,2.831618327690685,2.27418476113316,1.3829442742346088,0.6468212168108125,2.039964451137636,2.0570503396403437,1.6134566720290182,0.8090674409943667
49,0.1785920987363264,-0.02039893184015563,-0.0067691802801651355,0.9691375410429519,0.9291772838169382,0.6718661967914595,3.6298100392636115,4.7529388563621096,2.1619755508657748,1.6087598378266292,0.6125606311107803,1.9263580978130004,1.7620770105926695,0.9977041401160885,0.6794136570712138
50,0.008843797206547913,-0.0014811431573523994,6.551029114670458e-06,0.950510171350225,0.8793085801907184,0.658496155083264,2.8773179962622843,1.3899479603933598,0.7727988207855832,0.38788695589891986,0.5947193981915972,1.3167268399608787,0.6826309692459238,0.3178898107291474,0.749280610017602
51,0.09673871084235544,5.3377085485261516e-05,-0.014411979166029385,1.2426976968635735,1.2367733529493923,0.7703774283932637,3.747563138103617,13.764926634986383,1.6998881659865084,,0.6357360191111145,1.8007329440271633,1.2998661399166649,1.3466181362672665,0.5768157606736107
52,0.07573748169962079,0.014376145633540699,0.00023719232381818472,1.284139810253959,1.2816255784435602,0.8527271646501821,4.248212703505347,4.174724158976729,1.5934013848386008,1.2980773296773376,0.6528756675646988,1.710363831024061,1.47303760565048,0.8278282188370532,0.7157840782909217
53,0.19652521616653276,-0.021555527011592496,0.00748785904436413,1.1852729065893806,1.156061986952133,0.8262435803991675,3.4834094767174255,5.112146908061725,0.8551641379070071,0.7183487367708844,0.62595550513784,1.4570983955822794,0.691336017584508,0.4103340852196682,0.6858962148737646
54,0.0941567290439748,-0.013181942066156473,0.0,0.48464858515010584,0.41858478007627964,0.34964413525209787,3.691360689652634,8.825076774441037,2.964398148096693,,0.6284777104787076,2.0067695206455425,2.6017395666080634,1.1019623755533916,0.7783931491301819
55,0.010447907132765851,-0.0010796170703858048,0.0,1.7501256449048317,1.7304943131914086,0.9396846165060072,3.5818053629190585,6.639420323187801,,,0.6309483474627791,2.278760065318738,inf,,0.8231568982756037
56,0.0,0.0,0.0,1.7396205610976745,1.7166698175331503,0.9427384175799842,3.8248598914742473,8.071354288454067,,,0.62595550513784,2.2697952701710546,3.4373261057506608,inf,0.881209830231898
57,0.003759849804844813,-0.0003759849804844813,0.0,1.5847806715426789,1.5436802036444448,0.9183430196376087,2.8135590500150487,3.644412138509376,3.3942965888302803,,0.6380535849069913,2.306146984560406,2.7078272108013643,inf,0.8910779978034834
58,0.0,0.0,0.0,1.6623869724397626,1.636871780801881,0.9163373132130508,2.7662932894249925,2.956908862475825,1.7545190162868591,1.6060878255488185,0.6180765742263259,2.336486644669727,1.7611968188178884,1.6127879993193823,0.8778168316505747
59,0.0,0.0,0.0,1.6227284700346623,1.607618099669256,0.9021786229190113,2.730021190803234,2.2369061122865133,1.3576376518700863,1.200622717440654,0.6097226960127671,2.0402208285265546,1.2690052745967906,1.3026330710155427,0.9021050167935315
60,0.15843840207378335,-0.019012608248854004,0.0,1.7259995691944152,1.7163888723450431,0.9317965059072922,3.151841136457532,4.5185891102898585,3.5521043937842776,,0.6180765742263259,2.148339179606409,3.558782196315307,inf,0.8945015957171003
61,0.0,0.0,0.0,1.6981818798487816,1.667850179277211,0.8811849402880642,2.84037707283734,3.224846501936501,3.1747149290824312,,0.6357360191111145,2.5257286443082556,3.1813927316134603,inf,0.8684002527776041
62,0.0,0.0,0.0,1.6868172537027064,1.662124468408904,0.9228334246364657,3.183948997950915,3.8285880948495206,2.7375011226596864,,0.6333676938231112,2.2697952701710546,2.7441789251907154,0.6964972674452273,0.8651381942744758
63,0.0,0.0,0.0,1.6087184017196396,1.5687733509304715,0.9254644707759049,2.476058672828144,2.389041171293919,2.5993507841788692,,0.6180765742263259,2.4079456086518722,2.6060285867098982,0.6964972674452273,0.8794452288378591
64,0.013529044668778769,-0.00175877580694124,0.0,1.5245393746653244,1.4715493674996,0.8947293877932847,2.8328551789436216,3.645222978088708,2.263359913164122,,0.5783247308855777,2.0507892991066736,2.2700377156951514,inf,0.9063427711433957
65,0.03487439036512759,-0.003138695132861483,0.0,1.684071612617945,1.6408251392628599,0.9174954330900663,2.699557737326911,2.7659523371518215,2.1710339605816085,1.0952622017828277,0.6097226960127671,2.4307973241409684,2.1777117631126375,1.1019623755533916,0.892984288513141
66,0.021584555643596435,1.7422583269618812e-05,-0.002175878147629262,1.678449250145687,1.6445679719965876,0.9445418291590286,2.324860916241346,2.1825589868553488,1.9955476487679769,0.6897970936746634,0.6284777104787076,2.318601563502819,1.8796231292066736,0.8190995895375597,0.8570516167605956
67,0.0,0.0,0.0,1.5496760457846086,1.5281187582945461,0.9084752000654577,2.2163612806460145,1.7255119791371674,2.3320360145515218,,0.6566669596287297,2.2697952701710546,1.8278881933165605,1.6127879993193823,0.8613307667893996
68,0.010521096969217837,-0.001157320666613962,0.0,1.4916607848139813,1.4729348613223112,0.8956616646010566,2.144989569101547,2.3655214487512874,1.6924805602286093,1.7884093823427731,0.6357360191111145,2.216203543934022,1.5450076829323802,1.9492602359405953,0.8470134892089908
69,0.0,0.0,0.0,1.546708466088844,1.5288635598200315,0.9177329708874447,2.0038132000024858,2.818363142625966,1.6453197243218671,,0.6284777104787076,2.445685936634719,1.3155252902316834,1.2561130553806499,0.8329766761615593
70,0.0,0.0,0.0,1.636764461319907,1.5799334189215448,0.9303604416657753,2.05127712402577,1.8902741410453716,1.9425712477897987,,0.6284777104787076,2.371577964480997,1.949249050320828,inf,0.8453358992537321
71,0.0,0.0,0.0,1.6725512047970643,1.6713050738445383,0.9542647541022297,2.1268320914929686,2.4537878497304066,3.215536923602686,,0.6038851895711802,2.4849066497880004,2.1236024374656055,inf,0.8731317266034868
72,0.0,0.0,0.0,1.356459931334176,1.3210693714573218,0.8005381129686115,1.7944874594130868,1.704037901467959,1.5164868524788988,1.9425600621700312,0.6528756675646988,2.2380465718564744,1.1664897110711956,0.919640818759437,0.9082120287251567
73,0.32105024815629446,-0.03429252198827516,-0.02984871879150969,0.7465703657088044,0.6825442312916065,0.49095285197928923,2.0514149985735592,1.676370349129853,1.4709857541468059,1.1709252214505264,0.6207552362147116,1.6655380629028995,1.167130984864976,0.41809885486887555,0.719439821933783
74,0.0,0.0,0.0,1.5355604764465456,1.4885890497384853,0.9191397147100857,2.353866823240153,3.797894520047314,1.9813828374843714,1.9936351704267554,0.585052858160615,2.17742195004004,1.5837892768263626,1.2561130553806499,0.8942372328983234
75,0.0,0.0,0.0,1.1891344741425833,1.1679858004894303,0.8115602877944122,1.7106823204024624,1.874599804225936,3.462397001534212,,0.6207552362147116,2.2380465718564744,2.7759276235052956,inf,0.8902808789018067
76,0.07611129843390592,-0.009194910888363694,-0.0019680795486091748,1.0807137483161198,1.0333665377382872,0.7566387818712088,1.8449754542383698,2.027411007734775,2.1251308714816757,,0.6284777104787076,1.9658747894749102,2.0265150502241966,inf,0.8769529328157287
77,0.02831484295604417,-0.0013984058971043293,6.235919152206004e-06,0.9138427287681906,0.843442210623479,0.6841777974720836,1.6445010520981813,2.091705002066477,1.5552874796211358,1.976612900378713,0.6447042257417027,1.4720459259456105,1.5130761684963652,1.9317193203679195,0.8924572673164114
78,0.20218145604708593,-0.02983232852044736,0.0008969330923278551,1.0396518269018045,1.0069413659557858,0.691242709603743,2.5838916378965187,1.7897521254498914,1.3348378478817136,0.8510959697138594,0.6333676938231112,1.902393122731227,1.200676928617609,0.49292640861838677,0.9152675821502718
79,0.0,0.0,0.0,1.6205608462865353,1.5973063225444637,0.9217168941586822,2.7508263163467133,4.579013768677282,,,0.6425374456860184,2.336486644669727,3.3706347312519886,inf,0.8611695556790042
80,0.0,0.0,0.0,1.6519468955262284,1.6515757203706205,0.9548581890290098,2.4954046595988464,3.1159281689119465,2.106874299081075,1.3829442742346088,0.6309483474627791,2.2072749131897207,1.8904085502978945,0.919640818759437,0.86196470046669
81,0.0,0.0,0.0,1.4702030255807936,1.43614119306708,0.8852901466005417,2.0606473951421136,2.5819096016849095,2.2479528973409804,,0.6584896970785714,2.7593434954897607,2.25463069987201,0.6964972674452273,0.8746431837455638
82,0.0,0.0,0.0,1.5529358388136982,1.540602301996619,0.890783954855344,2.194705003683626,2.582240359531705,3.132155314663635,,0.6333676938231112,2.5682882587270512,3.138833117194664,inf,0.8196254893997041
83,0.0019946467189476927,-0.00010122988853933048,-4.504420418350031e-05,1.6041684264369396,1.5642639184302645,0.9141260510822393,2.004570963128376,2.2286308204345096,2.392584732159032,,0.6097226960127671,2.614711660671709,1.709465441015398,inf,0.8022698956513443
84,0.0,0.0,0.0,1.4072645562152937,1.3762193157066314,0.847676382418613,2.1397501542829356,2.4709364386657677,1.2096837385803392,1.295932897244979,0.6233814453054027,2.0928645620119766,1.0493074564482023,0.9588615319127183,0.8386469728448303
85,0.0,0.0,0.0,1.5516348307636694,1.5297721774494137,0.9121318023961204,2.401312456388326,3.0388174575500218,2.7692498209742666,,0.6207552362147116,2.9311937524164198,2.7759276235052956,inf,0.7701938061763987
86,1.7723910499385593,-0.20318170980687977,0.001378579775124511,0.7127232752503773,0.6835153325711187,0.5948247924586139,2.9383493814630097,2.7340352687389604,2.564683545907585,,0.6309483474627791,2.4835742045542215,2.528729146642731,5.702114417555504,0.8991954369633897
87,0.02409731129645385,-0.0003185279251073929,-4.2244418816915486e-06,1.5702192378255027,1.5703289432863305,0.9163421082832973,2.7117521126917494,3.489986943455129,1.7696906983893164,1.6060878255488185,0.6097226960127671,2.32131496256727,1.3662320463128879,1.5931487563180595,0.8596548679920847
88,0.032640145533663775,-0.004243218919376291,0.0,1.6108431898231972,1.5406956487773786,0.9526501814396395,1.923145004713604,1.8093106899559326,1.2436933925208682,0.7851072734789882,0.6125606311107803,2.0588549080714476,1.0092091382350095,0.8506479472724855,0.8284596808564665
89,0.023548761966368313,0.0018734316524691495,-0.0013051157769736407,1.3015311478964895,1.2557799103412723,0.84110206126003,1.9836990760230537,2.2666903535848726,1.7833847377305165,,0.6068309995095971,2.0337461083437445,1.2914165870424132,0.9619578815337564,0.833801665962534
90,0.021442257030785093,-0.002787493414002062,0.0,1.2851330404440624,1.2894386278209478,0.8005359978159032,1.8987966370986706,1.829813954126848,1.3646382291520058,1.5514444442759858,0.6180765742263259,2.0548573360492974,1.2543687670740478,1.014950998563762,0.7994997439032834
91,0.4833802984922741,-0.0155910429057904,-0.025027589569978692,1.6586395820279163,1.6328137285989701,0.9099713091972922,2.1511587899897817,2.3375389732750533,1.9746196118837336,6.830632640915027,0.5748741956352443,2.588934720212048,1.7120240913730518,1.8648591226676599,0.8338975480545371
92,0.4338620774827982,-0.005775655425654336,-0.025585405746113416,1.0890176579840356,1.0695592206554996,0.7531657237809891,2.671956484276512,3.737447211000579,1.9450173690593693,0.9710269274070751,0.5677978065141052,2.1413169453979233,1.7624072572155276,1.0887437875273558,0.806779667195098
93,0.259141244909192,-0.027694255372227715,-0.006857910615664556,0.9228991500119049,0.8860051815695674,0.5691984312813932,2.1257714615460364,2.172691366842192,2.0932382771293168,,0.581717464821069,2.1616644019376685,1.5347992955345757,inf,0.9113347296820755
94,0.46015221121988664,-0.07834605022867189,0.000320007559711781,0.6401386559067269,0.5736077670351932,0.5387229126980817,2.2279201826939645,1.8812157186099467,1.2030499262765513,0.7745855446113933,0.5947193981915972,1.516656178983134,1.0006359309490211,0.5323098735345662,0.7897062070817028
95,0.0030446988008653894,0.0004707478703604338,6.609473173967433e-06,1.2172690093066525,1.1733459000632298,0.7593951134016521,3.2512285976487085,3.742204273657085,1.3833218499878295,4.440817272370926,0.6309483474627791,1.8564757839477461,0.9750611882275259,0.8331920217063811,0.7865335820950553
96,0.015790170105949224,-5.533834295028085e-06,-0.0016787509770062226,1.625627026906664,1.606669820474263,0.9359576744350973,3.449056530208771,3.083588871133929,2.7567765184362982,,0.6566669596287297,2.250519874394443,2.499034029047211,inf,0.8744386912717845
97,0.2069910373780896,-0.011300870241171766,-0.009398233496637197,1.4919691267062722,1.4633015108952856,0.9021326486215212,3.2094754526684866,4.802052206528616,1.7161855116858014,1.5939746222554114,0.6547956803312163,2.3869333525641916,1.6987818829598544,0.9316090467230062,0.9192916304318299
98,0.04073736561419519,-0.003289626185733122,-0.0017346489066842848,1.5464665227029157,1.4571858151394403,0.9217260449670069,2.4944303672449855,2.170776375873664,1.4998121406506288,0.284331985566499,0.541134803179459,2.121189891060222,1.3246562422708155,0.4728658602479054,0.8864246667191327
99,0.09713201554169558,-0.006593863653023036,-0.0040906580565634775,1.3914365571784924,1.345719989204633,0.865745220130391,2.109103078739992,2.523581115392953,1.21512714335397,1.1274404807984257,0.62595550513784,2.2559135736848988,1.0269083552419356,0.8182116214460629,0.8496663217788838
100,0.990495660809902,-0.03577328747801256,-0.04431707329174603,0.5937273377652599,0.5502413128203643,0.5487686302860414,1.8105853284973148,1.6298949381293715,1.228742646648674,0.8242259604648529,0.5783247308855777,1.6986942316643803,1.0531337167837254,0.7525101921335632,0.8678660386252576
101,0.4044133471119409,-0.017139766758203688,-0.01901229396955998,1.1707078194115412,0.9959827563945378,0.7771221862197458,2.4783112227672017,2.5739438689002703,2.923823359457902,,0.6038851895711802,2.085146673930869,2.9254886201653867,6.396929655216146,0.8304010301474513
102,0.2748142735902044,-0.01666082689317912,-0.019065028673547448,1.3233466648697594,1.2384813954150757,0.8472803199650057,3.396024319035693,3.256504983373416,1.4105345979921715,1.5024065714107122,0.5677978065141052,2.0926843980622953,1.3115174926201585,1.6131223915645982,0.9090601267802676
103,0.7047599136818182,-0.07192702046024169,-0.02996922913431469,1.60957377327475,1.6104175846298274,0.9247878648064717,1.8259465931970613,2.122411287480027,1.6160106551089313,1.4387041928313768,0.5202020156036558,1.9712849387200084,1.3625653694825368,1.1729839770646842,0.7914098152518161
104,0.42166045051178896,-0.015638770817620187,-0.018248025134787512,1.5396064686784325,1.5471499062238687,0.9212613162970463,1.8187258306553642,2.4810181450100552,1.7666637391761852,2.8216799080976327,0.5883313578629602,2.6949694615636797,1.6018993647698951,2.205421344540398,0.8467179059545914
105,0.5974980936252685,-0.050504666562039544,-0.01881434301158601,1.322848723236643,1.3186903001077508,0.801761115847389,1.8388685419510569,2.172321391833666,2.245002141024751,2.5860287477980486,0.6038851895711802,2.3004762071466938,2.0762312660495876,2.1480555535297494,0.8459563005201247
106,1.0710663771637998,-0.15958090255031404,-0.02549064126225084,1.5684762229601166,1.544115665458758,0.9343581968134332,1.6890454405902395,1.9176891811753307,1.321231035891819,1.6368830144447382,0.5748741956352443,2.1316241202522708,1.2214182195228378,1.3550222693756158,0.8422871083796133
107,1.9156331133580922,-0.2425381831712633,-0.06340535377695858,1.396702573566876,1.3612701132594986,0.8344460045008859,1.4300601663365806,2.1438825678049103,1.8329048566762645,5.644618731349897,0.6038851895711802,2.8180510963165384,1.6938311552479957,2.6909900783569016,0.848717234281083
108,1.6685250656743071,-0.21541298288768232,-0.049944201416298725,1.643501065384924,1.6448729750378557,0.9345813397554398,1.484874460178706,2.3601427332082614,2.571163077848911,5.510752722694144,0.581717464821069,2.6191239919078084,2.350689307668192,3.3467091963780855,0.818201087215466
109,2.3341610250412756,-0.3081366842970444,-0.08089015320983488,1.5447585394629773,1.5323465774456337,0.8948407148008233,1.4010069167003547,1.5414825482998222,3.530883834839953,,0.585052858160615,2.921243421563252,3.223631338844265,inf,0.8048303779231172
110,1.5782472995649854,-0.13920979674372425,-0.07524853871613935,1.5563904381416975,1.5539274639575882,0.9152601592041714,1.3967846900280712,1.8796772823442116,2.529883522121863,4.922966057792025,0.541134803179459,2.8427251044288115,2.312935961717702,2.490703767472326,0.8599721197751694
111,1.773677782810392,-0.13069280658789784,-0.07032400879727992,1.2972436312162805,1.2922505583810753,0.8585140396405551,1.5002292334893588,1.863809775188627,4.9766309785198555,,0.6284777104787076,3.2887619523323672,4.684815792494889,inf,0.8254832423912086
112,1.4604368873859779,-0.08316028508180158,-0.0531471577408897,1.2532697586829642,1.2443964705047856,0.8393895752240822,1.138630852171733,1.2753381035540903,3.676437946866157,,0.585052858160615,3.258541081260632,3.4576759858226263,inf,0.8049263466976718
113,1.2370235741614446,-0.11434626438999884,-0.16242238377599882,0.6986076094174025,0.692176580003025,0.15491418989741873,1.3657984224966062,1.3666717603315337,1.2698887098651244,1.9314897357466494,0.5783247308855777,1.7744435914628236,1.0563393750216836,1.4418911312620106,0.7093720820461442
114,0.5705405823394617,-0.04679395078409876,-0.02567876285122453,0.9122975897221038,0.8459325547514732,0.5181911905835459,1.3118944229089653,1.057316857465327,0.7954849451666037,0.6302061160352872,0.6333676938231112,1.1078548700350423,0.37686117326261204,0.2797525656944971,0.8763392598032411
115,1.8260907033523335,-0.2064923575886871,-0.047203388363185016,1.5111032370596043,1.453967848674675,0.858137992289483,3.395201137074375,4.789060803345171,2.8179599768227908,,0.5451288209179292,2.664033315685436,2.7646458687258444,3.4939791151131216,0.8697667252597954
116,1.0524797081131463,-0.17063522806684062,-0.053893776330630576,1.6028411672891685,1.5608249418854772,0.9281925027279337,2.931908146952433,3.099958678437907,3.4080126122330157,,0.468121228110369,2.3161207322800754,3.115093307734393,inf,0.8754251364149004
117,0.60469024399026,-0.06284697219953195,-0.009715857079299239,1.5151879952583729,1.4796984598924048,0.8712004830110944,3.126853475045474,5.8890768707427785,3.044391303418708,,0.5370774965580548,2.5042933635881903,2.8279255546355277,inf,0.8958375125881489
118,0.4044727785757794,-0.03902460664595543,-0.00745147964756755,0.8968981681272772,0.8153519680926786,0.5449881965934921,3.0797432663253246,3.861232410461896,2.012356308758508,1.6837849667630782,0.5022576003740722,2.40474087276473,1.9898082869080422,1.5282188561489751,0.6892857678911428
119,0.4441162380191517,-0.04573693647609606,-0.006929741727654976,1.5488381844279253,1.4259308467991751,0.926427514742266,1.9298277540402213,1.680834829010374,1.4279776302822824,1.3578503258778434,0.6068309995095971,2.0445034903185553,1.223620937119238,1.0535390575089978,0.8753440404183859
120,0.16329253622230366,-0.018018411875485224,-0.005051531748036966,1.4839258295226114,1.415434159948946,0.9277122376989683,2.671849341265577,2.07805685125166,2.392812427503646,0.6897970936746634,0.5915533975974677,1.9213367847671499,1.7662102241130078,0.8243352426843766,0.9039601248079244
121,0.6014474862763576,-0.07334565254257912,-0.03033865122212058,0.7928916256571424,0.7961618914966055,0.6385034586727801,2.400503646219224,1.891123404638884,1.1627642216959864,0.937925604986519,0.6038851895711802,1.3899008567140023,0.8960456506830216,0.73727116383257,0.678191696734653
122,0.6398531087958378,-0.05767245184290301,-0.01906472636574287,0.9274481972848386,0.8840513836824734,0.5871097490275742,2.041162377956484,2.194307529780949,2.293563408593033,6.792355688288232,0.5978297680564633,2.308267876129544,2.015070651084942,0.7007197872139104,0.6464904367715989
123,0.0,0.0,0.0,1.6532407322885012,1.6315047472892545,0.8819771873219818,2.455108649615517,2.1719055598507233,,,0.5677978065141052,2.70805020110221,inf,,0.8306386783205304
124,0.051770347901302124,9.033353365564545e-06,9.056444261416191e-06,1.433392443377152,1.2949701547291665,0.8482121238619225,2.6708013651774816,3.1719375789394872,2.3995455446588494,1.1249184113657158,0.6038851895711802,2.1726295304808394,1.8928036882468413,0.872881413788949,0.8677844606030559
125,0.0,0.0,0.0,1.5318469259593777,1.5106283830485332,0.9255722490342526,2.9024323836387675,3.023354247205738,2.1169246349345765,,0.6309483474627791,2.4849066497880004,1.8359203650138247,inf,0.8612511120508703
126,0.0,0.0,0.0,1.6578039978820722,1.616482000600471,0.9229151654297962,2.9334091730059475,3.7822233026811443,3.2547576367559676,,0.6333676938231112,2.445685936634719,3.2614354392869966,inf,0.8479570178209708
127,0.0,0.0,0.0,1.6659193932512715,1.6369499625524482,0.959044280785658,2.6024355130447416,2.6567444133861744,1.5164868524788988,1.9425600621700312,0.6097226960127671,2.2380465718564744,1.3896332623854053,1.3896444480051726,0.8190511824971953
128,0.0,0.0,0.0,1.6650327023027656,1.6435886380131495,0.9245117600705358,3.2256159485505362,4.7557239123940835,2.5223897430427407,,0.6233814453054027,2.4849066497880004,1.8359203650138247,inf,0.8643471579003398
129,0.7447705463716828,-0.0378707722640866,-0.018962808356689155,0.6235345983093438,0.6011087929157799,0.5393930050070939,2.421911636658666,2.6202279103857964,2.075017214208343,6.610702804203913,0.6125606311107803,2.0153197740386073,1.6131965303482385,2.075266170269355,0.8974876028869555
130,1.1658213153287513,-0.1259744693951006,-0.05352312195639426,0.8241106190812963,0.7726793905359703,0.49316382358739813,2.571178893393413,3.1325544992334,2.2151256991469532,7.291744927737583,0.6180765742263259,1.8873163461262725,2.2123758224224233,5.698434868329605,0.8659671317204296
131,0.2977294192116641,-0.02592598519705496,-0.03554983633833513,1.0563218673203667,1.045342141306593,0.7729874021376507,3.0846585406990368,2.8601310783808844,1.620234740426335,2.524116177321514,0.6333676938231112,1.5527425687575551,1.2667980083780181,1.5904283891949023,0.8414535186060216
132,0.026742631534736577,-0.004286641547218265,-0.0015289451201417948,1.1667255808296815,1.1753197983735253,0.8003295807471683,4.173635769235007,8.579178608639932,1.075490442838303,1.0066116673597456,0.6180765742263259,1.5334547154869507,0.8197221636231552,0.7938952136291113,0.7193703934743666
133,0.08870614188470885,-0.0004503225410884999,-0.019065028673547448,1.120742976755541,1.0969828163491806,0.7714103961828204,3.402544444218355,1.8370135146211481,0.8791948347853551,0.7428432924962951,0.62595550513784,1.5314999823542463,0.7743125353988722,0.6966087439516689,0.8088630066940193
134,0.27838733252704956,-0.05018534392478868,-0.006420080355711395,1.077855108044014,1.0729543986221228,0.7585497748936131,4.443358239006617,6.655544978948102,1.2096810601747827,1.2196380980911763,0.6566669596287297,1.658336415805345,1.1504553550983967,1.109920222675201,0.7674462735223191
135,0.04122130539570043,-0.010030517646287106,0.0,1.1512855195586693,1.1241029027045604,0.7367868573821115,3.379635418382431,2.278519614815139,0.7773287859148309,0.4974252010272073,0.6509067234006624,1.4266072260093754,0.7251660884229267,0.46765569501637977,0.5056571123636936
136,0.10983332791728721,-0.006209814407715616,4.040487650134976e-05,1.138967120825624,1.1121953750275186,0.7602788873795652,4.2022855397303625,3.810663040662975,1.0936928829326904,0.638679809144119,0.6468212168108125,1.6621357014345495,0.9090553169504634,0.5735569932564601,0.7146025818033638
137,0.0,0.0,0.0,1.2539021320964363,1.2611441434559194,0.8441074003745035,5.784268411389195,45.46444275046384,2.303251264718775,,0.684994737851132,1.9902104079518934,2.107473055535722,inf,0.7888269705194036
138,0.05820186198628777,-0.019012608248854004,0.0,1.0687095291264945,1.0599631676746153,0.7642699906148888,2.420645858272376,1.1433814921695271,0.38180237412985946,0.2732918182951217,0.6380535849069913,1.1290371324820876,0.3585765382635214,0.23387374549711423,0.917147950000192
139,0.07748931684282248,-0.005872000903043656,-0.009776895504157251,0.7242743071375553,0.6886353573844909,0.55333407793816,2.311526844172995,2.3731105159620394,0.6074927955991462,0.5293473165829057,0.6547956803312163,0.9056805527621395,0.4447319964699844,0.37200744191731827,0.709581543547668
140,0.2263026478989075,-0.028784297196709135,-0.01760693342563258,0.9333746019497305,0.9167966554208082,0.6993864588912648,2.5995334447421876,3.000548794406809,1.7315895162682629,3.8962190174081117,0.648888643467878,1.6074953559747627,1.3623526034231985,1.2870155323219141,0.9054965765406386
141,0.175449341547187,-0.0036769861244954904,-0.006365047280943954,0.8324988858029716,0.7836757066881527,0.5832087543094248,2.261590457194863,2.1603643438261884,0.8715717803286324,0.7467056633684288,0.6602640781246099,1.1696071628257343,0.6374013171650597,0.6206360576304114,0.8951874649850341
142,0.11921050858442266,-0.015083103514820211,-0.0059029812997661935,1.0451661752525339,1.0236975483550825,0.7297046672599369,3.245010293024492,2.9163477386546623,1.7395285467540045,2.1938744904509373,0.6602640781246099,1.7636904493004626,1.478795241206872,1.895982975098806,0.800053861678807
143,0.10721791307027251,0.0021495021497279186,-0.02357946258857795,0.9871267992692003,0.9685816522908666,0.6977686695874044,2.4432782333912506,1.4968639898205072,1.3273867826144716,0.6381516866074185,0.6284777104787076,1.4289699242894687,1.2673164098924994,0.6936414552219565,0.8836391163195509
144,0.004153898343097954,-0.0009303459871380492,-1.120430396415376e-05,1.2800567703005175,1.248232809725619,0.8502335815418167,2.680542961458448,0.6668772966810703,0.6289666200381856,0.284331985566499,0.6403206450210053,1.487958014896391,0.608335843861388,0.31834073804488977,0.6906701441673312
145,0.0634233562199733,-0.004550614451724099,-0.0039058330442723424,1.3321031293531278,1.313730593466267,0.857513981219445,4.28376627734638,41.20369070227892,1.8747753150172026,,0.6068309995095971,2.0570279468429358,1.8077934571009162,inf,0.8840777502685643
146,0.002913345406398788,2.6819210943892753e-06,-0.0003911279752808943,1.1383760786048231,1.1187849461437893,0.7139985672730897,4.898722755029378,9.342905613872347,2.0733488522177006,1.6060878255488185,0.648888643467878,2.0176568087388858,1.9162710320773102,1.7765436219908017,0.707698316020607
147,0.10463195682034938,-0.009468843305843095,-0.027501114770680356,1.18710646407685,1.1373220252668839,0.795981200125018,2.180636854768033,0.8208050733011301,0.31017334788728446,0.12483925604894203,0.6380535849069913,1.0727821119670915,0.2894485605809461,0.12873308508285322,0.7240700387406239
148,0.0,0.0,0.0,0.9573092114652918,0.9244223990883631,0.7309804482863494,2.1829946627517587,0.7659732880423831,0.343613618625914,0.2287970673119386,0.6068309995095971,0.9501922835498364,0.33808848457528135,0.18808419008462057,0.8661529706566314
149,0.30279671995282903,-0.019711204683924816,-0.014713903919282772,1.2044957752308791,1.190000991291578,0.8249749258892963,3.5536412721744104,3.1372904599724962,1.4986155197306663,1.1083230456364968,0.6528756675646988,1.7769365403364166,1.3234157823476769,0.85307154848163,0.8261732819844323
150,0.24795325700002335,-0.029570455469609996,-0.00018393537039280522,1.3294722441402875,1.3201091739172157,0.868363570134869,4.570696705429192,111.13761635691509,2.797740859523485,,0.62595550513784,2.2045513527226803,2.1297438791300114,1.376176230954306,0.8453420928201311
151,0.2163333442864011,-0.03611767596171448,3.1426422604939955e-05,1.1533268856868086,1.1307804912204118,0.7967058133652485,4.201481168906276,10.541649746996855,1.563300624790537,1.6690229851360492,0.6068309995095971,1.589580820390215,1.4859164216326384,1.5716530162061206,0.734329925026061
152,0.09428355109297765,-0.02715078653338269,-0.00013551006908973148,0.8002212404994804,0.7494123568472014,0.5431988276472048,2.6257352507548677,2.8944545667118957,0.7688070580225926,0.7089997292028889,0.6713451011121618,1.0298327732732842,0.6330059158879315,0.5783377757041865,0.662911378616934
153,0.122692600701371,-0.010676401983368368,-0.01917879752063191,0.9584052182358253,0.9412094102001095,0.7398515487160917,3.75166856078223,3.6221997240319124,1.4258750758365137,1.0503116623924,0.6668815377411301,1.4409617624621989,1.3233061186382398,1.1544441124785039,0.7592257498180407
154,0.0007416251732377903,9.820461183899078e-07,9.919981950259492e-07,1.0234303336937207,0.943905059247837,0.7267333999238468,3.0426827358126163,2.530194607910227,1.0260787744150217,0.8305378224617007,0.6357360191111145,1.6269797638776085,0.7859163499341196,0.46693143020876543,0.8455630384765729
155,0.039292764663637916,-0.0017347164913935446,2.029579399783453e-05,1.0518928006462247,1.0278584036392338,0.6529690268034513,2.946713384608826,2.685327870738755,0.7593423148669912,0.6621330469737137,0.6684167106117298,1.2775396123940488,0.6904798222493655,0.4820350043773751,0.6438340323785483
156,0.00398091733646612,-0.00122081464984961,0.0,0.39547152767488114,0.3288626148168823,0.36058815080319145,1.848695575163689,1.8113912824860305,1.1139133928558556,1.6924892604640338,0.6447042257417027,1.1853327988726754,0.995428052432879,1.2271255185073977,0.6784627267852255
157,0.06524692558958245,2.2546046562564592e-05,4.510660287235929e-05,0.7779944860752595,0.7560331552116327,0.5222256787884109,3.5109961124856275,6.635597671087971,1.358351164960126,1.5659775720402442,0.6357360191111145,1.3731368575156784,1.0017800082308335,0.8506479472724855,0.8316602098973207
158,0.19366114662696052,0.001672863207139004,-0.0108338769250064,0.9126507276258716,0.8717123304467745,0.6105692080109627,3.039649689356425,3.8957436610851888,1.1812605718126268,1.093582029006732,0.6180765742263259,1.626584071269071,1.084136358389018,0.9177958747287568,0.586804983553608
159,0.0,0.0,0.0,0.8912687624848048,0.848222366414417,0.7045274326376533,3.8668130064229267,11.841723433714346,1.287645280050051,1.7013980053531434,0.6380535849069913,1.3217558399823195,1.0895286699350673,0.9012916800912405,0.6286405479843763
160,0.022706243453585843,6.291749154967684e-05,-0.00515048440333729,0.996640502212225,0.9711220520574878,0.7128522438348835,2.87071679094936,1.9052330086655154,1.0691751969913312,0.6177542103234361,0.6097226960127671,1.3727860110950982,0.9325807248608241,0.47114076579119507,0.656139959249466
161,0.13424592765385784,0.0191811484599776,0.019276118262124074,0.8535444767509494,0.8152576115465545,0.6719141005748149,3.005678062255902,2.4573526431638024,1.0567005427016962,1.5654110290719232,0.6008849035917525,1.2849017070234499,0.8112113689443582,0.7236138423590246,0.5498137061216128
162,0.044516552941023885,-0.0009109622635227015,-0.008882679383502554,1.1154770119349262,1.088385758576149,0.7621962626062523,3.0647426051336897,1.7741065614095692,1.1552397080433023,0.6118930723472886,0.6403206450210053,1.5320654333164427,1.036512722499173,0.5769439495298451,0.625408561091404
163,0.046295975792671876,-0.00987647483577,0.0,0.6713217392150508,0.6322812048952796,0.6165720689143016,3.558599193875422,3.381095917088157,1.2982409083810533,0.8844326094434365,0.6547956803312163,1.5689893209534171,1.247760297072134,0.6964972674452273,0.6710281686899948
164,0.034240139086437665,-0.007004269995524934,-0.0008709619943557298,1.1547115461806128,1.1318010367745426,0.8282418428055924,3.26802755813619,2.3757813835995467,0.8858908130221981,0.44196899514425836,0.6619902821573977,1.4908650653041393,0.7897411209711312,0.38534283880830433,0.5954036601459355
165,0.2757086632603124,-0.020704286375274085,-0.014098580625938401,1.2578939327450958,1.240381736760158,0.8527359153143067,3.5330969798698595,4.6572876660000855,0.7159328145034392,0.5061582661448482,0.6652988471865258,1.6923969053738646,0.6500846846194932,0.38832559823146834,0.623509273318537
166,0.08607434215223038,0.002343339144620704,7.803917693379944e-05,0.9321305396876411,0.8887014143377762,0.7125478511754695,2.5801146863972764,1.3532251749927697,0.5891335989901697,0.23344463059232176,0.648888643467878,1.1604522320220156,0.5035005327183832,0.28516251526386305,0.9167823068543282
167,0.15441282830005315,-0.01608190874355454,-0.007080015501453433,1.282035437757919,1.2687470164856673,0.8500561959879043,3.878214355765216,35.816549770310175,1.523814568196522,2.2148349930662716,0.6380535849069913,1.9584439252426107,1.3398960709798369,0.8026935541504497,0.7615653959171632
168,0.08798577335086046,0.0048643693834892615,0.01412351721311661,0.8666313889593508,0.8305398305611275,0.6564339167292655,2.774474866956059,3.570188651570315,0.5890302411000004,0.8841292266170814,0.6547956803312163,0.864304621983144,0.4224058762563749,0.4324182799536288,0.657923305996034
169,0.06116516030364563,-0.014852099805868248,-0.002126702143229434,1.165127249478088,1.1087661828989381,0.8065939827520073,3.339700133655905,4.754733243282158,1.1220505208770732,0.7912245711071345,0.6180765742263259,1.2447562193434762,0.8446009871237362,0.5426583083590001,0.8264047249555921
170,0.08437758965623998,-0.012790892047281207,-0.004782497618941261,0.9872527345437262,0.9538559147237998,0.6677298231515347,2.873664861546325,2.7479095744237974,1.6600138935394775,3.70284064534797,0.6309483474627791,1.4566214556199788,1.3516174727376637,1.7470834519028815,0.9005434847427172
171,0.06850382437141814,-7.982648100835973e-05,-0.016765739242994817,0.780062988525565,0.7779639874845738,0.5212264216828033,3.1644322607681827,4.231645906641949,0.7999535348328801,0.9593977498666576,0.6528756675646988,1.1938758028946228,0.7079217715423695,0.6758093306399282,0.7399119265148488
172,0.06436560429754062,-0.006887287507960518,-0.002741198435564326,0.831271414694705,0.7774585108001558,0.6527592734183539,2.9281366179159303,1.6871952949998796,1.5267024070317423,2.1604341402131553,0.6468212168108125,1.3168097587005614,1.0874389880699844,1.1312422226749825,0.7950889437298925
173,0.0003081959243243758,7.636748321912187e-07,7.714427459352068e-07,0.8882018615146561,0.8487512063143947,0.6475783750179445,2.983054232931723,2.6657870205311376,0.5655052567094703,0.5248040517347738,0.6180765742263259,1.003605185089775,0.4413074785185274,0.3542071600260449,0.7947082798096717
174,0.016291764504638314,-0.00488231935529701,-0.00032117735116606993,0.906449009142692,0.87350616939383,0.6578381202548285,2.365740784547735,1.7308831990138853,0.25994448855654195,0.22060329417533095,0.6333676938231112,0.830291440944957,0.248289488418199,0.19573486379733307,0.6384883702134422
175,0.05183377672321321,0.016106381810491163,-0.000365852266258751,0.8337731458254619,0.7893649450944766,0.6041492242234879,3.0444359523111797,3.750713261325129,0.9236923827116433,0.8797999616620391,0.648888643467878,1.185550941029512,0.8195667787779558,0.7270544234151521,0.8328852428808702
176,0.06232194388453953,-0.006589507175263224,-0.006702092689299545,1.1943351676417922,1.1183841078614347,0.8054825869654291,3.2661745035839385,2.2772765887323754,0.6631918157550967,0.4634794200661357,0.6233814453054027,1.1368681341226423,0.600529420419402,0.4065706564937436,0.7352888545392453
177,0.047531324344912244,-0.008012477240280222,1.4175439449003397e-05,1.200412692498293,1.1731718602983385,0.8148898022071276,3.3130048730265758,4.309147090360352,1.1932012792022233,1.0468024080221379,0.6447042257417027,1.598278192175101,0.9483620274182605,0.8048150701739798,0.8104221940895393
178,0.096535284968106,0.0015496878737645756,-0.01991406250721601,1.2083618829853586,1.1440203278761427,0.8214323371393288,3.0618969895721633,2.232285288730193,1.22113737410915,0.7446668879239896,0.5883313578629602,1.52960035400736,1.0516703640637237,0.7887510461226218,0.6351495488823036
179,0.08778476678343544,-0.026079032066106185,-0.0068471357453432176,0.7303147842745186,0.685543338908102,0.5794005808880096,2.6004153244382553,2.411653515543898,0.9646965801867425,0.9636268321455203,0.6602640781246099,0.997440533631738,0.8663163161035671,0.8570409241894075,0.8237988085066154
180,0.04522140306795748,0.0037435234349577837,-0.0008747167247915369,0.4548892887295086,0.39383266424223057,0.40249718286296965,2.1822908142774806,1.5748475768162633,0.6993511322574363,0.7322020691722895,0.6380535849069913,0.8837697623932864,0.5153622048614932,0.3911619098116653,0.6695899966016371
181,0.020342090836102347,1.305960048286585e-06,1.2771892440211104e-06,1.1532358549871857,1.1156353526423632,0.7782127900692906,4.2544081630100195,45.26814358043477,2.1999168347303946,0.6897970936746635,0.6528756675646988,1.7087672694322371,1.6635187687354982,0.872881413788949,0.8353118855104902
182,0.0,0.0,0.0,1.389247239974286,1.367409927387754,0.9125318651680655,4.026167813305192,63.43535188003146,1.7312621541225917,,0.6425374456860184,1.7719568419318752,1.6325794409957948,1.6127879993193823,0.8716994684152063
183,0.033542247342934775,-0.0022055016206440174,-0.0023552175291329676,1.3242022456156348,1.3047129310670733,0.8578545117785847,3.744449235715015,7.03932329404452,1.3307845875254665,0.5757495872033672,0.6357360191111145,1.5970702636254388,1.166316482516237,0.5053214524744006,0.7853017079339816
184,0.017518701879383074,0.0021362028683514153,-0.002414753983619544,1.0665787839854979,1.0252348217906337,0.7939490892029141,3.652111085163285,4.092809386789937,0.9780935786282743,0.9009408165241082,0.648888643467878,1.228379346727175,0.7325090855088515,0.45872997752385675,0.7419795950937849
185,0.028113636751457272,-0.0046611110919953964,0.0018537215571916691,1.1069858352177973,1.0510617042295656,0.740204302346533,2.857714688168125,2.9727488186858886,0.545247982531794,0.45437081329450113,0.6380535849069913,1.2353105954376473,0.4437156038031683,0.23076633689883222,0.7896334293362407
186,0.006912234308471013,-1.4165484087076859e-05,-0.0024281573049060143,0.9793988723386062,0.9051519562933953,0.6523416834207906,2.303687707096811,1.8226641210827008,1.2581291913687251,1.195593369035652,0.6380535849069913,1.0461463487648077,0.7816548918105127,0.9922984643355124,0.7520131765997995
187,0.08186819999031042,-0.014587405374142708,-0.002877810623790181,0.2961992331241894,0.24736547868681413,0.3858206621472297,1.7289813340227067,2.057862685212693,2.1362034139643318,,0.5978297680564633,1.5725703932215744,1.8023096801232075,inf,0.8238133511278694
188,0.11147704876978673,-0.021750439364521278,-0.021691656198764054,0.8055910677869998,0.7632667820744525,0.2013709414039289,1.513009461992987,1.5462690094446891,1.278447729648166,1.139592258887255,0.6468212168108125,0.9778115885224056,0.9718500329588604,0.9281888558612269,0.9605908396898064
189,0.30302486847375343,-0.028982644201344887,-0.04118083444639291,0.6062058831807746,0.5153756811390141,0.3685122322392473,2.0604903956349387,2.30659158929236,1.2056323777877471,1.3745505297127238,0.5978297680564633,0.9569102006078455,0.9748779132239127,0.8727729876512957,0.8823777895349161
190,0.022747763089280663,-0.003932808452448691,-0.0009958735502287861,1.099393453458796,0.9610902408449845,0.7222940695445076,3.481849564653394,10.851499365987394,1.5996424144704853,1.8601854451615163,0.5978297680564633,1.5441184463134578,1.2870414519508608,2.186164383982734,0.6589648216460376
191,0.034577008749968115,0.006127131324737264,1.8575712863538874e-05,1.1761079772429477,1.144324405562517,0.8025355163621608,4.799483022978576,22.970357825005685,1.7537524390166634,2.1938744904509373,0.6509067234006624,1.7494665570378036,1.6234673593514926,1.4950450773054367,0.8838949034939737
192,0.04359294293968412,-0.0017851788358811647,-0.002345081573808871,0.7948028739544877,0.7161417843461012,0.5780417249755079,2.172270563957795,1.5987689201905417,0.45087884074708756,0.2609075954421128,0.6333676938231112,0.8017722784315631,0.3496080757752023,0.23362594792849395,0.8857902755084143
193,0.09350167397314076,-0.01988090264055927,-0.001657321120900411,0.5545396944329517,0.5218914121729303,0.4839748671281941,2.1572035823052453,1.4864553778917466,0.4610820562405353,0.34020005519246316,0.62595550513784,0.813734143549063,0.39053500097758953,0.24816501909778305,0.7308959865403775
194,0.010153250208101101,-0.0002748049089863595,-0.000903017479044893,0.8298313003951295,0.7680072877022184,0.6741003290351855,3.0821953629153858,2.211854868464247,1.3353134506934907,1.3601603773564626,0.6509067234006624,1.5702171992808192,1.1173769932540087,0.9771348013468255,0.7954730069944784
195,0.017619003788127058,0.00021046169569580424,-0.005314265097409889,0.746257252520377,0.6738260773137723,0.5677741842185122,3.7327792400316224,3.5013609040416287,0.9686938969603314,1.0523632345550546,0.6584896970785714,1.1911297052020182,0.7520730011750554,0.5518889684692919,0.8604239071495376
196,0.00027137776596705443,-7.869955213044579e-05,0.0,0.796290935101134,0.7549363490999706,0.6418731431041126,3.340007293211861,3.1557603880338743,0.8795255381854374,0.7332681178826642,0.62595550513784,1.2381425912071802,0.6847891507962744,0.4202438908170691,0.9150439572081618
197,0.03808347850761053,-0.009510155900590291,2.6717380857723934e-06,0.6264810691138881,0.5633451081170456,0.39368422853305907,3.496139984389704,4.5781773581803975,1.57089172863936,,0.6038851895711802,1.3653594774644513,1.3517314682899078,1.2208198306259146,0.8573187918012722
198,0.00012366300983387402,-1.1129670885048663e-05,0.0,0.8299806332888096,0.8087170417197189,0.5911314374415877,3.0840992000761114,6.686412804372312,2.1937622116591644,,0.6153451465759925,2.4080690730634124,2.200440014190194,inf,0.8132048455909213
199,0.06291849286645879,0.0026581283109253125,0.0027809477737759797,0.6866200010368804,0.6025945447376923,0.577937204209533,2.6592091534258406,2.496626277120013,0.816005507677402,1.0918380216140682,0.5947193981915972,1.0747330148781664,0.6641177986944864,0.7795436803763368,0.730691962938472
200,0.058805158656158825,0.00018810143857770148,0.0001930295108673978,0.6187769693460927,0.5761237262988024,0.24470457989524927,1.9553212823106239,1.9064980006906045,0.8695820115194532,1.0907731626104147,0.6153451465759925,0.863856422025734,0.7249622032056308,0.8849502801461797,0.898965938887948
201,0.09205283014240467,-0.013464696659858548,-0.011795791661005122,0.7430107810821137,0.6999698948220443,0.42982690744416224,2.094966469359717,2.8313310185667953,0.9714842252222241,1.2453356308456378,0.6180765742263259,1.0633416745861903,0.878698195891024,1.0286746401014888,0.6852080422463888
202,0.18102589608032674,-0.005919892913599442,-0.008451636691172326,0.8353506432784834,0.8133273825184962,0.2668278162423737,1.6864037227008013,1.6172211297662469,0.783128476118851,0.9884741654343493,0.6068309995095971,0.6179160298836309,0.48835887511982434,0.4258419488040646,0.7732674214051825
203,0.2820739819482859,-0.04977276571038862,-0.015215490748600659,0.5621322373217318,0.4978742267067889,0.5033457848874555,2.399568184315705,2.0570151162945023,0.5472419639570419,0.290765168557368,0.6097226960127671,0.8905688388765454,0.5017435945689082,0.21081211693205476,0.8050258937144318
204,0.006841046160751077,-0.003010060310730474,0.0,0.9461884162463678,0.8445838231714609,0.6843068917918875,2.0558430593017643,1.4179835157525398,0.23921377395376403,0.10181496993229584,0.6097226960127671,0.8265008112072866,0.21718147060236184,0.10244098952951289,0.570275396978004
205,0.012451209670951471,-0.000883063729766292,-0.0023126023441174858,1.2116335421847093,1.1353290912644864,0.7931764151924279,2.9051581052556843,2.9040523686006474,0.7585144830079835,0.5592983804142745,0.6233814453054027,1.1191211652996502,0.6925009330246565,0.40958784176242397,0.774733470941017
206,0.0,0.0,0.0,1.3445025635645,1.3214522480331308,0.8757484121058187,3.909342294661072,2.95949573042525,1.2651724241979927,0.9411115219555694,0.6447042257417027,1.5448993912965292,1.1664897110711956,0.6964972674452273,0.7262657762564017
207,0.039273064509869365,-0.0024968381841458196,-0.009546901598880787,0.9096145276368797,0.8287734863909995,0.49373340930112086,2.610270599802857,7.316869446867283,1.6637387906150003,2.829863257170934,0.6403206450210053,1.2034914387194702,1.4309985592747114,1.9773691761447065,0.9030361249400162
208,0.10995220628721289,-0.0056101379333696015,-0.016746810678363686,0.7147713653764854,0.5625012139970954,0.5774953001169482,2.9303242590953014,3.46531370744914,1.5119499466720583,1.1758193127598884,0.6207552362147116,1.6230298659535674,1.4445565113684073,1.0334471730509227,0.8573380382171529
209,0.16020189588190517,-0.023234027269928424,-0.005602313988814505,0.9507798194989745,0.898155927181839,0.6193588213980062,4.167904647856895,28.83326815681517,2.1424249109502282,1.0958194600864657,0.6447042257417027,1.7657019349087653,1.83883637077142,1.4127859765668669,0.6476153962702651
210,0.0061304806738215496,-1.809644322777978e-05,-0.0008296096488442,1.0972398985775063,1.0655436556657147,0.7820643200131226,3.691846060683585,5.417179289959307,1.3456537375930522,1.3879905423022327,0.6468212168108125,1.582201113557853,1.1984197803791925,1.1578601704541223,0.838820939896299
211,0.014557513870837606,-1.0648826762636038e-05,-0.0034831545022383894,1.131512084616173,1.1062168866740159,0.7900180146713462,3.849108805777226,6.390528060555143,1.331820902409519,0.9813536382340029,0.6380535849069913,1.4380087968065693,0.9650106935092467,0.5348632502514004,0.8871307980843137
212,0.0,0.0,0.0,1.0105827358625081,0.9657454605399889,0.7408656541242008,3.2254785305332296,1.6414370961358031,0.9011173729616377,1.1251151649325088,0.6097226960127671,1.2729656758128873,0.7205836334045204,0.6723997158661668,0.8449638277434938
213,0.020682845733915156,-0.004757054518800486,0.0,1.2559242956985055,1.1818811149534818,0.8411644098047258,3.712948338822622,6.192976915182136,1.0841977859887593,1.5227062166097676,0.648888643467878,1.4807515714727773,0.9682732664274563,0.8635513521083934,0.7158117014628976
214,0.04954145917834154,-0.012780521846533142,-1.6568031680181056e-05,1.0482833374383038,1.0016414298612095,0.7474367920691153,4.257357347522234,4.032758782315038,1.172520397952325,1.664924503299755,0.6180765742263259,1.2502106728192237,0.9148371728217745,0.6807330289272915,0.7205348765459253
215,0.0,0.0,0.0,0.8310529878385459,0.7840516933535377,0.6564370194253846,3.4055391469286365,4.712979842356031,1.2425981021594537,1.249412881610086,0.648888643467878,1.41332303350781,1.1157445120659601,1.2354937681779143,0.482898461002733
216,0.0038673004525289507,-0.001173081137267115,0.0,0.8371820844012322,0.7798263938209365,0.6909224896482041,2.990099650051745,2.4802163323715494,0.6261798844670375,0.5167296348228752,0.6180765742263259,1.1961883670160047,0.5596892903242835,0.3710748670105994,0.8354001180787903
217,0.015721203407074794,-0.006869130344566369,3.2580995842611e-06,0.8410342391074341,0.8067975688808318,0.5555566711586263,2.214668653921562,2.1699940328171916,0.5996379553313818,0.5368883886999645,0.6008849035917525,0.769764280850508,0.47294935179185865,0.32670260544224783,0.8881822044551088
218,0.0050274905882876355,-0.001173081137267115,0.0,1.1453618752225707,1.1338593397887928,0.7877104366414529,3.609453021335363,2.353785096015785,1.1055604462530306,0.6470920564387712,0.6357360191111145,1.4595343340256024,1.0287112170279125,0.44963718951370146,0.6692205384294714
219,0.08161128811833591,-0.015234107115422703,0.0,0.8947742036752564,0.8543602153690725,0.6537782944584775,4.179148074548961,16.09279950671643,1.914475929892424,,0.585052858160615,1.7002747791058765,1.5219399470278387,0.878818824239182,0.8290011906790378
220,0.0,0.0,0.0,1.744545415247808,1.7163339792601038,0.9509457500426532,4.07491878582411,2.0971647929231896,,,0.6333676938231112,2.371577964480997,inf,,0.8391433890852797
221,0.0,0.0,0.0,1.5297274445078748,1.5038056222822633,0.8284362903635748,3.778758876793765,23.710590475625285,1.970742124756495,,0.6528756675646988,2.120263536200091,1.7950983704935697,inf,0.7778399593665057
222,0.0001043406645473312,-1.1129670885048663e-05,0.0,1.034760829613307,0.9898330568376468,0.6853931372014289,4.347195290446056,16.910686483584232,2.3636805407737116,1.0952622017828277,0.5883313578629602,2.2381507439488653,1.85953271953875,0.919640818759437,0.8781215812536035
223,0.13489484569362495,-0.021133525825334575,0.0,0.7810972927203487,0.7595410601466452,0.5946044357204399,3.511646909863211,2.9978191205918905,1.707903210623635,2.076091454794554,0.6125606311107803,1.9130988210872157,1.7145810131546642,2.082791628565118,0.860897712448153
224,0.0,0.0,0.0,1.6457744719921497,1.59838483544043,0.9387038385589198,3.3751645544244844,2.755029205846166,2.1684248577179197,,0.6468212168108125,2.0661963149298153,1.6950149119365872,1.2561130553806499,0.9207587031232582
225,0.0,0.0,0.0,1.5412888918814456,1.506115017986922,0.9572514191410418,2.8462460435957135,1.8134735148062329,1.5305914586604406,1.627050368728532,0.6333676938231112,1.7719568419318752,1.5372692611914698,1.014950998563762,0.8958999078062383
226,0.059985728162820884,-0.009197811651632536,0.0,1.3447663842729864,1.3071457799418684,0.8669440825705339,2.0214129455201943,1.882011991255041,1.7252884647628537,0.9774791661264444,0.6425374456860184,1.8957135669479968,1.3265011591857185,1.1019623755533916,0.8710498778804695
227,0.03085335009973839,-0.005252722610578133,-0.00040372490770723837,1.3047729728300754,1.273829020122712,0.870315454241987,1.790644250734756,1.9431114786439883,1.3039252776934915,1.293802322705958,0.6180765742263259,1.7130715249860642,1.0040194207682949,1.0474703679973252,0.9211294535968713
228,0.0030864684451757268,-0.0005864290045833881,0.0,0.7845527686878976,0.7113287411749756,0.6155286890723909,2.347638667333945,2.414206341350134,1.547428061452405,1.3873936697841507,0.6528756675646988,1.6636594666007394,1.2708731870811951,1.166500896690963,0.7470707361037011
229,0.004336389201232524,-0.00047700281213557767,0.0,1.5048710985636633,1.4839785560107577,0.9283623865545951,2.5777553568303966,1.6019284430514076,2.7959728911150203,,0.5783247308855777,2.211323501715721,2.3971855855378847,inf,0.8939727744035149
230,0.01626244050920707,0.0036422827660168057,0.0036666538331081066,1.106188625114928,1.074066025156285,0.779668078956939,3.5561463501846955,9.233460476100124,0.7814575484921877,0.603091154782166,0.6403206450210053,1.479726305912443,0.7414836341742875,0.3986767701861746,0.7355766254284074
231,0.21386294089493663,-0.017234202767189948,-0.005703659396660352,1.2129328080181594,1.1588539624891891,0.8101026641885706,3.650265289418755,2.835710721087733,1.9800352295384562,1.7884093823427731,0.663668482632973,1.928648874624175,1.6528720611692618,1.8123288574761633,0.6916929233409654
232,0.13531602673146892,-0.01714003005265273,0.0,0.8704189690849498,0.8000198940911258,0.541207098551629,3.9809718832492456,3.5553703619777672,,,0.6547956803312163,2.1427363920521496,inf,,0.8600667459639957
233,0.38365423156380735,-0.053611153512835,-0.003244323723485683,1.0627734403233757,0.9520839439403022,0.6773926100293208,3.1859917392741677,2.6437943340058006,1.874762736250538,1.239811271599866,0.6713451011121618,1.8893722980950554,1.7445981838571527,1.1311076659929378,0.8580447611730704
234,0.05295109448654446,-0.00041509072523030193,-0.006645055206308959,1.3963476490856612,1.3268911979295914,0.8163548401200669,4.405621537296379,28.615022202936224,2.7370283495940884,,0.6468212168108125,2.039793569387391,2.2473270075325233,inf,0.7133092360553941
235,0.0,0.0,0.0,1.3616662048905412,1.33601175831616,0.6715379566434537,3.3040837075361917,10.804175554389937,1.7884205679625402,1.0952622017828277,0.6403206450210053,2.120263536200091,1.3896332623854053,0.8142803031016107,0.7741577898962441
236,0.0,0.0,0.0,1.0229210080530953,1.0068935298440824,0.6898948173572513,4.139248120536428,8.536349734143915,3.282307588524198,,0.6357360191111145,2.2380465718564744,2.7759276235052956,inf,0.9306567620700474
237,0.0017620069705573766,-0.00028973712022240124,-4.504420418350031e-05,1.2279190003009128,1.1613284991510031,0.833088710475424,2.8577495302414535,3.2341025767826426,1.3989576908437784,1.249412881610086,0.648888643467878,1.6624285529316494,1.1009581932100267,0.7498601393291023,0.6646743784037813
238,0.03773508693968468,-0.0005210165648722475,-0.0036298429984930668,1.0641192691700254,1.007487544352355,0.7286095713898808,4.091713983584131,11.990351039671932,2.369601098187542,,0.6547956803312163,2.2322301865350345,2.269581486465903,inf,0.8524453876859991
239,0.0,0.0,0.0,1.6450814865193533,1.5994238860460357,0.9644346198444336,3.7272497083619758,16.097126457721174,2.2228117353924657,,0.6068309995095971,2.0149030205422647,1.7463082063241377,inf,0.9230447242317185
240,0.0,0.0,0.0,1.4722476623246963,1.4292683206070547,0.9052497355021791,4.782172981802383,73.80001399549933,3.462397001534212,,0.6380535849069913,2.2380465718564744,2.3704625153971315,inf,0.8843587901898508
241,0.0,0.0,0.0,1.5690578631347532,1.545140609993981,0.9557593046878016,3.897568651964103,8.226406806700982,2.0507848324300317,1.6060878255488185,0.6509067234006624,2.0402208285265546,1.7209903983398478,0.8506479472724855,0.9026110338542828
242,8.786582277669996e-05,-1.1129670885048663e-05,0.0,1.492449103594047,1.4598888083191137,0.9281152638783922,4.454666718341014,14.300115701657447,1.6882493862597496,0.8439477735019216,0.6509067234006624,2.0662840380756236,1.6949271887907789,0.8506479472724855,0.9049977189853042
243,0.0,0.0,0.0,1.3719122995064232,1.3495582810858253,0.8446738926116367,4.296091615854929,3.841722980948586,2.0248093460267707,,0.6566669596287297,2.0661963149298153,1.5614835193120644,2.082791628565118,0.8253729229390104
244,0.0,0.0,0.0,1.4638771958357297,1.446002022207651,0.8988274867718992,5.0500402968472216,78.33898957138913,,,0.62595550513784,2.0661963149298153,inf,,0.6986040148411701
245,0.6040673577023201,-0.05490711871413588,-0.04880214730780097,1.2516770610675758,1.2136146937950782,0.8177558227026569,3.904330383119562,11.242759856287627,3.1224783052820286,,0.6425374456860184,2.0188273774344214,2.427441525967814,6.961296045910167,0.6897258817480936
246,0.6678465721810657,-0.062091457295267286,-0.020276286607064136,1.6503481209838,1.628168271602134,0.9275229797605029,4.217518946653668,18.43255929945334,3.4829249379822933,,0.552929491858785,2.48424020524484,2.9884305484479747,inf,0.9438429955654097
247,0.07196568270724302,-0.006716797052676015,0.0,0.9012091282759919,0.8079594514606168,0.530574451059381,4.018898255247867,5.311747198414369,3.2751885231668623,,0.6125606311107803,2.425255050223824,3.2818663256978917,inf,0.9222346759261075
248,0.06126571578780345,-0.005309695368276299,0.0,1.7287353865092303,1.6968581538847514,0.9564733800022055,4.163727689222184,20.287870314328938,3.223637359636554,,0.6333676938231112,2.4768062137541325,3.2303151621675834,inf,0.9031206072045651
249,0.030899954621702756,-0.0006116721555500526,-0.0016476684071745473,1.5932502104979296,1.4797544191755114,0.8903914036010964,4.183130752698152,11.089359345047672,2.8960738179888432,1.391116948586107,0.5947193981915972,2.089716369620934,2.8195664302150343,1.2942754623996384,0.6850319586505249
250,0.0,0.0,0.0,1.7340780577607395,1.6995101751298003,0.9147828499656231,3.5891387800567034,10.69981384882281,2.5993507841788692,0.6897970936746634,0.5748741956352443,2.4079456086518722,2.200563478601734,1.1019623755533916,0.8885984637698946
251,0.014034170516264455,-0.0017776615987268312,0.0,0.9923688292421063,0.9534433438701816,0.6946376876962371,3.508622070810458,2.8629640537393337,1.5438689346324515,0.9774791661264444,0.6566669596287297,2.077133097078399,1.4327637015070973,0.8142803031016107,0.8700900991502027
252,0.0,0.0,0.0,1.223916945897986,1.1837681719840416,0.7820130250306463,3.447751307630727,2.0492419380544775,1.9135837109165463,0.9129406449888731,0.6284777104787076,2.17742195004004,1.9202615134475756,0.919640818759437,0.8980320089613769
253,0.14722600487862805,-0.00016234731851155065,1.8134755160013893e-05,0.4017164427223622,0.32734190744301883,0.4546707000214756,2.8488595279161304,2.5525763857825083,1.3214214521106957,1.220031798883663,0.6068309995095971,1.5462023230769453,1.1168745123825339,1.2539587117922113,0.8195117975125243
254,0.1599569341382557,-0.018831984896497615,-0.008893883687466707,1.4357641334119433,1.3916864749894453,0.9051608531570813,2.9801778538347117,2.762674459541083,1.6289062848215428,1.1645275494607619,0.585052858160615,1.8050473635549904,1.331992490702341,0.6275214594943529,0.8851230379272567
255,0.04744946305204717,-0.005535770689405503,0.0,1.6817530155699123,1.6515106201103391,0.9392415972320938,3.6064722639700433,11.54688220471466,2.4299820137175856,,0.62595550513784,2.1718492710049913,2.436659816248615,inf,0.8903124651643085
256,0.0,0.0,0.0,1.3690301637633182,1.3507807570736472,0.7890495567807483,3.622595899292545,2.2861778432706195,1.9425712477897987,1.3829442742346088,0.6403206450210053,2.371577964480997,1.7261054990066182,0.919640818759437,0.7788205581076545
257,0.0,0.0,0.0,0.4702349979183709,0.38456536365544686,0.510624955879736,3.675230488377911,3.8855881526025224,2.171412820218646,0.9129406449888731,0.6207552362147116,1.91959284073794,1.9957690659557208,1.1019623755533916,0.7613972518989321
258,0.0,0.0,0.0,1.3203645726417303,1.2270176158666086,0.8012272925690351,2.9180129148942187,2.247531629292684,3.1747149290824312,,0.6380535849069913,2.5257286443082556,3.1813927316134603,inf,0.8719143108729138
259,0.05984329290230395,-0.009973882150383992,0.0,1.052615060962488,0.9932108531111131,0.6527474277485749,3.2346156417552985,2.341231650697119,1.5849961916059183,0.673613328451314,0.6333676938231112,1.8290460540140716,1.5754902289135984,0.6964972674452273,0.7914338083238266
260,0.0,0.0,0.0,1.4242529438270752,1.2473451000850495,0.876867090472685,3.60116091442575,6.4084782710913375,2.7375011226596864,0.6897970936746634,0.6125606311107803,2.2697952701710546,2.7441789251907154,0.6964972674452273,0.7854700293455938
261,0.0,0.0,0.0,1.7275919893935956,1.7069618936711504,0.9580136945487688,4.00985661682453,4.537186649847206,,,0.6068309995095971,2.17742195004004,inf,,0.8892169690112184
262,0.0,0.0,0.0,1.7272453452353687,1.6914872809020176,0.9510010665493482,3.8574567911244038,53.517643792590924,,,0.6233814453054027,2.371577964480997,inf,,0.8632989564617031
263,0.013503023555098073,-0.0009002015703398716,0.0,1.6584441934033873,1.6572700080411409,0.9118111951018437,4.1915203350561425,19.179369817339637,2.980489467785652,,0.6068309995095971,2.7199541056050345,2.9871672703166814,inf,0.8503063797801905
264,0.5730781874002432,-0.04584625499201945,0.0,1.6325953965855275,1.5960742221527928,0.9131970483304184,3.707982827386102,8.247826408293294,,,0.6180765742263259,2.7681541251719155,inf,,0.9087959517091108
265,0.8000089898699736,-0.08147064898687947,-0.003863643265917706,1.6867357017211515,1.6898368636914827,0.9259724644351559,3.200425225959064,18.651084649958946,3.410589146188024,,0.5713653840954815,2.6243219855714974,2.9310404839664304,inf,0.90226401797484
266,0.8524374889628177,-0.0655652809490512,-0.044093084720043495,1.6524796515820221,1.6428376831025833,0.904406333349061,3.600940896806432,5.806442737134576,2.6004414288511564,1.0698959843331708,0.5068466436745385,2.4305447351019898,2.5031295178581376,1.1220325628762082,0.8860260998177576
267,1.2524631927898164,-0.12607242850171502,-0.028398031942362335,1.4724217722319637,1.4394390086100355,0.8650838108082859,3.1870998079352573,3.5563624690773805,5.106587008711821,,0.5329562494928909,2.7977925766030713,4.347092495668015,inf,0.8692317663450064
268,1.1458160636188581,-0.14209775609939318,-0.018316492807246957,1.671417097309005,1.6763195198896244,0.9253596666717684,3.306650949650123,5.298357819970024,7.585310039621479,,0.552929491858785,2.4292827460400033,5.171619713502079,inf,0.8722974426401857
269,1.4677887183258957,-0.2096664661283438,-0.015394470681626898,1.633703980358134,1.5908804631324507,0.8721458564885295,3.0760211898252496,5.202703419568007,5.872524157451947,,0.5287703885177266,2.483840551606003,3.4943787687519587,inf,0.8777020351500523
270,0.898669610567407,-0.1017005544287292,-0.00014866810224359133,1.6700204860208339,1.6559678820672077,0.880397546264064,3.0152228226947817,8.804143176405443,3.242283516588935,,0.5641709578113449,2.6056440452708203,3.145929093221729,inf,0.8996152189563855
271,0.9526083899161157,-0.09380177505008336,-0.054896420778929894,1.1572533946705086,1.0032289843327342,0.7402640707519705,3.063677596290054,2.83890871301135,2.717523489899064,3.6001554448647815,0.524519217297268,2.0807757646929725,2.238380405944035,2.9295256953157227,0.9392767555180429
272,0.42774412982382093,-0.03647840634195662,-0.014959057389115935,1.652051333640165,1.6015745473120209,0.966400850911892,2.192767543613609,1.8074615427980398,1.9794212010504089,2.5747654852066684,0.6207552362147116,2.265289308250349,1.7313237654784166,1.224743251683143,0.8930460019612945
273,0.18600980759526273,-0.0269153628858342,-0.00036607556147100266,0.6922164699253324,0.6490919484373114,0.5736425612502606,2.7132846197881575,3.137235103757302,2.0419680269292217,1.6888538604456549,0.5748741956352443,1.9662715991305277,1.8098616856049692,1.9343381780715008,0.8593652392304776
274,0.27460261098364774,-0.01936813256019908,-0.01906495328723407,1.1328911693212727,1.0468068884865873,0.7630011938022795,2.484739337639705,4.154345104707836,2.1174889616536046,6.132465729484769,0.6038851895711802,2.0456199932043253,2.05206347028329,0.921320080279157,0.8225543093588717
275,0.6644045606620047,0.051502539824493876,-0.08802886584244798,0.9348794203587929,0.8589776430748459,0.5062512058113801,3.131809978755379,2.5924245582078647,1.3386613284412023,2.6522173387540016,0.62595550513784,1.321089395439159,1.0743422479212386,1.1118672691843032,0.7429173848287879
276,0.4439764568595579,-0.04758274431653255,-0.0027345874608839986,1.6516017904334839,1.628822380786776,0.889134825938937,7.16027269822952,42.596725787264546,2.34199200827478,2.042471303606516,0.5748741956352443,2.3183757789003696,2.1528464345779827,0.5461020687686998,0.8522033367478583
277,0.12908500156296768,-0.009872055331581055,-0.002175878147629262,1.7290784762955158,1.6765536458013128,0.9523121878315866,5.095452411555638,124.73142629436174,,,0.468121228110369,2.4639282434028087,3.8937806986600565,inf,0.8971422713347732
278,0.018163513149703044,-0.0014530810519762434,0.0,1.7501800439756536,1.734162697590426,0.9218136360534945,4.952607961174585,280.3943500619818,,,0.5287703885177266,2.540560313978835,inf,,0.8777795836879901
279,0.0,0.0,0.0,1.7225280040079722,1.711929813036774,0.9215410702173359,5.018198081762269,11.474864119314212,,,0.6153451465759925,2.70805020110221,inf,,0.8471057500591685
280,0.0,0.0,0.0,1.7426030993778951,1.7085156186959716,0.9647782317901531,4.5443897297583025,41.17754904329855,,,0.6038851895711802,2.659260036932778,inf,,0.8304355706281855
281,0.04986369447032935,-0.0024931847235164675,0.0,1.7562615232613714,1.7414114999380734,0.9454524514519792,4.176552519291979,64.33144787495922,,,0.5677978065141052,3.031474598874165,inf,,0.8347523251075198
282,0.0,0.0,0.0,1.758094173795709,1.735765673368368,0.9713928632384611,4.75178165387518,53.40446358931163,,,0.6309483474627791,2.7593434954897607,inf,,0.8070045560710264
283,0.2592628397571,-0.019012608248854004,0.0,1.4678122797817312,1.4575377758013395,0.8371122596935789,4.276082827860817,15.562031489448792,,,0.6207552362147116,2.6591013193703468,inf,,0.8063605214859629
284,0.05431162111366913,-0.0066984332706858584,0.0,1.0456924358318642,1.021494733244479,0.6261557797127019,4.291077904930491,12.426546600617709,2.4827707283557117,1.0952622017828277,0.5604843169999094,2.119060556366865,2.489448530886741,0.4088151949934463,0.6748812293527362
285,0.0,0.0,0.0,1.5132651324497706,1.5238088539021464,0.9134312581181305,3.3654307377747763,9.71604291918731,2.5401042509750584,,0.6284777104787076,2.120263536200091,1.6409476906663114,1.2561130553806499,0.8671842961939981
286,0.05599873508492726,-0.008026485362172908,0.0,1.5529759904507776,1.5280269549695624,0.9077323615931608,3.9175732834550936,4.897057074113402,2.1270333690828642,0.9129406449888731,0.6357360191111145,1.9639722918737217,1.7972389349926805,1.2561130553806499,0.9042907102692034
287,0.16702149280333325,-0.020599317445744433,0.0,1.096289756471951,1.0673797535732776,0.6188076230781657,4.798321110082903,13.517920782777484,2.18504123204132,,0.62595550513784,2.130781620787505,2.19004539401432,inf,0.8366188005631193
288,0.05671264448352957,-0.003796693974992448,-0.003764991956144828,1.1591248159736116,1.1612202377551062,0.7344733763248679,3.5448187809798144,11.142156007753218,2.264741009628795,,0.6357360191111145,2.0494082026420006,2.193436367898544,inf,0.7683036511995172
289,0.36178413367510465,-0.013369594864362642,-0.037966156959806194,1.5504177843319966,1.5375267023082333,0.9235516850439324,3.598758917602924,2.782914728156782,1.286894998659347,1.008250824793198,0.6068309995095971,2.0156533019329688,0.9899048657723133,0.4175440493449232,0.9356507111136788
290,0.09495892110911208,-0.007080268853448561,-0.0001061833703753113,1.0383567990371823,1.0026506288439778,0.7749467530233729,3.538168510442617,5.653022006594328,1.1294465241323661,0.8841498229780629,0.6333676938231112,1.7375869903396621,0.9906659180800677,0.705467664947986,0.7720510687185494
291,0.09368658642076648,-0.01717587417714052,0.0,1.3042967262876162,1.2888335945847724,0.8302810918385273,3.9782135024146497,12.366972945296105,1.590583586539726,2.3893630374466692,0.6233814453054027,1.7171468625190092,1.5050678636147061,1.795109556113337,0.672890943257784
292,0.02311992003210882,0.00027468864943193914,-0.005052805456067762,1.149852178248464,1.125000032278162,0.7935030979263316,4.002622566124591,2.971543622305146,1.277812785391181,1.4435688960510433,0.6699045166045591,1.5894174439432895,1.0627251252206247,0.8611043163068642,0.6654732117495002
293,0.06990124618075612,-0.01724956450966803,-5.7930031078718466e-06,0.8797747045910095,0.8457531969950796,0.6957787669291834,3.358035491790911,2.434874411562586,1.2413816570874028,1.1709610611024495,0.6180765742263259,1.336446555392323,1.1274816880104854,0.8840443770220491,0.7979660205993039
294,0.007957215598474131,-0.0012201063917660336,0.0,0.7299988785126992,0.6882588746281788,0.5512846844212924,4.004748728579302,10.795881332918155,3.8184675962240533,,0.5915533975974677,1.8819759771666331,3.8251453987550823,inf,0.6832119281645909
295,0.20193775717738546,-0.01669935549761463,-0.004167546077381869,0.9442527968151363,0.9127934113424274,0.5282962100279734,4.221882237273768,283.4961883057498,3.374021057582785,,0.5947193981915972,2.3264225158079013,3.1278990992167164,inf,0.7457044545752144
296,0.03522269333998511,0.03079837315569079,0.039534548508506115,0.21764228072993302,0.20315359556000892,0.1303429627285845,0.1566921562880771,0.10300315636037435,0.07341830922450622,0.19814485172260843,0.6509067234006624,0.0845296106360806,0.02872618843829972,0.02293308982140356,0.9216755897586201
297,0.030222145987675537,-0.01671131704758523,1.7999949685279515e-06,0.1804308202057063,0.1384145912573894,0.09684850714679583,0.13035920468072992,0.07655039819761222,0.003981189956367955,0.00402508484447107,0.6566669596287297,0.0674226763174342,0.01046679567727266,0.010516816826163485,0.9762002261894577
298,0.8540167961405534,-0.10331570679951255,-0.107169625950903,0.9983883091514081,0.9872794017485779,0.7167391453474425,4.313036050391586,4.896042528452256,2.037738757047232,1.2289461380732705,0.6309483474627791,1.6277150372344524,1.6903674377171964,0.9209025770967181,0.9279364171872587
299,0.03393638637284974,-0.008031611441574438,0.0,1.0229907414581092,1.006918960466102,0.7595314494684875,3.304376631961672,2.1109416011062465,0.8813775909763255,0.22011332020577845,0.6566669596287297,1.4601083593941508,0.7206524919114035,0.23387374549711423,0.8490168195372475
300,0.07034601257212805,-0.0026583948298717353,-0.006850683625409276,1.0030969614619536,0.9600694532351634,0.7371072585153752,3.0863141039096087,2.4089908947802927,0.9156049579238775,0.872867101376976,0.6097226960127671,1.3174318685022648,0.7809433447917855,0.5993946784006033,0.8246202945460637
301,0.1965249582620065,-0.022456641942123195,-0.020123765681311547,1.1572097619372264,1.1122044440548908,0.8016512479004229,3.6918985473373396,2.2558377084289893,1.2465805015643288,0.49326619285207657,0.675384900321601,1.5998176690571098,1.0049241205134047,0.46667234362122445,0.7983915322855296
302,0.04289038816013238,-0.0015864791204767085,4.310786288124965e-05,1.1359129876987957,1.088768149537784,0.7977094226437323,1.349753301821808,0.07327189422161906,0.31121067182783263,0.06997135069902591,0.6528756675646988,0.9464636115115245,0.2745799993774754,0.07334028229746882,0.7677786964304852
303,1.7105599193900507,-0.3748428205803578,-0.23741532917358116,0.584157957005197,0.5751898837520305,0.6410512636357623,0.03411269496796999,0.03914461697984896,1.8963769178746666,2.664618018062916,0.6357360191111145,2.0291709923399694,1.6333911534565932,2.16150649473414,0.9485964399281487
304,0.17061474284966752,-0.0041471429584249014,-0.005307283006484559,0.45124352103909277,0.3714076538174959,0.4377758218826345,1.219110688378857,0.2340290773278364,0.371042394798238,0.21310198596854849,0.6566669596287297,0.611649122166794,0.2375282812330373,0.16435871291315904,0.8953587379568204
305,0.06014836627829276,-0.003763413552094492,-0.013070289164284786,0.8892937859530319,0.8614218395128801,0.6898329725855374,3.1320433231728995,1.6490501922476768,0.5899435230176658,0.3280702183787985,0.5915533975974677,1.0823453162042378,0.5250945935671897,0.22555830747322522,0.8640485017923875
306,0.06794757358598842,-0.007396572049652741,-0.019406484716445297,0.9127283262765362,0.7846265291931926,0.6384433626313478,2.2144866927398845,2.405118210974269,0.8160786677002562,0.9162689101629384,0.6547956803312163,0.9186267916717028,0.48950426405736225,0.480286167540425,0.7710754117887587
307,0.07921468959904275,-0.001428050857995248,-0.006581243881430126,0.8113733444971478,0.7743105381935919,0.6780845704121348,2.321960496094881,2.1788407003396695,1.2608647439584746,0.8921381081523649,0.6566669596287297,1.377532855451318,0.8958171122743929,0.45711627266083155,0.6770660882579679
308,0.010560717268850198,1.3670201033676383e-05,-4.659567391354126e-06,1.3621381587067674,1.3273878660578737,0.8843339860177133,4.4925581717194865,2.0759118128390153,1.6156977592619988,1.6077586697136361,0.6528756675646988,1.7804898769698243,1.3191225270715587,1.091977542619553,0.7861113659027098
309,0.12028160369009445,-0.023187067780441297,0.0052507792661986505,0.9097862854339651,0.8598506752103873,0.7085373692145085,2.6364787335867295,2.066341138444166,0.42215274741015263,0.2831643424905235,0.6309483474627791,1.0001857576132132,0.38286941091561133,0.18545408840683866,0.795580403891252
310,0.22329846280233184,-0.04218323616540434,-0.0006412188870699685,1.4401996716228627,1.4144281246275756,0.925187685841041,4.033483316369053,6.772018104426104,1.1753407074040003,0.9094227587911745,0.6284777104787076,1.5328884786303938,1.0472083581613556,0.9338960390157506,0.8082260423141001
311,1.1007010015760368,-0.16203856164734887,-0.060469516640492896,1.1694970210355564,1.1047960194420252,0.7453273190985628,4.578348254428636,4.573475173717551,1.7800511135083097,1.655730268804047,0.6668815377411301,1.8693607152516065,1.485271197263228,1.5133470811798981,0.832534106326687
312,1.6985315229163411,-0.03002891577216027,-0.03618694685531165,0.6751467911731805,0.4966345042150469,0.5135372746695668,0.9240292316096164,0.6078943898698749,1.4089288897304617,1.224612848610798,0.648888643467878,1.7539500078325083,0.6993287842751804,0.3692474188934088,0.7887482561495297
313,1.2042261108598078,-0.2192757590628301,-0.07103155846277304,1.11420075888931,1.064876515454172,0.7662078595230124,2.1800079167938216,0.8354280185812026,0.7693856508981842,0.4052608070530457,0.6447042257417027,1.6026830005303963,0.6363015110540549,0.3243883114829824,0.7403725589079915
314,1.4614347916914308,-0.18382785474628055,-0.1650131570999906,1.2520754849268818,1.2638291633426924,0.8083500379561293,3.419230814655441,2.4383018653950197,2.2231242239655784,2.652303420027074,0.6447042257417027,2.162050502328565,1.933628282906672,2.181987449154091,0.8389865876185455
315,1.5693102390307434,-0.21106514641894486,-0.09267884521611242,1.244630093533931,1.225930362892441,0.8049604396952867,3.469504376303316,2.682158703963199,2.0215007620314918,3.9262781968335703,0.6068309995095971,1.9200474895295858,1.6594794276569866,2.3642062271002193,0.5811174499857125
316,0.5045135377464935,-0.05481639189117904,-0.028275648418248527,1.2079598479587745,1.192586210059514,0.8288132752283508,3.861008280053452,2.0940877129895514,1.4558215788452646,2.0682052331195764,0.6547956803312163,1.507132057505503,1.2658122835146977,1.2873209075490377,0.7449654003131145
317,1.2393290203217076,-0.20776860018540755,-0.09687342042620067,1.1390831402856574,1.1155276939367915,0.7721607648316796,4.332612655597962,4.565840591340651,1.7442756915281474,1.5415930901557529,0.6309483474627791,1.7929601898045737,1.5868019111375165,1.3332407898492162,0.6574184531727959
318,0.405117671552239,0.011641218923015922,-0.0560610396970465,0.9644946048060562,0.8381730368032135,0.7414983677113772,2.917038940814599,1.4911726792064481,0.9644972326755519,0.6980032222648661,0.648888643467878,1.2164953293248264,0.7722527337405871,0.4140257571840644,0.7424997642558181
319,0.18430559405656194,-0.010920621798017328,-0.025111279065006223,1.216355645749017,1.1915811806586154,0.7948032218299642,3.3329759946741895,1.3778091473784624,0.8716815631960684,0.46553809327658796,0.675384900321601,1.6518236289305381,0.8245858906035157,0.3712859640816743,0.7659157981605086
320,0.13717645555814617,-0.015385204034203896,-0.018965783385899226,0.7102619537592716,0.6356242370931879,0.5843602073525226,2.4604076038396046,1.9442539423150142,0.7442609609009175,0.6788753102584876,0.6333676938231112,0.9979528055689325,0.627840349891438,0.5048013395780858,0.8989649911736163
321,0.2271689767617347,-0.017424158792552998,-0.028261644515714432,0.7809362195959675,0.7525977752545375,0.6545929666395025,2.2542262345516377,2.6546167258384803,1.744888821257205,5.502688162857413,0.648888643467878,1.5816606314346537,1.3009413891971502,1.2843132344251322,0.9032201955298
322,0.010659016674347335,-0.0003089740181027624,-0.0012785987927718047,0.9399591719573752,0.8983910601341345,0.7101315329820016,2.2685186364325776,2.6251848987309323,1.8307370320610863,3.785976074025016,0.6447042257417027,1.9062728560168158,1.4325759005808043,1.274129611838283,0.9295445086459793
323,0.18629364596402276,-0.023709863549764995,-0.017894795016327746,0.6163433675378912,0.5906583271525626,0.5191598335908745,2.1908657459975642,2.5842275358699007,1.6121562938983975,,0.6309483474627791,1.553635355624618,1.515863068168982,3.196402969016142,0.8496823533695353
324,0.2663504374346144,-0.018700015519265395,-0.04453506486334557,0.6378451797132209,0.6043004096702307,0.5888686777584199,3.051912862259524,4.036509479119021,1.4538598583911426,1.8057553983921264,0.6425374456860184,1.4537170374373247,1.2197707193157743,0.9860486681269267,0.8455525178439844
325,0.5439018733837013,-0.026142999901819453,-0.0052869996461135105,1.018595795041547,1.0065909841092346,0.6937890785775094,3.4864997622274077,2.683685392896867,0.8682453009296668,0.9689728753642254,0.6380535849069913,1.3293260888124878,0.7268330482451288,0.4961701890478179,0.6715408097161214
326,0.0883688907655207,-0.01743644122742309,-4.10014284654963e-06,1.2989767075779568,1.28067014637451,0.8599641501190319,3.65467235624127,2.2779062226759668,1.145232458777009,0.6660612498649073,0.6233814453054027,1.6107721354472369,1.1157815372195325,0.5242142299699812,0.7902634559066607
327,0.03376498094902908,0.0013902281652872165,-0.003096423990838402,1.000181291231832,0.9405266028850809,0.685140919278737,2.93080425508453,2.1790635219772803,0.9337220348704595,0.8947531716190039,0.6333676938231112,1.1135905718488228,0.6390763975731358,0.49353779013597937,0.8273021348841477
328,0.32340816676327594,-0.03728633102469818,-0.03037615889036742,0.8569875137571411,0.7630790946156444,0.6895918825535957,3.3959661316548457,2.773566083570737,1.3382433598512737,1.1803517530670349,0.6097226960127671,1.3867389043590408,1.1957070746083007,0.8640975044616909,0.8500810439592497
329,0.03414234192568241,-0.007084182106549632,-0.0034999438904119167,0.7331683219237964,0.6818957611438706,0.5979220302622578,2.666842742119766,2.2889975280108703,1.0226422473351529,0.6586282405026596,0.6528756675646988,1.1897412220792116,0.8197597491740584,0.482094666685527,0.807714413758578
330,7.588411967078634e-05,-1.1129670885048663e-05,0.0,1.4252543166759242,1.4203182501489091,0.9075289862467537,3.6636493184779346,1.401158637722777,1.0727247711050287,0.7587899651616147,0.6153451465759925,1.9196686011834474,1.079402573636058,0.6319587463076561,0.8659478227081122
331,0.1378207056846512,-0.014291877866363436,-0.011434653861438123,1.027436781809971,1.0158515247181836,0.7391344168888475,3.4497216315158434,5.26533684313827,1.2243048222484885,,0.6357360191111145,1.728096331126438,1.1551012230217266,2.8272739086588334,0.919863212343473
332,1.4768569835897971,-0.35727500763266984,-0.06428110370152303,1.1559687880350502,1.0993074145581956,0.6831945323152299,3.3060872970508344,2.0516908970407663,2.1429141325391146,2.146588617861022,0.6207552362147116,2.1847032967825477,1.904985453903359,1.8166179880817683,0.7403378726706944
333,1.280325530170553,-0.3316801060584194,-0.16764685070809626,1.1313198844316072,1.0696320056025936,0.7247876343856015,3.523048033069547,22.193652176145676,2.1149035462911385,,0.6425374456860184,2.067073892871174,1.9050530366266774,inf,0.8296080364437014
334,1.0718458124496575,-0.08122386511550071,-0.0009509805056396864,1.368470036274763,1.3197802903608067,0.8123629700813801,4.433458980253506,4.8174088672965265,2.858293163272255,,0.6403206450210053,3.214717814719537,2.7767467323884447,inf,0.8729449198681817
335,1.7536096796977212,-0.5363514608089965,-0.18803418951738415,0.9688121131579384,0.8715309128700239,0.771974312932903,1.547840026283787,0.3329211890866284,1.1816004711848056,0.4068859123871707,0.6207552362147116,1.6762308246546023,0.6947520788150837,0.22731643367340473,0.6469535479858118
336,0.6526327701532383,-0.09850332981246519,-0.03612214218518672,1.1869374052816735,1.1504635399363121,0.7773092838537011,3.5576885172465866,3.627593001243253,2.2435501661879007,4.142132573735607,0.6309483474627791,1.789628408219101,1.9840829814115328,2.789666473223177,0.8239062045722997
337,1.536184990180151,-0.22854659920308848,-0.07356978219900787,1.2889227086997477,1.2680518914547279,0.8772295157193267,4.1867747186841715,27.406290427137968,2.7289564722508,,0.6425374456860184,2.3020296917023457,2.5459200201168146,inf,0.797306571012012
338,0.8527553478211483,-0.07828091747800432,-0.024049724260533468,1.541349357671818,1.5276197540525402,0.8873749071139158,3.740240014394383,35.52809117134199,2.427932532689854,,0.6125606311107803,2.5793638601408873,2.4246268912367,inf,0.9306672195301692
339,0.31803610159122675,-0.030891618880186995,-0.0068944620795261344,0.9124795825824913,0.8876481844757536,0.6148075679680861,3.522416931983131,2.2854759013256833,2.1396007303425284,1.3974084236244537,0.6333676938231112,2.133592717091446,2.1240553960888473,1.3268709406490897,0.9385287828890676
340,0.2909468400749897,-0.03083401424587491,0.00126695874386081,1.0237075616633744,1.0012076295573304,0.6805921556446871,3.85717965556805,24.05251019822446,1.7835932020213217,,0.6602640781246099,2.0079274068058393,1.6529046347529408,5.954973438525567,0.8659046075714689
341,0.1843154666163863,-0.00855772539022229,-0.009774066001064773,1.0256646827669234,1.0285918371263478,0.7093742963530035,2.9892247259074867,3.1328527391573933,2.0225847856366017,2.6106446139140695,0.6584896970785714,1.7981129432002303,1.8299850386538472,1.001820373823208,0.9172195925215028
342,0.02953066704580975,-0.00354368004549717,0.0,1.3608679880497458,1.3467510611419942,0.8090250632820183,3.8465348069957797,4.832819694802543,2.4586212956925957,1.0952622017828277,0.6357360191111145,2.143209989029981,2.465299098223625,1.1019623755533916,0.9212456449921445
343,0.14137703599564008,-0.012252895323620953,-0.006463422066846464,0.9184609438338185,0.8826692881501225,0.5966847723078812,3.7782469590598713,12.315446985312054,1.5606135737396578,1.7724321718776574,0.6425374456860184,1.6460442682218983,1.3401778153311006,1.6089977715819244,0.617942534272405
344,0.10976712703897894,-0.003669103850671023,-0.012056044134738736,1.1710140976156747,1.156796290221639,0.8158524455843507,3.423878169719674,8.952069418351424,1.4927324615457245,1.0894500701577707,0.6547956803312163,1.7053983035800115,1.3493765106077629,1.015202391586032,0.8816873326060172
345,0.0484440154863227,0.0005715549562698881,-0.011067758311639806,1.2145387474293596,1.187366659548907,0.8278883078985748,4.262098640204651,5.260246277779205,0.9823403628676053,0.5409510863538746,0.6652988471865258,1.5443786935497998,0.9034891088032141,0.5545534593517736,0.7998745142192112
346,0.047975146564178145,0.015360594938681235,0.00980217160479787,1.2768616105157502,1.241987296139343,0.7910935638834495,2.428955115079736,1.15132993559319,0.4928523671045307,0.2380091444551697,0.6097226960127671,0.8769898937258388,0.354696749167613,0.21421618983175017,0.7968403055598271
347,0.06367223495138914,0.0038983051855922615,0.00018356294295927486,0.48391426316314307,0.4438119097706472,0.4591019091665228,1.7552515983555523,1.8092492007770036,0.9452600432221053,1.2583819359296005,0.6403206450210053,0.9200198988040327,0.72487249461447,0.5968066740195461,0.6870139145172244
348,0.10681822856355914,-0.008678399922222135,-0.01811812061688658,0.6213003411922651,0.49178623612536176,0.5241042983290078,2.2205359912332665,2.130386507986591,0.8216323794293844,1.1082678208063104,0.6125606311107803,0.8054204230427312,0.640388065609567,0.6878780678799334,0.7887429295442089
349,0.06303447185350361,0.010832682482580125,-0.023308494081829133,1.1026663251664892,1.0705825608092545,0.7460193679681508,2.7045796201527765,2.84516743902863,0.7878874956531011,0.9096920586196391,0.6357360191111145,1.012037117913699,0.5994584656298674,0.43489810409006907,0.7687869553552502
350,0.03179177805297372,-0.00022134345775346592,-0.002633692153457729,0.9014826665494307,0.8836107646356948,0.7086384022426312,2.7765346895744485,1.5342792480805705,0.787981761240942,0.5069221944358071,0.6180765742263259,1.0516968966593028,0.6509533974969762,0.3668849220390509,0.7954618264571858
351,0.22983058938336465,0.02851742992308602,0.02885274084939897,1.1572140679336669,1.143514036777775,0.7838304076919436,2.5973561171153725,2.1153618270287566,0.5435359051354874,0.5895093620052287,0.6684167106117298,1.0764268815328826,0.45924438683457,0.33340130396327256,0.8580459467532581
352,0.2719730831275149,-0.03594413992246101,-0.019357053646800345,0.9567064885544068,0.9297698144392897,0.6984158866064796,3.36214856549844,1.6071869764931104,1.004059128446873,0.3389975139973544,0.6380535849069913,1.6459866429589671,0.8454747757997075,0.3286382861521584,0.8571450245679073
353,0.08167554660887899,0.01959137910752274,-0.019341920543220918,0.8913407100118457,0.778927322590629,0.6973926886256216,2.2945578698830738,1.5970587676560628,0.5473178383268007,0.4931848974546531,0.6380535849069913,1.0388036859792487,0.43256453638732084,0.3262081321830505,0.6790490401532809
354,0.022040907389682302,-0.002865317960658699,0.0,0.9620061914375455,0.9396108451534404,0.703347261795331,2.7196163838464553,2.9665543147415607,1.8535665434512418,,0.6068309995095971,2.0551175607113894,1.8602443459822713,1.1019623755533916,0.9390496170786555
355,0.0018544477378267044,-0.0001916262662420928,0.0,1.0636708594513062,1.0092684826344789,0.679470427630859,2.8924078362403702,3.728252146840346,2.7356714929182715,,0.6403206450210053,2.2716248999124695,2.3368841873411363,inf,0.8258730946117969
356,0.11134260647249831,0.00040757435516317053,-0.007827746520843911,1.2573039313598182,1.238181163395504,0.8516126216999449,4.1308710672563675,39.752946555204396,1.4302954061937465,1.9293339465608508,0.6153451465759925,1.6443169531908617,1.0257954085709562,0.8772675300784188,0.7369478697373648
357,0.07278693346815288,-0.0046926848790934065,-0.0037228640333753773,1.2121329685749018,1.2018219242245036,0.821990347336096,4.524121422843078,26.742542143561234,2.4399978916938987,,0.6713451011121618,1.7657019349087653,1.6027056239303992,1.168066095862692,0.8813702041722268
358,0.1118674651483968,-0.018995022805702415,1.511539022896101e-07,1.1887046095238047,1.1678259318224018,0.8057314093249335,4.010913719418786,4.511503927743651,1.7836670963894061,1.420820140671278,0.6468212168108125,1.80282041658748,1.419951878559844,0.6970588927286339,0.7348688700508142
359,0.2629089140481997,0.0007013531626170397,-0.006027553775177122,1.2479261394981092,1.218926804486937,0.8499898958677751,4.637101108321779,6.062282238524398,1.1364142807204742,1.0843794524955601,0.6619902821573977,1.6185347187540988,0.9949631654068883,0.7970766593137653,0.8535566835498116
360,0.1201848114190794,-6.484377968673724e-05,-0.02043297833480355,1.286727435007509,1.2684398578038114,0.8669291549489491,4.921822587246433,27.460079198745632,1.4478260038518993,1.6218445019730403,0.6468212168108125,1.5199019471232456,1.3152243365469407,1.3795044444264166,0.7690929077149485
361,0.259308946255623,-0.030500453452423408,-0.013273135772733806,1.1021528003834882,1.0875868795966819,0.7690588614154023,5.922439307702673,69.27505180143002,2.0465468273979552,3.865596727657964,0.6233814453054027,1.844457258228504,1.939954622606996,3.0484420899735194,0.6910650655831978
362,0.16097323546471182,-0.024637675848214226,-0.011313013405571413,1.3481509044866464,1.2765344058498274,0.8669907092106826,3.846432066577181,3.740457647311272,1.3675401904791031,1.7397493614616837,0.6333676938231112,1.554686714602816,1.0902322050593043,1.2737930739168224,0.9117696385814503
363,0.049237276383676545,1.9023186415247778e-05,1.9113323170494995e-05,1.0647724510596677,1.0419250654324888,0.7645666731559126,3.6947820715485613,3.7948645921873436,1.7242104661590851,1.1607061100352116,0.6333676938231112,1.7135646216429983,1.5895990197477918,1.2865707364674623,0.7783078311819364
364,0.3455381149789245,-0.022396990200343664,-0.017322648295318654,1.1875879838504648,1.17832138593419,0.8160995344846446,3.97724677767287,6.217960301171434,1.3847145231656475,0.8511673681063274,0.6468212168108125,1.4721427782459282,1.1300470321568044,0.7559480817989757,0.8425896836586134
365,0.4777277386275313,-0.04950694863146969,-0.049295456385823916,1.0275626516052363,0.9923471795296706,0.7526012698871962,3.7991407526753775,8.492766013785543,1.060197703030476,1.4458544156199893,0.6547956803312163,1.5896897528521965,0.8124701561495637,0.7423302045080447,0.8684977768298041
366,0.0012141673420333554,-0.000226644570512893,0.0,1.0429092381840177,0.9998201102267776,0.7273812978185076,4.108803777822013,5.884637944566165,1.6229263313011109,1.7583590442788029,0.6468212168108125,1.6796219692912049,1.462550049168974,1.469687155678709,0.8449329508440663
367,0.006701861999381707,-0.0013850514798722192,0.0,1.1778328234531759,1.154475225763583,0.8324920347580977,4.13724843843766,22.020338560640656,1.1026960444217737,1.2204909206573793,0.6668815377411301,1.5821470521981966,0.8668777857020369,0.7765399751187637,0.7961590926176711
368,0.04013227114890401,-0.007357583043965736,0.0,1.3291021383299728,1.3044209294455182,0.8632961552919003,4.256758409524475,6.967412618672621,1.2798528995877652,1.0950392114819818,0.62595550513784,1.7127634630015571,1.2863077118179485,1.1019623755533916,0.8919323001222256
369,0.11600551041592765,-0.020107621805427457,0.0,1.2227132901323654,1.1971304221597678,0.8389362359141043,4.01816559543755,4.056671561886543,1.5251518542000282,2.394545185913089,0.6380535849069913,1.7773964463922876,1.221674728427218,1.6127879993193823,0.7724894844133101
370,0.0247332566123931,-0.004444363843014804,3.4535011781352837e-06,1.2399013014772158,1.2159698760404578,0.8512850518444754,3.9942708336195443,7.555321310666615,1.5120531193539026,0.9786018202260316,0.6403206450210053,1.6242131980162546,1.3844917468417748,0.7766854096367507,0.6362197619339921
371,0.10217231404912919,2.3451555891788184e-05,-0.004606051889465973,1.0561901853709277,1.0045595624467125,0.7655579516714386,5.174940302730707,8.496447551125634,1.6464320460651138,1.11074923698399,0.6528756675646988,1.841299914788191,1.4160857648418852,1.2484420630257518,0.6411672271600821
372,0.0,0.0,0.0,1.0416748775797635,1.000367808287353,0.7132232627089626,3.758762804341997,6.259144778910479,1.3669980946296498,1.5071426179825151,0.6309483474627791,1.5606477482646683,1.0554311742987315,0.8971679629073784,0.5955827263888527
373,0.0793994859653119,4.01727960572338e-05,4.040487650134976e-05,1.3674060119035925,1.3414033496118292,0.8796795119133626,4.17110342269407,29.280809960944637,1.2672990675381945,2.076091454794554,0.6153451465759925,1.6605557836127105,1.1015986764827004,1.846354627158195,0.8006297080425179
374,0.13116351980717728,-0.028355310822437987,-0.0009980655096413719,1.1216173244222631,1.0304739147344306,0.7894863263947027,3.6167157125690697,4.593962553346342,0.816059667435654,0.4278508020450232,0.6547956803312163,1.1950864790032454,0.6884959242116615,0.42468547291463704,0.7229117833509051
375,0.0,0.0,0.0,0.367688189427652,0.3485382826303831,0.28628650442172704,1.9528629684704164,2.0106771550377864,1.1098075476717908,1.0525571645469356,0.6038851895711802,1.0498221244986778,0.9437271847187302,0.7724831744231493,0.6430731743949141
376,0.04721000127910139,0.007334601363233814,0.0017362771481592848,0.619843971305248,0.5910318919240698,0.4868205550670439,1.6484147957301623,1.4677477930613496,0.9081136207534689,0.8495702990777139,0.6425374456860184,1.0239996819590638,0.7563583645445486,0.6538554889688696,0.9253050890638788
377,0.0,0.0,0.0,0.5500465643075256,0.5198237970007771,0.5079982364086695,1.1528162139343836,1.182352800105987,1.5208480486890088,1.3902336952444738,0.6425374456860184,1.3997173814520312,1.4170322365735197,1.507427483661556,0.8655413865290238
378,0.11901585410897017,0.014509840521550868,-0.007755244847323234,0.5001506855816177,0.4710070921403694,0.4011367356998109,1.4970869240434153,1.1368122241578327,0.47939502592170224,0.36772144123983225,0.6584896970785714,0.7147567727676714,0.34543640599649367,0.2740570587998432,0.8172704573109048
379,0.18573884815866387,0.013153653366929807,-0.008195339630498857,0.6508022100934976,0.6065317281622977,0.5527309552648406,1.913065086787834,1.448307015513543,1.1836689962701663,1.1838687509940307,0.6668815377411301,1.0807396271334793,0.8799119785768696,0.684893390040464,0.9389431688374045
380,0.12878810003945235,0.009775250588784229,0.011575040716427273,0.8693545955376183,0.8098741551515767,0.5037146974577221,2.4148649295586653,1.808482896855895,0.4996981052048183,0.5151390572045189,0.6727386042041725,0.7727196284525768,0.37466282458496236,0.33802040347392664,0.8187718047949286
381,0.07029672271010245,0.008068468184355693,0.009253789829072684,0.634243182258769,0.5831171691276209,0.5146585954979757,2.04737331204709,1.5243067429891402,0.3726658147850924,0.370442621318473,0.6180765742263259,0.6748053146454679,0.2646971823706247,0.21564487039389524,0.7435308648066502
382,0.004791405186460392,-0.0005750605214869013,-7.168980326030094e-06,0.9675198528164659,0.9130301341433242,0.6873671150881538,2.8273620496241954,1.955709473940205,0.5211064048517678,0.25046460145730143,0.6180765742263259,0.9894290887866176,0.4735543504546948,0.2097493235651017,0.6578613408341305
383,0.2230782211960792,-0.03606342175873078,-0.0040906580565634775,1.1720202618500768,1.126345997563234,0.8159670937721284,4.163312656695326,5.694763942539102,1.1598770105876486,0.6897970936746634,0.5978297680564633,1.7679778405632565,1.0325532133331188,0.7127158315744031,0.8881164739951681
384,0.0366096011317912,-0.007565984233903516,0.0,1.2712779802357626,1.2470867710647833,0.8462910784296616,3.888021385974823,10.28403997563663,1.6346865592452478,2.4711908726671195,0.648888643467878,1.5912160545930374,1.3433165990888971,1.3896444480051726,0.9007260465025829
385,0.09190529688538832,-0.006896806423585011,-0.008727094046931004,1.0698577287972584,1.0510571218323128,0.7582938465861161,4.87565083387272,14.282027003797765,1.6587798212176388,0.8339843035275576,0.6668815377411301,1.8180350006403176,1.3980668973451578,0.7026100955934671,0.9311508317015468
386,0.0019550702649326957,-0.00033887884592166727,0.0,1.292267751660473,1.2895188304354257,0.8524551100724559,3.7500564960267355,5.987892403134861,1.3810947554581723,0.7698398013481998,0.6668815377411301,1.7543994604709774,1.3136645858354796,0.6964972674452273,0.8575578623958323
387,0.002506614826406329,-8.00917396065221e-06,-8.100462442828422e-06,0.9268452162680898,0.8618567425907983,0.6815531841233371,2.360462810646593,1.3986427549382805,0.6965119498771224,0.38441544412348133,0.6309483474627791,0.9785799327784148,0.4552720191083622,0.25559163186967687,0.70088681913399
388,0.02747190272094161,0.00943407913476413,-0.009362142396062017,0.6130533921095942,0.5163595555312647,0.4852916035207223,1.9510741374508662,1.6920822447778658,0.3093877093284651,0.256604909278429,0.6403206450210053,0.6287961770026967,0.25780091813904693,0.17020169071295557,0.8236273678869347
389,0.0,0.0,0.0,0.8699329980908257,0.8625200093424616,0.609012403657009,2.7023153341907067,4.240680223023186,1.8212103907855313,,0.5677978065141052,2.2697952701710546,1.357884564070825,0.47335371613101757,0.8515260484355369
390,0.019651079516416283,-0.000684772187029439,-0.0021973861420449495,0.7819217834428611,0.7713690943798167,0.4962125800243391,1.9977066841548305,2.4309982811565236,1.81959618543099,1.9425600621700312,0.5783247308855777,1.934937238904383,1.7548314993944374,2.0207027245081775,0.6592576932860601
391,0.06254098444247935,0.019042758021778843,0.01921579721087608,0.536374488267365,0.49063887457075916,0.5084644581390664,2.624648385733566,2.0113559401285865,1.1238225281431007,1.2334125402636449,0.6284777104787076,1.1426338407624395,0.8826562726663121,0.8102147430265728,0.6635472041282839
392,0.06444012109755687,0.014465558321238805,-0.014391416489227243,1.0819890795282705,1.0167077602509365,0.7647241312466858,2.8642068527661353,3.001131601107941,1.190785567005607,1.3829442742346088,0.6309483474627791,1.5139257328310884,1.100937753545004,1.147782117977453,0.8372878460123951
393,0.0013294161411477091,-0.00026588322822954183,0.0,1.2382211898606152,1.2036627429429412,0.8488093054815435,5.425788863920174,7.402821387041364,1.126455795436382,1.1351554181068113,0.6125606311107803,1.6107165072659861,0.8383083306342476,0.8635513521083934,0.7835890359294008
394,0.16123238346209423,-0.015912599387090085,-0.012571788357879893,1.1608360563499969,1.1382179098462348,0.8060160572284003,4.05198066146639,3.447195563056618,1.9770535270977427,1.9430377311545137,0.6309483474627791,1.7770022282531481,1.5416939318972636,1.6986281220966406,0.7231696925007376
395,0.06700596393107727,-0.006373960514794008,-0.007473938697628629,1.0496943626997408,1.0318329653226799,0.7792828010534567,3.6945592929344087,16.894288907058915,1.3212462657269646,0.9774791661264444,0.62595550513784,1.6066085854239407,1.3212573768998044,0.9908460312551974,0.7592393623145156
396,0.0,0.0,0.0,1.2463347882275269,1.2261115211675808,0.8143571683186577,3.8375044467983077,3.5170825220379163,1.2912172563243836,0.8768454770089806,0.6357360191111145,1.91959284073794,1.1484712055685171,0.8506479472724855,0.8033499726927937
397,0.10646897246305619,-0.018223077440187307,-0.00023154445340909947,1.3113372208228926,1.3023420964753902,0.8693508800334635,4.366319163798667,1.4638884480998051,1.6140310285100825,2.296555835048715,0.6380535849069913,1.7865066229466067,1.4412978326658956,1.0963726460746048,0.8552293121331345
398,0.0004546150370852026,-0.00010153069161569524,0.0,1.0750691162045536,1.0565946732649882,0.7867568565810333,4.182279239391239,1.891533152942456,1.5985878493430816,1.21267355930819,0.6547956803312163,1.4995377167342423,1.2631446800210329,1.338351153617622,0.7614373115452826
399,0.0,0.0,0.0,1.361836782764866,1.3466534946944109,0.875622151659305,4.1639649781223635,10.116621827865664,1.7388214250602165,2.1463098848996136,0.5978297680564633,1.8119621765455745,1.4972639265777707,1.7080981791237073,0.9057243887456253
400,0.011466637863937612,-0.002954541826601418,-2.4805037808355327e-06,1.049971481646368,0.9728742103259129,0.7671771743940241,3.4213830271474674,2.660228931047087,0.7523631269349585,0.4521254417975437,0.6207552362147116,1.23450837975142,0.6465195572348171,0.4320565264445172,0.8453249373337207
401,0.030083283331522166,3.4760666184250125e-05,-0.012511294725218041,0.8318266434526318,0.7302808350815392,0.5958664014828481,2.30088716208056,1.7610695099815818,0.2121288727364317,0.26274759914266604,0.6357360191111145,0.7487773509942447,0.1718282320311848,0.1401330532145987,0.7082911483282192
402,0.02936988661296596,5.711510238678649e-05,5.793532354208576e-05,1.0599022023410523,1.0414045072860776,0.7396184320331988,3.9099739961127797,8.454400922429048,1.0889594584985072,1.1190114675184821,0.6333676938231112,1.5484996143290208,0.8348136063703973,0.569572442585989,0.7964768431300009
403,0.06360975074182339,-0.005301745222808769,-0.005723944905773953,1.2687796312175097,1.24426564867188,0.8419919840267832,4.536495674183312,19.127908091502636,1.7190969539556233,1.5007273098909921,0.648888643467878,1.7841220420988437,1.5088190207934598,1.724383219354749,0.8358483863599891
404,5.756726319852756e-05,-1.1129670885048663e-05,0.0,1.308786937881984,1.2207911640778033,0.8484749593154853,4.047756756441244,15.640602826604534,1.2713749739103108,0.5637018626926962,0.6333676938231112,1.6433969370256858,1.1733526809998651,0.5911367517874009,0.8308669811751562
405,0.008737974869420283,-0.002663879670470209,-2.229511562274987e-05,1.0426938017674245,0.9885372037908727,0.7574101045543569,3.267040913879954,2.3079780948730857,0.6314005860300387,0.25088405149895876,0.5915533975974677,1.177222689250021,0.522808766051504,0.2970316471124086,0.9073910516738619
406,0.0,0.0,0.0,1.5173376780627057,1.5082651324508998,0.9328708776997184,4.89575609305851,7.36606444894259,1.2894294018435526,0.5562657010501406,0.6468212168108125,1.7719568419318752,1.2271143328876304,0.5141757106512727,0.7230424620921684
407,0.0007443618775327274,-1.012909829672384e-05,1.0107777455157954e-06,1.110235163241063,1.087966680571528,0.7993933100409301,3.349528061120797,1.2083726020242134,0.8985207096695992,0.5487041340849981,0.6528756675646988,1.5456288239345093,0.8308420436787367,0.5033566764072475,0.7814360870862044
408,0.018466047511483705,-0.002400586176492882,0.0,1.3259886374798229,1.275186103573418,0.8527568366790393,4.249435441892948,20.69065145441673,1.70106281064385,1.249412881610086,0.6566669596287297,2.0534706136915233,1.5742092205503564,0.6964972674452273,0.8146375001559154
409,0.1280856397276716,-0.016228888609474607,0.0028057938876422757,1.2456712056683925,1.2318691397589847,0.8581502661867779,4.033894206193897,13.253282521220127,1.3389240222861474,0.7633873334844363,0.6566669596287297,1.8030226615067657,0.9663711698364963,0.3526578088893988,0.8021714823878243
410,0.16479168991693682,-0.0062146046419384,-0.02454651080922314,1.14981334737481,1.1153043183967826,0.7711475401818623,3.908254520307775,4.526578288956056,1.0574005402019984,0.93700970151146,0.6713451011121618,1.7293482091066579,0.9300705705838153,0.48610332565498776,0.8486775416218407
411,0.13377991674994502,-0.014200733895460137,-0.00014631534170379996,1.1395685490090681,1.1014711947291802,0.7215429771969352,3.5946936097574724,5.25685605151893,1.8025345471828875,2.1894052092686405,0.6425374456860184,1.7051537300538766,1.5181764451637045,1.376299830394895,0.7775118688037924
412,0.13554711518019177,-0.005962046726149455,0.005666554158519178,0.9656927685675206,0.9033510089659645,0.741918380088807,3.065752514871536,1.6051017212474674,0.7484695121996499,0.42225641116443197,0.6097226960127671,1.348313732793377,0.6411652354087293,0.3704998604355389,0.7203169740345928
413,0.04813472490306684,0.025134620130595257,0.030439576205314373,0.6270177772912681,0.5302463854147275,0.4421168211195641,1.663206509746675,1.7343679379074384,0.3119448737918639,0.4032993114004426,0.5978297680564633,0.4702525491126041,0.20505471331901018,0.17806083648268223,0.8141718899156637
414,0.1128233319998656,-0.004930773458140358,-0.020338875680162447,0.5052561751803726,0.46501865452795643,0.49875421408415177,1.5965965739023318,1.3172839403633994,1.3865108282191012,1.3308341432082098,0.5677978065141052,1.262269120232909,1.0821801768598356,0.9794784490781102,0.9483879478575736
415,0.06321943398221842,0.02117588421312966,0.021216314173767778,0.3855730994658358,0.29740318589716574,0.2794390259994947,1.4118534684918138,1.1862799002697115,0.34012284304702994,0.4592345885479151,0.6699045166045591,0.4167451559766104,0.21111378455521781,0.1805494581409912,0.6234049325188699
416,0.15403868936815196,-0.05560943149271978,-0.005313789043083484,0.4799733903014044,0.37968323085678607,0.3646136349706653,1.498761255126536,1.5374571557734789,0.6772337357368227,0.6007805578951322,0.6180765742263259,0.7385397896284769,0.49196713664066477,0.35782202295472343,0.8039489982009685
417,0.01308171198224686,-0.004447782073963932,0.0,1.0858220459554182,1.0316072509487744,0.7431239962187202,3.5264546254499214,2.3993540479875395,0.6440935697418066,0.636296537197335,0.6584896970785714,1.086058090096758,0.4466760159293205,0.2859170586702925,0.7864936289973369
418,0.0,0.0,0.0,1.0525268425043446,0.9844075999119679,0.7356832358035891,2.4566675045900874,1.312874123482588,0.3460508566097066,0.2556005683846935,0.5947193981915972,0.9852836033611064,0.3273886178881704,0.22341197166208362,0.8577578035277187
419,0.0,0.0,0.0,1.2446114881121828,1.2360857001229917,0.7790680334267331,2.823130738880845,1.9902127015423403,0.49875304253172137,0.4465667837937162,0.6125606311107803,0.9675840262617056,0.4354722564558403,0.3755895473651259,0.7854753301271179
420,0.016806697313076022,-0.006192771417944221,-0.00013623294923825153,0.9408877080570557,0.8899006236166898,0.6937099490437436,3.0260085071581035,1.4111034540255094,0.5017356268175086,0.399980030844245,0.6447042257417027,0.966736432354556,0.3718688997232566,0.29489761213891935,0.6169840917801407
421,0.32266830862413276,-0.011979042835064443,-0.043938850969507705,1.2849923291430112,1.2756258507794844,0.8587875687450138,5.27880345969742,19.103822553560434,1.5697003722131593,1.6329658849729087,0.6357360191111145,1.828492612284276,1.2272255981998819,0.8635532236688164,0.879034001175802
422,0.07056187107233483,-0.0019277899159661927,-0.010862560767904188,1.050122554134289,1.0314365339756744,0.729684625058682,4.358782537546676,22.943598323251464,1.5884719811335857,1.9698590184687867,0.648888643467878,1.7068057633478915,1.303701795788254,1.1122364776076532,0.7529761983149889
423,0.039036076505230874,1.683284421585135e-05,1.687074505107855e-05,1.0861896371770632,1.084851286161562,0.7634657544202846,2.671810155495213,1.2151698570026475,0.5343158878086942,0.2590141775822091,0.6403206450210053,1.214883967000565,0.5027580063095957,0.25444105004917605,0.870185810724368
424,0.043658591122230715,0.012418883528789493,0.012663599202822118,0.9685835720968763,0.9102959388372809,0.6348558316641425,1.8819417448959788,0.8029467007011182,0.2984199787578034,0.19502804116248332,0.62595550513784,0.7983595590424766,0.22573293751948464,0.1417998455894251,0.8648521534138928
425,0.13948801425586121,-0.017166477344340382,-0.010234617219056538,1.0465178064645377,1.009993555506303,0.7282435548200477,3.7636960717724985,3.4402163709534976,0.9386888727759325,0.8557906641523398,0.6447042257417027,1.4182667403631632,0.7717836332250558,0.6248429231320402,0.8584614800084674
426,0.07570686747704113,-0.0027341552663385713,-0.01742059314081223,0.929378724218895,0.8565850454380859,0.7208093248913925,3.256254811962899,2.320473042480716,0.6669944562287488,0.4274901933259318,0.6425374456860184,1.226786627391618,0.5562774234692135,0.3883953185893616,0.8117736595386921
427,0.08059697424500313,-0.012104518583416204,1.3711006464258184e-05,1.1242248450867922,1.1166307207414978,0.7805341823245949,4.91649610458136,13.213578308114938,1.2981420357430185,1.4426131375957352,0.6207552362147116,1.789628408219101,1.2418461906550642,0.9705946872387649,0.8292345600302701
428,0.024246172041032563,-9.162004003335916e-07,-0.000590374820239813,1.216692452712351,1.1697732755310033,0.7985994807563017,3.6395802866753826,3.1634840875193944,0.5411545787701262,0.31453719852943385,0.648888643467878,1.0548506192292406,0.4404652718784606,0.27077583137177597,0.8798409265464376
429,0.035668242304468224,-0.006643734780228011,-0.002727048433008251,1.1483374722151536,1.0832575643015516,0.8234922735127223,3.1761110760614875,2.244395909232202,0.5164919823218584,0.38188104288154395,0.62595550513784,1.2919947928214894,0.4422507702059591,0.3698530363192874,0.6438647665266902
430,0.057477812446604735,-0.010154413532233503,0.0,1.2302329790466806,1.1870130832770773,0.823567306865158,4.64713317055681,20.16758648683583,1.34694946080266,1.8986076753898498,0.6790044388599258,1.7583891697529492,1.1761434839289853,1.6773265204569536,0.7802918282362796
431,0.02857994906341734,-0.005906522806439584,0.0,1.2015978655708526,1.194363148721394,0.8200207708535979,4.562810767405239,7.113156977191692,1.0022429265968285,0.9967514007537637,0.663668482632973,1.5901256014017275,0.7847912643447842,0.5023412530042698,0.8017120808350896
432,0.0363714019921342,-0.0016197292386282477,-0.01171645149182096,1.1590945094532181,1.1436745212910535,0.7832415606777033,2.4349986528011796,1.2842555922313283,0.4800081431539053,0.2500988139242566,0.6309483474627791,1.015742810845815,0.47142830586409995,0.19794865536193348,0.5802487278439675
433,0.041122708147387166,0.007805779862280364,-0.0048021824440260714,0.6819423983539543,0.4958252971930866,0.4585722633465018,1.2473159312548912,0.8249439937052094,0.2384206282338886,0.1712057610704447,0.6284777104787076,0.44275169289418104,0.19283962195607765,0.1165512598829818,0.7982628422699867
434,0.04897273962213655,-0.00817226580705139,-0.007177421586549972,0.9385303852746409,0.9240806184077235,0.5553544835667996,0.7324013724138266,0.5051996109900994,1.2400012729321663,1.5306449633274604,0.6333676938231112,1.140858908596531,0.9152133889838046,0.8953241621536037,0.933411247073126
