,eda+bvp_XAp0,eda+bvp_XAp1,eda+bvp_XAp2,eda+bvp_XCond1,eda+bvp_XCond2,eda+bvp_XDist,eda+bvp_XFuzz1,eda+bvp_XFuzz2,eda+bvp_XK2_1,eda+bvp_XK2_2,eda+bvp_XPermEn,eda+bvp_XSamp0,eda+bvp_XSamp1,eda+bvp_XSamp2,eda+bvp_XSpec
0,0.32220529878718124,-0.02849532822166638,-0.030642269177548576,0.8964034014498237,0.849114263488775,0.6877681132047595,2.919164934005706,3.0541433732853367,1.6855401468157039,1.8428788663463171,0.6357360191111145,1.4890410119501607,1.379569254164491,1.6282038952358147,0.9206720800834656
1,0.2696799267534499,-0.054834918439868145,0.0,0.8019902936823141,0.7766151638061362,0.6501542753036598,2.7734114594281905,2.295780968644258,1.6243555835691863,0.9998965573233403,0.6468212168108125,1.6781927170231294,1.4639793014370495,0.9588615319127183,0.9353538927217409
2,0.5992814198462777,-0.09317961586089638,-0.03972480097793066,1.3690668677650888,1.375302884667406,0.8659576011038804,2.965456654703221,2.170672354288181,1.7478912129945887,1.5775943442141789,0.6357360191111145,1.6919744679034143,1.4720449734807282,1.2278330874410301,0.9238117163656621
3,1.1590601437029777,-0.19878547242719813,-0.11413840861189832,1.015168268833335,0.9975410949624434,0.7245227724101156,2.880943057909244,3.1235502779354922,2.244947473918954,1.701221516815403,0.6547956803312163,1.7920261714565995,1.8866829540032592,2.0351236850498435,0.9196710650789867
4,0.9060508557807921,-0.13573443887680947,-0.07848818800763863,0.6819162226689168,0.6530263636975582,0.5841695856359074,2.917032949410283,3.058929338832503,1.6966070454981048,2.0910905065774688,0.6584896970785714,1.7457031974693697,1.5862791151713125,1.8490459673842543,0.9476835169969293
5,0.8582680017215226,-0.12700374045092713,-0.009822437134549436,1.3512265800860268,1.3428619863134996,0.8686324798884949,3.1010040792768367,2.125295112500781,2.674175516032317,2.4795716639427763,0.6403206450210053,2.1295659288624047,2.336808965381623,1.3921139701731546,0.9512410356043789
6,0.39073934013803346,-0.04861593061324507,-0.016118023533659563,1.2771436434951489,1.262032787445601,0.8593027498497465,2.930333206461942,3.201849573624942,2.7509828991245153,,0.6309483474627791,1.9740810260220096,2.0426854015547167,2.197841670845466,0.9459964370107978
7,0.6180586029884938,-0.04364130894287929,-0.03294959429531173,1.1607981985273415,1.1189680310362526,0.811612988194844,3.1494250551362115,4.9704183360783585,1.8497563441422482,1.7035094284933832,0.6180765742263259,1.8126426801444793,1.7285833461213793,1.6086713351639048,0.9436715306375549
8,1.3398332817568166,-0.35879703033716936,-0.12634801701528248,0.9705805641968233,0.9180336232988736,0.7366863807548089,3.243524811640612,3.9311897508260785,2.943219934679162,,0.5915533975974677,2.243059113680019,2.654247495109234,2.639057329615259,0.8540587581382293
9,1.5073115012300111,-0.17882173631691461,-0.007080015501453433,1.1066747264505064,1.0646196759545177,0.7558054051228595,3.0323353757783984,2.705005010541074,5.80715417726913,,0.6509067234006624,3.2911478765181976,4.532898134338095,inf,0.8978584155624193
10,1.6621585285128688,-0.25848910189440694,-0.06588469568567999,1.011107091144995,1.0012817956573603,0.7399597945219579,4.0603407793690955,4.7381652127072575,4.171122439960848,2.7013500273316464,0.6619902821573977,2.72995503649026,3.8654255574497247,1.5163474893680884,0.7256319545659696
11,1.8189891629011234,-0.22802978765440987,-0.01450210073240659,0.8234373362098493,0.788680353459154,0.7134013047703183,3.3437843721390936,3.3028604640421335,3.9050061623785277,,0.6509067234006624,3.418343540497126,3.726541531773961,inf,0.8339621760754924
12,1.6625003553009063,-0.15736311069791373,-0.01442859268317992,0.9385224802439096,0.9211332054550487,0.6553034345075534,3.2286303281532387,3.416570601429669,7.559633212241434,,0.684994737851132,3.1481067539799934,6.873163834212518,inf,0.8365933218231676
13,2.293561772635788,-0.37050059880003317,-0.03469531436562276,0.7707384451506416,0.7627118146808708,0.5725514627213633,3.5362431408948614,3.038522367302533,3.902350067749024,,0.6652988471865258,2.8257082445704427,3.4285651102441808,inf,0.7799883628663151
14,3.1113105244433723,-0.45856100596729343,-0.03924867794364618,0.8184683783967416,0.7922769844757739,0.6586976834400848,3.3505129691121907,4.9152821095034644,3.4905596859751586,,0.6509067234006624,3.4914868530096164,3.21559773051037,inf,0.7046801567744482
15,1.962138125529541,-0.33646129305444644,-0.07563188724595458,0.8876117536082291,0.8594777220314277,0.7199020075870397,3.828453256342814,2.439971647321349,4.330854981144226,1.392016707347884,0.6528756675646988,2.6755830109647083,3.919797582975276,1.0509842396788551,0.6313017730238527
16,2.696826007221335,-0.35549369889941534,-0.013072522087500439,1.00091123617602,0.9652650429934192,0.6492857139154995,3.437198546784052,2.855480066972866,6.49461186800936,,0.6284777104787076,3.519980917652122,6.095824562432225,inf,0.7049973117012779
17,1.8582204026608677,-0.1954755888229419,-0.0027345874608839986,0.8163299738764381,0.7642111601443287,0.6351693932057396,3.013258497847072,3.1446949652183784,3.2121980223371716,,0.6602640781246099,3.4180044999785366,3.1067585267474946,inf,0.8517919815467953
18,1.359121154566767,-0.09060807697111779,0.0,1.00953143094265,0.9836677863427188,0.6857091703165905,2.902123790905844,1.9419332722750045,,,0.5915533975974677,3.575550768806933,inf,,0.7792382879175632
19,2.598368718020029,-0.6927031803603685,-0.3485319702139758,0.9411147949572646,0.9106108868214272,0.6231254184877303,2.4272925616601135,2.1747447995886215,3.2670746325630056,2.270567111239192,0.62595550513784,2.8608129556546205,2.717806376047575,2.0912759993268386,0.5916571943337621
20,0.917339330406238,-0.1544315893266317,-0.06074700758137794,0.9862934793864707,0.9387107134427753,0.7417127063554593,2.7890043977636902,2.216355292225787,1.704349165367978,1.3821911096027129,0.648888643467878,1.7959013683953902,1.45716340576507,1.1468995612000887,0.638722128131539
21,1.0203483880840394,-0.13272207824260362,-0.13047938509409876,1.1603396698048458,1.1225101736428156,0.7945952558994103,3.3566303025154562,6.024125786318955,1.9973514980025289,3.1713536565773817,0.6380535849069913,1.907993704894588,1.668748249282498,1.2811722529015055,0.7291095851045718
22,1.354625971120282,-0.2541865689696455,-0.03480030486934798,0.7984265397592283,0.768220419547345,0.6568343820473381,3.4375097113961055,5.967682415196974,3.005266634826138,,0.6602640781246099,2.1475776374468056,2.8815611282140097,inf,0.8205808524443228
23,0.7976357628502261,-0.18418135557968318,-0.025862728637543027,0.9888205417908711,0.9827085774657659,0.7006801630094082,3.081811364103298,2.4573172081007995,1.877863400147992,,0.6153451465759925,1.7348121887863048,1.66571874833269,inf,0.731858444372631
24,1.2329874970569759,-0.2023196918744196,-0.03194793256640583,0.8891188730890323,0.8752265203351629,0.5845072522861905,3.7120632798659816,2.0420946636934874,2.821803372936707,,0.581717464821069,2.144537255057213,2.499142785692754,inf,0.7670623298370298
25,1.0783317970589252,-0.16015631741512404,-0.04135173877682254,0.8579542021594291,0.8516839718431707,0.6215290834351572,3.7551561574132135,4.824429281374741,2.754749726747519,2.2291935447248097,0.6357360191111145,2.283109316493389,2.6291900768820047,1.8039176737078646,0.8159931095787146
26,1.667866078194669,-0.17164177971497319,-0.2147830855193104,1.0948932820067365,1.0641710163232974,0.7992188983624781,3.441185491343036,6.426960453232434,1.4698369858672895,2.404422201791637,0.6528756675646988,1.5385135740974016,1.3078412983819885,2.2314891713103155,0.8516263675805744
27,0.9105825136102068,-0.10945964128030264,-0.0569538669508625,1.1254638640048455,1.103027754417136,0.7705471309589801,4.121540289829574,3.102131779295995,2.7278649942873,5.1739591493092405,0.6509067234006624,1.8829249169801685,2.4237881233881837,3.2507043072339914,0.6521605184824231
28,0.8780295560574479,-0.16325803325024685,-0.025601995111150865,1.1023764098886597,1.1022060992383722,0.7622764664470667,3.6854656565586117,5.617609992218931,1.8141492660190308,3.1930243580290107,0.648888643467878,1.8123023704593844,1.6806448698123386,2.429820775550024,0.7196327198038439
29,1.0603653745439707,-0.14106856572621065,-0.11341912416434233,0.9049956116324679,0.8666495453082913,0.7599310157686198,3.0586717402877954,3.379255230034753,2.838307084327411,,0.6403206450210053,2.1393330989204418,2.5552756497148903,inf,0.5585455558809785
30,0.724890600863314,-0.11209670411722261,-0.025632510046807055,1.1646806596223607,1.1011371640470364,0.831360072646218,3.16413343408501,1.9559178845459915,3.1815893938585353,,0.6403206450210053,2.039281099270265,3.1378024024636555,inf,0.6966407358063061
31,0.4548012875352048,-0.03915302374389536,-0.05395832996149659,1.0551623277956443,1.0190228567764605,0.7894373757125135,3.3516214937855424,2.585076744663434,2.723105635223618,,0.648888643467878,1.7098723097558708,2.0328768542707962,3.2104684890322273,0.7976536783254732
32,1.4265723748410204,-0.34547021467370137,-0.06849308017961156,1.162397102590853,1.1408134070246114,0.7781402645954916,3.453687665525238,3.6190218879428766,2.413356603439847,4.597469511883944,0.6447042257417027,2.0807757646929725,2.124127988096192,2.845952369833646,0.8188572974900884
33,0.1429955167848925,-0.0008389017510650049,-0.0028791574875824608,0.7390225320547146,0.6741673798138517,0.6393024037459692,2.820125613598931,2.932652904179995,1.285278474724694,1.491162162602276,0.648888643467878,1.4135970436478995,1.0374880576645902,0.9902400714404451,0.8689612456660839
34,0.11060677059637022,-0.0007349402187902948,-0.016481628085084507,1.31415231644348,1.3077676294681946,0.8569355791960481,3.709544620321493,8.065609460677685,1.4552723964189282,2.742393341232478,0.6357360191111145,1.6631317466318827,1.2054785194827693,2.0482311486952427,0.8858314084263162
35,0.04127327719820813,0.005264030100523552,0.005447601702936865,1.103049191969599,1.0828424668047107,0.7589526888385131,3.334966080737215,2.5047652200585957,0.6858898358510028,0.7992597958387826,0.6447042257417027,1.246532418744732,0.587230297963781,0.5472645137034594,0.7724299386379117
36,0.17600151897129543,-0.014490395083970299,-0.02047061605105504,0.8590139298618973,0.816283982965389,0.5596737662912608,2.304627355004498,2.39655864976997,1.6539019095421499,1.6118258282670825,0.6547956803312163,1.2804539606252137,1.3056736365201917,1.0078457992145635,0.7322929191272712
37,0.4527635417024465,-0.12303742485115357,-0.004072803226573177,0.9349727333060697,0.8351143695610662,0.6059743196022604,2.076729096446987,1.7914928524485307,1.4436235969915603,1.8426580734665718,0.6740851607140061,1.2337068070993826,1.3389387569966247,1.37500461897529,0.7694665723122885
38,0.2094000316898459,-0.017642612294955555,-0.03815220130881535,1.0999421922436567,1.064969206132429,0.7942329057656888,3.193327633201374,2.7820916803827522,0.8539097339719826,0.6689181650918299,0.6684167106117298,1.3819482635432108,0.7420258520534161,0.40900295743645676,0.790469053153695
39,0.021613722677573458,-0.0037200727742676375,-0.0003906733628669136,1.1356748828565106,1.1102760208177058,0.7997884309067276,3.367243204782039,1.7351489061109326,1.0668358082073541,0.7731787026137144,0.6547956803312163,1.6598543983481164,0.9621710234030098,0.6923828298386382,0.8635349292240029
40,0.17872454591002704,-0.026730440164903703,-0.0012376646869746728,1.1077015940153745,1.056123466443538,0.7877766263285574,3.5124542958422706,2.2006968126740594,0.7487829041481711,0.6170710669200401,0.6403206450210053,1.4676972526835237,0.6375864509543386,0.3477367572878164,0.8098116475162913
41,0.6165770138114385,-0.06289360897341971,-0.0488841295728796,0.8872374486027894,0.8637143540707858,0.6315600299445154,2.7863319856932294,2.7631065737670317,1.3550643042885775,1.0422292854017812,0.6602640781246099,1.6750436695320943,1.2848925517499796,1.0366768524466916,0.7538647114957909
42,0.3897617202067634,-0.030701723927742744,-0.04508047955271624,0.8270250269249757,0.811273490705265,0.6046934504051409,3.3853298299189376,5.352729899496058,1.102586174721895,1.1571912592504765,0.6528756675646988,1.3671455422811296,0.9826476336996964,0.7436744379257703,0.7287614582515204
43,0.36521195597793604,-0.03677665724216694,-0.04092042764909311,0.9792020790504798,0.9527903666103096,0.6454466424098171,3.1634854982281135,2.175206964741736,1.1790377079614869,1.4807472578386893,0.648888643467878,1.4654818790169113,0.9849589338898106,1.2568289329855633,0.7351925502508464
44,0.02578169433161247,-0.000997800422712222,-0.005103867235769396,0.833637180795799,0.7780039959700881,0.6817848249261684,2.562166318912835,2.801548282208125,1.3474986522213515,1.2842504499349716,0.6509067234006624,1.4559064719149808,1.1503395297321801,1.3124659919317818,0.740616546970298
45,0.12828377080098446,-0.005976234576123424,-0.016421597422583024,1.021373737911663,1.0007335833295448,0.6164967577924122,3.154843785956294,3.85609168624846,0.9048795222038781,0.8644031060736959,0.6619902821573977,1.1441676903276123,0.7288018343259858,0.4669713548842164,0.7548201451045431
46,0.4840730187448026,-0.10475061513264983,-0.019951518321062088,1.035401783164645,1.0425366886281249,0.7347293743610421,3.660678282132619,2.3834471369557564,1.3758602066402588,1.2804369120575887,0.6509067234006624,1.430687539548223,0.954916909165915,0.8438830367486572,0.7950125183572015
47,0.06366310135639555,0.004334390675765031,-0.0031429279214202945,1.062982272417647,0.9932164479915833,0.7438415908582111,3.459376458852889,3.4878107474331417,1.1003276930682893,0.4843421178151086,0.6727386042041725,1.3398349533822254,0.9997599652457211,0.5272556442268725,0.7736792494589203
48,0.04631215168335321,0.001171745889565366,-0.013126558930948466,0.44968676231873606,0.41840890762791644,0.48059575759278655,2.8022987509278408,2.629169815547929,1.025321768958004,0.9828799902822096,0.663668482632973,1.1144368390150812,0.760414426079427,0.5734020670454567,0.7741179093363768
49,0.06081250262690636,-0.007970558126368932,-0.00784069255662672,0.8163280449214197,0.7678798697847332,0.49644098166371725,2.918229387477242,3.1058390503782927,1.499358720389477,1.1175076620865094,0.6713451011121618,1.3871391623083928,1.246422186803078,0.8796855363593075,0.5312391126653538
50,0.5130681728475431,-0.07853082163977279,-0.0010216758002856048,1.1348137075458693,1.1385751947885603,0.7757941226205375,3.6895818151809157,4.31099674913984,1.7334829199831172,1.050610544869766,0.6602640781246099,1.8099234398557262,1.613519550753749,1.1532477240567476,0.689335058660807
51,0.5400457801855418,-0.08337778912340135,-0.059498171688581104,0.8910043346787321,0.859612688508188,0.6412482241380629,3.3735192146282285,5.338728790780116,1.578469338288664,2.549847734040373,0.6602640781246099,1.4637515253047086,1.3990050655584827,1.649125660701343,0.8093792881701933
52,0.30194037806347745,0.008001282792073183,-0.02790831700777606,1.016395100097447,0.9947144630806162,0.722141148539752,3.094044891624206,2.2475113513471383,0.7463477255474114,0.5585489510152829,0.6652988471865258,1.283016011666389,0.6010049559879719,0.271294206604649,0.7336692993099727
53,0.20906352987832,0.002115455737632263,-0.009536131579391451,1.178959460387255,1.1630300640258475,0.7962527018596249,3.518169762450521,6.792253699421378,1.2416898386116306,1.9975375758760152,0.6713451011121618,1.7630424451305609,1.1712812002947868,1.675300890912124,0.7277167530975858
54,0.6135351674166247,-0.05825944421168411,-0.052149721351312864,0.8629100633507973,0.8454135102526754,0.6423032377932418,1.9443201929510359,1.215987379028844,1.111041876608934,0.925229897501624,0.6547956803312163,1.3200489641906332,0.8919847287992944,0.689399012265662,0.8691304513309529
55,1.0010937039614658,-0.1475460770086831,-0.11553429872628342,0.7788113999803579,0.777266153746333,0.5532896684390705,2.8282407383468935,2.5363213751116334,1.6880252673642917,8.23658234927781,0.6380535849069913,1.4695793563687067,1.4959470751282185,3.613724780513176,0.6495816670832791
56,0.7042661463980481,-0.0779914290673892,-0.08259446125238366,0.7674350760352533,0.7238382846445308,0.41322887792666085,2.68776538680735,2.835200069959035,1.9930477610800623,2.305447591704542,0.6713451011121618,1.4573369508924592,1.591561715231943,1.860384133711566,0.6238562069571706
57,0.8264661579540533,-0.0984948817867464,-0.08489389633192346,0.7757034898226995,0.76179550264934,0.6699737907801979,3.324740508576172,2.446779517874733,1.7559395902226933,1.4250972904760846,0.6566669596287297,1.688120434468569,1.5623607298149629,1.2354256008777418,0.6644109471416572
58,0.839047061163973,-0.13510925292768133,-0.056413105601890445,0.834308322656495,0.8128878428865316,0.6602321924116373,2.4291483848860396,1.6436438905936597,1.9587535283535173,2.7498515495594003,0.6125606311107803,1.985101529305475,1.7614070376450977,2.309198248885763,0.7378370357238431
59,1.3760089651844296,-0.3529343663264477,-0.05356522332003012,1.3219857964163166,1.300456274621295,0.8418003862575042,3.3229119169633634,2.9901670996850296,2.568250681749859,3.5447441742383763,0.6652988471865258,2.1901496636642577,2.2532796732299,2.821000886026712,0.9191148649010155
60,1.6665907606337074,-0.37823448982761043,-0.021692723462038238,0.6605198271598685,0.6263832532864403,0.6636966710845487,3.103127201373086,2.487873148371541,2.9730737990346117,1.824140645499962,0.6309483474627791,2.76833113198714,2.9455016785225623,1.6683804480675504,0.8056456350602123
61,1.2077797922822446,-0.286844366098927,-0.13732230271431833,0.7474360927783021,0.6948101615571963,0.6509043165730558,2.7929537781825178,3.313497967131745,2.3431648872826703,2.068157708241614,0.648888643467878,1.8829979496623261,2.1142199018290517,1.8420025940599274,0.6419058456000927
62,1.3226814103596614,-0.30079352876424914,-0.08176837710580127,0.8841971482848804,0.8373290916934526,0.6958135361978908,2.944575130873789,2.2994394249087327,3.8556019531068957,1.5026542801065539,0.6468212168108125,2.298261121513991,2.929287174145838,1.8625285401162623,0.8792183239921932
63,1.0675371369966746,-0.20353427362309734,-0.11603925707118136,1.2389905729519537,1.1765440138780994,0.8184317483491936,2.4944048630641746,1.2238552433408492,2.143575785232416,2.2835792988667154,0.6380535849069913,2.0325579557809856,2.0072984211570453,2.131266609544422,0.8687565536389691
64,1.2160891382247019,-0.26547759651047,-0.15486795210467186,1.0117645219642089,0.9812349132820242,0.7558047558072846,3.09293601788826,2.7284583177120316,2.060679401136621,1.2046918484774007,0.6822068148872973,1.793761471898728,1.874009019004973,1.2370044124930772,0.8533068670661845
65,0.8379526764339638,-0.13303991425552292,-0.050158873941832924,0.7986260577598634,0.7420043286495719,0.5654086073316168,2.673243938041428,2.0983668089580587,2.9000685902369256,2.3213640045244666,0.6357360191111145,2.0456199932043253,2.6810902773178618,2.1590661017411747,0.7578612585402459
66,1.1417451892803807,-0.2611678945563047,-0.047103306549398115,0.9450949016322558,0.9171873088412233,0.7439110460948846,3.5310693005830163,5.538584115247066,2.5049205623659025,,0.6699045166045591,2.161374924442522,2.2614737047516145,inf,0.8845211781021246
67,1.8640883694137143,-0.17497531417546794,-0.04250166225613206,0.9681686569084009,0.9401482466516045,0.6979054893397006,3.427434129004171,3.7444397779273992,5.141978789462601,,0.6740851607140061,3.263176083764781,3.881708988506306,inf,0.7962516247717677
68,1.362720712098354,-0.14081447358349658,0.0,0.793155909267413,0.7568234308296178,0.5909522348471368,3.258798209327834,4.0092047115246885,,,0.6008849035917525,3.0590271239263047,inf,,0.7044729095428957
69,2.2825190911884845,-0.36010789610194327,-0.0544529678463339,1.0754186452823735,1.0504073467735808,0.8052655282140193,3.157962921441796,3.0627909518095353,2.3624961446711246,,0.6425374456860184,2.881412016524693,2.0852063921547885,6.440946540632921,0.7607319223983404
70,2.0482392381368357,-0.3448017466103229,-0.09037974082059531,0.9965854374034971,0.9853964527152151,0.7293486416839869,3.5133588255547332,3.252040904750706,6.310486884216254,2.4782064760174363,0.6468212168108125,2.605493612777118,5.275710811919122,2.4277482359480516,0.8447317525476636
71,1.0186140511612898,-0.1553198644871944,-0.011053763869149611,1.0592347677188307,1.0417498189647516,0.7358899686279797,3.401974548825142,3.532706240397885,2.9043132425678713,,0.6357360191111145,2.4658886439522383,2.6263183038378286,inf,0.737976665826288
72,2.2140913685800467,-0.43162544424085486,-0.048094352284821944,1.0267617917350362,0.9890602384775924,0.7456617527131557,3.5994325084951755,4.016091046325002,3.7295477721801054,,0.648888643467878,2.7885374520148964,3.5756023803782586,inf,0.6643703371549557
73,1.5304232872602164,-0.29979377492993003,-0.036899348267317555,1.2476074514258901,1.2134026469933101,0.7588897784361672,3.2113409321880573,2.6015206893732734,5.735791054515006,,0.6284777104787076,2.487042261918422,5.454786784594254,inf,0.6498941045899117
74,1.3056740394234598,-0.2512370674891627,-0.03601122118399848,0.9183527743191713,0.8889069992360882,0.6638085995649627,3.3313241651807806,2.7019302849476916,3.595650467882577,,0.6584896970785714,2.3371765377636646,3.099126571758275,inf,0.7303849304761818
75,1.591698118734135,-0.4208622974971934,-0.09909242128929074,0.8835747531903579,0.8533916452397644,0.6192328607319303,2.766551489541321,2.212650249399482,2.898637760827316,,0.5915533975974677,2.336831531722637,2.578493582569294,inf,0.7011981290937095
76,0.8556882488347283,-0.0950843928991543,-0.033268844426054926,1.218049706793071,1.207416686528217,0.8182934050617994,2.9912082995577722,2.6798223736599422,3.1891925571414665,,0.6547956803312163,2.353761435156447,2.9225770246728144,inf,0.9425500526817392
77,1.530096133695694,-0.3193014249615016,-0.04341163152262999,1.079633840015541,0.9668486023398172,0.7279412307290881,3.172634189211227,2.0208510272899916,2.7122420708080845,5.356936658898116,0.6309483474627791,2.6318610627446635,2.614496564872662,3.3279939776388603,0.6668583357733661
78,1.8358877932969921,-0.23196312475484984,-0.006702288373759135,1.0279721969705748,0.9836310031798793,0.7709855409490997,3.118011560418324,2.851981800922996,3.0907670366467364,,0.6153451465759925,3.095184352525651,2.9187530504343897,inf,0.8760372668175123
79,1.365015063501313,-0.21584063878810306,-0.0025617713721070054,0.9199078148808736,0.8930672088415138,0.7579856222161079,3.5787284328481017,2.87625130635356,4.57542844385851,,0.6125606311107803,2.507970589386552,3.9651204267951585,inf,0.6768099662881287
80,1.5573341752054821,-0.22130468087345131,-0.027868787159425815,0.7688098585597299,0.7395345920694897,0.6146330584962354,3.459210500034438,3.999604152493311,2.7498247819571273,,0.5915533975974677,2.6036901857779675,2.595284737437806,inf,0.7126733518176135
81,1.4720492710639352,-0.31062623502641873,-0.03234162168951621,0.8392860896344033,0.8189085687584124,0.6997831124596539,3.4246905586032095,2.138902940813388,3.1057787453311034,3.6356592647084796,0.6403206450210053,2.2548536901728555,2.8283522967582355,1.8700116661278032,0.7117694997407147
82,1.1915430723817055,-0.12003508882040903,-0.05750665505167947,0.7351387702259092,0.7184836456990393,0.678237753687534,3.122644633611948,5.221581893624531,2.58087670866467,6.464099330012038,0.6309483474627791,2.349210934334101,2.4598449863637857,4.806749559386461,0.6491390856269058
83,2.265422454938384,-0.3854431738752127,-0.02988427619682433,0.6950826096623696,0.6798484982842817,0.5797735898290908,3.4385543420178757,3.8874153494346406,4.375348832142852,,0.6684167106117298,2.8511510447428834,4.067777534837379,inf,0.8033988084401187
84,1.1935180481586531,-0.15182358208746927,-0.054400196526460255,0.8393982414110046,0.8246487592410499,0.658350617551797,3.5666820250108673,4.547931799407955,2.4335460897900973,6.009456985927789,0.6509067234006624,2.2580367167329767,2.0536350114818935,5.149983072042218,0.6871758796157913
85,1.0327300457298478,-0.18836481363781085,-0.028508495965457185,1.3062540924100283,1.3003815522463056,0.8258253967020686,4.15793098859574,2.0320759603002507,4.32221357738924,,0.6333676938231112,2.1158289391322254,3.7945677848869748,inf,0.68623312090421
86,1.9310705019558627,-0.30934178133152246,-0.122085169693389,1.1317025944878913,1.1061766844573675,0.8488123793431508,3.6600465208648534,4.337164416025176,2.2355875002294936,,0.648888643467878,2.155890713843242,1.971665982584972,5.200566711204352,0.79765800132114
87,1.3644612290108904,-0.24015012511271233,-0.11915799852682213,1.1090534083586647,1.0809089545911605,0.701109399460925,4.040022720620866,2.5859892830701305,4.100859212743491,,0.6284777104787076,2.0689193171832954,3.668764709148587,inf,0.6983026528449562
88,0.8861306731033666,-0.1008503433260935,-0.005485337446310502,1.010932046986598,0.9700285968805323,0.7533218695164743,2.9696002094707987,2.07362707468731,3.39900227046376,,0.648888643467878,2.5638055673944176,3.0661070586953283,inf,0.5956311121359824
89,0.8148203098758099,-0.005432135399172066,0.0,0.6323896946963672,0.5855942395411577,0.6937685391784457,2.164276821189915,2.365571256332348,,,0.6380535849069913,5.72398518197372,inf,,0.9521918592962665
90,1.7715419602572648,-0.4285491532096589,-0.12062885447009318,1.1500146433492109,1.092005706960082,0.7801317040781142,2.8470980853197583,2.1259713233098405,3.185115838243554,,0.6468212168108125,2.6705938640582567,2.879037930770686,inf,0.7479378901276904
91,0.4088686128932981,-0.06855631017877528,-0.03229794766823826,1.0200006279108162,0.9650088155761708,0.771804346287415,2.907815417838484,2.7933035522810563,2.8854542092961473,,0.6038851895711802,1.6631903684333473,2.597602401426418,inf,0.8951228993207038
92,0.38744945412189385,-0.056264843272341575,-0.008344408012823854,1.0259655056181354,1.0090555087241215,0.7008951549450224,4.041640664601557,4.094468847088365,1.603027722134547,2.0272864285280083,0.6309483474627791,1.795165262362888,1.5189374124483337,1.4760592965267032,0.647385373812304
93,0.3055441910045619,-0.01995811011116897,-0.03897367526913245,1.0608761787013623,1.0611661109308923,0.6741861787831451,2.9282412735101255,2.5534571292097024,1.3280864352370514,1.4713114553763693,0.6584896970785714,1.5334547154869507,1.0302065829899547,0.87005927489081,0.6164070711957838
94,0.586345417638388,-0.039133462835503965,-0.0472690739727418,1.2703614158573742,1.251400427301754,0.8556989703862771,3.128827344000665,2.2370524850466604,1.566398309055177,1.2502788747512688,0.6284777104787076,1.590943329797936,1.284933981947776,1.0445139433529507,0.7974856072672001
95,0.607620920362633,-0.0066038965545919814,-0.030095451773519244,1.262286527984335,1.2600905315269737,0.8659461927539351,3.564850294063964,2.4591105167130194,1.8220666770733884,1.627430351253908,0.6566669596287297,1.6605557836127105,1.4731622329151832,1.2073799626475503,0.6999122004410775
96,0.7573468549890036,-0.043308820902817624,-0.08932298431556754,0.9236149840992194,0.897496178293568,0.7040979304043821,3.7563428560745393,9.068698267953472,1.4708736726785212,2.0915036443647947,0.6333676938231112,1.5627133722612312,1.3282585657069659,1.929042996519409,0.7974878276514517
97,1.1529679633194574,-0.24467018089623638,-0.06565110432388903,0.8551014189404775,0.7963897624894375,0.6904060196313376,3.686657690395188,2.5667036072585203,1.9634922964017674,2.6456326998649504,0.6309483474627791,1.7416368598248444,1.7749713733486387,2.1576154392411735,0.6370653742272608
98,1.002988957791072,-0.13311475140033,-0.060315785915251045,1.0947987934341004,1.0701247523619064,0.7554118461297525,3.2896054646468267,1.9496073058880028,2.780251638981419,4.581178515107466,0.6180765742263259,2.08684666986661,2.3921804612811264,4.363588460703129,0.7509168510644184
99,1.1774586029218188,-0.2036887583090411,-0.06379470685641356,1.1333069819887722,1.130147722233364,0.7716557731156318,3.3190104146564323,3.778446161924855,2.185962703140254,,0.6207552362147116,1.8051824895601956,1.8993747772729703,3.296288435214983,0.8623591009185678
100,1.3721327802778718,-0.3018648846792446,-0.09147984566707862,0.8311794493974696,0.815248054804536,0.6024974091440254,2.4951062890979676,2.5559327161651124,2.740024174161544,,0.6447042257417027,1.934629570261082,2.307441903990474,inf,0.6963804563009316
101,0.533906687282613,-0.02018350328105123,-0.06521448197605517,0.4933032317730968,0.4667993062435084,0.49620544298521435,2.824858871880115,2.5096824698201545,0.7927178242328083,0.7198527364841585,0.6684167106117298,1.0482994747945207,0.611496496981174,0.4652940078013257,0.8982136655658338
102,1.0252812648533214,-0.02134288687453237,-0.1155777862788216,1.2462212240826325,1.2477789912377384,0.8316898436137317,4.072010355849179,4.453500786879495,1.5422439577604297,1.2257328175197466,0.6468212168108125,1.7104867490993185,1.4409900663981745,1.0033257157617215,0.9034289479061243
103,0.45356340120483923,-0.07076035457807711,-0.03475536245051732,0.9476391190817368,0.912078032338182,0.7042016333556292,3.347074231259199,4.070583278963845,1.3775439088420116,1.6448081230560052,0.6528756675646988,1.5661123876958067,1.1154581806020247,1.0252465865027722,0.8733396766229041
104,0.3104339056029664,-0.03793131632917444,-0.014163503845490692,0.7348081586398009,0.6935182006023182,0.5874369732361294,3.1165624039926136,5.246633388083392,1.3295879420966144,1.4290524657911474,0.6284777104787076,1.3736194724202961,1.1080922864711846,1.2600997585592222,0.8739922019134977
105,0.12062185915893282,-0.018843747152567154,-0.002379957129492946,0.9382704482920787,0.9002580759276944,0.555826928764721,2.393222473574141,1.971187394266582,1.0141014876330317,0.9765745402706719,0.6125606311107803,1.1399205124897862,0.73921403622327,0.5514101863889336,0.8451722726789582
106,0.0036918233184209145,-6.577694225819533e-06,-0.0007440930471864331,0.6027218238029824,0.551469399777182,0.5498389201268725,3.558570817972489,4.883185507309779,1.848053175849021,1.559535957200868,0.6566669596287297,1.5963571728955699,1.6432884134590167,1.777678695892466,0.8107732696623713
107,0.003463906381011486,-0.00043876147492812154,0.0,1.078235494548482,0.9608160950547234,0.7163443146999469,3.4139576250930883,5.526488187545361,2.247213517289064,1.3804327618219479,0.62595550513784,2.069447207394393,2.0282362560932223,1.6127879993193823,0.8164220952813536
108,0.04689773061721842,-0.0035882894034526686,-0.0059588207473716985,1.0568894055857438,0.9579197164125721,0.6507427577627107,3.4576756070575616,11.652323114457289,1.0108235365622862,0.9271723842461295,0.6509067234006624,1.12004023608173,0.7672027613079414,0.741072235693685,0.7232637647918251
109,0.02268358945971533,0.005466704980670122,-0.004348500516141233,1.2109614262459898,1.0425684217298345,0.8383638962239958,3.7462180716797397,5.509534609514214,0.7935111718538869,0.8233284862991859,0.62595550513784,1.4411964987370731,0.6027063136554968,0.5435534924112249,0.6783300732847484
110,0.017193399043137714,-0.002690909855849543,-4.501569360203586e-06,1.0187610308907524,0.9735809160908034,0.7518738285993541,3.103172448215837,1.9405731446035506,0.8360621835398974,0.46057322170947657,0.6125606311107803,1.3094156278977147,0.6708444492010105,0.37854269589354905,0.8351870744212576
111,0.15556755855176282,0.026686882611928364,0.0067186976000037785,0.8709144379978262,0.8452884883500107,0.6218844058017887,2.558081293328065,2.1044270404802443,0.8014391282385868,0.6307880268682023,0.6038851895711802,1.0783195854003473,0.5866310369640119,0.5739296302406928,0.5959988616610552
112,0.04050681120946776,-0.008776475762051348,0.0,1.0221113218036049,0.9417082082183259,0.7354291395686784,2.9532305111984436,4.023132212286104,1.4909934224328332,1.244422105267344,0.6602640781246099,1.5521653075833293,1.3217427242821704,1.044803961713443,0.7236055356475942
113,0.019294240697658976,-0.0013364191803273296,2.915709237517536e-05,1.0612997800454245,0.94428385397586,0.7433055941846348,2.9411338497437813,3.7321687733626763,0.8180304640955193,0.9411115219555694,0.6468212168108125,1.2988941708390571,0.6713542091627762,0.6508598909665684,0.6708517896782904
114,0.0,0.0,0.0,0.8993398846549441,0.8678256762157044,0.6029545158322186,2.9592724384448927,2.22813073208835,1.9930861567955511,,0.6309483474627791,1.6262450307504817,1.7782912521771885,inf,0.5498216490151935
115,0.16869127884386848,-0.014302240982368701,-0.03349362135672737,0.875650314369021,0.8050651731995636,0.6450184968360168,2.9026940640217584,4.194088921444267,1.4413389423012295,1.3496191911285318,0.6528756675646988,1.2966974406415426,1.1139679125475015,1.2203645679381179,0.7839755171251733
116,0.008198381483251525,-2.5586484234676847e-05,-0.0023519441459082654,1.1421733879391769,1.0985914022095822,0.8026865312327406,3.6037458838311553,8.508083086152135,0.8457334455650174,0.42951399541099694,0.6602640781246099,1.2437922151814444,0.6906835562482059,0.40869986139087344,0.7327481042523911
117,0.04240922974547342,0.004056192510414952,4.353073018000843e-05,1.2470613938529496,1.2181201393170982,0.8528394710605436,4.105403088977861,9.23021145644318,1.3573431162988068,1.0267469992803586,0.6125606311107803,1.7035654584921387,1.1756685549935701,0.898355228798904,0.7603710556953597
118,0.10760707737515518,-0.010487111560786432,2.9396938935281197e-05,0.9800791720437446,0.9713155206736546,0.7404030061358493,2.5158204569856117,2.2278802598131917,1.1477171884176287,1.0335201120387085,0.6097226960127671,1.610049210349716,0.8771266788823275,0.656283296351403,0.8586510944399179
119,0.077230009383953,-0.006683080494397323,8.491436402819491e-05,0.8346969784531837,0.8119245387775155,0.6741424517141597,1.7264178150440304,0.7465635923326526,0.33990682107383624,0.31505619917149197,0.6153451465759925,0.801673194953652,0.2945419691147361,0.21258331954198062,0.959220738021186
120,0.0,0.0,0.0,0.9332373599576581,0.9223573064628671,0.6991148841038614,1.775274687753965,0.5535665407539803,0.4872840151829565,0.21979346442892791,0.6153451465759925,1.118814995985629,0.4139191100404495,0.265714351352773,0.9151442039089177
121,0.3103279038037726,-0.05122563563512088,-0.029881378437981873,0.7525392138091507,0.7352101875590235,0.559425484554907,1.9807671624908108,0.5374560407714455,0.5457799984174971,0.20209426548558956,0.6699045166045591,1.1068124852334496,0.5001285470020636,0.16312217891078148,0.9449463798119796
122,0.15468798967198202,-0.019060736349838975,-0.012855728371994016,0.7912440640898817,0.7480709552250819,0.6536518154826665,2.384032423667891,0.7451839170882462,0.5793195941557332,0.2820600929358372,0.6602640781246099,1.3259730532723433,0.4865334891005007,0.27308721879218983,0.7948777125172092
123,0.19309015809156702,0.0019460792368999127,-0.01670016988271013,0.8521961495212387,0.7766447793262582,0.5899978530563988,2.9974893125893525,9.61659708451278,2.3099223317257658,1.6060878255488185,0.5978297680564633,1.7810833292308206,1.8923603167532765,1.5438058974751578,0.6191517452306131
124,0.04516952344966384,-0.006323733282952938,0.0,0.9601300167160922,0.9302836626404302,0.6993586676743334,3.133432453287105,3.9021435629682664,1.4210462711466594,2.3918707747291883,0.5978297680564633,1.9865585475331222,1.322667555590223,0.7918074472495522,0.847423282673498
125,0.01329830272343083,-0.001728779354046008,0.0,0.9838554273092571,0.9686343286574379,0.7108442681857112,2.7241608368646597,3.1033817018631145,2.039006335773146,0.9129406449888731,0.6207552362147116,2.0519993251834405,1.8633625815102204,0.6964972674452273,0.8928173716583554
126,0.03453358472837403,-0.008376016856610873,-0.004286297543792938,0.8057917376150744,0.7503710546699586,0.6315528069158791,1.8131284888071875,1.785802056039117,0.7003464437384674,0.6111277553411563,0.6125606311107803,1.0183234574393067,0.557196236791333,0.4213797018720502,0.7768211762394271
127,0.084614416158674,-0.01810734168994027,-0.0018509811783357778,0.813447916645134,0.7633104263950071,0.657936321913966,1.9714427987271637,1.993881794768434,1.144983303303915,1.1862339799885544,0.6207552362147116,1.4199660541576216,0.9810897634604346,0.7629636237660862,0.8078527836000208
128,0.02072877623495391,-0.0030858076165871063,4.447334338131162e-06,0.6757902165897266,0.6405467254466712,0.608174262561761,1.6509664227544636,1.7825287866535033,1.7738707869478092,2.1938744904509373,0.663668482632973,1.7293482091066579,1.508314092846599,1.437691940891939,0.7595296108834861
129,5.564835442524331e-05,7.463307910509765e-08,7.538631337940465e-08,0.7389673673409327,0.7048136360389845,0.4303327578196041,1.7159918673315755,1.702551793308815,1.606043454069763,1.5980109121231738,0.648888643467878,1.609493469532923,1.3252482360991822,0.9845297285208688,0.8209492480785882
130,0.021422891188641536,-0.002999204766409815,0.0,1.2858154402747728,1.2436057584329923,0.8419730026708746,1.7406668809500443,1.989942485313535,2.333808636077642,,0.6207552362147116,1.9803405761931538,1.7808706506732486,1.9492602359405953,0.7143887040818969
131,0.0,0.0,0.0,0.8304723258326812,0.7883423137585317,0.6384974803432099,1.6479092721486364,1.9818416759131743,1.7303292457131758,,0.6233814453054027,1.9425823589626385,1.5673144396228578,2.2005746642215014,0.7767196365430927
132,0.0,0.0,0.0,1.0423717216146886,1.0405688114134062,0.7540646383203966,2.3001794087802727,2.412039210131789,1.3378350245739064,1.4393830381183652,0.6309483474627791,1.529395204760564,1.181993897607161,1.3896444480051726,0.8440926407365189
133,0.006453771110471065,0.0012717522405775298,-0.0012692707625679756,0.9354619186813884,0.8821515125497472,0.6151258099064355,2.1259159889465047,2.1993180079974626,1.8715922783312178,2.1938744904509373,0.6447042257417027,1.631626717723249,1.644701681893037,1.4466248220281888,0.7858068426746654
134,0.0,0.0,0.0,1.3049621673814922,1.3068629549503088,0.8378892205267328,2.0827731969210124,2.400547481335569,2.3491518049818287,,0.6425374456860184,1.8971199848858813,1.7305598493559984,inf,0.7172785369712131
135,7.104045245775742e-05,7.463307910509765e-08,7.538631337940465e-08,1.0583186192667777,1.0234711524483628,0.6780306750644648,1.9025409940053886,2.2413255150134117,1.7672962342638094,2.076091454794554,0.6284777104787076,1.853705797447041,1.4558243956892907,1.3034481752995715,0.7495524409854449
136,0.0,0.0,0.0,1.1915374149605973,1.162470862448499,0.8083193685886226,2.16724033097624,2.968405619335783,1.7506802399796932,,0.6357360191111145,1.7525387560747736,1.4696759700589417,1.795109556113337,0.7801871087141563
137,0.0,0.0,0.0,1.105515451911975,1.0876170273829724,0.6980394101465348,2.0028658185404384,2.0989435190970256,1.6931103881582155,1.7013980053531434,0.6509067234006624,1.6094379124341003,1.5327341060260786,1.469687155678709,0.7583806234457281
138,0.027578373890929608,-0.0023589012623101155,1.9172374480570277e-05,1.3716486607566716,1.317282659116435,0.8553804001401221,2.2120348594515624,2.0240296302069165,1.3407087774831448,1.1781308586716472,0.6008849035917525,1.791959489230722,1.2411285708670379,0.9732456248016275,0.8692198972904814
139,0.0,0.0,0.0,1.1556478078621366,1.0638457414245,0.7795991095713227,2.087101954321647,2.3028008097192987,1.6259016384647655,1.6060878255488185,0.6153451465759925,1.7719568419318752,1.3702151765283037,1.469687155678709,0.8560979095078894
140,0.0020198350935992965,-0.00036357031684787337,0.0,1.0072253738064434,0.9466660592501868,0.729100003274499,2.1254594956372914,1.533969530783454,2.201491477054134,1.778888167878683,0.6425374456860184,1.7167138415725876,2.044497385293815,1.9492602359405953,0.7894973582421534
141,8.143661623206338e-05,-1.1129670885048663e-05,0.0,1.1397810577936298,1.111048248189598,0.772306932672798,2.47571414666506,3.406521178482129,2.323857500200804,,0.6068309995095971,1.9902917120699917,1.9250701946236692,inf,0.8336672724171323
142,0.18827292437839135,-0.02327691941315653,-0.013750089047927109,1.2047652966040363,1.1465870418083388,0.8258845483877856,2.2436769005070567,2.4119402027331365,1.5666294746803937,1.358112298533427,0.6468212168108125,1.6737394246234742,1.1431960151995082,0.6963114456477958,0.832454808108991
143,0.0,0.0,0.0,1.4714761107013477,1.4702609488223406,0.9075657663981226,2.0844578456150393,2.794766060920457,2.1938856760707046,,0.6233814453054027,2.120263536200091,1.9774199272875244,inf,0.7848005541490987
144,0.06501152211635113,-0.0001835871709997567,-1.414863005905903e-05,0.6403421731123369,0.5970012011877787,0.5739872708877152,2.2423517569154257,2.439356675850254,1.7667283444622968,2.286105714666971,0.6468212168108125,1.6442594273761366,1.4230882009892307,2.6199055443396233,0.8453207408517728
145,0.330163607022506,0.0026171906345214407,0.016769257005190302,0.9918508021065865,0.9512048035458259,0.7318120705562011,2.3332825582949455,1.7091048543626095,0.6835854789470712,0.45378674334188474,0.6284777104787076,1.14155458499594,0.5438049089996262,0.40462633267105447,0.793050413608482
146,0.04124570358988065,-0.00522445578805155,0.0,0.9033279948019285,0.8448917250192395,0.6930123404781027,3.5988082011604257,8.334628002096109,2.0036215492998988,1.6060878255488185,0.6619902821573977,2.087384111656687,1.6738271152097153,1.2561130553806499,0.7969248203951463
147,0.06969886409569934,0.012139612932737763,0.012198565504802,1.079625860626688,1.0040153086133332,0.6733186165395654,2.603631923380159,2.044168925236734,1.449132169240879,0.7200588293597475,0.6038851895711802,1.7714341027668092,1.22407597325266,0.6255030668642211,0.7148500255278991
148,0.05889596241727564,-0.007460155239521581,0.0,1.2456204214576012,1.1684673510718628,0.8256429942085493,1.2234242992105917,1.315901429953486,1.545332239017436,1.7525157477250195,0.585052858160615,2.089985826666621,1.4199109719188756,1.507427483661556,0.7264327010340696
149,0.023941995612737476,-0.004389365862335204,0.0,0.968530276030252,0.9067042717871594,0.5985173651018599,1.7494980941230316,1.6660822531081199,1.4308451175823125,0.945708890278391,0.6125606311107803,1.7111015662106006,1.4310704522495783,0.9588615319127183,0.8503616400978747
150,0.008492312864983625,-6.018272125785963e-05,-4.2244418816915486e-06,0.8089442964252379,0.7525015419700677,0.5822085981275239,2.1894310114655244,2.1181431469603265,1.062917943158041,0.8568511783378294,0.5915533975974677,1.3794290922111634,1.0122301098028126,0.7901349479496929,0.7806657082487458
151,0.11183887205208237,5.2420424693444545e-05,-0.019065028673547448,0.6805466788173548,0.6710331317136689,0.6029449042951894,2.2759827893272844,2.2467331705517997,1.7115261912709552,1.0952622017828277,0.6207552362147116,1.7916928047835117,1.5172293007694726,1.0152549961341226,0.852464161466466
152,0.06155827113882923,-0.007919868687137652,-3.614841634762625e-06,0.8671719025456744,0.7813847472705399,0.6678159776098107,1.7633663166008593,1.6653425418616083,1.1671288245030234,0.7951576093324896,0.6509067234006624,1.5375824753336722,0.9561631231215324,0.5873025206176682,0.8854143086983234
153,0.16321818852248296,-0.013473453616880342,-0.01670579810843925,0.9431600476817658,0.8909513862151553,0.7136863534419334,2.2120091801009862,1.3526275033801443,0.7997170715334024,0.4069434185856072,0.62595550513784,1.3134983603354644,0.7563009287455162,0.4224677151133122,0.8969363476903717
154,0.0032009270699550857,0.0005493980292857652,0.0005438538611123997,1.1284355142116904,1.0915930574672705,0.7703782075256013,2.3825917957372194,2.2096639030468515,1.1117383992769567,0.6472868290720493,0.6207552362147116,1.7554918300575135,0.7053077443872536,0.3293649230343719,0.8822373695712339
155,0.0,0.0,0.0,1.539778085725161,1.4663997948056315,0.8912524863125171,2.380172082309154,2.4904823580078217,1.1822847643922247,0.7851072734789882,0.6425374456860184,2.120263536200091,1.021908482260088,0.7765399751187637,0.8111784499698858
156,0.0541187227364766,-0.0006217569205136091,1.754476194431448e-05,1.0422176677912782,1.0063368895739428,0.7808513692806699,2.108236355758338,1.851570239553881,1.2110053735173023,1.0800085493012406,0.6097226960127671,1.7946302526530755,1.0747630988578973,0.8842024173226546,0.8528661476971484
157,0.2876390723575826,0.006581606294276066,0.0066710459578711995,0.8365844829383429,0.8291237311037137,0.5715514182840107,2.0115999553459645,2.1812394959306873,1.189543757768208,1.1880386981761104,0.6125606311107803,1.7393567904350067,0.9310765470958966,0.8446795682611463,0.8736807664090832
158,0.010124531288515112,-0.0012149437546218134,0.0,0.9380937966353764,0.9080471346222029,0.5876255362881506,2.198475994163429,2.8656653234391882,1.6250609490499723,1.249412881610086,0.6309483474627791,2.129472475285401,1.4982073589564788,1.3896444480051726,0.8657423545709491
159,0.0,0.0,0.0,0.69472238924685,0.6412086314109859,0.526986100852993,2.2867761651788348,2.709997109862985,1.654889175338018,,0.581717464821069,1.9661128563728327,1.661566977869047,inf,0.8815033083128906
160,0.0,0.0,0.0,1.5097604930427238,1.486639019960786,0.8889410679990017,2.431435409772933,2.369438535770944,2.2653446400528496,,0.6068309995095971,2.336486644669727,1.984340370132098,0.291032159337063,0.8805046864158941
161,0.18399298305342585,-0.019012608248854004,0.0,1.0863707622793213,1.064684905091671,0.7109384491526745,2.2232861286198977,1.919136844187471,2.7048224047754243,,0.5783247308855777,2.302473988055317,1.6128879186383438,0.4088151949934463,0.8698322762250361
162,0.0,0.0,0.0,1.3410624342152346,1.320992853711561,0.8601073624496948,2.1038734483418717,2.330738419212788,1.678419672748212,1.3829442742346088,0.6357360191111145,1.9425823589626385,1.5673144396228578,1.1019623755533916,0.866673226688779
163,0.019664953892156,-0.000622942767388075,-1.8940860560278695e-06,1.0780757325500734,1.0300120427080521,0.7472382475031277,1.7792727524056284,2.1343383286231656,1.3085321117474955,1.5231423582173205,0.6038851895711802,1.7668067278724786,1.140914668358799,1.3129425326694928,0.8388142742616359
164,0.2592628397571,0.00010484084938688909,-0.038130057347094896,0.6954743214874844,0.6630286762151922,0.4865268098067306,2.0495047749957895,2.31563733709731,1.336290164211554,1.2962368948153395,0.6403206450210053,1.9659541388104014,1.2557033290196762,1.1025196338570296,0.882107816566707
165,0.12399527118817828,-0.019012608248854004,0.0,1.4554169664274808,1.436291559969363,0.9005213016051385,1.5026552756324356,1.9216939064724654,2.191955069149052,1.6080925038011966,0.5915533975974677,1.8970459135551558,1.7306339206867238,1.3896444480051726,0.8164343550024235
166,0.0,0.0,0.0,1.4647769661352397,1.4047243866951125,0.9082640583888424,1.737846129189126,2.459339337032305,1.2729545646400475,2.4815565629027185,0.6425374456860184,1.9425823589626385,1.1995896594975404,0.9588615319127183,0.8427680618792388
167,0.058081179533010056,-0.0034305317788748324,0.002078320533763188,1.5573501627566495,1.5267049897082376,0.943843402164094,1.4657404275837453,1.780055562110644,1.4900237243994274,1.0315903927653822,0.62595550513784,2.076867080672485,1.225088466340021,0.877946903571241,0.8115387872679501
168,3.709890295016221e-05,7.463307910509765e-08,-1.120430396415376e-05,0.44064095540144155,0.38578825896231334,0.46232540326912674,1.7248459504158589,2.076432198042414,0.74061479455278,0.7193567408781794,0.6447042257417027,1.204009842048861,0.69652336867799,0.6744440361509969,0.779934115900155
169,0.07156233785986416,0.013290659915140337,6.934366641056511e-05,1.3661021438179288,1.3562102328840795,0.8635449868079951,1.619664321898874,1.5920641806787743,1.4050982440020596,0.8551131110169004,0.6357360191111145,1.6451226622583897,1.1158010284508888,0.8659203724852054,0.8206655901903529
170,0.03781965187791818,-0.005420816769168272,0.0,0.6826118505763108,0.651682264258808,0.5702158886536554,1.9791949518104275,2.1817576809014705,1.6595607860352766,,0.6547956803312163,1.9614412456755739,1.443095037252096,inf,0.7310811203988397
171,0.02349651459525238,4.2878927699616445e-06,4.279134936981989e-06,0.9856358098859282,0.9282627978048926,0.7003454489616846,1.8330614995893055,2.1253381647887615,1.9819636495004593,,0.6528756675646988,1.639038382210391,1.4840223398435148,2.3629258076146806,0.826097171899863
172,0.026910312086991683,-0.004126247853338725,0.0,1.0742845915487471,0.9879257112856078,0.7556131139057821,1.6961739476611175,1.844690230487487,1.298708013248229,1.1213948950492063,0.6309483474627791,1.8906962170880786,1.108374957731427,1.1019623755533916,0.8192821270014511
173,0.29787481093220636,-0.027765263877872867,-0.00863880834347305,1.429276005066665,1.4194321740467482,0.8792406775609,2.1756176470777757,1.9104141014536338,1.7585255163850662,1.861432274242065,0.6380535849069913,2.164757387198718,1.3927040169381026,1.185694524825174,0.856580985699286
174,0.26627666941103134,-0.01266983702447047,-0.028987982321471588,1.2601771894298512,1.1193910517026169,0.8468919345623325,2.0349113342099954,1.5843329301144298,1.1167667732859583,0.7719991130284075,0.6038851895711802,1.4079947880992296,0.8569734413235094,0.5199630160154288,0.8806816491917302
175,0.0794983897903453,-0.0043866977655955645,-0.00828982051868681,1.2946371100449048,1.2555795762154836,0.8529763837831686,1.265775500673528,1.4279792963779936,1.5399592086640406,1.6795858556281258,0.6509067234006624,1.6884811197745533,1.1893693575679396,0.9859116044683996,0.8056880334148585
176,0.07095677965302237,0.00016984181597388785,-0.004277339622220445,1.1562437507663876,1.1181852165702413,0.7917146914074398,1.049636053670926,1.1449527862495605,1.408398260026817,1.8684520900163095,0.6357360191111145,1.7270959559023327,1.2497055299922195,2.005894439512462,0.7114901145458838
177,0.007135840026746771,-7.030175008512557e-06,-0.0012298487629609277,0.8842471967005269,0.8436201544456314,0.674894547307335,1.1363224914678378,1.291653540054255,1.8624838962625976,2.076091454794554,0.5915533975974677,1.758518135448253,1.1954326040907828,2.7565207232679616,0.7561529622941637
178,0.0,0.0,0.0,0.6294558385841366,0.5873621318231159,0.4587442602389428,1.035286629089471,1.038203079377694,0.9988131212150326,0.9660504703028215,0.6233814453054027,1.3343346221891796,0.7892678152764261,0.542346587617969,0.8862381183624669
179,0.15546235613318565,-0.02243625072592233,-0.006515238077055459,0.6966997170744612,0.6763595905581137,0.4928215868940804,1.4220703042529788,1.5916316895405058,1.3230368465873235,1.0353804638484063,0.585052858160615,1.661140647356134,1.152084901363377,1.213460365028775,0.9062753268936239
180,0.025428579493601496,-0.007133274986105793,-1.5133007636518661e-05,0.5152838390982888,0.46336278175921886,0.47338171796859946,1.193128325753849,1.1254392679778094,0.6855464998140929,0.5399777165079384,0.6309483474627791,1.0188157651415577,0.5866301260230052,0.40505018755949557,0.8430409772145434
181,0.095876599230022,-0.02205161782290506,0.0,0.6443186397881725,0.5894201556284276,0.5558984907180885,1.3282999027790001,1.3915052510329318,0.97744035049617,0.7306190881949185,0.6333676938231112,1.5041273980263157,0.907157111891071,0.6601296232743524,0.8496847625247176
182,0.11697543419143999,-0.006564011676741782,-0.02228992875714675,0.8950588575999211,0.8489781013800479,0.6120752489063132,1.7004150904182378,1.6900682709721335,1.1755957762414282,1.295932897244979,0.6509067234006624,1.4338053437909424,0.8928447809857348,0.6757711369281103,0.8736506406710508
183,0.0,0.0,0.0,1.1157265237296876,1.0890331340747446,0.735700905754291,2.1799884183837186,2.567760445898455,2.3945563715328557,,0.6309483474627791,1.91959284073794,1.7080869935039398,inf,0.7512085759438178
184,0.0,0.0,0.0,1.594331286233212,1.5729819941004204,0.9458459272573079,2.1812822625620445,3.304848371793282,2.8588619796639536,,0.581717464821069,2.1484344131667874,2.1723926016350377,inf,0.7614722922286926
185,0.09775396128713637,-0.009254233362027166,-0.007689786594409802,0.4871189053717417,0.4435289579621359,0.4561036478964523,2.3086574208866097,2.5221896736809897,1.9541614940943375,1.9544338658853835,0.6380535849069913,1.7884981265256834,1.9584813610834624,1.9634919751978517,0.836860534312135
186,0.0,0.0,0.0,1.2771982284422803,1.244881545101055,0.8323964303639908,2.2654438690554652,3.18798603496601,1.8774219021809682,,0.6180765742263259,2.0402208285265546,1.7209903983398478,1.9492602359405953,0.7399840930127366
187,0.04728740146189697,-0.005729903432297753,-0.0012332600296571152,0.9706294520876125,0.9258370365561335,0.7187181352283477,2.1491395756710476,2.1740119116801546,1.2019719216495488,0.5550705294007606,0.6233814453054027,1.860609493775259,1.0432528543034045,0.6278234417374288,0.7283984747280938
188,0.0,0.0,0.0,0.9870649834487539,0.981313558049097,0.7077172672833121,2.769467078880348,2.472287632762106,2.0248093460267707,,0.6403206450210053,2.0661963149298153,1.8491655917638454,1.795109556113337,0.7862812467740915
189,0.00018078346353504464,-2.2296627169322174e-05,0.0,1.6216957560952272,1.6061819127846952,0.9507887428639021,2.1787301527302927,2.9847185024902987,1.8156393457360758,1.0952622017828277,0.62595550513784,2.0930447584265557,1.822317148267105,1.1019623755533916,0.8225083865243877
190,0.0,0.0,0.0,1.658131553419215,1.6193762884366079,0.9300292128259487,1.7380236859367404,2.1279973556030516,3.2924979647388146,,0.6233814453054027,2.4079456086518722,2.6060285867098982,inf,0.7571382472698425
191,0.3460660566902011,-0.027099334119644207,-0.01442859268317992,1.535175339232444,1.5008347137245202,0.8840375096064655,1.8941865503433226,2.200958563404833,2.3850160576213533,,0.6357360191111145,2.2168152271012236,2.3872444646028406,inf,0.8236198751821829
192,0.5755172941153895,-0.07604036247773631,-0.005650087115452951,1.5833646965816464,1.5508888987656018,0.9446413552757555,1.6229982219666144,1.8299159075453129,2.002042891045169,,0.6309483474627791,2.1425470160455236,1.6301972555213355,1.3638322458872436,0.8115815346343416
193,0.2633604185621829,0.00043756137982013665,-0.027675186117331177,1.342488441897317,1.3179694131362356,0.8482420519711855,1.5805107764451607,1.7085399312060794,1.7635168206113592,2.4718510403012313,0.552929491858785,2.0171555555955587,1.5065861788246908,1.5364340052361427,0.8525384816899778
194,0.06704825725603326,-0.0003114441319458927,-0.003967511692168519,1.2467933408939882,1.2120288636166756,0.8360508797812678,1.2875270726257186,1.3811694555360716,2.0560957286876067,,0.5713653840954815,1.651765669675878,1.441456936266734,1.7212978092273532,0.7738590617266885
195,0.029714454638920654,0.00015933046365989613,0.00016671175043704405,0.7176622598775604,0.6944668646594612,0.5360487452481077,1.7207691689201157,1.6375462101653135,0.7739133371077416,0.8800468786210431,0.6284777104787076,1.2720137480875053,0.6721202015665522,0.46777010058424223,0.8699828300459277
196,0.3886207240347144,-0.04154629792684347,-0.016746810678363686,1.39752530470081,1.391972856996833,0.8652414063187609,2.1798056538000647,1.9432096134699486,3.026156243510395,,0.6097226960127671,2.001411113693966,3.00922418040229,inf,0.7812540606666177
197,0.18793777417451302,-0.0029159024866184033,-0.013037590701810799,1.6282153847602931,1.5090956886286369,0.9647632676210705,2.502960871364632,4.146463080160402,1.192549063748461,2.7931968238227496,0.5748741956352443,1.7113475989341937,1.0676616911085104,1.195480310371118,0.875437672642655
198,0.00243431061748948,-3.081919841728219e-05,-0.0003911279752808943,1.069328876383242,1.0436547574992718,0.7352376602634014,1.9458670632912447,1.7760237221464543,1.6430093651886828,1.200622717440654,0.6153451465759925,1.754849115207958,1.476605491867103,1.380404567063827,0.8253803758661629
199,0.0011268593331569471,-5.5260052889079736e-05,7.714427459352068e-07,1.1193510795026782,1.0997963656335725,0.7613728945378218,1.8514343477235657,1.75660334769181,1.6049872823158953,,0.6547956803312163,1.8982317137385718,1.414039458729182,1.3108367142070048,0.8259518306100225
200,0.057523499750849326,-0.008607028796457923,-0.0033450636889791018,0.7003837580363305,0.6532209864483353,0.5745099248559051,2.243839823190495,2.1971444266123856,1.2737278805465537,1.3228507347541802,0.6233814453054027,1.4458084886522984,0.9376251922050682,0.7978252804395275,0.8881195074998801
201,0.09681620645803078,-0.02227235985385349,-0.0006209089884124578,1.0438497058503566,1.0487597300675893,0.7107683263547919,1.534006420735917,1.5501327830295935,1.0769928042418073,1.2939578372471197,0.585052858160615,1.465241372991076,0.8497537400796512,0.6941601808154045,0.8207121548945929
202,0.18773431949808694,-0.03153625600366998,-0.00037857831100480586,0.8439965523513471,0.7926703935791959,0.5897238809061215,2.101077590439956,1.8217316516877058,1.3580465662082313,1.139156395340053,0.6038851895711802,1.8135961638372295,1.2621417810391151,1.0252956054965527,0.8704547049890478
203,0.0,0.0,0.0,0.966392440640551,0.9341634365498566,0.6271193517969251,1.982747239345851,2.4505427139899263,1.7643230163834798,1.9425600621700312,0.6309483474627791,1.9902104079518934,1.6374694262899865,2.082791628565118,0.8274382301401307
204,0.016157193387357126,-9.812864420695282e-05,-0.0030255954106820915,0.933699574062586,0.8952326207561437,0.6346391056922173,1.3392483599379001,1.5553699882541538,1.647983346979534,1.7017020029235037,0.62595550513784,1.6542609560424213,1.45725635050528,1.5003418675911866,0.739226218879687
205,0.04175154607682961,-0.005275724036891559,-0.0054405061228280415,0.47646406909272737,0.4035247745805146,0.47378978036002906,1.388850416818459,1.488794030224155,1.060119274137285,1.0557193755650767,0.6447042257417027,1.3840302594668237,0.7686990779828446,0.8496919242551194,0.8607882644451191
206,0.0,0.0,0.0,1.2963182031138385,1.2587473969150231,0.8331098608009815,1.6022043316929924,1.878149182914401,1.4317456240238082,2.2992350061087636,0.6357360191111145,1.9661128563728327,1.2561018697608826,1.1019623755533916,0.8348327997156466
207,0.25374665752914344,-0.02414958349115877,-0.030730787666063637,0.6998669479247839,0.6669202636760109,0.4159944167005721,2.112834177793921,1.635216983586699,0.9349329556035711,0.5127770829661232,0.6125606311107803,1.3591981354581895,0.6856487614571474,0.48715136040651397,0.7279702558812423
208,0.22031554958882962,-0.02249219932710725,-0.01032899296937354,1.4056002842847102,1.3373885301620536,0.8994663676526665,3.0434106800947966,3.965942740920312,1.6233744735319815,0.924579698368223,0.6566669596287297,1.9586802294459866,1.5718668242440177,0.9583226766019264,0.8668924917152413
209,0.23987873813247954,-0.020244944424910892,-0.033736956419623335,1.1272309569319132,1.0885225211450191,0.7908677143713265,2.340513464081974,1.4751348519984826,1.1630157243146095,0.8692741673692816,0.6584896970785714,1.3669275586290404,0.8470363427114771,0.5970423011749066,0.7838709158822568
210,0.023864903846018786,-0.005477723580620167,7.538631337940465e-08,0.9108134133286092,0.8956796496340452,0.6761010143128277,1.8663311217513308,1.274033074398328,1.0752104724127645,0.7367237094026737,0.6207552362147116,1.4814845481236396,0.7600054455105953,0.6359655389953834,0.9230291933187824
211,0.07711702445760232,-0.01314701262929135,-0.005919185564845671,0.6985385021377136,0.6705800828603421,0.5801650262901894,2.017847416790828,1.571745625171543,0.7372306856790352,0.6742806942669373,0.6357360191111145,1.029552752736615,0.5911146416490342,0.36897406975441627,0.7245081289161626
212,0.06583663127641856,-0.006432797488729505,-0.01143227441388624,0.6766360553068431,0.6530720506949043,0.5594886589110976,1.2313213277440949,0.8230943307219414,0.8735171263553774,0.6652314588863006,0.6153451465759925,1.046620904668489,0.6474675373861201,0.341187368295593,0.9452958251941933
213,0.02811281579088044,0.00010055788297507091,0.0035011421980804137,0.6298559260961815,0.5622616310409452,0.5248488075754884,1.9904012517878693,1.6865679704445014,0.866713857701459,0.8507885129634711,0.6309483474627791,0.9277449708081638,0.6280995167899933,0.4718061057666103,0.9478444965364532
214,0.08087846369773477,-0.0014495290397983328,-0.008348860038906274,1.1834108716542455,1.1251389247393992,0.7919857138485764,2.465962157083124,1.992856382978565,0.873353236292609,0.82483149618153,0.6357360191111145,1.1870428540475362,0.5893026891281649,0.386574230468528,0.8798303470330813
215,0.02524769348164745,-0.001624757899089402,7.993688058556894e-05,0.8432830420545275,0.8297379291636472,0.44529404964847286,2.7417312684581816,2.6670256675070045,0.9983251432937212,1.0536256889935736,0.585052858160615,1.1955270885201954,0.8697924179360853,0.6924462868918623,0.7021723115468248
216,0.019293623540751488,-0.003465567303557429,-0.00032884532612369757,1.187080788843999,1.1693118771559983,0.7964442182195414,2.6818914226747546,1.725365077016375,1.1438965136617825,1.156703786860113,0.5947193981915972,1.6388667231249125,0.981477897558192,0.6922315693255225,0.8770598533284031
217,0.0827910460084425,-0.009806708677563877,-0.006199560217401673,1.0077131712244172,0.98696764973502,0.7497825045883222,1.8912654327792657,1.8565106351048128,1.4077891498084563,1.2166310218068317,0.6699045166045591,1.686378953770226,1.1491259026850986,1.083207137123618,0.9087139719054775
218,0.1300650946207277,0.017403503271379538,-0.013681106501906536,0.5706020679542696,0.5057565422091289,0.5366748583695291,1.8426626964352137,1.54063897300076,0.9005412009668459,0.8004743105466442,0.585052858160615,1.1392606871459188,0.6851597243216975,0.36721978757470264,0.9222317929569248
219,0.01616973157032484,-0.0016507184167935244,-0.0008287889280300682,0.80609733889518,0.7620287333942731,0.6378909153440071,2.056082388183798,1.6326253562363928,1.5709445350232463,1.4799360994937913,0.648888643467878,1.6230861833584762,1.5520386074835895,1.5062067561115897,0.7241237212753812
220,0.25260613415595556,-0.031164020648232125,-0.01851518573577247,0.7754697627556405,0.7471281344481512,0.5513047369954306,1.3281489759712943,1.484415197208592,2.2542911007456072,,0.6584896970785714,1.6895639569133853,1.9904658819235683,inf,0.805675079687841
221,0.07900416174872905,0.005096301663849681,-0.009953601108810797,0.591136540695617,0.5008059811336484,0.5316149594105628,1.4039877439977977,1.1973516733056262,0.8731228760766803,0.8002088343219843,0.6357360191111145,1.1116299857494132,0.7266621976068587,0.5458645633315854,0.8822280539246993
222,0.037237035530702706,0.01139433138136292,0.011801858757545719,0.8796534410439608,0.8487751818709628,0.566871571237837,1.9901305005962329,2.396064247011539,1.0636918190845641,1.3293693027042344,0.6357360191111145,1.1726894920644255,0.7757237872090065,0.7212178119248335,0.7771920388785692
223,0.05215867005269209,0.01727907158398729,-0.0004880584322227918,0.6961011063080146,0.6535200980342115,0.5923820488724256,2.001699509401164,1.579152610531705,0.7041737031169503,0.5466262322330026,0.6038851895711802,1.0956832491622297,0.5729740229318419,0.3555387953597858,0.9229006019325421
224,0.08083392792121138,-0.013229180589611606,-0.013072841542668896,0.6743530927698704,0.5967495870828678,0.5827706369819129,1.6467186552987607,1.6073454197844548,0.8935551961683088,0.9035140079557255,0.6357360191111145,1.102988517069089,0.6256083772013261,0.6261005418903686,0.9141003856213343
225,0.008379195216907408,-6.081104922467211e-06,-0.0014463127326748168,0.9518302462973774,0.925254672051243,0.5664626851148147,3.1875437303616057,2.1874096975346315,1.5852915785585526,2.3523159992690923,0.6125606311107803,1.7594859086777592,1.3344719013170843,1.2302192916922634,0.683259479613383
226,0.348606982440583,-0.048328365893339394,-0.02484514696225155,1.0520697958335719,1.0016709931338041,0.7223936865299712,2.974764763403305,3.583548014989979,1.8898251993819217,1.967460441570601,0.62595550513784,1.6818294098558588,1.7837287309666863,1.1496623810190476,0.727835332131457
227,0.5252364738649382,-0.0664276119038694,-0.05258079399199528,1.0921027429589467,1.089264818767469,0.7417014864475482,3.842267782396637,4.41831629863665,1.1097476092795235,0.8134611451816389,0.6584896970785714,1.6310588585370642,1.0001846343253806,0.6825536985188771,0.7905366697767048
228,0.021946334604668962,1.1674467678263883e-05,-0.0011151723212484404,0.752468922689247,0.7383037237017083,0.49191062670143565,1.9051584097932563,1.2182864614131281,0.42859848040664567,0.27182630232820926,0.6357360191111145,0.7781484579419854,0.36692670513646525,0.22071964589781687,0.8555943343107569
229,0.24640808913140683,0.040641161570553794,0.017132856213896708,0.963714889925839,0.9490875291159562,0.6153882875988169,2.564919942876414,1.4420048816476037,0.5513526606470466,0.41217763381145844,0.6447042257417027,1.0695714198836956,0.46785595657413254,0.22743053957272055,0.7529625805340971
230,0.1724483406671572,-0.012432380640676241,-0.019012143196933222,1.0075976746909479,0.9947631999254595,0.5829748741775266,2.9343538920685,4.055822527061132,1.3320705730018372,1.4953604155994056,0.6528756675646988,1.2608959517255571,1.0789295942096848,0.9730557546783458,0.6799214383584683
231,0.004862436307524297,0.0006718359145516392,1.0455787903875316e-05,0.5279965236925531,0.44992201101123563,0.4663965198601717,2.0495576055169584,2.005268032280051,0.524458271487113,0.4671316509474036,0.6602640781246099,0.7039834593046306,0.35678727193660387,0.26511864002269186,0.568554675332166
232,0.06241525940732744,-0.0002715586629054717,1.8565746638323985e-05,1.008414236024383,0.9584446594447866,0.7294100123948929,2.3778558368996716,2.157583782726622,2.1481131763905936,,0.5915533975974677,1.9428924845659927,1.8083352983162266,4.61181472870676,0.9250549078799701
233,0.017151480037108896,-0.003225055056326188,-3.372615072450183e-05,0.6945452566449963,0.6524016549194543,0.621578898150786,2.52209797825227,3.4306987214534255,2.1366756456988596,,0.6153451465759925,1.6718453725627174,1.551205823715964,1.7942730859683709,0.7260185389065448
234,0.08910938633434447,-0.010110898264806153,-0.016745638222398582,0.9632012293936604,0.9413116258288872,0.5735741170908963,2.4925418080374557,2.8282397437787585,1.4890781849567671,1.3829442742346088,0.6468212168108125,1.2156331148799284,1.3152476678180223,0.8820518551826254,0.8009747559537064
235,0.1213973812721791,0.01893988494819583,-0.03159624182756221,0.9553243593804321,0.8974250319704705,0.5983020558034062,2.8150552169445864,2.5534091404835495,1.2457151929681471,1.1596665732432168,0.6584896970785714,1.2030843102648208,1.0531474476514309,0.8815762438631672,0.6351656684891006
236,0.020723290762090316,-0.0036150526045724252,3.2615127588190174e-05,0.8601162007455443,0.8137449799812266,0.5699818331929141,2.169665852251367,1.8078067074748398,0.9327665299375422,0.9466643038611148,0.6180765742263259,1.0829029949629299,0.705196513433638,0.5777804349697915,0.8378245674246148
237,0.1775098577057114,-0.03766194187208868,-0.0080310997281552,1.0212556490888445,0.92596340405798,0.6868094038780295,2.6562338252296183,3.255558296725761,0.8673365382210719,1.2506059819948672,0.6468212168108125,1.0596159596614272,0.6297674429497613,0.5570314189158025,0.8301151149625611
238,0.15144031231608113,-0.01257154275400058,-0.012668509298679608,1.1278203806252871,1.097835894098553,0.7157841064363394,4.16595195461704,20.237960196843797,3.0075856790708047,,0.663668482632973,1.8726803401518721,2.782614233018788,inf,0.6925791284139181
239,0.07569749859735347,-0.006106074337079066,0.003827424404708478,0.9325625397848456,0.903039307510496,0.6196445199178061,3.284143071447527,1.9059287557768938,1.0704699450482216,1.0068575730647167,0.6547956803312163,1.2597987729321058,0.8906376429053544,0.5145542958043027,0.7465180165981322
240,0.23062062983564427,-0.013657044278550565,-0.0026695918159820795,0.7151816802806998,0.6721238570495245,0.6182093760971792,2.978033667245303,2.2525295107118413,1.127818010695478,0.7921774328802574,0.6509067234006624,1.2356545992633046,0.8573901591632511,0.6185115820049422,0.7507466890931553
241,0.2560253134861084,-0.04649044140919026,-0.012166551839951956,0.8726178910385638,0.8622282490025139,0.6723820189645315,3.445713125506426,5.559393189033457,1.3070886474178114,0.9086791698305549,0.585052858160615,1.3889645896757696,0.9619940876024919,0.7288801055727291,0.7133637432989522
242,0.5905959823328862,-0.07573038228055233,-0.054742936993284,0.789946867660946,0.7774946965636392,0.6129976951997846,3.463687900451504,2.5327715466056233,1.7784558889136222,1.6354193070885867,0.6547956803312163,1.5900711099432503,1.4279067725580605,0.9210737953147546,0.6519489673870535
243,0.6373723809401536,-0.0527573284772566,-0.03806541290555984,1.0310203837524121,1.0108659881352984,0.6587354786598715,3.3346857760954043,3.1627479404123693,1.7482241992394398,2.0739947626837654,0.6357360191111145,1.8715244376969176,1.7465859455288115,2.0242634633018284,0.8258321779319705
244,0.641062393544647,-0.09619883195545316,-0.023536392353215342,1.2179748724597668,1.1789060298298948,0.8124385669892761,3.1092061455806883,3.3318711480733354,1.758654950685447,1.5124350805898341,0.62595550513784,1.912496864710875,1.4581713119164577,1.4315988517368679,0.8149027497470882
245,1.1456891139307326,-0.13435442548873833,-0.07808900208984781,1.1381854808273117,1.14411202526902,0.7837613773808485,2.8430490463949627,2.887800503769086,1.497488836135447,1.3425383119055876,0.6008849035917525,1.677895213079008,1.3039341553059915,0.8845831257910942,0.8531537198753257
246,0.8643520616916546,-0.14617295631621588,-0.06388168114876541,0.9307888077054389,0.864750360629819,0.6967241620739941,2.8512917455289393,1.9473167976269434,2.617914105455872,1.8173201576757123,0.6403206450210053,1.7494665570378036,2.225023043376018,1.6965030514193884,0.6685870817565681
247,1.0521986983579468,-0.14479993149832418,-0.05020866321407962,0.7158482809935567,0.678419605016389,0.5415490240689417,2.850775626129631,2.9219772130627946,2.087220956786579,6.125974541888942,0.648888643467878,2.0823791856671785,1.9100106540319286,6.316562820945185,0.8085257149700747
248,0.9867844796593598,-0.18662196264897124,-0.04805116593061474,0.9949716950976304,0.9340717368047448,0.6817859868175816,2.9952930685759833,3.5458830976950892,1.707528853859903,1.609483126803068,0.6403206450210053,1.69535897494174,1.499366389694178,1.6996094737641774,0.9284242260692027
249,1.1602350207905712,-0.2054457854938861,-0.11669905877569069,0.42705632722306774,0.3917372153346653,0.41173008480904105,2.712632928777462,1.7589788228854024,1.845248792508571,1.8609043247673092,0.6468212168108125,1.6866189777737786,1.6132259096280894,1.6353737674096338,0.7361090437156992
250,1.1648888314950896,-0.24889749529689825,-0.06569552510200588,0.7898067469052978,0.7410272503701089,0.6563363910991042,3.038534905464363,3.844265707753851,2.090840319080194,4.475171795873034,0.6403206450210053,1.8324425845035899,1.8019486843262766,2.7362210780689065,0.8731906380123284
251,1.7661159072515198,-0.28179568323422083,-0.012556967974365797,1.216243502807031,1.1628727577308136,0.7742665360469562,3.1216104984114588,3.2008549922663434,8.569915732166656,,0.6727386042041725,2.830971414614717,6.630683385642372,inf,0.9181484929859844
252,1.5517700558884753,-0.3120156321622663,-0.14642765884502296,1.012203559243228,0.977789859185709,0.6635506955176588,3.483940990824409,2.1112361796736283,2.4474736012706546,2.2171358727911654,0.6357360191111145,2.094848510719353,2.225978504082472,1.9807924606099965,0.7685543117888182
253,1.5469016770153108,-0.3899642812947793,-0.09027758037824861,0.5976899760343799,0.5730374533694819,0.5694137212313402,3.3049688106944455,3.0382795339489914,2.6445475767223163,4.052510550729591,0.6380535849069913,2.0580715159436433,2.4856900419158046,4.030590047396738,0.864451014473729
254,1.3172050221077234,-0.1635660934552548,-0.1027105646238837,0.8865343083623084,0.853644711644515,0.6484922247515504,2.5920529836373754,2.2292634633760957,2.9544122177632333,,0.5978297680564633,2.2541124395432677,2.5535820105562976,6.5998704992128365,0.8891289239791756
255,1.951693581381684,-0.44705289046862073,-0.13225485394445424,0.8523897368931332,0.8229261184807848,0.7239156318772898,2.739787652080137,1.2635665756594454,3.008078372233507,,0.663668482632973,2.24862314042222,2.861832488956247,4.687671407499835,0.841569446096289
256,1.0995598541386062,-0.15709143482897286,-0.11547256410129916,0.7434763102408929,0.7288592399478014,0.6138399983600791,4.121681700658761,2.7771558794925433,2.6044920055630736,4.114142055683638,0.648888643467878,1.7851811538679323,2.4042069570410622,2.6642999468028665,0.7380433380866369
257,0.7600438437740039,-0.14450786551767483,-0.03418729204767694,0.6544204193538424,0.600072080213055,0.5684330341530432,2.967604876069698,2.2379895454648513,1.5965553330161881,1.252755852871388,0.6566669596287297,1.7032603106456405,1.4879463062806058,1.1380167528284852,0.7222924372609493
258,1.1037400685916448,-0.2187080093333353,-0.05811075886237692,0.7700856632834988,0.7406257942120111,0.6230072075715076,3.326409212925762,3.832856064621857,2.5334988109245717,1.3554966357702662,0.6403206450210053,1.9757624388045478,2.3284804479817423,1.129512450656851,0.8371910808695288
259,0.6686519196667661,-0.12964648586597916,-0.030829974854044692,0.8259252178765853,0.7863901355231043,0.6826420399679702,3.2192627524050526,1.961659486767684,2.2622076080978295,,0.6233814453054027,1.6956011643350282,1.9379487077266466,inf,0.8074973265156512
260,0.6694868712415796,-0.11512361652648237,-0.06634732368057655,0.642137471481433,0.6230380963050042,0.5324510767924231,3.442393619892995,5.923506990763574,1.7142530536138523,7.484108362974444,0.676637947632344,1.5026783758625668,1.4995191972158548,2.781349870046642,0.512389808738667
261,0.9611164193416741,-0.14562452857264807,-0.06634274572947184,0.9642816964867663,0.9193960200666849,0.6930712494201274,3.0152474490539634,3.83916648751373,1.862655846827234,5.379628070100186,0.6468212168108125,1.8493179630893433,1.6965199083990783,2.963887277873069,0.9091180710939966
262,0.654102710795105,-0.09098184474124887,-0.05254717747133354,0.788624422806222,0.7103905871201356,0.6269198101203783,2.7584349788956013,1.9202621103027733,1.4575979131768395,1.7780392596081505,0.648888643467878,1.2989348965716168,1.1429122637559364,0.9415103032062709,0.7532632784932288
263,0.543237478564664,-0.06635819012518657,-0.034920956504397596,0.9374009614491096,0.9062976230646898,0.7178008164711993,3.3136905777727352,3.8570435803721557,1.4029012843543722,2.201524514484335,0.6333676938231112,1.6984512920944033,1.1263200087178127,1.4227244409040596,0.8057397464978718
264,1.7783803247630947,-0.33611405501828717,-0.14138071240794042,1.1065887058037098,1.0916184868746441,0.7382025731869106,3.0883588237750783,2.850668658916123,2.677031899845062,,0.6425374456860184,2.1131592022185517,2.4732982748373855,6.127960291696519,0.8957487565669042
265,1.2157474310574066,-0.1508190934577353,-0.04370049551144975,0.9459569022819329,0.9261245976083019,0.7375364043569628,2.9924258422297316,2.0946726842883163,3.3103471437372574,,0.6425374456860184,2.4737689053775442,3.1316776685577947,inf,0.8281342485695635
266,1.3941114891358193,-0.24827632943875916,-0.04877310327294657,0.876171742698677,0.7714759340348903,0.6539914189204352,3.170708447529356,3.0188842315353765,3.527726465557295,3.187882958528592,0.6447042257417027,2.3759924559308763,3.301472710407951,1.5254071635826085,0.6788645103219128
267,1.3676450615034053,-0.4072860430534724,-0.08156708783694475,0.7694793881808814,0.7320459924347034,0.6576253175743103,3.061927696272782,1.5208442283817756,3.896185735699417,4.212807531405542,0.6425374456860184,2.18658141723774,3.337661143586384,2.58748552248395,0.8511402187295054
268,0.8271940496289488,-0.1491176163104492,-0.09689170941612599,0.5534922464490818,0.5012371625268779,0.5841238532549334,2.986601907483953,1.6774970751358964,1.9552372284565243,1.3269401851838922,0.6652988471865258,1.6228046280450754,1.568131828133884,1.1831220088457453,0.7191504399470258
269,0.2799530812351606,-0.035930491511284086,-0.010750460177850925,1.1262587045384587,1.102511408716866,0.7715355004607772,3.658812585126411,4.731114098794535,1.3724431717227603,1.6661423442697014,0.6778444222523095,1.3498124377648448,1.1759162065434108,1.4416896243414583,0.8023937438588657
270,0.1214492944219812,-0.011041301827494274,-0.00942945575104839,0.8098435482093167,0.7734661892130344,0.5562769252954239,3.061302415364418,2.3980519153701967,1.3631290561920737,1.0502557975743447,0.6153451465759925,1.5237700301220103,1.129634169866875,0.9253262217354277,0.6604877231453786
271,0.09505327317899646,-0.001017528127330393,0.004493045678829528,1.0694290495864072,1.0366480186936937,0.6583775229625024,2.174619832243463,1.6633361040683283,1.193566546039816,1.7896695299432692,0.6357360191111145,1.0413501765013147,0.8078971725993681,0.8184609727181493,0.7062222964761119
272,0.6577332146864293,-0.041316266244017325,-0.05331241765450054,1.148175275647471,1.0656316528751302,0.786896040802355,2.773950447516504,2.075973446570042,1.0953689977345182,1.0075814016044153,0.6566669596287297,1.3499410027653431,0.9712607543905871,0.829236906159042,0.9286285117515383
273,1.3158939189167376,-0.22870014243276215,-0.07829653883393425,0.6438052824810544,0.5816778340035559,0.5616099273559233,2.8408260421550193,2.8278073819533938,1.4572153869606541,1.7644215060113577,0.6547956803312163,1.8392704518991068,1.3454723665996353,1.8393154959296543,0.949302455183807
274,0.7579566888901961,-0.12008339579373603,-0.06480423096557515,0.92019024750585,0.8836934976907601,0.6873781510996003,2.980913009854911,2.658595342081292,1.183319303881569,1.6232460568819893,0.6333676938231112,1.3716466095957844,0.8539774422621329,0.5288191888140031,0.9161426461523468
275,1.0286162851734848,-0.1330454892687115,-0.035259624191689064,1.2286985496901905,1.19601738211273,0.8164554824052043,2.6218839242269882,1.7272965730163357,1.6387074977113834,7.2750295462283665,0.6284777104787076,1.7873027485111137,1.473842877703285,1.8716573018560645,0.9251729223440864
276,0.3129035306804802,-0.0344481782359365,-0.029869089656726314,0.9693334734157893,0.9379899411853337,0.7034896837619102,2.365356453255054,1.6531352245702573,0.9494668019832935,1.0526046955068273,0.648888643467878,1.2210812863152074,0.7120113590294913,0.5229026609488815,0.8860926463827034
277,0.2009247824339044,-0.0009068908112808555,-0.015277840546626904,0.892011266239613,0.8578863470499285,0.711551652537154,2.792090976532288,3.129957724736973,1.063925473851864,0.7520562929963482,0.675384900321601,1.2924397856482663,0.9113060086782185,0.532018245343241,0.611406026536882
278,0.7303535338950224,-0.09689566686494447,-0.042242037908635344,1.073813438590253,1.048459581088078,0.7791858449647145,3.4859212879469266,4.539960525000074,1.7137772424347795,1.601244086406753,0.663668482632973,1.7950314830984744,1.3948250593686227,1.2697713382303364,0.7564736774772574
279,0.175913263685379,-0.018622641382189987,-0.014586461294638873,0.8557857940661742,0.8265950838178341,0.6766280611884288,3.2272508446384287,4.299812111894635,1.5219461894592892,1.5465288191066588,0.6447042257417027,1.6348696870262975,1.3395360664798766,1.5756451332608377,0.8109279863096978
280,0.350926868030817,-0.027746301252661816,-0.04220015805962737,0.6959581425473336,0.6671789493511223,0.5790004101841196,3.6077811368082484,7.183590345243635,1.3275917081277815,1.0570846931398228,0.6357360191111145,1.5629254725854795,1.1578723013392334,0.982406007477377,0.7132424216023585
281,0.38436555373314724,-0.027048411643671458,-0.030025219915483035,0.897708937978034,0.8784062915210287,0.6787412341949011,2.8275911371267886,2.032583588447068,1.2311003950013568,1.1942929892182768,0.6547956803312163,1.464952842092224,1.0240957068631114,1.0452993454943251,0.7095536744117665
282,0.7884307123467209,-0.08138782724361418,-0.05713023748839639,0.823512378445515,0.8001770588400108,0.6734625145384745,3.1826986522667418,3.252205981356232,1.8582937467194707,2.5320468112969485,0.6233814453054027,1.5571090433280796,1.5922925444467035,1.6985481240443767,0.8840355780816783
283,0.9485971651327296,-0.15519315029162148,-0.03725081306072591,0.8932869410070423,0.8394859584443856,0.6858154045589863,2.9778512182620784,3.3025206542041894,3.1156287720905156,,0.6425374456860184,1.8816841767560422,2.693927206990505,5.733341276897745,0.8305264993681577
284,0.4496172015095665,-0.07145935531922672,-0.062190066276453244,0.8189717004401497,0.7982160169161948,0.44710569229478686,2.475358156511237,1.9425153478481803,2.0617893365022053,,0.648888643467878,1.3635331517839657,1.7866461417980002,4.268401609166162,0.7982028368630303
285,0.28843926126063996,-0.04536659591145552,-0.017128577361683134,1.2106078578008683,1.162243350071471,0.8111990175222663,2.6696076142515284,1.9485678423637807,1.8258886291614214,,0.6380535849069913,1.6885412466422622,1.715326363575772,inf,0.8822830462920708
286,1.0683513563058038,-0.24288381120431143,-0.0487270794392393,0.7974399405830561,0.7617433954711978,0.575375299432695,2.4935595722438086,2.714283421944494,1.8764435583192418,2.484821715136156,0.6713451011121618,1.6123867002831256,1.5872313079806606,2.4617437505084627,0.9451169222048222
287,0.901481897130395,-0.10583851148241008,-0.08008617147430465,0.9789663374700196,0.9605363847412953,0.706405488776331,2.8373273438002515,3.092197509203962,1.5976817345724423,2.032513436272317,0.6566669596287297,1.6614332075524807,1.4478411074006392,1.9198644507076954,0.8783015599502599
288,0.40504023602837647,-0.03727589923612488,-0.028304697657323297,1.2825109640035388,1.2608293648643287,0.8391882893703441,3.5289012441131726,2.6838409963905177,2.57538053931078,3.0776681725000588,0.6447042257417027,2.027566194495662,1.9947678317501665,1.8597779839347897,0.9346254516386466
289,0.4403826305671963,-0.04447477045324097,-0.027046653043455937,0.6476237088265469,0.6173655686200926,0.5864955341579579,3.1385861803999386,3.244836950545361,2.092142130589399,1.6845984784054646,0.6425374456860184,1.9862345821945797,2.0067574857672335,1.7412496141790965,0.952628778595969
290,1.3840181604525141,-0.24473166428485332,-0.09560734805363222,0.8906554188543083,0.8776393458506442,0.6705034273016196,3.3372464646704625,2.588833992753443,2.467061633289865,1.6224320294664627,0.6125606311107803,2.1061962789886555,2.260832280107791,1.5392781796712285,0.8424988568720976
291,0.966713097493443,-0.19765369686394285,-0.06168889509471205,0.7738755001712233,0.7071347962574138,0.5564729346201521,2.7580261503542682,3.336705753765656,2.246234561721436,3.17074960944334,0.6284777104787076,1.743096297248774,2.0476928433652555,2.925427926469229,0.7479450656668628
292,1.0875713132147355,-0.18505958491186247,-0.16743268035512282,1.0974008652605867,1.033790275873201,0.742052049513271,3.2300890476222133,5.746289730385435,2.1559549932218856,7.618406974468336,0.6584896970785714,1.6198250053205874,1.9263981483918258,2.870909208821253,0.7613022694066047
293,1.5520788562159054,-0.2863792354718042,-0.09155753010650344,0.8442386965328336,0.829363318064485,0.699184374938493,3.2304502018123658,3.122656044026589,2.3950273806308338,4.028646047689581,0.6584896970785714,2.197924822450613,2.202039512909936,2.7734941093545937,0.7722440341357757
294,2.2842705682202324,-0.2989066430477085,-0.057196442463211754,1.0479310282779803,1.0286810158788529,0.7136182612322997,2.396818176818825,2.1462977169338346,3.681554890754067,4.746890017335801,0.6153451465759925,2.965742064920941,3.3983977674722143,3.4339872044851463,0.846800831918651
295,1.377068244759457,-0.21245671039866237,-0.07672762100082363,1.4480662323868978,1.4354880878476672,0.8768653098266707,3.1615597369164354,2.2081588418698996,3.08931924395197,,0.6097226960127671,2.6011408854545333,2.995283070881168,inf,0.9564379167419621
296,2.114008207015823,-0.3247922888685136,-0.11645105652424757,1.2179002682760263,1.221896975836492,0.84589226784014,2.993803544184655,2.3069331034197993,2.754065678704782,,0.6180765742263259,2.803277051045231,2.610326470960602,5.300814246746624,0.9541052978063462
297,1.615492142699783,-0.23863144899481636,-0.08446697954514026,1.130552498956345,1.132788664492777,0.7836180087854469,3.305698268329576,2.896639483891687,3.1865342638504353,,0.6509067234006624,2.3824704056474206,2.9451613485693913,inf,0.8409992361036331
298,0.7100617957257899,-0.30796112571235795,-0.01960772004527725,0.7476772054402088,0.4871867105385496,0.5983618194218658,0.4329909400755995,0.1345637653033534,0.04277802894117624,0.007768010279276831,0.6284777104787076,0.6504922003182437,0.049299226664117804,0.014284347870085123,0.9027354381643674
299,0.012838007182978997,0.0047060611359684545,0.00021849413767761894,0.4143809600846443,0.17322337211244218,0.19378424221111773,0.21459079023311384,0.12472978406475638,0.01800954130400655,0.04385972960014412,0.6180765742263259,0.10951729123935085,0.011270253437331382,0.011069060711060718,0.8956820763735602
300,0.10963726005215042,0.024068008530065396,0.005230606931169043,0.8061769979578604,0.7834533279493844,0.5894922457876591,2.940960144373739,3.090657168103597,0.662131084103571,0.41208559767691716,0.6584896970785714,1.0641786563502207,0.5926420776912523,0.3996858363558671,0.5352947107035434
301,0.012099903510098096,-0.001359015906105811,-0.0012393715100594634,1.267046875651009,1.2406354705355234,0.8353493385163681,3.268474103416658,3.5125772352515403,1.0745663032469654,1.158236402228737,0.6180765742263259,1.4798239049755695,0.9086822505261155,0.841542969964641,0.9191044408723552
302,0.5009801291417828,-0.026784214113572832,-0.03516616732442115,1.112559578907297,1.0824545433250234,0.7272354865043472,4.173922235199728,9.147756107300857,2.0099275926911644,,0.6468212168108125,1.8739823294858877,1.8497186395700849,3.2179558616018458,0.6441910968313868
303,0.0416767987836222,-0.00294928204555367,-0.00025036685917709895,1.1149380040567571,1.1099857511528874,0.7381721765199765,4.095583561906769,9.22577163239584,1.4853748309044117,1.6539975316524005,0.6602640781246099,1.8628974970613945,1.4211096171893571,1.5696244310358392,0.6640552698891351
304,0.49463128759256797,-0.0646270532448418,-0.007918868935401497,1.1763677420525223,1.163874588481702,0.7953650241341053,3.496802099105083,16.96549822246842,1.6718406524751435,1.8855421628946485,0.6566669596287297,2.139710671135613,1.5407597933969477,2.030000998274437,0.901884930049503
305,0.6100120585271125,-0.07480578000893909,-0.024437453620140208,1.2009257721485211,1.2093913695570824,0.8217144728149409,3.6841366484487605,8.344956328672799,2.116833050579381,,0.6207552362147116,1.8258679388615047,1.8701480308217515,3.4920412744530394,0.9035541362752997
306,1.0182440729536477,-0.16551439242292448,-0.059152664496219656,1.2307043546398224,1.2056463632357997,0.800434608188675,3.1428144791432975,2.691288552404683,1.871445470591291,,0.6284777104787076,1.667714598366101,1.7228726041840388,3.634951112088381,0.8429416547958233
307,0.3220679327563555,-0.013815443820961587,-0.00222615473507351,1.1195829537968958,1.0041671451054566,0.7581326471346512,3.061138201763493,1.7997124693234245,1.2698358891716361,2.035021673586115,0.6547956803312163,1.2519965955674668,0.9767186488601236,0.9466754685008717,0.7842872544820525
308,0.8672958391571884,-0.13842998577304955,-0.03751498655376946,1.163583901812745,1.171768733470807,0.7974663670449343,4.046906084125551,4.292828078769935,1.7276242321476651,1.343408080802623,0.6584896970785714,1.9064223775481948,1.5051620970004473,1.1395184901691733,0.8450815170949256
309,0.9256121200060052,-0.16668470310809586,-0.09810465012358704,0.5820967391412382,0.5594662738344425,0.5910544593171992,3.518902285114694,4.233764661006225,2.1663798909651075,2.870680720832404,0.6425374456860184,1.7620065110787073,1.9398456143392675,2.448217451866646,0.8787018937068776
310,1.6637056796621752,-0.4035705678465042,-0.10030178957432978,1.0903158207391455,0.9434895749143517,0.7375421280674469,1.843470809566406,0.44410702429930704,0.8942845261862401,0.15486617309802392,0.6403206450210053,2.1072924698356124,0.8629886712888544,0.17937961472226105,0.9320983441720884
311,0.11992600736352232,-0.013928307886161173,-0.001262319713218322,1.3726401763142126,1.3657184190765712,0.8571510109555023,0.14150412015335426,0.16570373406220856,1.9550847260446063,5.921558297433625,0.6425374456860184,2.1312495884126865,1.6759130263993154,1.9033088479949956,0.9412228781552715
312,0.44938446844186364,-0.026656820290557787,-0.011685555917696518,1.4966255636534656,1.472144730356592,0.8651225485811993,0.1770311614690896,0.1997336975788645,1.976052076053161,1.9862875599332508,0.6684167106117298,2.338097136217635,1.9694406464655074,1.379715390021848,0.9522403617915157
313,1.0164437463988842,-0.08364374917710624,-0.135282575503008,0.7386937427238915,0.6959928837878725,0.616214562766207,2.242264508471244,1.372863902933212,2.3967566277092955,4.985771149698021,0.6425374456860184,1.7090741026094471,1.690457999733647,2.0367710071788454,0.9361108115101318
314,1.0849478155834251,-0.21291417408270072,-0.08807176900263108,1.0974598008194867,1.0892708638335906,0.7560317149623176,2.7415357439400294,2.867145140889349,1.8484570660830182,1.7012187495034454,0.6180765742263259,1.7176419733101604,1.5534047238869497,1.3912819026309298,0.7713919167543178
315,0.4710862961225665,-0.037655281418357646,-0.022558774259360717,1.0790801522089981,1.0772876010035215,0.7633923120168017,4.289541351307748,7.791080245070725,1.9156827401644128,5.963540736885792,0.6333676938231112,1.9055255835265044,1.7105165466351657,1.3521724480506334,0.6848845070826762
316,0.7495992314615025,-0.09878659708555104,-0.0054483981552339925,1.276660500769619,1.2196694837259674,0.8494287512461667,3.2202153002978045,2.2565422115941036,2.301969328145756,2.2949499027925753,0.62595550513784,2.1244389076105716,1.9319678152711368,1.2026899305130467,0.8319044759257017
317,1.5032361381840944,-0.21061949092423982,-0.0658991862077638,0.6835380979525886,0.6453998491734093,0.5742907928226045,1.9215461204390376,1.3479962767675384,2.231599069100002,,0.6447042257417027,2.2203908553680587,2.162525063490707,7.024649030453636,0.8711441309498623
318,1.9268436785773768,-0.267375920752989,-0.20105709807172084,0.9578434382028692,0.9198404875551106,0.6620765690763214,2.268443605345894,1.105013775745503,1.8253261749165315,1.3878758081810487,0.6566669596287297,2.0051177198074677,1.68242928907269,1.229294405929737,0.6857999702065695
319,0.30944979753434104,-0.06275374805740147,-0.057883902022131256,0.8303831246841996,0.7303051447154749,0.627196583730871,1.0615609419952883,0.2561066746743019,0.5760332751584568,0.6720303445666121,0.6153451465759925,0.8496970323964285,0.24535493507692405,0.07785292577661228,0.9558585102339324
320,0.2883602690499782,-0.024015374926195522,-0.04559635802217928,1.1218979771052362,1.0839419363708211,0.7856444706128298,3.11454328982888,2.8407600415257357,1.5565759222253985,2.7002345782477803,0.6652988471865258,1.4369328991469437,1.4720102443346563,2.0529019864452236,0.7548464290311148
321,0.6126509134394342,-0.09546467175725525,-0.04018057970474802,0.5991765335406545,0.5583035471449406,0.5467704562875094,3.0445817286923287,3.1104344245993962,1.3472542884911607,1.9996484746750423,0.6528756675646988,1.6722593900165095,1.1545743470756675,2.1738512261509104,0.6135368888799378
322,0.11584063048428518,0.006818769319073541,-0.012706568179958556,0.9875358069703156,0.8213027655472804,0.5670093666554699,3.3376599889695275,7.878932357336861,1.304597296897468,1.9766161921348153,0.648888643467878,1.2233821756240595,0.9662711362158418,0.9336598398505842,0.6489426616679838
323,0.19146218809610768,-0.016928017934549178,0.002174615764135135,1.16785898781605,1.095687323096681,0.7788464269196352,3.61622452837756,2.815721583322091,0.892633325589576,0.6931297864401206,0.6602640781246099,1.2200269105585428,0.7332323997711684,0.5335157505183166,0.7434834392291918
324,0.3219712273716174,-0.03072930777880567,0.00817035329380078,0.8772390717561694,0.8437436613360803,0.613625794090753,3.3368187488591055,6.402294853083561,1.8118006000564846,4.722048189369337,0.6547956803312163,1.6022416455635053,1.1968279539258733,1.2276163142589072,0.6697211162401508
325,0.5679221304003453,-0.023925984248665114,-0.036513430706694536,0.885291039066899,0.8365249896635993,0.6840605261429737,2.6899181227135722,2.4206537000993245,1.602576438307367,1.7410468037041753,0.6584896970785714,1.7066832968729357,1.2071618172088712,1.3045520968102726,0.7304967074876765
326,0.21993897443241797,-0.03777138808893883,-0.0076826666270942146,1.2502766960368148,1.2094709103553218,0.8389112059762817,3.224947286979107,2.42724167475207,1.5308297712121637,,0.6699045166045591,1.721611709325973,1.4731136553099444,inf,0.9662236726746483
327,0.0941229932209617,0.008499738912271591,0.010824558804503299,1.0709081004980008,1.040034890491745,0.6785043037752176,3.6128699982670214,2.909442810888809,1.9234866751905522,,0.62595550513784,1.6402408215891455,1.4014190505208008,1.4160486222016833,0.9570395920266701
328,0.1522219570368126,-0.000666676482449946,-0.022965563694533495,0.9608324394489468,0.8807283883607224,0.692388363429683,3.6546569368303765,3.4582727118533403,1.6112871867388912,1.797288463983903,0.6811855325194978,1.595370655222665,1.3444014529686268,1.8557518062880185,0.6616740993572761
329,0.14875960756967802,0.008142783736507425,0.0006029931376317008,0.9085132623389769,0.9061625537688645,0.5650987681839169,2.8976969817093123,1.8178505024401805,0.928908664849847,1.1006347806800283,0.6652988471865258,1.3069493326653463,0.833800397742894,0.6143920782278202,0.7213096913006778
330,0.385370169325887,-0.020041258488891878,-0.0584544948788705,0.920516310587296,0.884532074386203,0.6958148184353768,2.7914476135174424,3.4691429154905897,1.2179768065807328,0.9729141598838517,0.6566669596287297,1.573320299518435,0.9975800634365417,0.6265401811931594,0.6806917740715788
331,0.2251239887244994,0.01897780804313482,-0.02240869394214718,0.94509539440883,0.9246025640756007,0.6020944413471999,3.277970300451803,2.330792569158818,0.9841634038548618,0.8819673183841489,0.6097226960127671,1.5307294277737007,0.9056410583542344,0.7258099950637206,0.6086177937125202
332,0.09704040937045047,-0.0016981592218002668,-0.01512217840241115,1.1438578973869802,1.1323575674007704,0.70482105219999,3.7512952806851403,6.95025340802857,1.6415842337194075,1.5789675193296244,0.6528756675646988,1.7833945528964272,1.638686039682152,1.595243689668473,0.5711237704997961
333,0.29839590488422557,-0.044004591006937314,-0.006716465474404758,1.0389499670346982,1.032287737886365,0.7598130890052351,3.8934064046209755,3.629890937124306,1.1337518056186318,1.4706611562610508,0.648888643467878,1.6540866641029823,1.060317010971403,0.9378224613915154,0.6564324968290618
334,0.20643455624527554,-0.017235866161381168,-0.016828931511037988,1.2140921584624558,1.2004234735636374,0.8418371898689904,4.08022138206447,9.17758654866389,1.0012780749701171,1.1855863539859168,0.6403206450210053,1.5253010332279007,0.8918223652576394,1.0725409644989456,0.7603197403214436
335,1.02505267854213,-0.15234432272516768,-0.11187975726327379,0.6171812734003689,0.5249150650481835,0.5691157310281225,2.614380616314944,2.201360319354875,0.8091059702531183,0.4829105825344991,0.6380535849069913,1.2172832183857885,0.6446126330312971,0.36712903846893175,0.9067866179767082
336,0.31556377654385687,-0.031087080291070504,0.0018132083395290197,1.0259928493510615,0.9962859742168941,0.7167046054423023,3.1250633953943034,2.553720602965677,1.6025899309311087,0.7557235259877793,0.6207552362147116,1.6303778528924486,1.4288860414860098,0.6938578284638314,0.8858280400078403
337,0.10502770252625812,-0.010294377581890073,-0.008976214612310861,1.1304965517268502,1.105133208990719,0.7452398416307692,3.7631263698926274,6.127640971127541,0.9451040172281631,0.39900454138319374,0.6509067234006624,1.7136879338078994,0.8302612566138842,0.34422498393089385,0.68248807160957
338,0.0663784709347554,-0.011948124768255972,0.0,0.8729802770332259,0.7688936708306879,0.6791727371549193,3.5278172991492767,5.737043384652978,1.607069213911394,1.5487892550425644,0.6684167106117298,1.7536932684215987,1.3884787500385802,0.7765399751187637,0.5895358674798034
339,0.011833000783457068,-0.001893280125353131,0.0,0.8137251269946018,0.7158348445585292,0.6490671121725133,4.073911538491829,19.110003699642206,1.5562082415551208,1.3749228408500334,0.6509067234006624,1.84165023884152,1.56288604408615,1.207322891211218,0.646017295542373
340,0.04315591786722223,-0.006241339188698364,-0.0014706830759760013,1.1374877573244262,1.1022511278461045,0.7438385629116007,3.8379063711495878,15.973792595613242,1.336262662952771,1.348714266471392,0.6357360191111145,1.5398600269160463,0.9415859512429734,1.0850192057312629,0.7999097192108146
341,0.0532377414685581,-0.001692796125252154,9.947701177213247e-06,1.1836108767631988,1.1696578672902556,0.7988208355111194,3.7523319007200593,2.921425472482109,1.8126587860382817,1.2152312109643995,0.6180765742263259,1.5705912008346135,1.5359484946393356,1.1058379336597444,0.7590242720975334
342,0.037058705430474126,-0.0015098786007322479,-0.006643036593972059,1.1795515597596429,1.1615365084671783,0.8092215071358477,3.8353416480068256,15.891925245546206,1.3858159480875123,1.3829442742346088,0.6380535849069913,1.542038903063393,1.2445135261937748,0.9780088844945167,0.8291278971894667
343,0.021298555591508155,-0.0032657785240312507,0.0,0.8558753340368899,0.8202226145414084,0.6367622013487587,4.24334819460873,55.25644863890512,2.2403255262023993,,0.6509067234006624,1.888857913691606,2.2088255497960096,inf,0.7978281758449001
344,0.21287620835818347,-0.04399441639402458,0.0,1.2249799807683024,1.1780935153170011,0.7778172373032348,3.8757462838712815,4.234992688591529,1.0660734096647266,0.5523722835348122,0.6153451465759925,1.638637890171969,1.023961048026324,0.48292316714716826,0.848080192988508
345,0.0,0.0,0.0,1.2541026478021884,1.2032323101004545,0.8395440629600739,4.284939011440664,4.718503564676289,1.3561442024037194,1.1260663194295484,0.6380535849069913,1.5448993912965292,1.1664897110711956,0.6964972674452273,0.7571754500035298
346,0.0,0.0,0.0,1.089304652477767,1.046916939972591,0.724858634854556,4.281619751126232,13.581614247339148,1.5593607943685155,2.5610846025257796,0.6652988471865258,1.5766480896111095,1.2401015284144414,1.2842839323473463,0.8724119751078419
347,0.00421233359686241,-0.0009828778392678955,0.0,1.1982466856517626,1.1401201534882788,0.8209882570374998,3.518464228424422,6.987609233356242,0.8739481054060237,0.5307323990449759,0.6284777104787076,1.4591996379981886,0.8806259079370531,0.4802741589755914,0.759787589816761
348,0.06052974395714745,-0.011150217436423932,-0.00014866810224359133,1.028566464145032,0.974583000998116,0.7475163296959111,3.5138876831883996,4.007122289698616,1.6423358649611477,1.655355658702733,0.6153451465759925,1.7062547822815786,1.5195897119027155,1.7914797880627582,0.5839147898236848
349,0.03731814635724864,1.48566486405724e-05,-0.00029142073547288195,1.3355757845795615,1.3277398722229916,0.8811118198743215,3.9396754453509875,3.4887721481680574,1.4833533563290358,1.489391156104656,0.5947193981915972,1.625736685403603,1.246402304231502,1.205676270635785,0.8225491015011577
350,0.07220634784954026,-0.0005211288320197387,0.00023008943712165934,1.10987017174027,1.08220757569202,0.7706453165760887,3.6349894450912528,4.858469218309912,1.2777038707257136,1.0381037879428792,0.62595550513784,1.589526358608757,1.0164186195562996,0.883355285052072,0.6520166493992203
351,0.0,0.0,0.0,1.121802952094967,1.0953451845028752,0.8104282006404303,3.631441694534288,6.340342616562266,1.4180467796656462,0.6897970936746632,0.5947193981915972,1.6433394641097818,1.1193429326454936,0.6452039730576767,0.7587781451184472
352,0.0,0.0,0.0,1.3281029622452443,1.3225447976817863,0.8741531484422003,5.07209797906786,8.457032508625415,2.214527684194638,1.60742472414366,0.6509067234006624,1.875141078167106,1.8860701486992963,1.2561130553806499,0.6596528815445235
353,0.11386487968079982,-0.007761785452411761,-0.015390740082684203,1.0509635513068163,1.021241829982837,0.7507381051268183,3.7767144998410562,6.16698121489808,1.2070024271940325,0.7766342637408694,0.6509067234006624,1.6340152538906665,1.0281060153231436,0.7457651005991418,0.6801645724021786
354,0.12763475936958985,-0.012650714946198911,0.0036046285124709393,0.8088098813505735,0.7249104440517824,0.5878623729367057,5.155397793794252,10.214919066555307,1.750926946902297,1.1200363837684073,0.62595550513784,1.4398357947148093,1.3711704078006148,1.0828494989572728,0.7384837709805383
355,0.0,0.0,0.0,1.5365611480348584,1.4983964293562375,0.9490125003757806,2.1393648250312274,0.980859630625253,0.7261759234653057,0.29675450556505606,0.6584896970785714,1.6784307839210517,0.6613947620141898,0.326123479148333,0.8999029084454525
356,0.0,0.0,0.0,1.5163264065561237,1.51246147481034,0.9433651962944227,2.7776488355657505,2.1095281520882203,2.0507848324300317,0.9129406449888731,0.6403206450210053,2.0402208285265546,1.875141078167106,0.6964972674452273,0.9101262206849356
357,0.1119302250608374,-0.014550929257908862,0.0,1.10333500644641,1.0130434415980918,0.7448292141699675,3.223179710417378,3.977845823578524,1.8416102112914572,,0.6097226960127671,2.067073892871174,1.8482880138224864,inf,0.8628164104149805
358,0.05345331558151699,-0.0010059092608472563,-0.0024849786569993105,1.0829962421754877,1.0479406617799274,0.7730839564545875,3.303867800938465,3.4604827533089146,2.1046571029247603,1.714130976221149,0.6097226960127671,1.8260059079566462,1.7298978634664903,1.382410861093493,0.8856792086153726
359,0.26860659065931336,-0.03412137706339635,-0.014227809255280055,1.1336875152447388,1.1171041638542687,0.7264905854060011,3.4500050835043177,3.598956353235144,1.6390644115884145,1.2291533624066624,0.6038851895711802,1.7783826721864162,1.5430797414568853,1.2903967604955862,0.9222714182484593
360,0.37391747380266216,-0.028241634871947356,-0.018440577696313805,0.7038471542810267,0.6764222644238259,0.6159895352063296,2.666757827822951,4.453017077465058,1.4632752809986396,1.6090668737151839,0.6097226960127671,1.539652762290194,1.1291767256587346,1.197583006227165,0.9485483475797617
361,0.04246301096691742,4.469303137616745e-05,4.4955448970068757e-05,0.7925091187422627,0.7498631058168383,0.6382426924789086,2.017911684046834,1.4301398897593431,0.306997749162863,0.11340515399648904,0.6309483474627791,0.9415515614247667,0.29958481416323157,0.09980228381109515,0.6459815580337483
362,0.04947656514120178,-0.012113122553764287,-0.008161399451493067,0.6160229877573253,0.570134125362479,0.5378569849768763,1.9500120763569009,1.652748811456526,0.544553758313445,0.33513485042107255,0.5978297680564633,0.7624734409481344,0.3980851759389613,0.20323523444212238,0.804580516558965
363,0.03618391917988851,-0.0005069756866044224,0.006255733860882608,0.8026826958004823,0.7552373475208471,0.5638676377954438,2.5876450465046816,2.5883828936823132,0.594213612128831,0.6961014123548993,0.5915533975974677,1.002453983775083,0.48162472649450205,0.4099349929972264,0.6598389386062672
364,0.008691560017145451,-0.0015934526698099993,0.0,1.267690450577125,1.2539126082352974,0.8504504929442624,3.585066439300318,11.613597705835586,1.3325308097320043,1.9680331376028126,0.6403206450210053,1.7033823586106422,1.0593000381446331,0.5498937932533519,0.7715981384734071
365,0.016958887519812487,0.0002041416499935821,0.0017818266620916153,0.8665301920550383,0.8255410386073989,0.6766962569055797,3.5595276732044296,3.4341408101678947,1.0088430479635722,0.9933777521942425,0.6468212168108125,1.4976481090113702,0.8747635362182044,0.5237769979881549,0.8017591313992336
366,0.1431301634304045,-0.016630070919851754,-0.008179157408085025,1.1552802194201852,1.1180844241964347,0.7505089465652672,3.12635679447416,10.551936402478077,2.7527161421366007,,0.6309483474627791,1.818377267132347,2.3265590812058137,inf,0.9070453651683642
367,0.050275870564480386,-0.005873804170987881,-0.004516542412338066,1.2451202642992651,1.2389660452691298,0.7960247387603178,2.8308674737983957,3.474251604475741,2.1420497995426393,1.9473265154267314,0.6380535849069913,1.6077171715360339,1.7717187183446088,2.331035572926355,0.8633426654014271
368,0.03917454869055297,-0.002959619845012293,-0.0002603130038763982,0.5136298859710372,0.4626155026655015,0.490823432306606,2.4488029454379268,2.5092465205799708,1.4123124268360572,2.360823269011246,0.6284777104787076,1.3166024747415248,1.1313938210263785,1.8496891904722275,0.7315086704683723
369,0.09478768913141658,-0.02161723312983301,1.2539435913924094e-06,0.7866797086609931,0.767898132855203,0.6348158545783473,2.387334973711738,2.1218280650315773,1.3647016325480468,1.4536870262166282,0.6528756675646988,1.5025285967864237,1.262974179063872,1.1621980422970803,0.9392908632800163
370,0.03644041309269611,-0.013028344237971994,1.1888569384070036e-05,0.9222356034458559,0.9058925655858465,0.6842118213235515,1.9464690266223599,1.2907792889354373,0.4537947695616188,0.4075921674550064,0.6528756675646988,1.0309847933275238,0.3457553549875552,0.2738091523614525,0.7559937105747985
371,0.16914844417091604,-0.02649992292011018,0.0,1.0494175706584348,1.0450793019861564,0.7076131822218312,2.544559766879176,2.3430040997346,2.166715922609501,7.3223935624760275,0.6333676938231112,1.9050774879252799,2.010284418768381,1.795109556113337,0.862539074775349
372,0.06711937133275275,0.014884417226335583,0.019234663248414142,1.084012322894045,1.0503433978024959,0.7402245053826078,2.223320891670568,2.0196711461738492,0.8963985901469677,0.9739146020285441,0.6180765742263259,1.0764594840269763,0.6603699783426175,0.4771344389709236,0.8755425585910863
373,0.11778164317079134,0.034879616703276266,-0.019584007335873524,0.8952956613078986,0.8422617956113428,0.6465684207860274,2.463420222162132,2.298141905924513,0.6842197759920222,0.5418979369723432,0.6509067234006624,0.8573407140389924,0.511244713300125,0.3419013217602012,0.7751350769608291
374,0.11084438983235809,-0.03102083202107234,1.64929514062795e-05,1.0858314348652511,1.060864412439623,0.7477023745703523,2.7669099970344244,2.883957205382423,0.8331319810837182,0.8797936215351212,0.6333676938231112,1.2839784756482895,0.6212483551685464,0.44549863750514473,0.749612172555156
375,0.24362553189263855,0.01842450248498015,-0.01267413925804195,0.9122361570170904,0.884894280810488,0.6775739600306795,2.3140195858482504,1.923651336551862,0.8825998384412851,0.9343050451129242,0.5947193981915972,1.1743780444424898,0.7141860540567568,0.5891683475407532,0.5977256682322168
376,0.0630375366074213,-0.0016635905403281914,-0.0017436553524940689,0.9534530075362097,0.9241167222293185,0.6884213660963053,1.9812424787752616,1.6055855869059106,0.7300126377773404,0.6641429415529653,0.6380535849069913,0.9077991101846493,0.5590306725649583,0.5094135794370854,0.798874830264585
377,0.09020715866735018,0.016871699717262753,0.016730936587653664,0.9322946302146624,0.904624614488788,0.708795141886949,2.2424004843367684,1.8346011184816886,0.6147553285394719,0.7383465383055311,0.581717464821069,1.0039083531988122,0.4701249222290852,0.4753941631554559,0.8267733992043016
378,0.29690453423361035,0.0325699836937382,-0.056323983788658744,0.6091584531515074,0.5653690788500961,0.5205009765536315,1.607475774917671,1.1537755867533481,0.6829584229545009,0.47164180039232534,0.6284777104787076,0.8899193124667005,0.5180300572153531,0.3429881050257462,0.9285446216836128
379,0.01586112886580722,-0.0032032487095656455,-0.002524258521683964,0.30752023096499176,0.2427038072298787,0.22462606636629145,1.2677066826254384,1.2591755854119489,0.3949485292699695,0.3508937570701884,0.6068309995095971,0.5386156208956695,0.3270084017433063,0.299519883174749,0.9385637304262733
380,0.010071871908652484,1.100336327646478e-05,-0.0007152358652012959,1.0142871563798312,0.9801468708804905,0.7087983733867655,1.4799973056205071,1.4708937282251022,1.6942752187388446,1.0200387805452402,0.6425374456860184,1.8841671985532102,1.3732184810768662,0.8889541777104047,0.7697980511746099
381,0.03777714035562548,-0.004533256842675058,0.0,1.2303069676302305,1.1866280222396082,0.7706551662205342,1.4240230319361418,1.8260295239943842,1.9498778229722369,,0.6380535849069913,2.141127837984349,1.956555625503266,inf,0.7495617925802299
382,0.0,0.0,0.0,1.6605722584371334,1.6269396884429623,0.9096628944328059,1.739856106951673,2.4363921398581576,,,0.6566669596287297,2.659260036932778,inf,,0.7904755587432947
383,0.019644020606949194,-4.158993536588704e-06,-0.002091203204537992,1.5851502382449143,1.5703944847930924,0.8856288250918615,1.6982660736627446,1.5755774392533617,2.2304442496795898,1.2139119495593367,0.6233814453054027,2.252737287266478,1.7432713742347605,1.7144628013057588,0.7954776853716733
384,0.053882843112829065,0.0008592506826962856,-0.0047324065823551595,1.3521609242361574,1.3336840514054453,0.7853600717525019,2.076343201621331,1.5579633106759947,2.299801593020231,,0.6038851895711802,2.3020296917023457,1.6485031684876759,0.8223987312606946,0.8637854133086459
385,0.0,0.0,0.0,1.3617283232464756,1.3121840325986993,0.8180816288061391,2.2624858296709722,2.9494194647151204,1.9425712477897987,1.3829442742346088,0.6357360191111145,2.371577964480997,1.5437839422126636,0.6964972674452273,0.8621363671500945
386,0.04481947648310206,-0.009792488958812157,4.581064797780669e-07,0.9130210231870187,0.864845415035927,0.6822887486348976,2.8562708798169365,2.596668004468065,1.1757262673542366,1.0464720376133958,0.6699045166045591,1.5289850324824588,1.0435149817988671,0.6547440602573913,0.8945511181363809
387,0.0,0.0,0.0,1.521777730269148,1.509735778916051,0.8823803825600463,2.7003828877535128,3.6402151808560173,3.2924979647388146,,0.6357360191111145,2.4079456086518722,2.6060285867098982,inf,0.8452838635265305
388,0.0,0.0,0.0,0.8092592771271324,0.7895239698336095,0.5456631307853299,3.0837748487402066,3.9842047776344525,2.6708097481610142,,0.6357360191111145,2.336486644669727,1.984340370132098,inf,0.7921075287951178
389,0.15981310120385708,-0.0045384352497901195,-0.014853399527525048,1.039379293695005,1.0183676936664596,0.6800848000642415,1.8478070014689703,1.3361522543793074,1.2404906345293416,0.9881075008650028,0.6284777104787076,1.5656868784079654,0.9762840720017125,0.7881468495715254,0.8192449416271986
390,0.0032739212989037476,5.602595169710341e-06,5.662911755287725e-06,0.7320992102885115,0.7133012406048572,0.4306851362398871,1.2859535594839588,1.3161777775879757,0.8112766077910339,0.715805934215013,0.6207552362147116,1.4300372840678093,0.7869819205965894,0.6148949836601971,0.893648166356758
391,0.16377378248888402,-0.013647815207407002,0.0,1.711934394629241,1.7123982337208872,0.9497583429664566,2.448045281268034,2.7691799659795455,2.4822619519519615,,0.6097226960127671,2.5250344408787795,2.488939754482991,inf,0.8450620978162375
392,0.0,0.0,0.0,1.7292011547500254,1.7255544808649914,0.8991126234868324,2.9695025119743637,5.191184833805973,3.3288656089096893,,0.6447042257417027,2.371577964480997,2.6423962308807734,0.6964972674452273,0.8752054877395475
393,0.056078804912213905,-0.005047092442099252,0.0,0.5944949993137738,0.5735806246702884,0.49700983701072354,1.9983941256307383,2.324223181011914,2.1645712884019295,1.0952622017828277,0.6357360191111145,2.4372599963206474,2.171249090932959,1.1019623755533916,0.9048651406477122
394,0.08513108171128658,5.2420424693444545e-05,5.273470398746774e-05,0.6573481798971658,0.5616096769353864,0.5174526753258132,2.2545253716357427,2.338576887166787,1.1418439068126558,0.9170237538199875,0.6180765742263259,1.5140772288546076,0.974034551882341,0.7371734293164357,0.6767039374543414
395,0.043550813385330484,-0.006346375508563061,-0.00206962431879696,0.2793352849901255,0.24321930119990734,0.4148589232843304,1.079499112866578,0.9927163116876037,0.6257349863437328,0.7360072155173996,0.6309483474627791,1.2735610911326514,0.49032384132942397,0.42220190046368816,0.8406591137228694
396,0.0,0.0,0.0,1.1771189303264582,1.1482220201771314,0.7282859271887832,0.9064519736660609,1.0804290869811823,1.7884205679625402,1.0952622017828277,0.6207552362147116,2.120263536200091,1.7950983704935697,1.1019623755533916,0.7778996053102403
397,0.10530458813503195,3.6965638058885156e-05,-0.01442859268317992,1.1539034985266743,1.1344177533218893,0.7232703541075343,0.802672039283062,1.0282322347192911,2.076435918204442,,0.6097226960127671,2.0145697427521445,1.6114392473249177,inf,0.8076719541185338
398,0.0,0.0,0.0,1.1740803843213252,1.1620220034066568,0.8007381790688589,1.0300941482512318,1.3259439428464372,2.0248093460267707,,0.6333676938231112,2.0661963149298153,1.8491655917638454,inf,0.8175594447552726
399,0.0,0.0,0.0,1.5114552607154825,1.479096350179647,0.9057225244620566,0.7329852512530894,1.0636342320308985,1.8837307477668652,,0.6357360191111145,2.2072749131897207,1.8904085502978945,inf,0.7332114186015584
400,0.0041512711224947095,-0.0005811779571492594,0.0,0.9721147709852187,0.9302689102236941,0.5997593374223085,0.8758595486461667,1.3134584987597693,1.9387544492630977,1.7884093823427731,0.62595550513784,1.9699296548995338,1.945432251794127,1.1019623755533916,0.7888108316664654
401,0.01941891619880542,2.255322460105978e-06,-0.00401549800354656,0.541918578588181,0.5287760413024181,0.5203476910907091,0.8552702717238491,1.1674220381380924,1.9152163643404316,2.1938744904509373,0.6547956803312163,1.5880026317140352,1.6094379124341003,1.4144186299907522,0.8036188519690659
402,0.09843930867457995,-0.004076439481665629,-0.007080015501453433,1.127363617857608,1.1050469712916329,0.705821605039633,0.9101754786400655,1.334847916083414,1.9709910618845372,,0.6233814453054027,2.2317125077948923,1.8421760458598258,inf,0.7442627457192971
403,0.0,0.0,0.0,1.1367784240551255,1.102414330898977,0.7077543091737062,0.9395327026036182,1.3952439924963072,2.7692498209742666,,0.6333676938231112,2.2380465718564744,2.7759276235052956,inf,0.7754713061318745
404,0.04634087182365356,8.14250396831747e-05,-0.00626020794950365,0.902087963013435,0.891061308599092,0.5737751732319064,0.930656329326631,1.3809939154008064,2.971084611342225,,0.6333676938231112,2.036211781488516,2.9036544417195325,inf,0.7741822223150516
405,0.0,0.0,0.0,0.8267921173060717,0.8136422124045637,0.47883280506917086,0.8871284737442753,1.224276696773655,1.3184169387168048,1.7884093823427731,0.6008849035917525,1.8971199848858813,1.2450520335742976,1.8751522637868734,0.8076636711006155
406,0.02958194860892784,0.006258725852895074,-0.006200961604339351,0.5252538342741142,0.4762096898532583,0.5033222485108302,0.9970604110255804,1.1755143103667374,1.6323725501417856,2.4904356445438482,0.6357360191111145,1.5742852918197705,1.341404274060684,2.027287079741986,0.85050335609487
407,0.040208662351843956,-0.0057632416037643,0.0,1.2267250289635696,1.2086939394520804,0.8460370103413308,0.9251335149711732,1.2900299374083746,1.3370701633775741,2.394545185913089,0.6357360191111145,1.9654781372147416,1.3437479659086033,2.4012453596836525,0.7881050409725419
408,0.12399527118817828,-0.019012608248854004,0.0,1.1851586232150404,1.0932719583937502,0.7756637214217985,1.1160318451812907,1.3496264707994463,1.7239561181556946,2.076091454794554,0.6468212168108125,1.8970459135551558,1.3251688125785595,1.3896444480051726,0.8520797295640546
409,0.0,0.0,0.0,1.1607479003166927,1.1597366723218836,0.807554816135311,0.9306717125128672,1.16199497031007,2.0507848324300317,1.6060878255488185,0.6403206450210053,2.0402208285265546,2.0574626349610607,1.6127879993193823,0.8357470525826243
410,0.13907664174557505,-0.01075389610951731,-4.991801848389099e-05,0.2995334833849547,0.21443804608673378,0.27722973775454235,0.9884424905656137,1.0984753501921793,0.8342002572664757,0.7953596137613751,0.6180765742263259,0.9316017946985937,0.6508696695056924,0.5756285584478834,0.9380705640435277
411,0.20318064625450172,0.018590763232287026,0.0001582041119623928,0.826707899399788,0.7836091876521855,0.6330653508862344,1.2548849142361522,1.1386601452249367,1.4354816485853543,1.463758487668414,0.6447042257417027,1.6992410615835265,1.1169512981383867,0.9469318280339232,0.8745639709848714
412,0.9385060521756612,-0.05603944616763279,-0.1054423506219418,0.621511658854183,0.5835785541795899,0.5484011310998325,1.4043406415648214,1.3777662221819276,1.0811856996283176,1.0128714480493641,0.6097226960127671,1.1662489373839209,0.7675350318735519,0.6607887480849636,0.94254780725484
413,0.18923309600514177,8.314731372294909e-05,-0.012504233270378327,0.8184116052881006,0.7925016184852993,0.5535762350879824,1.1044139764030159,1.258089019455538,1.671192933597857,2.1938744904509373,0.6008849035917525,1.83202606245661,1.569838208193249,1.6137835652699408,0.8224938817249714
414,0.07346284902787464,-0.0020206476137923403,-0.011660069088034748,0.7898643872080484,0.7224139890894875,0.48364220335217617,1.067919069641857,1.216589232931765,0.7586337383218643,0.8412475393022247,0.6425374456860184,1.0344801000724255,0.6124289458113907,0.4990522375148615,0.8855852120169413
415,0.05624746920529376,-0.005249763792494084,0.0,1.4055171399684745,1.4032156189394358,0.8939156206508378,1.2472788531558638,1.4566399761703757,2.604522572581263,,0.6447042257417027,2.402773820249478,2.205735267004128,inf,0.7937881005895615
416,0.08056850498861129,-0.007788288815565757,0.0,1.5628508462486304,1.5324730458546647,0.9312834169440195,0.9652815058531159,1.2429234618707063,3.3323120440757665,,0.6357360191111145,2.36813152931492,3.3389898466067955,inf,0.7745196578103606
417,0.46819838983361467,-0.057002564878096296,0.012317088449586556,1.0736613523138547,1.0460459627232441,0.6680657035154164,0.877036337463398,1.2077268518969086,1.5663875109323577,1.6060878255488185,0.6468212168108125,1.831470969464283,1.4181504727430831,1.7428465479334407,0.8266176539585441
418,0.0,0.0,0.0,0.8276637429284619,0.8109197488453707,0.6728567153409685,0.7468906528446849,0.9827882838236329,1.2959440828647462,1.6060878255488185,0.6509067234006624,1.6964492894237302,1.0662331073315452,1.338351153617622,0.7886489588817618
419,0.0,0.0,0.0,1.5496104052934403,1.533017663418016,0.9133619827068118,0.7454102313420339,1.026046318469305,3.462397001534212,,0.6528756675646988,2.2380465718564744,2.3704625153971315,inf,0.698484663937089
420,0.0,0.0,0.0,0.15530386776307525,0.10897727863358152,0.24209468758565408,0.9274580505906522,0.9642749088458314,0.9604541645936436,0.927650151447972,0.6403206450210053,1.1290714961528183,0.9404637200425118,0.8077229025554516,0.9018427842545013
421,0.04072293183119512,2.923824474160633e-05,-0.012110374687996157,0.17287203109334173,0.1447436418045004,0.3093603336976291,0.9126285699355903,1.0528965453053134,1.040313693126167,1.311716764946241,0.6566669596287297,1.2261426757793732,0.766754264500277,0.7731355433609071,0.8805317433861461
422,0.02477785555247282,-0.005841646211226861,-2.244626952503948e-05,0.7016569899557057,0.7054099325603548,0.34113941516487895,0.8466322463674864,1.108627600854005,1.3571627052926472,2.7176471005829903,0.6468212168108125,1.4529091102018745,1.0764371810182995,1.7948308104669328,0.8925159228872521
423,0.14494793724321017,0.0160112672455145,0.014808204787604265,0.6196817761838642,0.5690546135584209,0.5306867219189334,1.8093416537242972,1.5061318910450217,0.5990544630378926,0.43676232752064437,0.6468212168108125,0.9299390027985309,0.4727557796891405,0.26472541248477605,0.8428564811740774
424,0.2391156913038215,-0.0389464774154689,-0.016717646308084557,0.8354057824503339,0.8223104987019578,0.6292064382388456,2.193575410200575,1.5298956548395308,0.9174979833678558,0.8577538366743812,0.6008849035917525,1.1536670344172537,0.6929006713057961,0.5499618334475374,0.935561442980959
425,0.17656717035650335,0.016211412886657776,-0.014302955429665136,0.9420945771486746,0.8339771889653271,0.6984318531749246,2.5533600096792,2.7174067345200075,0.913212239865523,0.9391687167983701,0.6097226960127671,1.3781498401784835,0.7545987179733711,0.509826060991444,0.7972902690570635
426,0.06137876715211937,6.801804339301616e-05,-7.679138324449136e-05,1.4062799656070364,1.3624309218664084,0.8845192974846106,1.5668808010068926,1.6337420063168822,1.109142219279933,1.1050616700512865,0.6097226960127671,1.6911301279461302,0.9116595624985869,0.8720542313857368,0.7760280944292776
427,0.171195486282327,-0.02567932294234905,0.0,0.7550861855546389,0.6544965555804245,0.5594567218618388,2.089766316255222,2.7540910204957236,1.3541438079330497,1.6715148371428539,0.5947193981915972,1.9420398704772146,1.1260241758292426,1.0329695040664402,0.7973428365637989
428,0.018240715277893296,4.9180937359060393e-05,5.008633326036415e-05,1.086556195478879,1.0792602458321634,0.771461240313992,2.962616753265204,2.4381635998367366,0.7621289408740568,0.5562657010501407,0.6357360191111145,1.3829665710272159,0.6045645027191981,0.3136106170095784,0.6997749864598911
