,temp+bvp_XAp0,temp+bvp_XAp1,temp+bvp_XAp2,temp+bvp_XCond1,temp+bvp_XCond2,temp+bvp_XDist,temp+bvp_XFuzz1,temp+bvp_XFuzz2,temp+bvp_XK2_1,temp+bvp_XK2_2,temp+bvp_XPermEn,temp+bvp_XSamp0,temp+bvp_XSamp1,temp+bvp_XSamp2,temp+bvp_XSpec
0,0.1903537284912189,-0.000634512428304063,0.0,0.8964034014498237,0.8343287033354689,0.6691333131201851,2.9191974291483302,3.0536655268015798,,,0.6652988471865258,5.89413620314742,inf,,0.9176026883759462
1,0.0,0.0,0.0,0.8019902936823141,0.7679939633383163,0.7360473384708078,2.7736938524735204,2.299257951186374,,,0.6509067234006624,5.703782474656201,inf,,0.9319824090551406
2,0.0,0.0,0.0,1.3690668677650888,1.3468734084266367,0.8094916267674918,2.964949806648067,2.168456424252073,,,0.6403206450210053,5.0106352940962555,inf,,0.9197612974806806
3,,0.0,0.0,1.015168268833335,0.989368060597828,0.7313950024175733,2.878717510202967,3.1053475557820587,,,0.6233814453054027,inf,,,0.8968719596665059
4,,0.0,0.0,0.6819162226689168,0.628180657914989,0.6961220612071642,2.917404559551141,3.0820617769877283,,,0.5978297680564633,inf,,,0.9393478382085068
5,,0.0,0.0,1.3512265800860268,1.3170098169353883,0.8701026718631354,3.101496227364734,2.1212053547348106,,,0.6425374456860184,inf,,,0.9459046819670461
6,0.0,0.0,0.0,1.2771436434951489,1.2471101009707755,0.8369080896165465,2.930308294486494,3.204009862026149,,,0.6207552362147116,5.703782474656201,inf,,0.9368722540398033
7,0.0,0.0,0.0,1.1607981985273415,1.101261625275868,0.7906408573840633,3.1474153386208346,4.912159361299073,,,0.6233814453054027,5.0106352940962555,inf,,0.9256223850408966
8,0.7818695277008256,-0.007818695277008257,0.0,0.9705805641968233,0.9372270507932254,0.6988549070084441,3.2204575151174732,4.135741772040984,,,0.6333676938231112,5.237954216820946,inf,,0.8072730376378484
9,0.04135088288999296,-0.0004135088288999296,0.0,1.1066747264505064,1.0732338988900043,0.7312948330105701,2.9588842596756133,2.4202669242165666,,,0.6333676938231112,4.644835442380523,inf,,0.889589766435845
10,0.0,0.0,0.0,1.011107091144995,0.9952513365824311,0.7978954234038719,4.1676316547566845,5.6046166487255205,,,0.6233814453054027,5.703782474656201,inf,,0.6829055215121789
11,0.0,0.0,0.0,0.8234373362098493,0.7913822363226576,0.7103519724308583,3.442052783632192,3.326506982668955,,,0.6403206450210053,5.703782474656201,inf,,0.8017812636798465
12,0.0,0.0,0.0,0.9385224802439096,0.9140681698646154,0.6381353815685255,3.1816208605746445,3.5811422710513097,,,0.6468212168108125,4.605170185988091,inf,,0.8195510718175419
13,0.8560960862423505,-0.008560960862423504,0.0,0.7707384451506416,0.7462055153579679,0.5466765620294548,3.5251535914802448,2.3785835693415116,,,0.6468212168108125,5.079628165583207,inf,,0.7441876508277001
14,1.3063700106489426,-0.008709133404326285,0.0,0.8184683783967416,0.7954877370120234,0.7867855376999543,3.258826436745628,8.955018484679865,,,0.6528756675646988,5.633013403767994,inf,,0.6612668066683941
15,0.4891371873269438,-0.008152286455449062,0.0,0.8876117536082291,0.8525750070859528,0.713926953629944,3.787099573750263,2.046240881099655,,,0.6357360191111145,4.296052832816246,inf,,0.5672235197977916
16,0.0,0.0,0.0,1.00091123617602,0.9678833945075245,0.6454987785365185,3.4788579866209743,2.864592444198598,,,0.6619902821573977,4.0943445622221,inf,,0.671514082755019
17,,0.0,0.0,0.8163299738764381,0.7965033885273218,0.6099961151631219,2.966222646340302,2.847157139416228,,,0.6566669596287297,inf,,,0.8306186282534005
18,1.4259456186640502,-0.019012608248854004,0.0,1.00953143094265,0.9784486395686802,0.6797304660485053,2.893204400731701,2.081752552365896,,,0.6233814453054027,4.604059691704064,inf,,0.7599022189122657
19,0.49977578757940566,-0.0016659192919313522,0.0,0.9411147949572646,0.9212349566412864,0.6638179665626188,2.4399424378822503,2.1924835566052203,,,0.663668482632973,6.203558262235607,inf,,0.5217912428035826
20,0.0,0.0,0.0,0.9862934793864707,0.9658939382750379,0.7577837762813765,2.7847149885065794,2.2165472478637738,,,0.6125606311107803,5.0106352940962555,inf,,0.611854480396364
21,0.39583878825803875,-0.003958387882580388,0.0,1.1603396698048458,1.1094052353262296,0.7407264644084863,3.3529853707187365,7.005194446884417,,,0.6509067234006624,4.955515994875176,inf,,0.7070725399314424
22,0.0,0.0,0.0,0.7984265397592283,0.7738355007736888,0.6545594217777728,3.437338121244311,7.824785812263162,,,0.6447042257417027,4.605170185988091,inf,,0.7867565374477906
23,0.0,0.0,0.0,0.9888205417908711,0.9766288255316884,0.6827863945738212,3.0588082195237676,2.3404757942013408,,,0.6668815377411301,4.31748811353631,inf,,0.7221190350919461
24,0.0,0.0,0.0,0.8891188730890323,0.8654337719937215,0.7009658098156004,3.731446079989955,1.9062220135630907,,,0.6584896970785714,3.757872325600888,inf,,0.7292667072423753
25,0.0,0.0,0.0,0.8579542021594291,0.8222702940183079,0.5735655998736825,3.758478248767289,4.89498492789916,,,0.6380535849069913,3.912023005428146,inf,,0.81253761330139
26,0.0,0.0,0.0,1.0948932820067365,1.0893796940256073,0.8000470005734898,3.4624477117271724,7.000786157975114,,,0.6233814453054027,3.912023005428146,inf,,0.8099516473330932
27,0.652746225962921,-0.01305492451925842,0.0,1.1254638640048455,1.068608997868616,0.7367236923944706,4.13679600928301,3.3564458610627534,,,0.6528756675646988,4.246719042648103,inf,,0.6122610991564303
28,0.0,0.0,0.0,1.1023764098886597,1.1061480211894121,0.7417174867707615,3.7028128212098848,6.973326592992648,,,0.6425374456860184,3.912023005428146,inf,,0.6953775966285607
29,0.0,0.0,0.0,0.9049956116324679,0.8885689231474131,0.7367594784025676,3.0601790639040267,3.458555581128824,,,0.6038851895711802,4.0943445622221,inf,,0.5507089257771296
30,0.0,0.0,0.0,1.1646806596223607,1.122176695288118,0.7794778036546692,3.1669869890141134,2.0563180540650965,,,0.6284777104787076,4.0943445622221,inf,,0.6670100764932434
31,0.010258658877510115,-0.00017097764795850193,0.0,1.0551623277956443,1.0748597399247386,0.7406809396564531,3.3425707615661455,2.463440483480143,,,0.6333676938231112,4.104394898075602,inf,,0.7551997886816945
32,0.0,0.0,0.0,1.162397102590853,1.1374958204318666,0.730037433173978,3.438077756481638,3.7422104734562525,,,0.648888643467878,4.0943445622221,inf,,0.740618275473678
33,1.5401352192879791,-0.020535136257173056,0.0,0.7390225320547146,0.6658404930963108,0.6765223271713114,2.820630466757196,2.9307318421611166,,,0.6566669596287297,4.963433692611962,inf,,0.8535926544509856
34,0.15250806846235967,-0.0020334409128314624,0.0,1.31415231644348,1.2951147979330435,0.7976741027787123,3.7098754507355958,8.123131394876449,,,0.6425374456860184,4.438714570970454,inf,,0.8815808361603751
35,0.0,0.0,0.0,1.103049191969599,1.0651562641678591,0.6912240871054454,3.3347460875780857,2.5102935445368524,2.299246191728531,,0.6584896970785714,3.4011973816621555,2.3059239942595604,inf,0.753452468617788
36,,0.0,0.0,0.8590139298618973,0.8245281994822593,0.510275286548223,2.3046261720733923,2.3977462501505236,,,0.6619902821573977,inf,,,0.7173404109046302
37,,0.0,0.0,0.9349727333060697,0.9096856217982242,0.5205548057235957,2.076816534885216,1.7913070052532616,,,0.6468212168108125,inf,,,0.7487824797338055
38,0.0854787268361677,2.1557553555375756e-05,-0.0025859193586404068,1.0999421922436567,1.0600482324408875,0.7865240240192941,3.1928416521605367,2.7864001104880387,2.9424986509518956,,0.6684167106117298,3.5680393676077236,2.9122718965474736,inf,0.7631284307367259
39,0.0,0.0,0.0,1.1356748828565106,1.1054017861797516,0.766473023090436,3.3672749814515135,1.7345528403404074,,,0.6233814453054027,4.31748811353631,inf,,0.8460005068183861
40,0.07048390245185808,-0.0030543024395805166,0.0,1.1077015940153745,1.0547465137670355,0.8191611927108242,3.511479279922589,2.193915016474052,,,0.6468212168108125,3.1860860020452098,inf,,0.7531143485871933
41,0.0,0.0,0.0,0.8872374486027894,0.8641447146907152,0.7141365678075444,2.7858671641372936,2.7673484502513745,,,0.6790044388599258,5.703782474656201,inf,,0.6983289463009149
42,0.38330186101855346,-0.0038330186101855346,0.0,0.8270250269249757,0.7879528751390725,0.6064364231259735,3.3853819826824356,5.3613938852643415,,,0.6284777104787076,4.86365310374761,inf,,0.7162297290603491
43,0.02643417169610642,-0.0005286834339221284,0.0,0.9792020790504798,0.9375862627919543,0.8040602134164476,3.163086090650296,2.177950585881519,,,0.6713451011121618,3.93677117511734,inf,,0.6910144801608752
44,,0.0,0.0,0.833637180795799,0.7774991957179622,0.6705782948033202,2.5622236817361967,2.801744721417076,,,0.6153451465759925,inf,,,0.7397282805425722
45,0.052680257828913134,-0.0010536051565782627,0.0,1.021373737911663,0.965789547717311,0.5770922454708536,3.154808608127524,3.8556996973937885,,,0.62595550513784,3.961563450988282,inf,,0.7207167223831465
46,0.0,0.0,0.0,1.035401783164645,1.0160622027504587,0.7104709396290757,3.6608107364841747,2.3741417999231054,,,0.6380535849069913,4.0943445622221,inf,,0.6691346216268788
47,0.0,0.0,0.0,1.062982272417647,1.037435922449687,0.7165021298926249,3.459178181411757,3.494475967900327,,,0.6509067234006624,4.0943445622221,inf,,0.7505838123256773
48,,0.0,0.0,0.44968676231873606,0.412891099754766,0.5682604531816197,2.802027849175676,2.629936317861736,,,0.6333676938231112,inf,,,0.7610242472722698
49,0.0,0.0,0.0,0.8163280449214197,0.7748074512279184,0.5980859629167841,2.918090063503589,3.1104472738352653,,,0.6509067234006624,5.0106352940962555,inf,,0.5153470119434084
50,0.0,0.0,0.0,1.1348137075458693,1.114797958927462,0.7913508794807231,3.6981173498237996,4.3410447930526095,,,0.6403206450210053,3.624340932976365,inf,,0.5785910984261206
51,0.0,0.0,0.0,0.8910043346787321,0.8547734628599725,0.6319428469940273,3.3706001462043944,5.5676141899262594,,,0.6180765742263259,4.605170185988091,inf,,0.7635188326451954
52,0.0,0.0,0.0,1.016395100097447,0.9631854930039875,0.6846434128989237,3.095811212078153,2.263366816174006,,,0.663668482632973,4.0943445622221,inf,,0.6961093215417528
53,0.0,0.0,0.0,1.178959460387255,1.1589286778676706,0.7555841826216564,3.5174065064729954,6.866816744179182,,,0.6333676938231112,4.0943445622221,inf,,0.6952390408869099
54,0.1505525463919608,-0.0010036836426130721,0.0,0.8629100633507973,0.7602601862402238,0.715158748359234,1.942201875718641,1.2155200374457849,,,0.6284777104787076,5.149897361429764,inf,,0.8350758629829608
55,0.0,0.0,0.0,0.7788113999803579,0.7131785830417641,0.5405443047374975,2.8276225824933325,2.514708162652189,,,0.6509067234006624,5.703782474656201,inf,,0.5968075141655487
56,,0.0,0.0,0.7674350760352533,0.7395414999334201,0.5519453718937188,2.689355209175239,2.9708794979433093,,,0.6153451465759925,inf,,,0.595590211628271
57,0.0,0.0,0.0,0.7757034898226995,0.7604405835159167,0.6303274107481263,3.3212203377070013,2.443226748067131,,,0.6068309995095971,4.0943445622221,inf,,0.6050256759080797
58,,0.0,0.0,0.834308322656495,0.8117589837918777,0.6452406730695075,2.4197377964201663,1.5971957830183707,,,0.62595550513784,inf,,,0.7351716228974956
59,0.0,0.0,0.0,1.3219857964163166,1.3071842671372345,0.8182077793070031,3.2874699671021093,2.845515704566001,,,0.6447042257417027,5.703782474656201,inf,,0.8834336275619041
60,0.0,0.0,0.0,0.6605198271598685,0.6387486951888834,0.6200873066959649,3.1062349184954505,2.6864930622896144,,,0.6425374456860184,5.703782474656201,inf,,0.7627087830869987
61,0.0,0.0,0.0,0.7474360927783021,0.6992790839255438,0.6731197048285943,2.7992886502279983,3.313724083903141,,,0.6699045166045591,5.0106352940962555,inf,,0.5758357758197236
62,0.0,0.0,0.0,0.8841971482848804,0.8659772760291581,0.6808878819160471,2.9401312357833027,2.323848967953004,,,0.6652988471865258,4.605170185988091,inf,,0.8598569059592825
63,1.4633529354570485,-0.014633529354570485,0.0,1.2389905729519537,1.174869821672474,0.709091535110001,2.492572096878488,1.2309168108502555,,,0.6309483474627791,5.03937776296191,inf,,0.8239077464996355
64,0.0,0.0,0.0,1.0117645219642089,0.9498137043770267,0.7528760766183104,3.0872581251743827,2.6835348033048785,,,0.6528756675646988,5.0106352940962555,inf,,0.78938313926803
65,0.0,0.0,0.0,0.7986260577598634,0.7608024094878907,0.5264556232244783,2.647853159500806,2.083340279706024,,,0.6425374456860184,4.0943445622221,inf,,0.7501333707815444
66,0.025348405197708937,-0.0009294415239159944,0.0,0.9450949016322558,0.8589077636545632,0.7067649614114496,3.507684300152121,6.254207649450931,,,0.6684167106117298,3.3282567572604402,inf,,0.8321972451442559
67,0.8351058823493759,-0.016702117646987518,0.0,0.9681686569084009,0.9168799246293756,0.6750392657056878,3.459139372028912,5.972600245608765,,,0.648888643467878,4.093012116988322,inf,,0.7715101507435146
68,0.0,0.0,0.0,0.793155909267413,0.7324261894064021,0.6270129852997082,3.302048633124291,5.042600812938072,,,0.6684167106117298,3.757872325600888,inf,,0.6854367519787863
69,0.0,0.0,0.0,1.0754186452823735,1.0483364005077551,0.7912006143937107,3.219097468507218,3.0232864891032865,,,0.6068309995095971,4.31748811353631,inf,,0.7259996189927899
70,0.18108496998007964,-0.003621699399601593,0.0,0.9965854374034971,0.9691768231573656,0.714394414289714,3.4662008370414763,3.739550210157603,,,0.6468212168108125,4.058334124699067,inf,,0.8213780945170402
71,0.0,0.0,0.0,1.0592347677188307,1.0563333614344388,0.7239441069542555,3.380010561003124,3.5695155265625487,,,0.6309483474627791,5.703782474656201,inf,,0.699319870005734
72,0.0,0.0,0.0,1.0267617917350362,0.9838953838211688,0.7282500920623372,3.5987085156010767,5.313237397931594,,,0.6207552362147116,4.605170185988091,inf,,0.664088303739198
73,0.0,0.0,0.0,1.2476074514258901,1.2363486898265632,0.7221087959021617,3.204323432430215,2.69495810677006,,,0.6309483474627791,3.4011973816621555,inf,,0.6079953206763562
74,0.0,0.0,0.0,0.9183527743191713,0.8611705843409738,0.6459881473862268,3.335713881620718,2.5227978322129525,,,0.6425374456860184,5.0106352940962555,inf,,0.7022218603100256
75,0.4722206449244415,-0.004722206449244415,0.0,0.8835747531903579,0.8654637492880645,0.55536625104686,2.7241795467924708,2.281547647167343,,,0.6333676938231112,4.897306608789252,inf,,0.6224792853238074
76,,0.0,0.0,1.218049706793071,1.2246605988426889,0.8009841455096877,2.9884028734030355,2.768605900591034,,,0.6584896970785714,inf,,,0.9411172051666274
77,0.0,0.0,0.0,1.079633840015541,1.0376021087433138,0.6620385045782395,3.20089426997814,1.8490799159137272,,,0.6584896970785714,5.0106352940962555,inf,,0.6236412401522028
78,0.0,0.0,0.0,1.0279721969705748,1.023991374456285,0.762446552424792,3.1206910476191605,2.555092954788015,,,0.6447042257417027,5.0106352940962555,inf,,0.8713296348043281
79,1.739464338692363,-0.03478928677384726,0.0,0.9199078148808736,0.8907857009179039,0.7424358249678786,3.682130839180743,3.184342113272964,,,0.6528756675646988,4.515939052260149,inf,,0.6278145183598542
80,0.0,0.0,0.0,0.7688098585597299,0.7090954719207967,0.5826550327327258,3.477924368896402,5.207732997943017,,,0.6333676938231112,4.0943445622221,inf,,0.7144337387830255
81,0.0,0.0,0.0,0.8392860896344033,0.8040750847360719,0.6847058842265469,3.4023867087763517,1.9631016250963862,,,0.6584896970785714,3.624340932976365,inf,,0.6712218303971493
82,0.0,0.0,0.0,0.7351387702259092,0.7156763597788101,0.6926790997092648,3.1198573902033737,6.821403586660739,,,0.6509067234006624,3.912023005428146,inf,,0.6251440172240487
83,0.0,0.0,0.0,0.6950826096623696,0.6843428241635238,0.5957135243111606,3.5053399881210763,3.8351160993281215,,,0.6584896970785714,3.757872325600888,inf,,0.7872413004557993
84,0.0,0.0,0.0,0.8393982414110046,0.8002877945783262,0.6666044607956626,3.6105608579396553,4.746267988275899,,,0.62595550513784,3.3058872018578307,inf,,0.6657480765186664
85,0.0,0.0,0.0,1.3062540924100283,1.2727631144055827,0.8007703605763566,4.177095516938719,1.6077503703505247,,,0.6547956803312163,3.3058872018578307,inf,,0.6451277744009497
86,0.0,0.0,0.0,1.1317025944878913,1.1262907250160763,0.8166783863805708,3.66339254460663,5.606181751215468,,,0.6284777104787076,3.757872325600888,inf,,0.76648750362358
87,0.13908890163095142,-0.003709037376825371,0.0,1.1090534083586647,1.0642815974932924,0.6853196329627881,4.145376898949583,2.347358942136214,,,0.6038851895711802,3.72462177943411,inf,,0.6667846017185004
88,0.0,0.0,0.0,1.010932046986598,1.0068422826082455,0.739201157356868,2.971238280060093,2.0084349028142454,,,0.6153451465759925,4.605170185988091,inf,,0.5675045571004277
89,,0.0,0.0,0.6323896946963672,0.6101833341684058,0.7038683517958131,2.1636576869185355,2.373570669785404,,,0.6284777104787076,inf,,,0.9506986452357797
90,0.0,0.0,0.0,1.1500146433492109,1.1119205936100578,0.7352619774371529,2.846607995012954,2.1758996613251607,,,0.6380535849069913,5.0106352940962555,inf,,0.7204896922487553
91,0.0,0.0,0.0,1.0200006279108162,0.9803863673339684,0.7662142593843352,2.9049048860762468,2.8191831234731217,,,0.6038851895711802,4.605170185988091,inf,,0.8891747349668864
92,0.0,0.0,0.0,1.0259655056181354,0.9826731984912127,0.6965201747258745,4.068957392080834,4.277988431918048,,,0.6068309995095971,3.757872325600888,inf,,0.5989942931083738
93,0.0,0.0,0.0,1.0608761787013623,0.9967036391362182,0.7853693244211608,2.9268173159703306,2.558799648477653,,,0.6528756675646988,4.0943445622221,inf,,0.5373580158938416
94,0.0858128297301596,-0.0022883421261375896,0.0,1.2703614158573742,1.2542685283629535,0.804010797151997,3.118950662507817,2.187199947179172,,,0.6468212168108125,3.68843510840567,inf,,0.7531876760591764
95,0.027803709437799237,-0.0012048274089713003,0.0,1.262286527984335,1.2463282887924445,0.8607981290719711,3.565958610042387,2.467991421595351,,,0.6547956803312163,3.1624429828337983,inf,,0.6755312951700675
96,0.0,0.0,0.0,0.9236149840992194,0.9140529325366609,0.6896061420704217,3.7471910832565642,11.92663572033834,,,0.6547956803312163,4.0943445622221,inf,,0.7752797432077628
97,0.1636805375557539,-0.003819212542967591,0.0,0.8551014189404775,0.8187965723357629,0.6688741491979402,3.6922600411758686,2.57043514347288,,,0.6357360191111145,3.863232841258714,inf,,0.6123975271868065
98,0.036357031684787336,-0.00036357031684787337,0.0,1.0947987934341004,1.0716308105347707,0.7471211186877706,3.2840819349105,1.9316458133631467,,,0.5978297680564633,4.64022182404701,inf,,0.708745522454603
99,0.2954984744017902,-0.003939979658690537,0.0,1.1333069819887722,1.1174309147922157,0.7655540290250815,3.3140177205480295,3.9640688946512985,,,0.6468212168108125,4.5078418420275295,inf,,0.8300355731349394
100,0.0,0.0,0.0,0.8311794493974696,0.7716845295686806,0.6832216436586016,2.496658469643256,2.551957773156274,,,0.6584896970785714,5.703782474656201,inf,,0.6704832858740867
101,1.0559550058906817,-0.021119100117813636,0.0,0.4933032317730968,0.4808771667805412,0.5432165253169469,2.8270003492847495,2.529212740123503,,,0.6233814453054027,4.1923249705823045,inf,,0.8629644620050652
102,0.5873599252829802,-0.013705064923269538,0.0,1.2462212240826325,1.2409562788512263,0.8046792085738652,4.0872367063562525,4.692996544300592,,,0.6684167106117298,4.156219965940188,inf,,0.84638336262386
103,0.14717702164471996,-0.004415310649341599,0.0,0.9476391190817368,0.9234899716905259,0.6424721472567059,3.3487607273097884,4.090910733870438,,,0.6153451465759925,3.617282568608919,inf,,0.8607696333324463
104,0.6770125502755525,-0.009026834003674034,0.0,0.7348081586398009,0.7083994228932493,0.5415035583626443,3.1168949001076376,5.23450275024066,,,0.6357360191111145,4.583191279269316,inf,,0.8462659778892562
105,0.20661424936299916,-0.0006887141645433306,0.0,0.9382704482920787,0.897517878723776,0.5437729338416196,2.393373416380344,1.9721364384443687,,,0.6284777104787076,5.910396724019201,inf,,0.8337618772881832
106,,0.0,0.0,0.6027218238029824,0.5721780302534989,0.532525216395699,3.5579232039486066,4.878976099267393,,,0.6468212168108125,inf,,,0.7976477607455263
107,0.0,0.0,0.0,1.078235494548482,1.0453116677040075,0.6772718137388897,3.4134775744565715,5.51873352275695,,,0.62595550513784,5.703782474656201,inf,,0.8087832483959678
108,0.0,0.0,0.0,1.0568894055857438,1.0422607802698343,0.6705656621768697,3.4580999175426,11.655649708401116,2.0761026404143212,,0.6468212168108125,3.624340932976365,2.0827804429453507,inf,0.6914962618297572
109,0.035616924621663826,-0.0024931847235164675,0.0,1.2109614262459898,1.0909635513402824,0.8103630461887671,3.7461622582432677,5.5158266810929355,1.9171720364109421,1.0952622017828277,0.6403206450210053,2.6846592483116343,1.9238498389419716,1.1019623755533916,0.676318880918017
110,0.12808364412000234,-0.007258073166800133,0.0,1.0187610308907524,0.9763326161895824,0.7316306993831626,3.1032534153344113,1.9403473083425866,2.776308185341713,,0.6284777104787076,2.924135388048974,2.782985987872742,inf,0.8159946633928532
111,0.0,0.0,0.0,0.8709144379978262,0.8281604664612261,0.6624618956725378,2.5576162301638186,2.104706401018657,,,0.6153451465759925,5.703782474656201,inf,,0.5810463535021556
112,0.24048053619941226,-0.006412814298650994,0.0,1.0221113218036049,0.9468775851205716,0.721818914157727,2.9532455766891177,4.026980255151962,,,0.6619902821573977,3.7703305605229294,inf,,0.7001498709199993
113,0.0,0.0,0.0,1.0612997800454245,0.9996318776016955,0.6991463135360252,2.941189417429909,3.732337797543043,,,0.6357360191111145,3.912023005428146,inf,,0.6784292120564163
114,0.0,0.0,0.0,0.8993398846549441,0.8613560480867289,0.7347862005663965,2.959213322363126,2.2280922467854545,,,0.6068309995095971,5.703782474656201,inf,,0.5514862044192481
115,0.0,0.0,0.0,0.875650314369021,0.7696347974062568,0.6671127514637611,2.902949142514929,4.196927514903972,,,0.6652988471865258,3.624340932976365,inf,,0.7577774984009557
116,0.21672430689847588,-0.008668972275939036,0.0,1.1421733879391769,1.1130026303849911,0.7550234688058723,3.603747851203274,8.504847273627586,,,0.6068309995095971,3.334473749619247,inf,,0.701190441685683
117,0.27176768456770073,-0.01902373791973905,0.0,1.2470613938529496,1.2031084634980413,0.8548333605134228,4.105966623944308,9.238765228445821,2.9923933722884763,,0.6602640781246099,2.70805020110221,2.999071174819506,inf,0.7142433111870574
118,0.0,0.0,0.0,0.9800791720437446,0.9583447983407183,0.7659867669189155,2.515830919895983,2.2279572783911945,,,0.62595550513784,5.0106352940962555,inf,,0.8477596285596184
119,0.0,0.0,0.0,0.8346969784531837,0.8017750647458585,0.6307438146633942,1.7264415587415252,0.7469158995054259,,,0.6528756675646988,5.0106352940962555,inf,,0.9531377373626556
120,,0.0,0.0,0.9332373599576581,0.9184562324672975,0.6669284012589477,1.77544557076688,0.5539256314568437,,,0.6425374456860184,inf,,,0.9154590417496825
121,1.6157273035375304,-0.010771515356916868,0.0,0.7525392138091507,0.7115565516651946,0.5425748122924618,1.9840646167375533,0.5432673199086546,,,0.6125606311107803,5.8781358618009785,inf,,0.8798693973483376
122,1.1061050515534552,-0.03318315154660365,0.0,0.7912440640898817,0.7683398883887517,0.6197218043817806,2.3903150361884524,0.7505422502745245,,,0.5915533975974677,4.058334124699067,inf,,0.6769997826311814
123,,0.0,0.0,0.8521961495212387,0.8091813962208586,0.6509061940895728,2.9946453871766434,8.12962567777421,,,0.6333676938231112,inf,,,0.6437990094736263
124,0.5458207220600084,-0.009097012034333475,0.0,0.9601300167160922,0.951140632501111,0.7616231317268727,3.1332695417034606,3.9017730225829355,,,0.6357360191111145,4.4302836076816545,inf,,0.8333481572127465
125,0.0,0.0,0.0,0.9838554273092571,0.9704546860694097,0.7672342258887128,2.724326306775265,3.1017427689651136,,,0.6125606311107803,5.703782474656201,inf,,0.8897051940310114
126,0.0,0.0,0.0,0.8057917376150744,0.7676607322775936,0.6574498454917481,1.8131596298871866,1.7858431226704714,,,0.6652988471865258,5.703782474656201,inf,,0.774365686864447
127,0.0,0.0,0.0,0.813447916645134,0.7343129726937035,0.6528651265993826,1.971395870555124,1.9935366310427103,,,0.6207552362147116,5.703782474656201,inf,,0.8056843717579596
128,,0.0,0.0,0.6757902165897266,0.666764041981947,0.7289198817539909,1.6509711507060558,1.7824943861780242,,,0.6380535849069913,inf,,,0.758761302307732
129,,0.0,0.0,0.7389673673409327,0.7143581413440518,0.7016053528223316,1.7160391916654256,1.7028183128274257,,,0.6584896970785714,inf,,,0.8205222186901383
130,,0.0,0.0,1.2858154402747728,1.270155388407641,0.8025427389893391,1.740626933469045,1.989933678865149,,,0.6097226960127671,inf,,,0.7141663982001758
131,,0.0,0.0,0.8304723258326812,0.7986354431145757,0.7861931110950429,1.647931911092699,1.9816570543283016,,,0.581717464821069,inf,,,0.77645181417344
132,,0.0,0.0,1.0423717216146886,1.01156852618568,0.7866747332706002,2.300185157469865,2.412142724629013,,,0.62595550513784,inf,,,0.8436104741504878
133,,0.0,0.0,0.9354619186813884,0.9271044843319503,0.7328658677012078,2.125920470900118,2.1993853779538046,,,0.6284777104787076,inf,,,0.7855399989887216
134,,0.0,0.0,1.3049621673814922,1.313759013374776,0.8186925938981978,2.0827753483142737,2.4002171310195934,,,0.6233814453054027,inf,,,0.716953701588282
135,,0.0,0.0,1.0583186192667777,1.040073793116878,0.6960274327550205,1.9025587030050248,2.2409902711330045,,,0.6403206450210053,inf,,,0.7494909984414676
136,,0.0,0.0,1.1915374149605973,1.1883970473740844,0.7470117618737283,2.1672252142602026,2.9681091208153068,,,0.6233814453054027,inf,,,0.7800384748920626
137,,0.0,0.0,1.105515451911975,1.0849632902005906,0.7258450839269501,2.002849932490989,2.0988216190898266,,,0.581717464821069,inf,,,0.7582229976594075
138,0.0,0.0,0.0,1.3716486607566716,1.3506501909537807,0.8664820933318673,2.2120723418305905,2.0243074361821622,,,0.6097226960127671,5.0106352940962555,inf,,0.8680496940915583
139,,0.0,0.0,1.1556478078621366,1.1224727899506495,0.7599103514238134,2.087117704115826,2.3025649544798967,,,0.6309483474627791,inf,,,0.8551038406182411
140,,0.0,0.0,1.0072253738064434,0.9751963284756097,0.7172415511740002,2.1254503170113517,1.5340284092137835,,,0.6097226960127671,inf,,,0.7893433741755156
141,0.0,0.0,0.0,1.1397810577936298,1.1339851646737211,0.8621825461118893,2.4756873118984393,3.406124375249697,,,0.6333676938231112,5.703782474656201,inf,,0.8337979369471737
142,,0.0,0.0,1.2047652966040363,1.163531946025934,0.8700129999426589,2.2437053974374987,2.4118450836793373,,,0.6097226960127671,inf,,,0.8312785356539373
143,,0.0,0.0,1.4714761107013477,1.462335905898878,0.8764076374231784,2.084429799905601,2.7944563128696935,,,0.6038851895711802,inf,,,0.7846080413244833
144,,0.0,0.0,0.6403421731123369,0.5905055920635394,0.7065623155846509,2.242396686062127,2.4392715012983377,,,0.6468212168108125,inf,,,0.8445569003655402
145,0.09240709191931173,-0.0015401181986551956,0.0,0.9918508021065865,0.9552848149491456,0.7226983592409525,2.332632310895193,1.7093574767148527,,,0.6547956803312163,4.171225606558059,inf,,0.6948731829707467
146,0.0,0.0,0.0,0.9033279948019285,0.8251318419025003,0.6741664096523521,3.598909724014854,8.317900329792463,,,0.6528756675646988,4.605170185988091,inf,,0.7721513374894562
147,,0.0,0.0,1.079625860626688,1.0647550134889674,0.8526627016483124,2.6035866364859386,2.044091992702039,,,0.6233814453054027,inf,,,0.694836830397509
148,,0.0,0.0,1.2456204214576012,1.1860981441511065,0.79488068047901,1.2233950396513977,1.315691766521826,,,0.6509067234006624,inf,,,0.7225980687038684
149,,0.0,0.0,0.968530276030252,0.9278350429023975,0.5608345722960582,1.749494828380119,1.6661047086898448,,,0.6509067234006624,inf,,,0.845925074687279
150,,0.0,0.0,0.8089442964252379,0.7828341667905886,0.615347294852972,2.1894842961386223,2.1177974364790284,,,0.6284777104787076,inf,,,0.7657139724820088
151,,0.0,0.0,0.6805466788173548,0.6601354021973932,0.6358836427916096,2.275992309611898,2.2465056444133893,,,0.6233814453054027,inf,,,0.8469697712011744
152,,0.0,0.0,0.8671719025456744,0.7749939962285394,0.7563692633220149,1.7633848854701824,1.665409501383905,,,0.5947193981915972,inf,,,0.8814774234754224
153,0.0,0.0,0.0,0.9431600476817658,0.8853214351448241,0.6781109758910634,2.2118351027316274,1.3515785836536311,,,0.6380535849069913,5.0106352940962555,inf,,0.888809396827286
154,0.0,0.0,0.0,1.1284355142116904,1.0370366291536854,0.7667342149391585,2.3825964525013057,2.2094019017801316,,,0.6153451465759925,5.0106352940962555,inf,,0.8755757352598982
155,0.0,0.0,0.0,1.539778085725161,1.4895620346100393,0.9328069473866952,2.380190110832398,2.4903993368927444,,,0.6008849035917525,5.703782474656201,inf,,0.8102181153806942
156,,0.0,0.0,1.0422176677912782,1.0101671168910606,0.8207116672185997,2.1082432629308836,1.8520662764224198,,,0.5915533975974677,inf,,,0.8378117920555358
157,,0.0,0.0,0.8365844829383429,0.8311072313644016,0.5780121080652172,2.0116290237270285,2.180601365411786,,,0.6309483474627791,inf,,,0.8548330837674698
158,,0.0,0.0,0.9380937966353764,0.9146446338300565,0.8857768084080208,2.198554904350521,2.8665435896548797,,,0.6380535849069913,inf,,,0.8646166899505313
159,,0.0,0.0,0.69472238924685,0.65415153313921,0.7260445760305346,2.2869010267728864,2.709505620650222,,,0.5947193981915972,inf,,,0.8804218165488439
160,,0.0,0.0,1.5097604930427238,1.5087773672609899,0.9609169751386377,2.4314250765895467,2.369017765783788,,,0.581717464821069,inf,,,0.8801738006782204
161,,0.0,0.0,1.0863707622793213,1.068319025585214,0.8431625955179697,2.2234713107158854,1.9196217072377246,,,0.5947193981915972,inf,,,0.8698804195704131
162,,0.0,0.0,1.3410624342152346,1.2908202411189535,0.8902508382841917,2.1040968464476286,2.3311034819809944,,,0.6125606311107803,inf,,,0.8665266841426457
163,,0.0,0.0,1.0780757325500734,1.0105493791412357,0.7670787147750251,1.7793142557970845,2.134284338378958,,,0.5915533975974677,inf,,,0.8383441943779757
164,,0.0,0.0,0.6954743214874844,0.6807773732892853,0.5939441655287414,2.0494782624207777,2.315283070436471,,,0.6008849035917525,inf,,,0.8817016614717492
165,,0.0,0.0,1.4554169664274808,1.4303063304965191,0.904150497130014,1.5026226097812694,1.9214151950213083,,,0.5947193981915972,inf,,,0.8162428238909009
166,,0.0,0.0,1.4647769661352397,1.4680609816704917,0.9100074271326152,1.737849569586238,2.459039510371748,,,0.585052858160615,inf,,,0.8428290105400467
167,,0.0,0.0,1.5573501627566495,1.5422401096157685,0.924285855007092,1.465767720880695,1.779869277432799,,,0.5604843169999094,inf,,,0.811487794452275
168,,0.0,0.0,0.44064095540144155,0.4162629529228666,0.5913314835453704,1.7248120317074143,2.0760300947520856,,,0.581717464821069,inf,,,0.7729387427041358
169,,0.0,0.0,1.3661021438179288,1.3450699861862618,0.8785909719149555,1.619644368622528,1.592025998770294,,,0.62595550513784,inf,,,0.8204189240054841
170,,0.0,0.0,0.6826118505763108,0.6716760741384908,0.7343616820885953,1.979200430862335,2.1817027947846626,,,0.5783247308855777,inf,,,0.7289703790456122
171,,0.0,0.0,0.9856358098859282,0.9843409803615045,0.7157627543390944,1.8330426017625923,2.125289745159525,,,0.6447042257417027,inf,,,0.8255150479490302
172,,0.0,0.0,1.0742845915487471,1.0140427563624967,0.7704687971400322,1.6961764020508574,1.8445841057359167,,,0.5783247308855777,inf,,,0.818851433315518
173,,0.0,0.0,1.429276005066665,1.3916503171905905,0.8878010591914606,2.1755002714401903,1.9117602473867272,,,0.6097226960127671,inf,,,0.813087642215809
174,0.0,0.0,0.0,1.2601771894298512,1.2313061314185154,0.866380560534527,2.035053201628302,1.5845416560182661,,,0.6380535849069913,5.703782474656201,inf,,0.8653138201294642
175,,0.0,0.0,1.2946371100449048,1.2768679880401252,0.8327835290257813,1.2658120239609942,1.4281072476898433,,,0.585052858160615,inf,,,0.7988611422557984
176,,0.0,0.0,1.1562437507663876,1.1313886829562116,0.7440462308675813,1.0496795543724196,1.145167239280384,,,0.663668482632973,inf,,,0.7076562178280812
177,,0.0,0.0,0.8842471967005269,0.8699726871552409,0.6852515340641118,1.1363353582667812,1.2916387929972695,,,0.6547956803312163,inf,,,0.7552892611979207
178,,0.0,0.0,0.6294558385841366,0.6110840439332592,0.5415554810268559,1.035291077910004,1.0383158615109853,,,0.6180765742263259,inf,,,0.8849167014210788
179,,0.0,0.0,0.6966997170744612,0.6714580966103129,0.7204653725169181,1.4220316177592065,1.5913811873893857,,,0.648888643467878,inf,,,0.9007941321223408
180,0.0,0.0,0.0,0.5152838390982888,0.477208475812583,0.5259951046664765,1.193193599623603,1.1253708076440314,,,0.6038851895711802,5.703782474656201,inf,,0.8398251126343088
181,,0.0,0.0,0.6443186397881725,0.6037602172787383,0.6147985664714959,1.3284487659138846,1.3918380300149946,,,0.6008849035917525,inf,,,0.8427465638372056
182,,0.0,0.0,0.8950588575999211,0.8357509678823484,0.6615261159146706,1.7003104084641336,1.689701461452105,,,0.6403206450210053,inf,,,0.8708474684400719
183,,0.0,0.0,1.1157265237296876,1.0693849171093741,0.7615329784195635,2.1799708192160776,2.568820625292149,,,0.6447042257417027,inf,,,0.7500137976258003
184,,0.0,0.0,1.594331286233212,1.5720904500267567,0.9015421221938374,2.1813283807798967,3.3045002084842245,,,0.6309483474627791,inf,,,0.7610244362141476
185,,0.0,0.0,0.4871189053717417,0.44216848841796463,0.6741815974794919,2.308673565888611,2.522064848181121,,,0.6468212168108125,inf,,,0.8353087788236381
186,,0.0,0.0,1.2771982284422803,1.2720109537081625,0.8283421368738092,2.265477679799578,3.187512264280252,,,0.6380535849069913,inf,,,0.7376144509384541
187,,0.0,0.0,0.9706294520876125,0.92314378150595,0.7237839747308358,2.1491341292660673,2.1738626953956377,,,0.6008849035917525,inf,,,0.7135184492432949
188,,0.0,0.0,0.9870649834487539,0.9694553041386845,0.7963334935967976,2.7694194999902573,2.4721928158341213,,,0.5783247308855777,inf,,,0.7849130905492906
189,,0.0,0.0,1.6216957560952272,1.60326894679527,0.9402868061138578,2.178664793697714,2.9841348362635016,,,0.6125606311107803,inf,,,0.8221344429241454
190,,0.0,0.0,1.658131553419215,1.6449501347069782,0.9461094218053243,1.7380595270471337,2.1276477326924885,,,0.6038851895711802,inf,,,0.7554203243428901
191,,0.0,0.0,1.535175339232444,1.4918928866580627,0.9145940361941197,1.894171252738695,2.201594304875009,,,0.5978297680564633,inf,,,0.8193673246710635
192,,0.0,0.0,1.5833646965816464,1.5531360397228766,0.9212131837705831,1.6229431932367533,1.8298181843041836,,,0.6357360191111145,inf,,,0.7934872356799707
193,,0.0,0.0,1.342488441897317,1.341871319712376,0.8713561452623452,1.5806015454383964,1.708444406323021,,,0.6180765742263259,inf,,,0.8355375871214338
194,,0.0,0.0,1.2467933408939882,1.2226378131015423,0.8144392066700741,1.2876115848969834,1.3812008158761644,,,0.6380535849069913,inf,,,0.7686835963777717
195,0.0,0.0,0.0,0.7176622598775604,0.6473568148980454,0.7126681950626903,1.720784209274429,1.6372628124005266,,,0.648888643467878,5.703782474656201,inf,,0.8682389800323241
196,,0.0,0.0,1.39752530470081,1.3450106899667098,0.869727184811071,2.1797183832314095,1.943957367017409,,,0.6309483474627791,inf,,,0.7568400662508339
197,,0.0,0.0,1.6282153847602931,1.5912931383886817,0.9534679142875611,2.5029265252675486,4.146284982796146,,,0.6284777104787076,inf,,,0.8689768949928722
198,,0.0,0.0,1.069328876383242,1.022808720691197,0.8355292252533318,1.9458725439624336,1.7757593123425053,,,0.6380535849069913,inf,,,0.8189624558974308
199,,0.0,0.0,1.1193510795026782,1.045670264354712,0.7874419267419148,1.851380783496618,1.7573737354996852,,,0.6008849035917525,inf,,,0.8237377436532847
200,0.0,0.0,0.0,0.7003837580363305,0.6509035195618181,0.6024595752453862,2.2440105367937235,2.1977205455956375,,,0.5883313578629602,5.703782474656201,inf,,0.8743340324766441
201,0.0,0.0,0.0,1.0438497058503566,1.0318523648238414,0.7512063055546635,1.5339713052412314,1.5496605471447062,,,0.6357360191111145,5.703782474656201,inf,,0.8056440232387246
202,,0.0,0.0,0.8439965523513471,0.808702158293485,0.5993722546994182,2.100936807113417,1.8214226485076939,,,0.5883313578629602,inf,,,0.869639913961321
203,,0.0,0.0,0.966392440640551,0.9399729519732397,0.8245781926079364,1.9825813754551758,2.4509826833448454,,,0.581717464821069,inf,,,0.8261548480036482
204,,0.0,0.0,0.933699574062586,0.8920120570958855,0.6883113576776806,1.3393060994286694,1.5553290129200281,,,0.6207552362147116,inf,,,0.737405193817918
205,,0.0,0.0,0.47646406909272737,0.4016222840963571,0.654047851176258,1.38884283516,1.488538097227879,,,0.6740851607140061,inf,,,0.8598207201530315
206,,0.0,0.0,1.2963182031138385,1.29471279207637,0.8608839642559093,1.6022333813329042,1.8782785599001943,,,0.6380535849069913,inf,,,0.8343501531405866
207,0.0,0.0,0.0,0.6998669479247839,0.672000767549596,0.5125818867636031,2.1128947157163966,1.635142328272564,,,0.6447042257417027,4.605170185988091,inf,,0.722509311692659
208,0.11950895023574995,-0.0015934526698099993,0.0,1.4056002842847102,1.3613927728456752,0.8398906069557688,3.0417632919948985,3.9901774737672753,,,0.6153451465759925,4.417308448818521,inf,,0.8602442225140611
209,0.0,0.0,0.0,1.1272309569319132,1.0837109469864152,0.7333766086989909,2.340639967022107,1.4750508480554752,,,0.6125606311107803,4.605170185988091,inf,,0.7317513226184109
210,0.0,0.0,0.0,0.9108134133286092,0.8784827947636659,0.6934648054233669,1.8663768827105394,1.2743789908289422,,,0.6097226960127671,5.703782474656201,inf,,0.9194580781182496
211,0.0,0.0,0.0,0.6985385021377136,0.6394882958278995,0.5845738437135749,2.0179332182528005,1.5720129430176861,,,0.6380535849069913,5.703782474656201,inf,,0.7085308006263067
212,,0.0,0.0,0.6766360553068431,0.6130047750723749,0.5726725669833326,1.2313737926865533,0.8229751927936881,,,0.6284777104787076,inf,,,0.9417346760106546
213,0.0,0.0,0.0,0.6298559260961815,0.5617537516794101,0.5296973876259297,1.9904227468202238,1.6862364848314597,,,0.6584896970785714,4.605170185988091,inf,,0.9436149223477251
214,0.9712911794813193,-0.006475274529875462,0.0,1.1834108716542455,1.1573765214176812,0.7454027973455168,2.4659893013980434,1.9928237981450931,,,0.6547956803312163,5.569834502146462,inf,,0.8726074757400121
215,0.0,0.0,0.0,0.8432830420545275,0.8266358137699025,0.4607032417747599,2.741714595161928,2.6658856154389134,,,0.6447042257417027,4.605170185988091,inf,,0.6772635758434096
216,0.0,0.0,0.0,1.187080788843999,1.1192149689589015,0.7473473682028344,2.681941958753267,1.7254848985327773,,,0.6333676938231112,5.703782474656201,inf,,0.8748232180881853
217,,0.0,0.0,1.0077131712244172,1.0104451735674713,0.69739562935488,1.8912780481414446,1.8567315915929044,,,0.6447042257417027,inf,,,0.8974295782609921
218,,0.0,0.0,0.5706020679542696,0.5527949462806647,0.6527855292029032,1.8425185259675998,1.5406372603771246,,,0.6380535849069913,inf,,,0.9172806351871784
219,,0.0,0.0,0.80609733889518,0.7631303244165254,0.5894459544283448,2.0561874278315364,1.6325157789801037,,,0.6233814453054027,inf,,,0.728483879330335
220,,0.0,0.0,0.7754697627556405,0.7320334588437574,0.6044363516027109,1.328224552612795,1.484442195046786,,,0.6403206450210053,inf,,,0.8016671360186127
221,,0.0,0.0,0.591136540695617,0.5166037193725223,0.6359832597711218,1.4039098611180107,1.1973756110314695,,,0.6425374456860184,inf,,,0.8732847580835635
222,0.0,0.0,0.0,0.8796534410439608,0.8513800723840149,0.5449853014084853,1.9902893408450533,2.395016353654925,,,0.648888643467878,5.0106352940962555,inf,,0.759565187525761
223,0.27006047110196146,-0.0009002015703398716,0.0,0.6961011063080146,0.6783816764126522,0.6295272153491227,2.001652091252696,1.579173320605309,,,0.6468212168108125,5.973842945758163,inf,,0.9183623994624789
224,0.0,0.0,0.0,0.6743530927698704,0.5978293783219865,0.550592617840055,1.6467811940836332,1.6075991548907176,,,0.62595550513784,5.703782474656201,inf,,0.9114673070588927
225,0.0,0.0,0.0,0.9518302462973774,0.9250118221787474,0.7069625036298839,3.187348918027144,2.1869549015032326,1.6060990111685858,,0.6566669596287297,4.0943445622221,1.612776813699615,inf,0.6537262989487082
226,0.02634012891445657,-0.0003512017188594209,0.0,1.0520697958335719,1.0353361240034458,0.789908646261528,2.9746330755640824,3.583272364812362,,,0.6528756675646988,4.3428059215206005,inf,,0.7003338353054579
227,0.0,0.0,0.0,1.0921027429589467,1.0799547583464193,0.6726685379391504,3.8443030561686435,4.426839464608856,2.0761026404143212,,0.6233814453054027,3.624340932976365,2.0827804429453507,inf,0.7218845243457657
228,0.2894456728246166,-0.004824094547076943,0.0,0.752468922689247,0.6634960329731983,0.5976970829658121,1.9049848956449456,1.2180633324278614,,,0.6528756675646988,4.348806796793737,inf,,0.8461719742272723
229,0.863497622707262,-0.014391627045121034,0.0,0.963714889925839,0.9429398277921184,0.6269472366196308,2.56486065251567,1.44141285573629,,,0.6468212168108125,4.314160323443636,inf,,0.7190882465564201
230,0.0,0.0,0.0,1.0075976746909479,0.9981309946962807,0.5917193192331379,2.9343669804957027,4.055912327975559,,,0.6528756675646988,4.605170185988091,inf,,0.6543650181077869
231,0.0,0.0,0.0,0.5279965236925531,0.4673461863509307,0.5535104498399945,2.049639810564777,2.0048592117285935,,,0.6153451465759925,5.703782474656201,inf,,0.5488788554707862
232,,0.0,0.0,1.008414236024383,0.9987176321346922,0.7486243817802692,2.3778254687729636,2.1582718571900554,,,0.62595550513784,inf,,,0.9240228194274906
233,,0.0,0.0,0.6945452566449963,0.655093028151748,0.654837815916642,2.5221411344560285,3.4303059637487787,,,0.648888643467878,inf,,,0.7172102804770022
234,0.0,0.0,0.0,0.9632012293936604,0.9536760220876135,0.5698140407649425,2.492594385565373,2.828205852296874,,,0.6008849035917525,5.703782474656201,inf,,0.7918087964233442
235,0.0,0.0,0.0,0.9553243593804321,0.9007246835567947,0.6223847445039087,2.815050509360591,2.5533388868082336,,,0.6357360191111145,5.0106352940962555,inf,,0.6048198561868452
236,0.05146579134424717,-0.0006862105512566289,0.0,0.8601162007455443,0.8081330330762602,0.7332337778891023,2.1696787141436302,1.8075454493848073,,,0.6233814453054027,4.365278777372659,inf,,0.8244424418257682
237,0.06042833119723452,-0.0016114221652595872,0.0,1.0212556490888445,0.9400897949593923,0.6863707409316039,2.656198382059509,3.2611183104781545,,,0.6097226960127671,3.673443645984097,inf,,0.8181320422439633
238,0.0,0.0,0.0,1.1278203806252871,1.1268437721043854,0.8380472160598348,4.165798833041153,20.24625092368775,,,0.5915533975974677,3.506557897319982,inf,,0.6489932842186157
239,0.0,0.0,0.0,0.9325625397848456,0.9057810191658345,0.7543508506085224,3.284099814290621,1.9013208261751133,,,0.6547956803312163,4.31748811353631,inf,,0.7251735458396601
240,0.0,0.0,0.0,0.7151816802806998,0.6823802243566021,0.6145649336339268,2.9779587648226302,2.25110675336421,,,0.6528756675646988,5.0106352940962555,inf,,0.7142205729652107
241,0.0008347253163786497,-2.2259341770097325e-05,0.0,0.8726178910385638,0.8758053698041476,0.6540953615157112,3.4459597617563356,5.56713545877235,,,0.6357360191111145,3.6251746137249428,inf,,0.7017716253743559
242,0.1774574644473954,-0.00591524881491318,0.0,0.789946867660946,0.7529841038445964,0.6850424288130267,3.4625470302247336,2.546983207596548,3.471034291315413,,0.6284777104787076,3.511012247669362,2.196109128252354,inf,0.5642162404528611
243,0.0076148018711771435,-0.00010153069161569524,0.0,1.0310203837524121,1.018598358811525,0.7530257117878421,3.3344568039420315,3.1604515396463446,,,0.6668815377411301,4.325016379957102,inf,,0.7628590165248448
244,0.29279574537573627,-0.003903943271676484,0.0,1.2179748724597668,1.1895378950554447,0.7343078068233017,3.1075087621678166,3.3396903019965554,,,0.6528756675646988,4.50683428526723,1.2002870906544862,inf,0.7715531832501151
245,0.0,0.0,0.0,1.1381854808273117,1.1317221611044674,0.7584632769693157,2.8411869511872565,2.9614272128934545,,,0.6447042257417027,4.605170185988091,inf,,0.8178057103194449
246,,0.0,0.0,0.9307888077054389,0.8527193922202584,0.7354462309340463,2.849887087736901,1.941146194283394,,,0.68318204999448,inf,,,0.613505591571473
247,,0.0,0.0,0.7158482809935567,0.6775461224674861,0.5465695338417825,2.8533700115008367,2.9468200746293354,,,0.6547956803312163,inf,,,0.7921048246282336
248,0.0,0.0,0.0,0.9949716950976304,0.9693514601925663,0.6598027750446659,2.997423195436709,3.6255348183607716,,,0.648888643467878,4.0943445622221,inf,,0.9098867844029335
249,0.0,0.0,0.0,0.42705632722306774,0.4020564420291293,0.5454311539743525,2.696716665029187,1.768484878715487,,,0.6602640781246099,5.0106352940962555,inf,,0.6580040616151933
250,0.0,0.0,0.0,0.7898067469052978,0.7813874424047587,0.6355489071904346,3.041481392027216,3.798559939061283,,,0.6125606311107803,5.0106352940962555,inf,,0.8527927563036118
251,,0.0,0.0,1.216243502807031,1.1535290669200489,0.743931201851759,3.1258281138222714,3.25564356448187,,,0.6207552362147116,inf,,,0.910250326116917
252,0.44793986730701374,-0.005972531564093516,0.0,1.012203559243228,0.9720771194853022,0.6547377549598032,3.485077793228679,2.0109753517466844,,,0.6468212168108125,4.551102964717815,inf,,0.7271447916252004
253,0.0,0.0,0.0,0.5976899760343799,0.5613920693841922,0.5383356987275326,3.3123423711747226,2.955274316688471,,,0.6584896970785714,5.703782474656201,inf,,0.8416374318415896
254,,0.0,0.0,0.8865343083623084,0.8529631621901832,0.6374433118206247,2.577984914133407,2.207500121146058,,,0.6547956803312163,inf,,,0.8631133372301562
255,0.0,0.0,0.0,0.8523897368931332,0.8339311682680927,0.671619732629821,2.7413650582368896,1.2736194887532117,,,0.6652988471865258,5.703782474656201,inf,,0.8154091745973736
256,0.0,0.0,0.0,0.7434763102408929,0.7171852047233167,0.6183870708717245,4.134517736442836,2.6756457861797074,,,0.6403206450210053,3.757872325600888,inf,,0.7189626922957706
257,0.0,0.0,0.0,0.6544204193538424,0.6151971941052375,0.5327804221153145,2.962363074284796,2.2105869948040415,,,0.6509067234006624,5.0106352940962555,inf,,0.6917145754296642
258,0.0,0.0,0.0,0.7700856632834988,0.7494688946918721,0.5997921679837607,3.3306296949510834,3.869666725149398,,,0.6380535849069913,5.0106352940962555,inf,,0.8153589842467515
259,0.0,0.0,0.0,0.8259252178765853,0.7746610220698331,0.7132832338669877,3.218181488502306,1.948777245734377,,,0.6153451465759925,5.703782474656201,inf,,0.7687249049272552
260,0.0,0.0,0.0,0.642137471481433,0.6343964356330625,0.6322009179855486,3.4464518704245948,6.154954660261913,,,0.6547956803312163,5.703782474656201,inf,,0.49375699926252903
261,,0.0,0.0,0.9642816964867663,0.8986437041362374,0.6154657309960861,3.0175468530210936,3.8786744231616233,,,0.663668482632973,inf,,,0.895939889323979
262,0.0,0.0,0.0,0.788624422806222,0.7500314191524248,0.7288492781130271,2.759308460950226,1.9131501538239561,,,0.6447042257417027,5.0106352940962555,inf,,0.7240351185699081
263,0.1016999561076249,-0.002372998975844581,0.0,0.9374009614491096,0.9417761700827373,0.6956576130884604,3.309593985074397,4.013704459930245,,,0.6509067234006624,3.8448837025905176,inf,,0.764431551171679
264,0.0,0.0,0.0,1.1065887058037098,1.0959262123129216,0.7163174780084958,3.0668468752934346,2.9789885375061123,,,0.6447042257417027,4.605170185988091,inf,,0.8428092776331775
265,0.20066135574452007,-0.0002775675425123027,-0.007080015501453433,0.9459569022819329,0.8897369367222617,0.6989743160962315,2.968181149458599,1.9017477092850879,,,0.6403206450210053,3.3975374208306683,4.426508590025624,inf,0.7861787081070126
266,0.002401016902340184,-5.602372772127096e-05,0.0,0.876171742698677,0.8027280906865746,0.60750661111175,3.178868012180517,3.3263252635454634,,,0.6740851607140061,3.760256116956164,inf,,0.6493906069013948
267,0.40132426810864535,-0.004013242681086454,0.0,0.7694793881808814,0.7587632731762995,0.7079767137982568,3.0610296496940053,1.4540538170299118,,,0.6447042257417027,4.870873351721097,inf,,0.8024175820028859
268,0.1432523013831725,-0.003820061370217933,0.0,0.5534922464490818,0.508439599156217,0.5921141628985734,2.9877503411604533,1.6775018318021901,,,0.6619902821573977,3.7168217857705304,inf,,0.6638810447551758
269,0.002244745257502163,-6.734235772506488e-05,0.0,1.1262587045384587,1.0751337951206705,0.8363716231180157,3.65922243784806,4.734221261642265,,,0.6602640781246099,3.5087825923420928,inf,,0.7643288986012919
270,0.0,0.0,0.0,0.8098435482093167,0.7773568983619267,0.6809940504392245,3.0615819432764573,2.3969892766471905,,,0.62595550513784,5.703782474656201,inf,,0.6376021036402388
271,0.0,0.0,0.0,1.0694290495864072,1.0558635453058318,0.5885818147689977,2.1745859346058953,1.6637111644261373,0.6898082792944307,,0.6357360191111145,5.0106352940962555,0.6964860818254599,inf,0.7017712639058832
272,0.041612051909416116,-0.0005548273587922148,0.0,1.148175275647471,1.055796219018602,0.679983348492057,2.7743696703988383,2.0795071124011146,,,0.6684167106117298,4.3565755022443575,inf,,0.9154383116057674
273,,0.0,0.0,0.6438052824810544,0.5966744258601073,0.6458098720758417,2.8414033328285906,2.8277117915646146,,,0.648888643467878,inf,,,0.943892969611193
274,0.05842728456023223,-0.0009737880760038705,0.0,0.92019024750585,0.8963273758090347,0.6625019266073493,2.9810740461003804,2.6576416074371845,,,0.6509067234006624,4.146339857340481,inf,,0.8971520731881066
275,0.0,0.0,0.0,1.2286985496901905,1.198149305076395,0.7189883528726578,2.6212890974441945,1.725389414637442,,,0.6778444222523095,5.703782474656201,inf,,0.9132956144748899
276,0.3055715850883355,-0.0050928597514722585,0.0,0.9693334734157893,0.9171455552178481,0.6713785671570148,2.364760194582568,1.6486436437455367,,,0.6447042257417027,4.33344813311504,inf,,0.8726346318223291
277,0.0,0.0,0.0,0.892011266239613,0.8598981653132799,0.7061462474381925,2.7922057973148506,3.1287682361220917,,,0.6403206450210053,5.703782474656201,inf,,0.5754496791071572
278,0.2498483092108725,-0.00499696618421745,0.0,1.073813438590253,0.9873084967108412,0.74377463299903,3.4858825693613236,4.602451807135946,,,0.6125606311107803,4.050646706956381,inf,,0.6401477519515606
279,0.0,0.0,0.0,0.8557857940661742,0.8356567999103172,0.7518110292490549,3.2279880361218307,4.313297041921503,,,0.6447042257417027,4.605170185988091,inf,,0.7548341736589785
280,0.0,0.0,0.0,0.6959581425473336,0.6759498959538648,0.6469768990626121,3.6118214014438297,7.283577554461076,,,0.6309483474627791,4.605170185988091,inf,,0.670605039692682
281,0.54435548751001,-0.007258073166800133,0.0,0.897708937978034,0.8657595904190409,0.7873362519373714,2.824834337178056,2.0092502578136933,,,0.6333676938231112,4.56808851108356,inf,,0.6751907111351886
282,1.305234936381673,-0.008701566242544487,0.0,0.823512378445515,0.8060652539124862,0.676668913436808,3.1828505180373705,3.252352797088405,,,0.6468212168108125,5.801762883016405,inf,,0.8303212926174113
283,0.0,0.0,0.0,0.8932869410070423,0.8476827369304013,0.633834098733429,2.978883983388635,3.3071753042197796,,,0.6740851607140061,5.703782474656201,inf,,0.7619801784561877
284,,0.0,0.0,0.8189717004401497,0.7913162855808215,0.39190241644970286,2.4747001028675344,1.940654229481241,,,0.6038851895711802,inf,,,0.767812710279763
285,0.0,0.0,0.0,1.2106078578008683,1.1745645761918633,0.7506917615605493,2.669179981232184,1.9563278873025518,,,0.6547956803312163,5.703782474656201,inf,,0.854602051797905
286,,0.0,0.0,0.7974399405830561,0.760257491744132,0.48470896551967385,2.4916623818015853,2.74175792635775,,,0.6068309995095971,inf,,,0.9333586497672444
287,0.0,0.0,0.0,0.9789663374700196,0.9533795183010406,0.6811658569247054,2.8363215679317477,3.096197985095791,,,0.6468212168108125,4.31748811353631,inf,,0.8530064959784717
288,0.0,0.0,0.0,1.2825109640035388,1.2516158386716651,0.8137558146535093,3.531580850767607,2.6663457623263693,,,0.6584896970785714,5.703782474656201,inf,,0.9252876692592773
289,0.0,0.0,0.0,0.6476237088265469,0.6173406777413828,0.5948929154007888,3.13774271840839,3.242647515923405,,,0.6566669596287297,5.0106352940962555,inf,,0.9452942645184403
290,0.0,0.0,0.0,0.8906554188543083,0.8615753403164288,0.6546581936271153,3.3471348637683183,2.5095540416946647,,,0.6357360191111145,5.0106352940962555,inf,,0.8220954845821525
291,0.0,0.0,0.0,0.7738755001712233,0.7575975366790165,0.5224311409939152,2.7605274837767495,3.38851819722146,,,0.6333676938231112,5.703782474656201,inf,,0.7247571191589962
292,0.0,0.0,0.0,1.0974008652605867,1.051424197022259,0.7206075085333911,3.199367917037183,7.338360042633257,,,0.6566669596287297,3.912023005428146,inf,,0.727574606253404
293,0.0,0.0,0.0,0.8442386965328336,0.8090981529134488,0.7366068102867519,3.233942387112694,2.8568275836811377,,,0.6125606311107803,4.605170185988091,inf,,0.775342809845151
294,0.0,0.0,0.0,1.0479310282779803,0.9862103781277112,0.6748204712257252,2.3855431929781927,2.206436791398108,,,0.6068309995095971,5.703782474656201,inf,,0.8319337957373559
295,,0.0,0.0,1.4480662323868978,1.4166171776171692,0.857264546360193,3.167285970365954,2.2008980599893277,,,0.6068309995095971,inf,,,0.9497193623690602
296,0.647536669307893,-0.0021584555643596433,0.0,1.2179002682760263,1.1949746047518037,0.8125446917035538,2.99372577582443,2.2343859500199246,,,0.5883313578629602,6.351319143964094,inf,,0.9500304915008202
297,0.0,0.0,0.0,1.130552498956345,1.108040313651325,0.7710002044004489,3.325017900013653,2.8791250220435396,,,0.648888643467878,5.703782474656201,inf,,0.8143072981356865
298,,0.0,0.0,0.7476772054402088,0.597005803780424,0.40825518014091305,0.4087059590094022,0.10569610768434656,,,0.6403206450210053,inf,,,0.8354403722942718
299,0.07616136096556403,-0.0002538712032185468,0.0,0.4143809600846443,0.19240521787311315,0.2521439399927363,0.21684810709092445,0.12225130598507908,,,0.6068309995095971,5.779943835621765,inf,,0.6985581833700826
300,0.6261758215672832,-0.02573883461578841,-0.0013954509854605282,0.8061769979578604,0.7717374787826579,0.6714725318620404,2.9420924570751015,3.1004324884179657,,,0.6547956803312163,3.400864103872035,2.7234971167023785,inf,0.5182956193486131
301,0.13474912518317173,-0.0017966550024422897,0.0,1.267046875651009,1.207493597753709,0.7586551960741307,3.268594953798229,3.512176244282241,,,0.6509067234006624,4.427489008750639,inf,,0.9093254544784817
302,0.04560862777018985,-0.0013682588331056956,0.0,1.112559578907297,1.0944942533700739,0.8588103801609721,4.175258624861189,9.205200466004479,,,0.6333676938231112,3.544682914670912,inf,,0.5342313712904492
303,0.0,0.0,0.0,1.1149380040567571,1.0742962499187043,0.8149138417668393,4.095740221519524,9.645221602065751,,,0.648888643467878,3.4011973816621555,inf,,0.6090745630527714
304,0.2717001550217379,-0.008151004650652136,0.0,1.1763677420525223,1.1672585161011582,0.7429140274859405,3.492400260697717,17.833007709761514,,,0.6528756675646988,3.6651629274966204,inf,,0.8819248945225372
305,0.0,0.0,0.0,1.2009257721485211,1.2151589637715237,0.7844542355334014,3.6855300089269396,8.511649240910675,,,0.6180765742263259,5.703782474656201,inf,,0.8848118207584048
306,0.31252351302785103,-0.0062504702605570206,0.0,1.2307043546398224,1.190935528151766,0.7352406170784315,3.1432258300613998,2.69371393444348,,,0.6333676938231112,4.064138720165035,inf,,0.8334313523839445
307,0.0,0.0,0.0,1.1195829537968958,1.0143049438419878,0.6952991788679026,3.063030134013836,1.7980575509964134,,,0.6528756675646988,3.757872325600888,inf,,0.7842585162428922
308,0.02256745293163427,-0.0007522484310544757,0.0,1.163583901812745,1.1489094897275391,0.7690296218512915,4.072588634415917,4.729907005249037,,,0.6333676938231112,3.421740282893485,inf,,0.8070512138395
309,0.0,0.0,0.0,0.5820967391412382,0.5518178183316444,0.673209104918895,3.5083759160952486,4.549842996410872,,,0.6699045166045591,3.757872325600888,inf,,0.8284768453724722
310,0.0,0.0,0.0,1.0903158207391455,0.9961780264710501,0.6527056904790782,1.759423701846818,0.2793445208119971,,,0.6652988471865258,4.0943445622221,inf,,0.9289247794092313
311,,0.0,0.0,1.3726401763142126,1.3506614528878411,0.8198786795744137,0.1435619439312894,0.16878468221395226,,,0.6333676938231112,inf,,,0.938577591682846
312,,0.0,0.0,1.4966255636534656,1.4847017391199286,0.8042570924163818,0.17896196423993488,0.20256438805974422,,,0.6584896970785714,inf,,,0.9517318761947822
313,0.0,0.0,0.0,0.7386937427238915,0.6649714304750893,0.5944523898857399,2.2401052833169874,1.3690552688986584,,,0.62595550513784,5.703782474656201,inf,,0.919967253426427
314,0.0,0.0,0.0,1.0974598008194867,1.0651546793497455,0.6955238072672655,2.741529343646443,2.9474921940945387,,,0.6333676938231112,5.0106352940962555,inf,,0.7607831803805285
315,0.0,0.0,0.0,1.0790801522089981,1.055021971705252,0.7781381961533556,4.295323570383935,7.896705177930611,,,0.6284777104787076,3.757872325600888,inf,,0.6435351343266541
316,0.002237170055356777,-4.474340110713554e-05,0.0,1.276660500769619,1.2535565824148314,0.8244163480357776,3.209272884582657,2.2161482113371935,,,0.6068309995095971,3.9142477004502574,inf,,0.8227770973596759
317,,0.0,0.0,0.6835380979525886,0.6255509459364328,0.5168118778815952,1.91997470594392,1.3458443705895742,,,0.6333676938231112,inf,,,0.8502739855932233
318,0.0,0.0,0.0,0.9578434382028692,0.9367056935070396,0.8212639632548492,2.252588718274848,1.057836035101198,,,0.6403206450210053,5.703782474656201,inf,,0.6617603984396839
319,3.0647251450409425,-0.010215750483469808,0.0,0.8303831246841996,0.8083371362324898,0.6101469770371448,1.0576156453198078,0.24237166497710128,,,0.6447042257417027,8.768507619697143,inf,,0.9471023857107912
320,0.6000373247806742,-0.010000622079677904,0.0,1.1218979771052362,1.0258844451693412,0.726775731489658,3.1173680729200064,2.8548513050895217,,,0.675384900321601,4.449116556014747,inf,,0.7056548589246633
321,0.9355887246804558,-0.009355887246804558,0.0,0.5991765335406545,0.5609413056970612,0.5311632368163969,3.0457615990165086,3.1387457198667694,,,0.6547956803312163,5.219300826229812,inf,,0.623083797977513
322,,0.0,0.0,0.9875358069703156,0.8208711640859798,0.5865060317725838,3.338370962734657,7.921877902004081,,,0.6068309995095971,inf,,,0.6435202674056846
323,0.0,0.0,0.0,1.16785898781605,1.135505323767376,0.7590201007541405,3.616465543408621,2.820759674504551,,,0.663668482632973,3.506557897319982,inf,,0.7120243033098402
324,0.0,0.0,0.0,0.8772390717561694,0.8625315267291375,0.7878069217769288,3.3367213076388005,6.433055384884339,,,0.6333676938231112,4.0943445622221,inf,,0.6553598334411773
325,0.5016510544318924,-0.0033443403628792825,0.0,0.885291039066899,0.8573644282657596,0.7027975616390103,2.689743932383743,2.4154196415472398,,,0.6668815377411301,5.391407789614049,inf,,0.6715945457147618
326,,0.0,0.0,1.2502766960368148,1.2320596303199596,0.7971928495877654,3.225181572812863,2.4265901585749097,,,0.6284777104787076,inf,,,0.9523352678022199
327,0.0,0.0,0.0,1.0709081004980008,1.044136315698539,0.826843643724745,3.612826266818683,2.9095853595968477,,,0.684994737851132,5.703782474656201,inf,,0.9523240338199233
328,0.0,0.0,0.0,0.9608324394489468,0.8600264817464273,0.714057348934464,3.654694890287306,3.4584063505072744,,,0.6125606311107803,5.0106352940962555,inf,,0.6200889411455431
329,,0.0,0.0,0.9085132623389769,0.889918274818552,0.6806869399144515,2.8979939995603385,1.8157280700803216,,,0.6468212168108125,inf,,,0.7103891658553453
330,0.0,0.0,0.0,0.920516310587296,0.8932769341712932,0.7073692714134261,2.790927945352019,3.479337582350773,,,0.6602640781246099,4.31748811353631,inf,,0.6742641897903842
331,0.0,0.0,0.0,0.94509539440883,0.9040021940520863,0.7179047872422004,3.278167496814481,2.330896254976784,,,0.6547956803312163,4.0943445622221,inf,,0.5700880293141124
332,0.1697325357525712,-0.00622352631092761,0.0,1.1438578973869802,1.141608085092441,0.8152994089527796,3.751644619994808,6.97249773647464,,,0.648888643467878,3.386965799415431,inf,,0.5518544376203292
333,0.0,0.0,0.0,1.0389499670346982,1.0148105975231723,0.7720118890207043,3.8946849776752575,3.6628443301976503,,,0.6528756675646988,2.870569130599985,inf,,0.6008888092265033
334,0.027031007207210963,-0.0013515503603605482,0.0,1.2140921584624558,1.1973966881906986,0.789773976914499,4.082824231297874,9.571289914869666,,,0.663668482632973,3.0182051294060495,inf,,0.7041880573847582
335,2.158112932244752,-0.02158112932244752,0.0,0.6171812734003689,0.618669533118833,0.6027520449555722,2.6109371891683373,2.1879849061271908,,,0.6584896970785714,5.350780936083778,inf,,0.6668352360565045
336,1.010534270653571,-0.03368447568845236,0.0,1.0259928493510615,1.0063373673042897,0.7005764375511586,3.123685541855548,2.5337758043865968,,,0.6038851895711802,4.037334307505321,inf,,0.8124324901201717
337,0.2105466107305944,-0.015440084786910255,0.0,1.1304965517268502,1.1044303774589925,0.8221862036082364,3.7674469578746765,6.183093104150286,,,0.6468212168108125,2.7727665158219015,inf,,0.5522643724454707
338,1.2107383704868115,-0.02421476740973623,0.0,0.8729802770332259,0.8475854114741179,0.6889983930159111,3.5282160995470773,5.737538360039603,,,0.6528756675646988,4.2655283746056,inf,,0.5358891675115202
339,0.0,0.0,0.0,0.8137251269946018,0.733864817846991,0.6192218781889582,4.07346385861914,19.070433689255054,,,0.6566669596287297,3.912023005428146,inf,,0.6078290231265819
340,0.0,0.0,0.0,1.1374877573244262,1.050742051735181,0.703091408356741,3.8379450873723275,15.936645955531832,,,0.6602640781246099,3.506557897319982,inf,,0.7834674192755902
341,0.6237799962698867,-0.020792666542329554,0.0,1.1836108767631988,1.165879108791652,0.7913300354655863,3.7523320589157065,2.921234834393382,,,0.6447042257417027,3.6318691993971566,inf,,0.6528575875342262
342,0.14391156831212784,-0.007675283643313485,0.0,1.1795515597596429,1.143909918036068,0.786545634370935,3.8351057720860244,15.818276664717995,,,0.6727386042041725,2.9890877308353225,inf,,0.8199955865725664
343,0.06301338005090412,-0.0023104906018664843,0.0,0.8558753340368899,0.8282714770691036,0.6947142524630828,4.24395495848677,55.077522853251736,2.348036355897963,,0.6180765742263259,3.3524072174927233,2.354714158428992,inf,0.6561313414182833
344,0.5863938050232581,-0.023455752200930324,0.0,1.2249799807683024,1.2233226535229378,0.8825086065319566,3.8759108677007226,4.220137349587077,,,0.6403206450210053,3.3765047690717838,inf,,0.763152205519077
345,0.05666571053343822,-0.004533256842675058,0.0,1.2541026478021884,1.216925174531738,0.8206522644760957,4.285164602467369,4.710659616542762,3.143252928017521,,0.6584896970785714,2.5571906453731654,3.14993073054855,inf,0.6045133988276673
346,0.0940892913460682,-0.0037635716538427276,0.0,1.089304652477767,1.0702983972348517,0.6839737382986066,4.2820798545206245,13.535304580503736,,,0.6509067234006624,3.2769169811518184,inf,,0.7844283902403815
347,0.0,0.0,0.0,1.1982466856517626,1.1802435657138148,0.8214942247195354,3.518660003316144,6.9806506763531395,,,0.6403206450210053,3.506557897319982,inf,,0.7554683456991528
348,0.45913189552732303,-0.016834836169335177,0.0,1.028566464145032,0.990018795979789,0.8090471214992762,3.5139287907872583,4.016828238152671,,,0.62595550513784,3.4406314509075626,inf,,0.5243216742711826
349,0.47068825818389837,-0.03294817807287288,0.0,1.3355757845795615,1.3032924125074292,0.8398266276796896,3.938746836242192,3.4763875460305176,,,0.6233814453054027,2.8360729844887858,inf,,0.7435423265824163
350,0.0,0.0,0.0,1.10987017174027,1.064774206906564,0.7774586762033738,3.635086704905122,4.8546043852388845,2.136727262230756,,0.6713451011121618,2.870569130599985,2.1434050647617853,inf,0.6404178445658686
351,0.2329911505381505,-0.011468182957144244,-0.0017346489066842848,1.121802952094967,1.0748482546448561,0.7743114960454724,3.6322890765828335,6.336975831382436,,,0.6207552362147116,2.9813911562833333,3.2443902427369835,inf,0.6939418940929339
352,0.0,0.0,0.0,1.3281029622452443,1.284380263348222,0.8789253454730387,5.072551299560804,8.455088975272671,,,0.6180765742263259,3.2188758248682006,inf,,0.630934548591414
353,0.04575557366183233,-0.0038129644718193608,0.0,1.0509635513068163,1.010445165024587,0.7202468735200139,3.775847736759076,6.145013696574608,2.482678242806513,,0.6425374456860184,2.5246181500242284,2.489356045337542,inf,0.5641519676143626
354,1.071159030681358,-0.03570530102271194,0.0,0.8088098813505735,0.80590213035621,0.6708107045307533,5.12894235852485,9.507015891611193,,,0.6380535849069913,3.693780332713647,inf,,0.5336145071479658
355,,0.0,0.0,1.5365611480348584,1.5370101882367246,0.8643717274338597,2.1429266484082192,0.990053775477759,,,0.6284777104787076,inf,,,0.897707221542373
356,,0.0,0.0,1.5163264065561237,1.498911432729926,0.8678732119403191,2.7771370147486416,2.1103652053263273,,,0.6403206450210053,inf,,,0.9103224820351408
357,1.3048712792461272,-0.03479656744656339,0.0,1.10333500644641,1.0403079136424263,0.7850125616050221,3.2245725293698135,3.9775011000749223,,,0.6380535849069913,4.213128098212068,inf,,0.8240332300694333
358,0.0,0.0,0.0,1.0829962421754877,1.058887640288121,0.8697091886939133,3.3038966133669487,3.4621346329892444,,,0.6447042257417027,4.605170185988091,inf,,0.87541820031636
359,0.733287675519247,-0.019554338013846588,0.0,1.1336875152447388,1.0517189125325213,0.7333404715094073,3.450051422794549,3.6029631356266125,,,0.6180765742263259,3.8944014040783266,inf,,0.9013117868017854
360,0.0,0.0,0.0,0.7038471542810267,0.707667179628559,0.587237299688917,2.66859505033531,4.415544400353321,,,0.6333676938231112,4.0943445622221,inf,,0.9392572893330313
361,0.44112108035168524,-0.01029282520820599,0.0,0.7925091187422627,0.7398983766676954,0.6647322423127294,2.017879892682797,1.428813134847271,,,0.6547956803312163,3.9990343824177756,inf,,0.5629834514106592
362,0.0,0.0,0.0,0.6160229877573253,0.5693116835516212,0.5593621202101474,1.949871515530139,1.6513077305472699,,,0.6447042257417027,5.703782474656201,inf,,0.7535473250489255
363,0.0,0.0,0.0,0.8026826958004823,0.7724966287675485,0.7333337508312844,2.587645917585055,2.5885485868167395,,,0.6468212168108125,5.0106352940962555,inf,,0.5833575824500827
364,0.16735906485625698,-0.0061364990447294225,0.0,1.267690450577125,1.2528326525899711,0.7896036133150856,3.5857527396435342,11.611764475293779,,,0.6284777104787076,3.4085577360684476,inf,,0.7068832453992814
365,0.23227878003115654,-0.007742626001038551,0.0,0.8665301920550383,0.81951073162496,0.7236622606264514,3.559524963032694,3.4325510625630784,,,0.6309483474627791,3.5113843406969107,inf,,0.7245997381990836
366,0.10490358161323342,-0.001049035816132334,0.0,1.1552802194201852,1.1061872914206838,0.6999292407672237,3.126904410405083,10.54345899048898,,,0.6619902821573977,4.699480865459333,inf,,0.8749144290845061
367,0.0,0.0,0.0,1.2451202642992651,1.192762253914339,0.7484146568521175,2.830914404959884,3.4747827198865124,,,0.6233814453054027,4.605170185988091,inf,,0.815603578569343
368,0.0050506768293798665,-6.734235772506488e-05,0.0,0.5136298859710372,0.4507534856033965,0.606854666856983,2.448356319185533,2.5071817531369414,,,0.6425374456860184,4.322500655359855,inf,,0.6442346382035203
369,,0.0,0.0,0.7866797086609931,0.7368710993139023,0.6846341527023649,2.387584927897735,2.122281354766441,,,0.6566669596287297,inf,,,0.9264893286793624
370,0.0,0.0,0.0,0.9222356034458559,0.8732396363255585,0.6497331421133737,1.9465216805122088,1.2907321011697406,,,0.6468212168108125,3.912023005428146,inf,,0.7257310289310709
371,0.4918061463063808,-0.006557415284085077,0.0,1.0494175706584348,1.042281456573049,0.7358939808866503,2.544581047023943,2.3428341898327423,,,0.6403206450210053,4.633341062954788,inf,,0.8240293614393851
372,0.23639877952143218,-0.003939979658690537,0.0,1.084012322894045,1.079763417228561,0.676722358850731,2.2233360365604202,2.019747251401956,,,0.6097226960127671,4.243618264969855,inf,,0.8483383342141865
373,0.0,0.0,0.0,0.8952956613078986,0.8259406871055494,0.6373478466621338,2.4634639406101893,2.2984507423386513,,,0.6547956803312163,5.703782474656201,inf,,0.7567276303098831
374,0.0,0.0,0.0,1.0858314348652511,1.0506336718585985,0.6979799203907854,2.7670611581345934,2.883282438398825,,,0.6153451465759925,4.605170185988091,inf,,0.7259733835276857
375,0.0,0.0,0.0,0.9122361570170904,0.8661755982937567,0.6501658198970773,2.3139708099620147,1.923608834627121,,,0.6447042257417027,4.605170185988091,inf,,0.5590607915425152
376,0.0,0.0,0.0,0.9534530075362097,0.925424763534539,0.6167949291197701,1.9814352664345611,1.605884929121149,,,0.6125606311107803,4.605170185988091,inf,,0.7830403258964597
377,0.0,0.0,0.0,0.9322946302146624,0.8897616707588278,0.6787611780091283,2.2422936560029045,1.8346315773250654,,,0.6284777104787076,5.0106352940962555,inf,,0.7965157079585974
378,,0.0,0.0,0.6091584531515074,0.5733553682582774,0.5026417822575127,1.6074723065554608,1.1530432666831607,,,0.6357360191111145,inf,,,0.913718542935525
379,,0.0,0.0,0.30752023096499176,0.23666037526710823,0.32077550202031624,1.2677468517831358,1.2591706599609216,,,0.6207552362147116,inf,,,0.9289613523156539
380,,0.0,0.0,1.0142871563798312,0.9738228139451833,0.7396248131189429,1.480002353775881,1.471424179516583,,,0.6309483474627791,inf,,,0.7623581082524754
381,,0.0,0.0,1.2303069676302305,1.2035217518840196,0.8762535664513633,1.4240910541527088,1.8258412362416576,,,0.6233814453054027,inf,,,0.7458017624961549
382,,0.0,0.0,1.6605722584371334,1.6274600320908046,0.9390283703430636,1.7398959226855553,2.4361242101991505,,,0.5978297680564633,inf,,,0.7888249688259317
383,,0.0,0.0,1.5851502382449143,1.566645735551043,0.921613987445376,1.6983090023066016,1.5759047106679729,,,0.6380535849069913,inf,,,0.794633385315182
384,,0.0,0.0,1.3521609242361574,1.3349485544340813,0.8520289092740096,2.0763092332408264,1.5583419044902156,,,0.5783247308855777,inf,,,0.8635095730259137
385,,0.0,0.0,1.3617283232464756,1.3439378147099712,0.8571604089217727,2.2624953020182517,2.9494263747621954,,,0.5451288209179292,inf,,,0.861982302980976
386,0.0,0.0,0.0,0.9130210231870187,0.8704876052843012,0.6821859089906424,2.85622850013105,2.59800344194019,0.6898082792944307,,0.6153451465759925,5.0106352940962555,0.6964860818254599,inf,0.8929124704144601
387,,0.0,0.0,1.521777730269148,1.496094989075028,0.9198766629484095,2.7004186085682123,3.63983449700461,,,0.6380535849069913,inf,,,0.845327473518555
388,0.0,0.0,0.0,0.8092592771271324,0.7701360146493695,0.7844504424723407,3.0837069262396586,3.983524714012751,,,0.6447042257417027,5.703782474656201,inf,,0.7907540130819855
389,0.0,0.0,0.0,1.039379293695005,0.9625681756853613,0.7017148555526957,1.8478451562739495,1.336287684210037,,,0.6357360191111145,5.703782474656201,inf,,0.818249275685524
390,,0.0,0.0,0.7320992102885115,0.7115254556368436,0.5371954479678317,1.2857843972330594,1.3156671596957707,,,0.5915533975974677,inf,,,0.8931338750807971
391,,0.0,0.0,1.711934394629241,1.6634884358021098,0.9786440755423045,2.4479932836358884,2.769014992242473,,,0.5978297680564633,inf,,,0.8449727818898616
392,,0.0,0.0,1.7292011547500254,1.656884474747831,0.9499828431426882,2.969372630854899,5.18874698453423,,,0.6233814453054027,inf,,,0.8750427829174781
393,,0.0,0.0,0.5944949993137738,0.5735663850989853,0.6627478050025333,1.9986129984034302,2.3242967798700396,,,0.6284777104787076,inf,,,0.9040970420266737
394,0.030071541468625482,-0.00040095388624833975,0.0,0.6573481798971658,0.5663503363006844,0.5660936720997012,2.2542734730521845,2.3358996733895605,,,0.62595550513784,4.346230582401964,inf,,0.659517627306001
395,,0.0,0.0,0.2793352849901255,0.2452792281799759,0.5516418346089942,1.0795877316076723,0.992894483156401,,,0.6153451465759925,inf,,,0.8395533290684802
396,,0.0,0.0,1.1771189303264582,1.15379803454831,0.7701436918874459,0.9065054211703597,1.0804894543365555,,,0.6180765742263259,inf,,,0.7775870132850948
397,,0.0,0.0,1.1539034985266743,1.1281672439207056,0.8915660844153048,0.8027989966656032,1.0286491685069123,,,0.6125606311107803,inf,,,0.8075433191459493
398,,0.0,0.0,1.1740803843213252,1.1390787611379445,0.804717610173021,1.0301471110363272,1.3261258714529176,,,0.6284777104787076,inf,,,0.8175678256297844
399,,0.0,0.0,1.5114552607154825,1.482303302129326,0.887503370439969,0.733064868611059,1.0637356521841366,,,0.6233814453054027,inf,,,0.7332132141870717
400,,0.0,0.0,0.9721147709852187,0.9521551333630116,0.683781071894118,0.8759166965871258,1.3134093504159456,,,0.5947193981915972,inf,,,0.7888664179128974
401,,0.0,0.0,0.541918578588181,0.5175334314022555,0.5657551294425588,0.8552830867738334,1.1671830606203235,,,0.6403206450210053,inf,,,0.8035414739394472
402,,0.0,0.0,1.127363617857608,1.1074099552689098,0.7109017187095638,0.9102137863315987,1.3351075333628786,,,0.6180765742263259,inf,,,0.7435364541701619
403,,0.0,0.0,1.1367784240551255,1.1371192580039475,0.7496323674435607,0.9395545993629182,1.395095635986371,,,0.62595550513784,inf,,,0.7754996225917025
404,,0.0,0.0,0.902087963013435,0.8972605168568037,0.6295180783621236,0.9306685304534281,1.380940657897339,,,0.6584896970785714,inf,,,0.7742522640182711
405,,0.0,0.0,0.8267921173060717,0.8125267173951329,0.7010638766810787,0.8871487674867268,1.224325249691005,,,0.6309483474627791,inf,,,0.8076240212744977
406,,0.0,0.0,0.5252538342741142,0.48752285149000174,0.6485316981889732,0.9970805034364836,1.1754402405682742,,,0.6233814453054027,inf,,,0.8504871279526786
407,,0.0,0.0,1.2267250289635696,1.2117024014700708,0.8108769390119552,0.9251527071894421,1.2899273401767366,,,0.6380535849069913,inf,,,0.787906722682947
408,,0.0,0.0,1.1851586232150404,1.1309297174130586,0.7958770676538159,1.1160559329261466,1.3498827979092995,,,0.5915533975974677,inf,,,0.8522031605538881
409,,0.0,0.0,1.1607479003166927,1.1364402091798143,0.7865744879771973,0.9306895458254286,1.1618540216507585,,,0.6125606311107803,inf,,,0.8358013049651147
410,,0.0,0.0,0.2995334833849547,0.27676041592084216,0.3548123381714485,0.9885144146105715,1.0983479057435015,,,0.5370774965580548,inf,,,0.935038217434354
411,,0.0,0.0,0.826707899399788,0.7907880248147626,0.7691699670986833,1.2548835479897933,1.138859360124532,,,0.648888643467878,inf,,,0.8739533374315563
412,,0.0,0.0,0.621511658854183,0.5137430973921936,0.5585277375773412,1.4040988544337656,1.3773432376412362,,,0.62595550513784,inf,,,0.9044654288867192
413,,0.0,0.0,0.8184116052881006,0.819160087155558,0.6093826671334492,1.1044697317785366,1.2583289220435934,,,0.6547956803312163,inf,,,0.8224814969437892
414,,0.0,0.0,0.7898643872080484,0.7189808865886012,0.5064112391206627,1.0679629194140263,1.2164613305617817,,,0.6038851895711802,inf,,,0.8812525728539984
415,,0.0,0.0,1.4055171399684745,1.3846450637514789,0.9009549698151577,1.2473066162242457,1.4567591982018466,,,0.6038851895711802,inf,,,0.7933870778695977
416,,0.0,0.0,1.5628508462486304,1.5220338040088797,0.9376807632313504,0.965308625781585,1.2429810703006643,,,0.6038851895711802,inf,,,0.7745255343040576
417,,0.0,0.0,1.0736613523138547,1.0322332105355456,0.7164961957267061,0.8770781978596124,1.2077709744613094,,,0.62595550513784,inf,,,0.827944603412116
418,,0.0,0.0,0.8276637429284619,0.8119118889098158,0.7299460241339375,0.7469993769462466,0.98300656159138,,,0.6309483474627791,inf,,,0.7888137375097677
419,,0.0,0.0,1.5496104052934403,1.5255376120261719,0.8846923524317787,0.7454381501883963,1.026077983871617,,,0.5947193981915972,inf,,,0.6985292282353016
420,,0.0,0.0,0.15530386776307525,0.13320809796057076,0.35768398453025935,0.9275099550396568,0.9644530261465977,,,0.62595550513784,inf,,,0.9016129158915623
421,,0.0,0.0,0.17287203109334173,0.13737717433555935,0.37369266362871195,0.9126790946660306,1.0529463015534033,,,0.5978297680564633,inf,,,0.8802858058480978
422,,0.0,0.0,0.7016569899557057,0.6809067066204082,0.4400855334953659,0.8466743295445546,1.108613546856394,,,0.6357360191111145,inf,,,0.8923777147894851
423,0.0,0.0,0.0,0.6196817761838642,0.5485365349212009,0.61602774427298,1.8093320528840349,1.5064447821931661,,,0.6509067234006624,5.703782474656201,inf,,0.8159995659152801
424,0.09887023439869412,-0.000988702343986941,0.0,0.8354057824503339,0.631621718091512,0.6392665525746222,2.1926228469361635,1.5273082881717395,,,0.6380535849069913,4.694608748635332,inf,,0.9084600178926953
425,0.0,0.0,0.0,0.9420945771486746,0.887460575628786,0.6828431799337216,2.553394329926078,2.7175357288615594,,,0.6403206450210053,5.0106352940962555,inf,,0.7137278111988562
426,,0.0,0.0,1.4062799656070364,1.3338729485581864,0.8412260945845569,1.5669736740386457,1.6338610795046908,,,0.6097226960127671,inf,,,0.7547702625529605
427,,0.0,0.0,0.7550861855546389,0.6652594125768488,0.5681625880582813,2.0896096094573053,2.7514870309626818,,,0.6068309995095971,inf,,,0.7223263205393757
428,0.2514063612777752,-0.008380212042592507,0.0,1.086556195478879,1.011992358280393,0.7572076092726644,2.962545918269998,2.4365483064420244,,,0.6547956803312163,3.5617574466745974,inf,,0.6877989188686131
429,0.01351433619395963,6.077906551874018e-07,-9.070336528158493e-05,0.9227133942860722,0.8686748892611516,0.6143058469532565,2.6104894569266417,3.0188559096495817,0.8473997448415532,,0.6180765742263259,5.024058314428396,0.7101833677125131,inf,0.7408272228935259
430,2.8518912373281005,-0.019012608248854004,0.0,0.6867415454753769,0.573280374019614,0.7343617833552906,3.1454109687692013,2.657607042377191,,,0.6097226960127671,5.700454684563526,inf,,0.8202922539718694
431,,0.0,0.0,0.6294558385841365,0.6117925756476705,0.6875795359487311,2.1219706285128033,1.8356072477482868,,,0.6180765742263259,inf,,,0.9178477154884174
432,0.0,0.0,0.0,1.1084876813293423,1.076850119096757,0.7672569886201313,2.765964840702019,5.419920697607119,,,0.6097226960127671,4.605170185988091,inf,,0.8218867416197567
433,0.0,0.0,0.0,1.2642768822290147,1.2200668093642455,0.8074090939120153,2.7251538702308555,2.6375664975591464,,,0.6068309995095971,5.703782474656201,inf,,0.8298363992376926
434,0.0,0.0,0.0,1.246625987238672,1.218363058269038,0.8059237833434155,2.5599428850900963,2.9976095282867674,,,0.5677978065141052,5.703782474656201,inf,,0.8370813754734876
435,,0.0,0.0,1.4450393488155835,1.4190700556556954,0.9400910040156775,2.5962497356316225,3.063161040826088,,,0.6403206450210053,inf,,,0.7861344992469046
436,,0.0,0.0,1.2990421238736278,1.2847273645787485,0.8824786147320715,3.020622532112083,2.2348486143744593,,,0.6008849035917525,inf,,,0.8525763947102482
437,,0.0,0.0,1.6385164170627307,1.627564680120089,0.9656716748153199,2.6901250474291376,2.5533395513554216,,,0.5915533975974677,inf,,,0.7898473945436165
438,,0.0,0.0,1.6031388546695737,1.5572702624915673,0.9728761792330408,2.1665424894626493,1.991847176154605,,,0.581717464821069,inf,,,0.8426230877342366
439,,0.0,0.0,0.7267007930300973,0.7182822074164275,0.6666480239486074,1.3747347208250391,1.4334747905420515,,,0.585052858160615,inf,,,0.8872220923312002
440,0.0,0.0,0.0,0.6993638653401311,0.6507130638966737,0.5934847707902751,1.3930205434734468,0.870661918028041,,,0.6038851895711802,5.0106352940962555,inf,,0.6931513234582971
441,0.0,0.0,0.0,1.022184938114337,0.9847438173760301,0.8038023096434329,2.9564638836775066,2.945166584764926,,,0.6425374456860184,5.0106352940962555,inf,,0.8344471120031437
442,2.8518912373281005,-0.019012608248854004,0.0,0.7386592501241049,0.569471901519298,0.6153510258735001,2.0809642182957697,1.7098265854005072,,,0.6180765742263259,5.700454684563526,inf,,0.8795090167190789
443,,0.0,0.0,1.4713510724986294,1.4341665730729245,0.8895818869953362,1.7237259650268784,2.35834129888287,,,0.6153451465759925,inf,,,0.7657382519292315
444,,0.0,0.0,1.4552594117477182,1.439368240809149,0.8711874177036861,1.6117887249055591,2.473946712029084,,,0.581717464821069,inf,,,0.7610339041151079
445,,0.0,0.0,1.2978349822453403,1.2809690183472766,0.7957517306188338,1.4367288424414657,1.799620523934273,,,0.5604843169999094,inf,,,0.785582290755344
446,,0.0,0.0,1.207862175221104,1.1787283364807577,0.8658860635340644,1.1594515432045511,1.44606514858037,,,0.6180765742263259,inf,,,0.7548765487200065
447,,0.0,0.0,1.0261857862900166,1.0091448418608286,0.7602991155175836,1.0105528199768576,1.332494348848762,,,0.648888643467878,inf,,,0.7911295283522014
448,,0.0,0.0,0.8569482979477598,0.8195466840840777,0.6023576448727366,1.1764051032005398,1.1489663716572196,,,0.6068309995095971,inf,,,0.8515569355092933
449,,0.0,0.0,1.190637441265118,1.1509591235412935,0.778164862897907,1.45494062145694,1.7206777408696479,,,0.6380535849069913,inf,,,0.784616370755775
450,,0.0,0.0,0.9659413562927228,0.9350129760571452,0.574285658120098,1.4406033215131917,1.7546934737791,,,0.6468212168108125,inf,,,0.893099969593071
451,,0.0,0.0,1.5391686166180811,1.4890869328209375,0.8902307379390701,1.1541633302419172,1.4110829357985881,,,0.6008849035917525,inf,,,0.7663581248980887
452,,0.0,0.0,1.1904508237982867,1.1286981057799927,0.8259157191879701,1.946526318341425,2.3351292991584494,,,0.6403206450210053,inf,,,0.8638793672289944
453,,0.0,0.0,1.1277011175142229,1.1069969358525398,0.7978080324947077,1.7854889067345894,2.388626149540559,,,0.6125606311107803,inf,,,0.8281067557381631
454,,0.0,0.0,0.9095732633484318,0.8801563813486798,0.736879482067168,1.7034959099918747,2.255909537679903,,,0.6068309995095971,inf,,,0.8097651153255951
455,,0.0,0.0,1.4737948782016412,1.4452459575512746,0.9039418247302471,1.6381551724414538,2.4026951999847936,,,0.6425374456860184,inf,,,0.7598214356851987
456,,0.0,0.0,1.4949397853676636,1.4764249211183784,0.8700870246975101,1.788355391524059,2.759135208702597,,,0.6097226960127671,inf,,,0.765605256135611
457,,0.0,0.0,0.8645656144365452,0.7903914351135184,0.6859341341022306,1.8444032946481752,2.3440828204653124,,,0.6068309995095971,inf,,,0.872709437963399
458,,0.0,0.0,1.3211637341907256,1.288732023588965,0.8580181802395584,1.5902273334013777,1.9017873458176249,,,0.6233814453054027,inf,,,0.7745491217028057
459,,0.0,0.0,1.511639423561188,1.497975337915544,0.8824395317535135,1.4427283373039608,2.0894108034123797,,,0.5947193981915972,inf,,,0.7393905728599962
460,,0.0,0.0,1.549063731396798,1.5235404833606836,0.9100591388069736,1.412403885111981,1.6826101397681634,,,0.581717464821069,inf,,,0.7511604946683881
461,,0.0,0.0,0.5886856603421975,0.5214537918398359,0.5224572633349635,1.7672898953577534,2.443790224124311,,,0.6008849035917525,inf,,,0.8951772596513338
462,,0.0,0.0,0.8345336732011889,0.8113373353638689,0.6918156249515177,1.9146511075326935,2.1109116992803223,,,0.6153451465759925,inf,,,0.8800710531424634
463,,0.0,0.0,0.7938822828632894,0.7595544273029485,0.5437982084902595,1.0490798962387646,1.2038250461615119,,,0.5947193981915972,inf,,,0.9175766715207253
464,,0.0,0.0,1.3509468758103935,1.2755125335003092,0.8707922207901576,0.653625614421012,0.7791692852793569,,,0.5604843169999094,inf,,,0.8113311218206901
465,,0.0,0.0,1.529143953002248,1.4943955475955566,0.9225141725451808,1.1077432102194904,1.6970873063685725,,,0.6038851895711802,inf,,,0.8533374873676937
466,,0.0,0.0,0.8565147310778934,0.8150443574559908,0.7079293900324688,1.4882718168706741,1.3404286397753307,,,0.6097226960127671,inf,,,0.901401619890534
467,,0.0,0.0,1.4376160868668686,1.443370759826101,0.8983084030519264,1.5595580802854434,1.6009834852678844,,,0.6233814453054027,inf,,,0.8507333221224146
468,,0.0,0.0,0.8573768163792026,0.8487106110523652,0.6017919245236463,2.0002859081138236,2.0469414905385186,,,0.62595550513784,inf,,,0.7734892461249594
469,,0.0,0.0,1.575501388690378,1.5586829457514926,0.9409916818030152,1.6412912677856768,1.7276741081291536,,,0.6380535849069913,inf,,,0.8028402326657922
470,0.0,0.0,0.0,0.7243983580523821,0.6474330434847653,0.5075114370148469,1.5304179647452787,2.0150534374662055,,,0.6153451465759925,5.703782474656201,inf,,0.8945980563894983
471,,0.0,0.0,1.5765687288805856,1.5229246938756646,0.9391297412957703,1.5874467400008745,1.9123564392033108,,,0.6333676938231112,inf,,,0.8469043222001557
472,,0.0,0.0,0.31574590341680636,0.2661647352052719,0.6493743671626103,1.689133623921166,1.8861290694458,,,0.6068309995095971,inf,,,0.900674331832341
473,,0.0,0.0,0.18683165482699773,0.15928086876890432,0.45707342321769445,1.2915355846875756,1.3138766813693277,,,0.6333676938231112,inf,,,0.8955770510082739
474,,0.0,0.0,0.9025574156824181,0.8596276009213193,0.7989026193736386,1.1606120753763374,1.3240841068874036,,,0.6309483474627791,inf,,,0.8599616772913571
475,,0.0,0.0,1.5523694791273153,1.5369365796476637,0.9350065874487685,1.222696341814203,1.549561424460316,,,0.6207552362147116,inf,,,0.7896661017279113
476,,0.0,0.0,1.6717641000514945,1.6290444221406208,0.9523421803496169,1.14612802112227,1.4440150350128356,,,0.6125606311107803,inf,,,0.746301169717117
477,,0.0,0.0,0.25239391199048244,0.21141700526473178,0.43294131196900854,1.7045320433758295,1.7609869498087796,,,0.6284777104787076,inf,,,0.9213007584225629
478,,0.0,0.0,0.9178002510483914,0.8931674320141725,0.7125969140828143,0.9955730359816265,0.9644878847247071,,,0.6309483474627791,inf,,,0.8481779401295351
479,,0.0,0.0,0.6116177963199573,0.5912715884400916,0.6625108912079478,0.9579347142207149,0.9099931050394587,,,0.6097226960127671,inf,,,0.8859903501092661
480,0.0,0.0,0.0,0.3858233377713265,0.3153539225628692,0.3202647369840157,0.9874439655915701,0.8080875443991559,,,0.6068309995095971,5.0106352940962555,inf,,0.6521269126401492
481,1.9012608248854004,-0.019012608248854004,0.0,0.9091220631002376,0.7776528286489914,0.684553797189948,1.727941946144251,0.6526031728377628,,,0.6509067234006624,5.008970014777194,inf,,0.6600692783941715
482,0.0,0.0,0.0,1.0754878425092358,1.039013042496698,0.7230962812960169,2.847944184400865,1.583179414540119,,,0.6153451465759925,4.0943445622221,inf,,0.7851501396250314
483,0.585788662239446,-0.0019526288741314867,0.0,0.6123295539664959,0.568441820553392,0.6407704157266532,1.915756595241253,1.5783542537360307,,,0.6309483474627791,6.289571136895647,inf,,0.8907844571388964
484,,0.0,0.0,0.38922482889862875,0.3536960659652566,0.5109630751967777,1.8764827279686966,1.74201655513378,,,0.6447042257417027,inf,,,0.7064862994323787
485,,0.0,0.0,0.851585594743621,0.8508431945603012,0.5347097270552282,1.9287851632705668,1.4238677461542997,,,0.6380535849069913,inf,,,0.9012841576833919
486,0.0,0.0,0.0,0.785755384996777,0.7833253096725488,0.56604182433292,1.8458993142033286,1.3623800388096843,,,0.6425374456860184,5.703782474656201,inf,,0.9433818805576579
487,,0.0,0.0,0.5976899760343799,0.5776756447769517,0.5775951740077744,1.5762413255360612,1.167027993900801,,,0.6333676938231112,inf,,,0.726883559639431
488,0.0,0.0,0.0,0.8076262908706398,0.7880431261379319,0.544811972792033,2.097304574125607,1.3599509909477083,,,0.6547956803312163,4.605170185988091,inf,,0.8075984661677998
489,,0.0,0.0,0.5283884458116761,0.4936881998334259,0.5141036151285195,1.5435728546824454,1.1546289835815489,,,0.6547956803312163,inf,,,0.8264506391598477
490,0.0,0.0,0.0,0.6013846311883875,0.5790713126215632,0.5031505396749117,1.6080224751850345,1.0338677841258879,,,0.6180765742263259,5.703782474656201,inf,,0.949044972696371
491,0.0,0.0,0.0,0.7981436184349665,0.7872318859789761,0.5637077819507801,1.8838126815025538,1.4466699829763177,,,0.6403206450210053,5.703782474656201,inf,,0.9190393735159877
492,0.0,0.0,0.0,0.9061458653212119,0.8431046667358753,0.5926436241133611,2.1763840043161378,1.5352656513113452,,,0.6528756675646988,5.703782474656201,inf,,0.7714728027024991
493,0.0,0.0,0.0,1.1617861775647729,1.1195667615087226,0.7511879140515619,2.466628774623958,1.4493531170492453,,,0.6619902821573977,4.0943445622221,inf,,0.826239889270979
494,0.0709963026426137,-0.0009466173685681826,0.0,0.6592278419914233,0.6024648421054708,0.4820503358972974,1.2895178726134515,1.0956848718773744,,,0.6652988471865258,4.385588526240242,inf,,0.8165156583976267
495,,0.0,0.0,1.0086643902876649,0.973981824763375,0.6332707389412561,1.3091032726376814,1.1050797910664836,,,0.6619902821573977,inf,,,0.8765666872970473
496,0.2226525835689008,-0.01113262917844504,0.0,1.1493486144961733,1.1088976501391763,0.7449339979795224,2.672863704306951,1.9246063775883053,,,0.6727386042041725,3.0644870781430202,inf,,0.6590621891847982
497,0.0,0.0,0.0,0.6582710744028062,0.6307383816157353,0.5810215971894429,1.5100291311602774,1.114965916364978,,,0.6233814453054027,5.703782474656201,inf,,0.8990291433060521
498,0.018799249024224068,-0.0003759849804844813,0.0,0.6782928420302669,0.6500042243355838,0.6431298239368188,2.593577416999773,2.2720110143378256,,,0.6602640781246099,3.9299607061148136,inf,,0.7145507388231402
499,0.05027429657819455,-0.0005027429657819456,0.0,0.7519295024832582,0.7000055519036545,0.5902547014124957,1.9563723218574018,1.6884545585325221,,,0.6425374456860184,4.6529608498244395,inf,,0.7819861454376283
500,0.0,0.0,0.0,1.0532200218325722,1.0255742509430352,0.6763020882613535,1.9517018853152088,1.6098067237149947,,,0.6425374456860184,5.703782474656201,inf,,0.8923383871587584
501,0.1434709399332819,-0.0019129458657770918,0.0,0.8651457995374232,0.8430463356211698,0.6356107371848589,1.7770723813100164,1.4282329419261814,,,0.663668482632973,4.433086038287357,inf,,0.8065272337344084
502,0.0,0.0,0.0,0.38930289572266497,0.3433066544716102,0.5399762753538315,1.8638692298289654,1.449739812212301,,,0.6528756675646988,5.703782474656201,inf,,0.6891795977531201
503,0.0,0.0,0.0,0.6563027680080002,0.62366848869247,0.5268702798799835,1.3755816544481756,1.2603403756938214,,,0.6097226960127671,5.0106352940962555,inf,,0.9117897531446436
504,0.0,0.0,0.0,0.9376960442415065,0.8773443167614388,0.6455534978677248,2.3463306909024593,1.9533554698517532,,,0.6547956803312163,4.605170185988091,inf,,0.8302919644742195
505,,0.0,0.0,0.7603147140468934,0.7132898305994395,0.6723217584845149,1.4752984093175212,1.2913599410687093,,,0.6528756675646988,inf,,,0.779696100563729
506,,0.0,0.0,1.0231375444647282,1.0154372437705017,0.7487189333311418,1.6537452250045106,1.5228088656912464,,,0.6233814453054027,inf,,,0.8557063682325775
507,,0.0,0.0,0.6892459465891705,0.6438017084402481,0.5640749558045295,1.7166228294208277,1.6052786023275598,,,0.62595550513784,inf,,,0.9124411322434176
508,0.6015011508448297,-0.010025019180747162,0.0,0.9276302874898356,0.8548271189737713,0.6231765144224855,1.798786712633188,1.3569733536313966,,,0.6068309995095971,4.360917671463646,inf,,0.7984441787024125
509,0.0,0.0,0.0,0.9827434930507911,0.8521441243733026,0.7454120499909964,2.010026099643627,1.3260395011819677,,,0.6584896970785714,5.0106352940962555,inf,,0.7701473682982721
510,,0.0,0.0,0.7329343865967034,0.7190240663432264,0.5954721821109508,0.9620780602054501,1.0513216360482076,,,0.6357360191111145,inf,,,0.8587541202634088
511,,0.0,0.0,0.4326991173964348,0.38226264154326905,0.636984526828693,1.4211568594230075,1.4372107087977963,,,0.6333676938231112,inf,,,0.9021790178680247
512,0.0,0.0,0.0,0.8612564268194275,0.7912433268344684,0.6401833831803065,1.6710454539689623,1.776234971526665,,,0.5978297680564633,5.703782474656201,inf,,0.9485759418766806
513,0.0,0.0,0.0,1.0901176640574264,0.996131302793967,0.777873462409781,2.335477290883819,1.7600297257948414,,,0.6778444222523095,4.31748811353631,inf,,0.9176311024008026
514,0.0,0.0,0.0,1.2247475105036925,1.1545056403645084,0.7973882325923587,3.4871593344213982,6.306677248282593,,,0.6425374456860184,3.4011973816621555,inf,,0.6710015244763626
515,0.10514468647955316,-0.0014019291530607087,0.0,1.2625610073971982,1.260550650267591,0.8051431761024711,2.755273794184582,1.8399132903954047,,,0.6125606311107803,4.407230489037172,inf,,0.8906463081277131
516,0.020845402234762753,-0.0002779386964635034,0.0,1.2791381321620736,1.2828405799294182,0.7693877689193122,3.8795171093168483,5.712999630822729,,,0.6468212168108125,4.33769082085383,inf,,0.865552321270533
517,0.41456776081884983,-0.012437032824565495,0.0,1.0200516517732374,0.9269644502837825,0.7943030222107458,3.0287631881498482,2.1374790862645607,1.9506338952131494,,0.6584896970785714,3.749809678177537,1.957311697744179,inf,0.6178830584997957
518,0.2399491050922425,-0.0063986428024597995,0.0,0.9176412141575404,0.8639480907197212,0.6316751062779072,1.9594234275332354,1.5023142454076244,,,0.6207552362147116,3.7371364271217096,inf,,0.7593304427140645
519,0.6723953337017747,-0.01120658889502958,0.0,1.0187015044709382,0.9793347993247169,0.6517038873575861,1.9785378936192581,1.0864591692626253,,,0.6380535849069913,4.487881099464992,inf,,0.7857458622836908
520,,0.0,0.0,1.0548391520520137,0.9841866457475122,0.7447763592710116,1.9125950728286623,1.7001413898945004,,,0.6619902821573977,inf,,,0.945388657127294
521,0.11683512795656295,-0.001557801706087506,0.0,0.8221970056761172,0.711157456026804,0.5987623663068016,1.7149449655741535,1.4499799041318047,,,0.6547956803312163,4.415468521896514,inf,,0.8789872285432548
522,,0.0,0.0,0.7751737547512243,0.6726048746697441,0.6616010345688133,1.5779545925841845,1.33530000288258,,,0.648888643467878,inf,,,0.8829062925827325
523,0.0,0.0,0.0,0.985102861030397,0.9541970608029887,0.7622291072963716,2.0319005202268086,1.498963425432704,,,0.6699045166045591,5.703782474656201,inf,,0.8369196923924427
524,0.0,0.0,0.0,0.8642006034222185,0.836767426885759,0.7819079353273949,2.1626278394942693,1.4041389380892193,,,0.6699045166045591,5.703782474656201,inf,,0.9454227089772516
525,4.31748811353631,-0.014391627045121034,0.0,0.9393900199860579,0.8820882316381626,0.6368274424474349,2.18741531709324,1.5417443850196313,,,0.6038851895711802,10.021270588192511,inf,,0.8660168167763467
526,0.0,0.0,0.0,0.9060164092752262,0.8684188541548478,0.6483565840480424,1.9726657975445896,1.1922174639472933,,,0.6333676938231112,5.0106352940962555,inf,,0.8372731071269434
527,0.260390642537228,-0.004339844042287133,0.0,0.9849731925744157,0.9405216685735367,0.765595137244437,2.78639971595074,2.0417569706824987,,,0.6468212168108125,4.267111906211244,inf,,0.891201429184181
528,0.5460450554887584,-0.014561201479700223,0.0,1.0826106332836454,1.0282774924884899,0.7487427734075723,2.6688945102315094,2.0098655407070254,,,0.6153451465759925,3.937910776380274,inf,,0.8191945678598598
529,0.0,0.0,0.0,1.0637896257055481,1.060506500601632,0.6661688035143488,2.1261794998309616,1.1682573094080482,,,0.6380535849069913,5.703782474656201,inf,,0.8908791598538677
530,0.35202140778063695,-0.004693618770408492,0.0,1.0462303175853382,1.0259443963238637,0.7186964693522802,2.6334267247070655,2.8356687500154174,,,0.6233814453054027,4.600735588920226,inf,,0.9412515158734988
531,0.0,0.0,0.0,0.9684481637782404,0.9438020068758947,0.7352486909651498,2.857623003850986,2.329630131759461,,,0.62595550513784,5.0106352940962555,inf,,0.7452473056877921
532,0.0,0.0,0.0,0.8619243074477985,0.8149850172580594,0.5801362461720134,2.145225789903693,1.8096818905118353,0.6898082792944307,,0.62595550513784,5.0106352940962555,0.6964860818254599,inf,0.7504361528543934
533,0.0,0.0,0.0,1.156212961359059,1.1231100308923525,0.6902031247496379,2.6187766830632317,1.2701704919554468,,,0.6727386042041725,5.703782474656201,inf,,0.7779405359983721
534,0.0,0.0,0.0,0.9387444640219216,0.9008238895272318,0.7114819799542298,2.3579504497417987,2.1718625888925747,,,0.6584896970785714,5.0106352940962555,inf,,0.9288313389404138
535,0.0,0.0,0.0,1.0085922823798703,0.9926721280271072,0.7508423156550033,2.592072438693524,1.612924643746323,,,0.6425374456860184,5.0106352940962555,inf,,0.9352035177574424
536,,0.0,0.0,0.8757183902689457,0.7922616422815628,0.5838964563881556,1.9655369224108301,1.9749608128369294,,,0.6357360191111145,inf,,,0.9320443476036872
537,,0.0,0.0,1.1012574497182939,1.0510506980932008,0.7414679735089188,1.6813849682355442,1.225446492148379,,,0.648888643467878,inf,,,0.8944943485122758
538,,0.0,0.0,0.8602674967743034,0.8518761750702601,0.5877141108662979,2.131698733507705,2.041871167045521,,,0.680118107274185,inf,,,0.9357353477674849
539,0.0,0.0,0.0,0.7210294979768263,0.6509916066344642,0.6156724741569243,2.353295521111296,1.501752560573307,,,0.6180765742263259,5.703782474656201,inf,,0.7810475565179777
540,0.0,0.0,0.0,1.067079631651732,1.0421304437813452,0.7150399995736557,2.047905679321681,1.146185168200463,,,0.6528756675646988,5.0106352940962555,inf,,0.9405124897136787
541,1.2526588235240639,-0.016702117646987518,0.0,1.0853851815778714,1.0745658606703798,0.7131154736455815,2.160694957387026,1.608470580747241,,,0.6380535849069913,4.602950429249779,inf,,0.9003469542873679
542,0.0,0.0,0.0,0.8674585700604602,0.8543699076880856,0.6764301034930065,2.7684257181307204,1.9614100845072628,,,0.6309483474627791,5.0106352940962555,inf,,0.6223533066319953
543,0.0,0.0,0.0,0.6179338417042685,0.607383908524368,0.6378912794778533,2.580984615311622,2.099926212496783,,,0.6333676938231112,4.605170185988091,inf,,0.704881029188146
544,,0.0,0.0,0.8643676076078065,0.8174614198117228,0.6098966180910416,1.433724203790531,1.25383383826647,,,0.6180765742263259,inf,,,0.8199419958902757
545,0.0,0.0,0.0,1.1233303173196099,1.1153626559027887,0.764128379352964,2.8415283961402884,1.2812958730648103,,,0.6380535849069913,5.0106352940962555,inf,,0.9399357124349799
546,0.0,0.0,0.0,1.0700684317081022,1.0098349737298962,0.7455091011273045,2.7424876665011206,2.5149661476863323,,,0.62595550513784,5.703782474656201,inf,,0.8639904199399648
547,0.0,0.0,0.0,1.1590253510035495,1.1316563340859547,0.8437486342175673,2.9664070368777917,3.295159630822078,,,0.6447042257417027,5.0106352940962555,inf,,0.9203442035726904
548,0.0,0.0,0.0,1.2596970615271832,1.211357708158613,0.7035384120338158,2.841914769933345,2.5814874360091817,,,0.6468212168108125,4.605170185988091,inf,,0.9343401500462046
549,0.012693560160927339,-0.0002538712032185468,0.0,0.994261927167002,0.9433346214149246,0.6971914459452384,2.058712892569105,1.3572332725048648,,,0.6602640781246099,3.9243205332385522,inf,,0.8530583656001169
550,0.01867789327188443,-0.00012451928847922954,0.0,0.9928243187015436,0.9527702598357143,0.65481213937496,2.0202169461975523,1.67906121847393,,,0.6425374456860184,5.029138765660815,inf,,0.948283441810555
551,1.3040076684760487,-0.026080153369520975,0.0,1.0384600264931991,1.0484665301981055,0.7801679708223109,3.5426262191916744,6.64686959784199,,,0.6619902821573977,4.287120576919914,inf,,0.8605020352182411
552,0.0,0.0,0.0,0.9932210821813213,0.9503488948439073,0.6925228106719941,2.1489596472355106,1.41005478567499,,,0.62595550513784,5.703782474656201,inf,,0.9298155715875456
553,0.1505525463919608,-0.0010036836426130721,0.0,0.9817497868752416,0.9398508057072412,0.57534956639099,1.4266672174364392,0.6000933402748014,,,0.6602640781246099,5.149897361429764,inf,,0.9379129233043714
554,0.17833747196936622,-0.0011889164797957749,0.0,0.4674323387597795,0.45640426626408975,0.417378113824046,1.788579652442584,0.8673814224580332,,,0.6566669596287297,5.173154223594031,inf,,0.8536216218116999
555,0.5300658840500228,-0.00706754512066697,0.0,0.7828610518020077,0.7492595500302668,0.5434363802903884,1.6639942415090363,0.8134288917697672,,,0.6468212168108125,4.56594947283481,inf,,0.7134866992266415
556,1.1348976350855273,-0.007565984233903516,0.0,1.0385272738705613,1.0126358990518973,0.6839378292527459,2.0300195903286116,1.2357564257513536,,,0.6097226960127671,5.605446573935339,inf,,0.8130314390119627
557,0.07998355654353034,-0.0007998355654353034,0.0,0.743872982321866,0.6345752075634477,0.5596356404913665,1.712986406101185,1.2672181555098903,,,0.6425374456860184,4.678936336227701,inf,,0.8729544139478975
558,,0.0,0.0,0.587608730491964,0.5721992948850324,0.5214936393793959,1.530488343089352,1.0499191242331618,,,0.6602640781246099,inf,,,0.9524858817320081
559,0.0,0.0,0.0,0.819848136469718,0.8146899924637571,0.7157451858577366,2.2037269705454996,1.0157889774434032,,,0.6547956803312163,5.703782474656201,inf,,0.8552412769766928
560,,0.0,0.0,0.7983316199797671,0.7506374493101874,0.5673190783672515,1.706679803128945,1.0079348085905413,,,0.6403206450210053,inf,,,0.6532285656887395
561,,0.0,0.0,0.756204356177891,0.7213200959828925,0.5432568273840812,1.5518215078419526,1.2168634247295609,,,0.585052858160615,inf,,,0.9372680693972016
562,0.0,0.0,0.0,0.6759969644467755,0.6327472678893997,0.6633238594262514,2.2050483752565233,1.6646471520875896,,,0.6068309995095971,5.703782474656201,inf,,0.9340937761066086
563,,0.0,0.0,1.0583626590009576,1.0228498542828817,0.692326677910181,1.5760134947778868,1.0290763072143267,,,0.648888643467878,inf,,,0.9275657194780158
564,,0.0,0.0,0.812117635943385,0.7659319854746766,0.6193914628363761,2.0361365442064727,1.6165040714674448,,,0.6509067234006624,inf,,,0.9479213129155147
565,0.0,0.0,0.0,1.0049109041706492,0.928620227801613,0.7059713460155214,1.6151891016789406,1.0170044635282713,,,0.6153451465759925,5.703782474656201,inf,,0.951182267879011
566,,0.0,0.0,0.8886197884093802,0.8614276894827962,0.5123153345481579,1.1714012355199954,0.8632539400148755,,,0.6425374456860184,inf,,,0.9508345280163546
567,,0.0,0.0,1.0627220275971627,1.0432660972378625,0.7825702467891296,1.9524093761475747,1.3950838739712905,,,0.5915533975974677,inf,,,0.9039798114185364
568,,0.0,0.0,0.7652634577579137,0.7384455970358905,0.61603116628414,2.240743034638553,1.4616777285156162,,,0.648888643467878,inf,,,0.9505721509398048
569,,0.0,0.0,1.09677014398773,1.0756135784270284,0.6640681665615685,2.1188542355455633,2.0993871252354555,,,0.6699045166045591,inf,,,0.9477006862570526
570,0.2706435721833041,-0.002706435721833041,0.0,0.7135337224592232,0.6738886707307812,0.6107571022809858,2.7412964637244817,2.9588132467302066,,,0.6509067234006624,4.813151489562624,inf,,0.6923969946819679
571,0.0,0.0,0.0,1.0487438567635166,1.006637912757645,0.6862306100388315,3.3042566294403373,4.744238854917622,,,0.6699045166045591,4.31748811353631,inf,,0.8506091833292614
572,0.27237184522277724,-0.0036316246029703633,0.0,0.9242060757886582,0.8899049560032763,0.6253206630442125,2.2386693953811023,1.567302695585417,,,0.6509067234006624,4.55321044705738,inf,,0.8568367336521819
573,0.0,0.0,0.0,0.8486180270173591,0.8096857920095866,0.6024259420264629,2.5496137901260574,1.7912806888011268,,,0.6528756675646988,4.31748811353631,inf,,0.7574795966658957
574,,0.0,0.0,0.9899132834968591,0.8804938490327654,0.5142720259970298,2.1626112385788487,1.941178093785119,,,0.6584896970785714,inf,,,0.9179602058895729
575,0.0,0.0,0.0,0.7717524752712085,0.7554649214956684,0.6099372691499801,3.062053768750752,3.400793856705604,,,0.6528756675646988,5.703782474656201,inf,,0.9466141405847149
576,,0.0,0.0,1.135012992385175,1.130536192620368,0.7573599449841695,3.087346651523422,3.396051112047664,,,0.6509067234006624,inf,,,0.9412343039139989
577,0.0,0.0,0.0,0.8840868984009463,0.844209907327064,0.7709566497987362,2.9345939062632023,4.076890935153266,,,0.6584896970785714,4.605170185988091,inf,,0.9314594317589635
578,1.4391627045121034,-0.014391627045121034,0.0,1.1809129052504597,1.1382622058521865,0.7988985755384361,3.112174642599187,4.324553358024283,,,0.581717464821069,5.003990751377587,inf,,0.7696857177420431
579,0.9073415252257789,-0.02419577400602077,0.0,0.9052924933271493,0.8880772272415585,0.6182435836548567,2.705291357527219,1.6087693300411723,,,0.6468212168108125,3.9333601428162774,inf,,0.7938462359851025
580,1.7530322177982516,-0.017530322177982515,0.0,0.914713614943667,0.8196414798793863,0.7658968264682752,1.7300662592279876,1.2436066743867389,,,0.5748741956352443,5.552493027109975,inf,,0.7867479657825647
581,0.0,0.0,0.0,1.0428560796182416,0.9929328693605434,0.6279765872811843,2.735694194551975,2.7038359705326354,,,0.6699045166045591,5.0106352940962555,inf,,0.7127902497907648
582,,0.0,0.0,1.0208525118679488,1.0002766191418386,0.6200160477060118,2.2801583596806902,1.6863747767941653,,,0.6403206450210053,inf,,,0.7365970300407553
583,0.0,0.0,0.0,1.0507079251891092,0.9963322148919822,0.7622005548252713,2.1721913885631516,1.1789219875640584,,,0.6380535849069913,4.605170185988091,inf,,0.7664207425437877
584,0.0,0.0,0.0,0.9096532577221675,0.7979060397136464,0.5271384346138229,1.3439986204447585,0.8934032262283258,,,0.6584896970785714,4.605170185988091,inf,,0.9497951439078098
585,0.0,0.0,0.0,1.1559696989779624,1.1159437546810218,0.7335299914198514,2.9263378060202845,2.016698863863202,,,0.6602640781246099,3.624340932976365,inf,,0.7206974982567863
586,0.13329969288436233,-0.003110326167301788,0.0,1.0402991541392257,1.0102990379982881,0.576891490969401,2.487311512518786,2.6104638935772506,,,0.6333676938231112,3.848526693869019,inf,,0.847930639991346
587,0.0,0.0,0.0,0.6210655761602922,0.5673610836848199,0.661699156090751,2.1608821410483103,2.050366556391213,,,0.6528756675646988,5.703782474656201,inf,,0.5936963117319415
588,,0.0,0.0,0.715768968603796,0.6746797867161507,0.6482355645433638,2.0301077425060767,1.42499737758226,,,0.6403206450210053,inf,,,0.8041401979560254
589,0.21484474849951468,-0.000716149161665049,0.0,1.1799677773754906,1.1474502891176406,0.6858011314222664,2.2512520528016102,1.359498814114319,,,0.6008849035917525,5.918627223155716,inf,,0.9176318657793318
590,0.0,0.0,0.0,0.7741245289314891,0.7206429378231761,0.6219317904797035,1.8863015688033296,1.4355972583208656,,,0.6468212168108125,5.703782474656201,inf,,0.6967822146078692
591,0.09036205567284752,-0.0012048274089713003,0.0,0.8183440602677726,0.7400253621853319,0.6851781262880929,2.6841388467433713,2.1161574712445246,,,0.6153451465759925,4.396350961962035,inf,,0.7987797284768338
592,2.3336152340160496,-0.0233361523401605,0.0,0.9316354541010496,0.9049103000039999,0.6513097488674914,2.5423634833519424,1.4917099206327933,,,0.6425374456860184,5.569834502146462,inf,,0.7481735904051956
593,1.2860861200757245,-0.017147814934342993,0.0,1.1306777278424354,1.123650400498342,0.7498843035733488,2.251390136400386,1.4032072125476098,,,0.6380535849069913,4.645992180508347,inf,,0.8413427464885145
594,,0.0,0.0,0.8269375182437424,0.790200086311932,0.6730933427018014,1.837805948160249,1.3737057026656054,,,0.6403206450210053,inf,,,0.7713456422761922
595,0.25407346321114777,-0.005928380808260115,0.0,0.6996208417901865,0.6662619541155342,0.6088097699154429,2.5309178804498225,1.981809211860324,,,0.6357360191111145,3.9390516778160656,inf,,0.8252685168742282
596,,0.0,0.0,0.9443612893222548,0.9112862417565911,0.677212341681737,1.9134074413316955,1.890700640876531,,,0.6403206450210053,inf,,,0.9063218389892507
597,,0.0,0.0,0.5341647707211862,0.44437584800942526,0.5024046757897036,1.5820839891344611,1.2560032865874715,,,0.6233814453054027,inf,,,0.8729653939048396
598,0.0,0.0,0.0,1.0399066607480723,0.9578021023379955,0.6638387178540404,1.6510710303638922,1.374072950554727,,,0.6602640781246099,5.703782474656201,inf,,0.7425354590771881
599,,0.0,0.0,0.28588429402253124,0.24466649818351377,0.4383946003690872,1.6041562352984509,1.606442917905448,,,0.6403206450210053,inf,,,0.7808676300859538
600,0.20023878329856262,-0.0013349252219904174,0.0,0.7801424332191472,0.6454261493389744,0.6255435315788294,1.59499384818004,1.3661404833298818,,,0.6284777104787076,5.190958848227537,inf,,0.9284421987385549
601,0.013798574297390287,-0.00022997623828983812,0.0,1.122173060672371,1.074437154286509,0.7236102782053202,2.323234866036542,1.2538241370380692,1.5926759908364452,,0.6233814453054027,4.107767582554241,1.5993537933674744,inf,0.6598811795529856
602,0.00295335059310533,-0.0001476675296552665,0.0,1.245640927494193,1.2341364062771478,0.8361582628486665,4.345259613573119,2.95407326639343,,,0.6153451465759925,2.998625343336419,inf,,0.5763452109693039
603,0.0,0.0,0.0,1.0390411357454525,0.9961938930010187,0.7901824372026238,3.6841852701965183,7.057656206018981,,,0.6447042257417027,3.138833117194664,inf,,0.8015097897252489
604,0.0,0.0,0.0,1.0008122740849865,0.9513682463283651,0.7148596633888314,5.073278273912945,31.559080923408924,2.348036355897963,,0.6425374456860184,2.659260036932778,2.354714158428992,inf,0.7272144744804585
605,0.13587144092415104,-0.008152286455449062,0.0,1.42152700669255,1.4007037940460187,0.8988604660343704,3.8964473187700364,1.880169320042878,,,0.6740851607140061,2.8654840423883856,inf,,0.6856433572157994
606,0.08221914613298077,-0.004110957306649038,0.0,1.0491502372403056,0.9767122204214389,0.8121414450843402,3.297802075304818,3.0159131425337553,2.652481894919751,,0.6652988471865258,3.047961678470936,2.65915969745078,inf,0.6636619677634826
607,0.0,0.0,0.0,0.6132825762906622,0.5734538599686212,0.5328685966256476,1.8229602663044462,1.4576601964773515,,,0.6333676938231112,5.0106352940962555,inf,,0.8102135830271872
608,,0.0,0.0,0.7035267128129439,0.6303119173578493,0.5748544565367778,1.8798091629865195,1.1328842286425589,,,0.663668482632973,inf,,,0.8773464854815874
609,0.5164994789696072,-0.015494984369088218,0.0,0.9404309773044186,0.8980073388086562,0.6898488314396871,2.967736825970242,2.3302399948137014,,,0.6068309995095971,3.712716876927792,inf,,0.5409285974308251
610,0.0,0.0,0.0,1.1167928437691403,1.0590958895170128,0.7973805419078085,3.018108881876809,2.0573306272440495,,,0.6727386042041725,4.605170185988091,inf,,0.8102669558575469
611,0.014062702276175516,-0.0007031351138087758,0.0,1.1718370689552486,1.1323984057939502,0.7711208922785605,3.5609755830934526,2.6331795990106306,1.9981410989446096,,0.6509067234006624,3.0091552938861317,2.004818901475639,inf,0.8620315085049862
612,0.0,0.0,0.0,0.9159372473026514,0.8198280685435189,0.5331064833781242,1.808220765306605,1.1855987162702,,,0.6584896970785714,5.0106352940962555,inf,,0.7467674103355465
613,0.041410226549749934,-0.0008282045309949986,0.0,0.8550067763062669,0.7675982152728134,0.6072100465499702,2.52639977223493,1.2984304869528889,,,0.6284777104787076,3.949378791971915,inf,,0.6516940552784821
614,0.01942230270932525,-0.00038844605418650503,0.0,1.1688466194082114,1.1119075617532543,0.7524493199312369,3.7638033030737748,3.4711605439690416,,,0.648888643467878,3.9305264769927057,inf,,0.7190951440492772
615,0.4348768718045704,-0.008697537436091408,0.0,1.1368815756241075,1.041301023950437,0.7916407444672348,3.0250538256514736,3.084252731703523,,,0.6425374456860184,4.151973675058737,inf,,0.7984223264757951
616,0.12621441557873775,-0.0029450030301705473,0.0,0.9840157564347497,0.9106249021122174,0.5751915283935897,2.704596295871997,1.5310370506514364,,,0.6447042257417027,3.8454033180867504,inf,,0.8326465094416519
617,0.015154594848312695,-0.0007577297424156348,0.0,1.0560004086922115,0.9913657595070501,0.7891159514334368,3.2948190556986883,3.4533955537094636,2.69106302891232,,0.6727386042041725,3.009380544478367,2.697740831443349,inf,0.7553261425543641
618,0.47643379124902846,-0.01905735164996114,0.0,1.09863582357935,1.0628158554349887,0.7174264574565582,3.6404437266654277,6.365403177753302,2.3936468671500153,,0.648888643467878,3.306796706240671,2.4003246696810447,inf,0.8085988159427195
619,0.57037824746562,-0.019012608248854004,0.0,1.4689201562438272,1.4621319828349697,0.8703142482970393,4.256579416255044,4.875777472228266,2.1942559778709,,0.6097226960127671,3.5061875955197865,2.2009337804019293,inf,0.760170452426796
620,0.0,0.0,0.0,1.0521360644620144,0.9798458406769865,0.7955259462597009,2.7618667013666465,2.747337160236268,,,0.6097226960127671,4.605170185988091,inf,,0.601566153334794
621,,0.0,0.0,0.9701511770492254,0.9232471015926126,0.780458516239435,3.338669377315895,3.124052454512773,,,0.6528756675646988,inf,,,0.837600754606874
622,,0.0,0.0,0.8793285396639202,0.7856445117766993,0.6811758341425903,2.962641430937046,2.405545273595589,,,0.6207552362147116,inf,,,0.9110768422142208
623,0.0,0.0,0.0,1.0179412920376867,0.956368339664478,0.8115791812019981,3.4689372869687425,2.360588968089918,,,0.663668482632973,3.3058872018578307,inf,,0.8186399646726095
624,0.0,0.0,0.0,1.025802021430237,0.985105583047229,0.7545924394495785,3.719667969661428,4.606860313878522,1.6060990111685858,,0.648888643467878,4.0943445622221,1.612776813699615,inf,0.8424353864014242
625,0.0,0.0,0.0,1.096610262579325,1.073328601302595,0.8103960575341874,3.888863964278719,5.768854809603367,,,0.6153451465759925,3.912023005428146,inf,,0.8350192922235106
626,0.15753585987812377,-0.005251195329270792,0.0,1.036875804073634,0.9760389486932608,0.7610201539855014,4.364643383020006,1.8496707483284913,,,0.6858323589451731,3.4863922277253874,inf,,0.683947774657333
627,0.19881178086100662,-0.00861517717064362,0.0,1.1287876333755142,1.0164937229261883,0.719605057746695,2.710693532707207,2.4387431434691758,,,0.6153451465759925,3.271925045958016,inf,,0.7410894727382314
628,0.2625188464263938,-0.009625691035634439,0.0,1.4383882977321207,1.3538794419861186,0.8572505189235444,3.2196625404006407,2.2201696893309104,,,0.6509067234006624,3.476639576829014,inf,,0.7748449469380948
629,0.9983891916451147,-0.02329574780505268,0.0,0.9446977075168227,0.8958896101188631,0.720733317278461,2.285919122669604,2.0089270703918976,,,0.5915533975974677,4.0398563769380305,inf,,0.5910796556084087
630,0.0,0.0,0.0,0.508481025643467,0.45577322506773527,0.4615516822326532,1.3162056645425217,1.0741325947917535,,,0.6425374456860184,5.0106352940962555,inf,,0.9253395777026334
631,0.22998111661113207,-0.0038330186101855346,0.0,0.9158272042430693,0.8663425847439061,0.764440451041428,2.61513733320961,1.8618704371387222,,,0.6468212168108125,4.241298975178764,inf,,0.906984723013552
632,0.0,0.0,0.0,0.9964166199223554,0.9422141486901069,0.6946078582902343,1.6919964198453297,1.1193743642671534,,,0.6180765742263259,5.703782474656201,inf,,0.7418350654945006
633,,0.0,0.0,0.5738950494277744,0.5192269952361779,0.6603311747492305,1.5507589181674064,1.0217145577699032,,,0.6357360191111145,inf,,,0.7336249694068436
634,,0.0,0.0,0.7528114195192463,0.6697394865262175,0.6895385849457122,1.3800802511719743,1.0327587912219827,,,0.6233814453054027,inf,,,0.9234185308746458
635,,0.0,0.0,0.7766115445084417,0.7456458160867876,0.6901721639935734,1.6442889525935072,1.821323626575589,,,0.5978297680564633,inf,,,0.8936128437344422
636,,0.0,0.0,0.9596675700769958,0.9144776984430829,0.6074895520781679,1.5097868064489388,1.4332187667238179,,,0.6097226960127671,inf,,,0.9006974395666862
637,,0.0,0.0,0.7172316643726647,0.6585157959731938,0.5674482980944215,1.5179745643536742,1.359003389506254,,,0.6584896970785714,inf,,,0.9180413191875679
638,,0.0,0.0,0.9741837618251282,0.9503161190347021,0.666772427816621,1.6096220279017879,1.4141579623941172,,,0.6509067234006624,inf,,,0.8857165970816704
639,,0.0,0.0,0.9913199024493026,0.9836444023692841,0.6491568396341507,1.5831312444463574,1.3174342593455608,,,0.6547956803312163,inf,,,0.8724607058917078
640,0.0,0.0,0.0,0.85705291515023,0.8163457071294649,0.5509828456838407,1.7378847427087205,1.2477336348280748,,,0.6602640781246099,5.0106352940962555,inf,,0.9374410103448163
641,,0.0,0.0,0.9766788278046336,0.9472863408028762,0.5347724056441143,1.1490637022199615,0.6855605368513289,,,0.6619902821573977,inf,,,0.9489383124869822
642,0.0,0.0,0.0,0.6570343697721431,0.5395330133870538,0.5782862298731989,1.482682458475751,0.837722922025196,,,0.5883313578629602,5.0106352940962555,inf,,0.9552742417236189
643,0.27006047110196146,-0.0009002015703398716,0.0,0.8527490364655672,0.7862469600075491,0.6803482605871434,2.28208131657122,2.051185577809613,,,0.6284777104787076,5.973842945758163,inf,,0.9491075976846195
644,0.0,0.0,0.0,0.9293956877530026,0.9064912705108507,0.5979017250805783,1.9890230156385955,1.2902218823880758,,,0.6357360191111145,5.0106352940962555,inf,,0.9529181682220851
645,,0.0,0.0,0.9109803159029478,0.8603608360486191,0.6501246565555996,2.1719546010424216,1.975649656508963,,,0.6619902821573977,inf,,,0.9531252245286573
646,0.013750089715130562,-0.0004125026914539169,0.0,0.9248704631877579,0.9029437666518448,0.6886820098824286,2.5134079831221716,1.6988675181831985,,,0.6602640781246099,3.519980917652122,inf,,0.7851167101887542
647,0.6589349106478687,-0.006589349106478687,0.0,1.1259464160532142,1.1243923236823135,0.743190331724543,2.905206975358239,2.857487734180006,,,0.648888643467878,4.982695925407015,inf,,0.7931114374074367
648,0.0,0.0,0.0,0.7621811649962655,0.7193929927953099,0.651100150703665,2.134439293197289,1.2668642079982972,,,0.6727386042041725,3.912023005428146,inf,,0.7485425202010746
649,0.6716343401807549,-0.006716343401807549,0.0,0.7682233250750845,0.6915157752049832,0.6992562442830187,2.2332918411718365,1.8759598920181237,,,0.6233814453054027,4.946096772958684,inf,,0.9452783837986661
650,0.0,0.0,0.0,0.9869486003112378,0.9061836126720823,0.7176680541722205,2.187728543669035,1.770730262907469,,,0.6547956803312163,5.703782474656201,inf,,0.6904378155156027
651,1.9539231216093906,-0.07815692486437563,0.0,0.7127312921326642,0.7133113453735946,0.5778250664593789,1.877515201857524,0.5399762568799142,,,0.6547956803312163,3.749809678177537,inf,,0.803088442388296
652,0.005025167926750725,-3.3501119511671504e-05,0.0,0.9445654071861308,0.918432695909425,0.6843244835789394,2.2104561494770576,1.8601987330830148,,,0.6207552362147116,5.0156478359198005,inf,,0.8789460297532964
653,,0.0,0.0,0.6176938501696518,0.5703349775882847,0.6186949879658923,1.774362127435689,1.7428816897614885,,,0.62595550513784,inf,,,0.8542611261262785
654,,0.0,0.0,0.8766000317098203,0.7941055902411159,0.5987566766368705,1.927832850014303,2.088099534702696,,,0.62595550513784,inf,,,0.7610228686193884
655,0.0008361235188495815,-2.2296627169322174e-05,0.0,1.1598947035238685,1.1258429286668985,0.7127120331354821,3.2921610120867415,4.3687423739492655,,,0.6233814453054027,3.6251746137249428,inf,,0.8664358679113427
656,,0.0,0.0,0.9846469233471131,0.9711438191440966,0.6887918074059425,2.361041427458346,2.8078425647153207,,,0.675384900321601,inf,,,0.8822937993329801
657,,0.0,0.0,0.8889237090110553,0.8599413524042974,0.7470005199834163,2.526844693906834,3.089315738281064,,,0.6284777104787076,inf,,,0.8591607228935909
658,0.0,0.0,0.0,1.1334787771284769,1.1154320496837378,0.8391541479480172,2.1801688317318995,2.4188585071254787,,,0.585052858160615,5.703782474656201,inf,,0.8386843372642995
659,,0.0,0.0,1.0156256703191335,0.9791276583392151,0.8399492439907774,1.93178163213018,2.7090311974966825,,,0.6153451465759925,inf,,,0.8418156904834025
660,,0.0,0.0,1.0950413190252886,1.0660008630948872,0.7755962783383479,1.8830300685183086,1.9325935286231608,,,0.6357360191111145,inf,,,0.8667794827125875
661,,0.0,0.0,1.051416798621605,1.0225061401081128,0.7248218997864366,1.8227088242955252,2.181083304113785,,,0.6097226960127671,inf,,,0.8196342181680241
662,,0.0,0.0,0.28250963716792243,0.26374698834182697,0.486455865742064,1.9975208043321553,3.0723037722979774,,,0.6357360191111145,inf,,,0.8793026675031717
663,,0.0,0.0,1.3441396789320421,1.3346885964901916,0.8028945974381112,1.9519578593608642,2.18514680730374,,,0.6038851895711802,inf,,,0.7650552543106158
664,,0.0,0.0,1.2779769547933069,1.2744637076559453,0.7809382995161563,1.7381705097248898,2.4458742924366033,,,0.6425374456860184,inf,,,0.7710537090489386
665,,0.0,0.0,0.8428661363681362,0.8129559561491622,0.6732136895425763,1.9678836069703125,2.3974948735042325,,,0.581717464821069,inf,,,0.7602951688610619
666,,0.0,0.0,1.5211280772306632,1.4950185760649983,0.885307818958043,1.9740167848560244,2.729064969928559,,,0.6207552362147116,inf,,,0.6920050699838372
667,,0.0,0.0,1.300723623426259,1.289906518722702,0.8409921660525328,2.0175475735737916,1.7965315810883054,,,0.6233814453054027,inf,,,0.8522658080806277
668,,0.0,0.0,0.6049420352399993,0.5834366743011148,0.4681658271460222,1.829384206255265,2.159221150466097,,,0.6284777104787076,inf,,,0.8819879841981968
669,,0.0,0.0,0.8283346071199311,0.7995483061271739,0.7256072004666008,1.9993244155285013,1.5631490637043164,,,0.6068309995095971,inf,,,0.8404026280942869
670,,0.0,0.0,1.091915140027385,1.0800337980909644,0.8136576571059145,1.4952818821369838,1.7031141775596126,,,0.6380535849069913,inf,,,0.7744620618460281
671,,0.0,0.0,1.2429788422111403,1.2185586927665648,0.8579252346678352,1.7560329942668829,2.0951169986324345,,,0.6547956803312163,inf,,,0.7812983205712043
672,,0.0,0.0,1.1992733960350077,1.1661358740915442,0.7825862083797063,1.62154155855904,1.8410117032667983,,,0.6207552362147116,inf,,,0.8244933105784076
673,,0.0,0.0,1.1703245209178532,1.1636091674357474,0.7787259728860663,1.1701072672042432,1.5515047260533166,,,0.6068309995095971,inf,,,0.7359393638319728
674,,0.0,0.0,1.0876899833457505,1.0872090096752542,0.7469751247475996,1.2338452033269378,1.5414880883561772,,,0.5947193981915972,inf,,,0.7753284511437313
675,,0.0,0.0,0.9038855333768854,0.8954942412214061,0.7904750276504499,1.6240723490081042,1.740345556133561,,,0.6153451465759925,inf,,,0.8308792582665993
676,,0.0,0.0,1.5474904606138062,1.5240161303556585,0.8817466897077404,1.5628103111309404,2.2420862382389624,,,0.6447042257417027,inf,,,0.7103517135580724
677,,0.0,0.0,1.443133100112876,1.4057667030552543,0.8307422910481836,1.47625257028954,1.9518337502592273,,,0.6180765742263259,inf,,,0.6952665720022728
678,,0.0,0.0,0.696403919848614,0.6820325786734831,0.6233789331796497,1.5601690031986446,2.0703131342247447,,,0.6528756675646988,inf,,,0.781540020891397
679,,0.0,0.0,1.003573572388324,0.9575683781441398,0.802098689183744,1.5430081214340063,2.3204056092761247,,,0.5978297680564633,inf,,,0.802568102017886
