,temp+bvp_XAp0,temp+bvp_XAp1,temp+bvp_XAp2,temp+bvp_XCond1,temp+bvp_XCond2,temp+bvp_XDist,temp+bvp_XFuzz1,temp+bvp_XFuzz2,temp+bvp_XK2_1,temp+bvp_XK2_2,temp+bvp_XPermEn,temp+bvp_XSamp0,temp+bvp_XSamp1,temp+bvp_XSamp2,temp+bvp_XSpec
0,,0.0,0.0,1.5572787715778444,1.557491181714323,0.6063778438582883,0.033626064610557435,0.033441545046184365,,,0.6380535849069913,inf,,,0.934955312248368
1,0.24569622747132777,-0.015560761073184094,0.0,1.2182360111764916,1.1994079505542603,0.7968661345148798,4.669765489998494,2.53230481540521,2.8158550602502492,,0.6566669596287297,2.884588513140437,2.8225328627812782,inf,0.8610758472379868
2,0.020285777392200884,-0.0007438118377140324,0.0,1.0765471454933766,1.0177259530788954,0.7746830296447307,3.373281217386406,6.237168839688499,,,0.6727386042041725,3.3242363405260273,inf,,0.634797329670895
3,0.0,0.0,0.0,0.8483476756890339,0.7964283131614072,0.6104746817989648,3.658284997655349,6.792079003160607,,,0.6333676938231112,2.995732273553991,inf,,0.8425974492230378
4,0.0,0.0,0.0,1.1799935251592197,1.1347852457417118,0.8185602223487722,3.496576958265842,3.3234998478862483,,,0.6602640781246099,5.0106352940962555,inf,,0.5474084168140076
5,0.4243218919376291,-0.004243218919376291,0.0,0.9164271484934031,0.8175008265575442,0.7761132614451152,2.7369421802656504,3.0545661359551883,,,0.6509067234006624,4.879607031689852,inf,,0.800483724938804
6,,0.0,0.0,0.7506673022909707,0.706817774377077,0.7702374083567867,2.8244180589186807,2.4308009430021102,,,0.6207552362147116,inf,,,0.6252437787991373
7,0.9223309993382716,-0.012297746657843622,0.0,1.0246254868964002,1.0266482525019722,0.656996036683729,3.05888274089979,5.915937646470372,,,0.6509067234006624,4.740608156883195,inf,,0.7519249919982665
8,0.0,0.0,0.0,0.9712974388415141,0.9368638915324013,0.773343866138052,3.5987263959743525,26.20759028377345,,,0.6153451465759925,4.31748811353631,inf,,0.6764009544599293
9,0.3289407275705779,-0.007675283643313485,0.0,0.916156250551715,0.9008038751070437,0.747157778531445,3.6162523334510834,3.0033024284870184,,,0.6309483474627791,3.8954937034769355,inf,,0.7062931157427316
10,0.17684907917677017,-0.009431950889427743,0.0,0.925328716304172,0.909347107564029,0.6962394328191737,3.4855400908183447,4.347831996834067,,,0.6403206450210053,3.0132175878950105,inf,,0.7359542001051615
11,0.149268856505533,-0.00597075426022132,0.0,1.1097791436947302,1.0785982990657972,0.7677968264728855,3.8921569210704456,21.560783257876654,,,0.6547956803312163,3.3086182003690623,inf,,0.5385551334925308
12,0.0,0.0,0.0,1.1628743536297261,1.1182876598068414,0.7287994086208375,2.0046236772030483,1.0552504072869802,,,0.6309483474627791,2.9311937524164198,inf,,0.6276082093034165
13,0.08285851514550495,-0.002761950504850165,0.0,0.9212918411051063,0.7798882435492045,0.732426275329528,2.06825266475232,1.4878021844166076,,,0.6425374456860184,3.4591796642005024,inf,,0.5786057704695879
14,0.0,0.0,0.0,0.558653499148466,0.509568297205822,0.5312917392485228,4.247405803333618,13.04099476625011,,,0.648888643467878,3.624340932976365,inf,,0.7809414083659351
15,0.0,0.0,0.0,0.7097314495834058,0.6466494766232812,0.5036792478372398,2.1353771540818216,1.5991960669952547,,,0.6207552362147116,4.605170185988091,inf,,0.613538865904307
16,0.0,0.0,0.0,1.351058116808096,1.2761797484586967,0.7936243176357308,3.110173661258232,1.5460057825817737,,,0.6333676938231112,3.506557897319982,inf,,0.7925607001504489
17,0.0,0.0,0.0,1.1561427368183876,1.0997875692113084,0.7347292207445036,2.9921466313342457,3.0842523815902205,,,0.6619902821573977,3.624340932976365,inf,,0.603418687712134
18,0.4233028929001388,-0.02680918321700879,0.0,0.8321304170606086,0.804115958332336,0.752741132518832,3.8835207097204765,2.902888638551274,3.713957027225621,,0.6468212168108125,2.9247561847579955,2.7823651911637204,inf,0.6604489247139528
19,0.31388331171946643,-0.010462777057315548,0.0,1.1151332479813547,1.052697983353502,0.8092926800707179,2.9486429116567314,1.7439024478094627,,,0.6380535849069913,3.5017546366534704,inf,,0.612696431702681
20,0.03454592065515631,-0.0016121429639072947,0.0,1.130188055606839,1.0762016888139574,0.7529797262666015,3.096588506982935,2.832387089887399,,,0.6333676938231112,3.094693554969787,inf,,0.5313547456119672
21,0.1200918831345738,-0.004803675325382953,0.0,1.061935865052034,1.0084012572619332,0.7325300879682862,3.1557508270556136,3.9413036509202444,,,0.6528756675646988,3.2846002340783413,inf,,0.7773443834522904
22,0.07648094410337437,-0.0033141742444795564,0.0,0.8568742400829483,0.8083028497307392,0.727216210048893,3.7652834961392383,6.859145002670944,,,0.6038851895711802,3.1885082882518048,inf,,0.8617111016439104
23,0.12117478870593777,-0.0024234957741187555,0.0,0.653650628744733,0.6400953201160534,0.655420264248898,2.6678360075686367,6.259435208687719,,,0.6528756675646988,4.0020692861129294,inf,,0.523793234524274
24,0.0,0.0,0.0,0.9940083583980482,0.8827007004333245,0.7586103614376493,1.989962415726056,1.6081517474712435,,,0.6403206450210053,4.0943445622221,inf,,0.6131828733844198
25,0.024190230944945126,-0.00024190230944945125,0.0,0.5186644001602366,0.4837333606964217,0.6347490580522095,2.0258703821491975,2.6543389151077683,,,0.6038851895711802,4.628780051627225,inf,,0.8101054053484109
26,0.0,0.0,0.0,1.3280857549794665,1.3224332403743027,0.8324259800170845,4.36116654523614,2.040596090755641,,,0.6403206450210053,3.2188758248682006,inf,,0.5692941754560822
27,0.32885754258842237,-0.015346685320793044,0.0,1.1870970279828272,1.1256907905471338,0.7477918896125823,3.317985496965039,3.5748002230847242,3.00800948671666,,0.6380535849069913,3.305281324832329,2.401840051089387,inf,0.8362779977364184
28,0.03114368870056725,-0.0013495598436912475,0.0,1.1419466127160103,1.100597639398699,0.7727081485447949,3.5638488937915223,2.4546560870189555,2.532208051980079,,0.6207552362147116,3.1682355214106073,2.5388858545111086,inf,0.5955273303427929
29,0.17907701297454237,-0.016116931167708813,0.0,1.4221512662015816,1.3998042998966163,0.844234260675379,4.422641038697718,13.45479896730342,,,0.6425374456860184,2.4897182067852226,inf,,0.568891407931324
30,0.06566008179189937,-0.00525280654335195,0.0,1.3782137922214601,1.3303373715860636,0.8826785135745732,4.67815500362516,3.370321597388471,,,0.6309483474627791,2.5677087165491383,3.1394126593725775,inf,0.7579466806103631
31,0.03635952752320111,-0.0015755795260053815,0.0,1.181325987272957,1.130223185147,0.7956266364074107,3.084397469484807,3.159171671153662,,,0.6619902821573977,3.1682355214106073,inf,,0.6060917031200412
32,0.3178934193343096,-0.011656092042258018,0.0,1.0999856496026161,1.0690109263562908,0.7958969738605064,3.308510696408734,2.1173211939397865,,,0.6547956803312163,3.468049688649996,inf,,0.5280995287353162
33,0.7136323992081113,-0.03092407063235149,0.0,1.0604178845783576,1.0388165179633881,0.7296729272172598,2.6389798952309693,1.5200508291684889,,,0.6509067234006624,3.4673371841667002,inf,,0.8382609093503824
34,0.0,0.0,0.0,0.5334253106945177,0.4512436082989668,0.5504661141710842,1.9557633366524152,1.1612230748351358,,,0.62595550513784,4.31748811353631,inf,,0.7432645284261067
35,,0.0,0.0,0.8873058581128046,0.8540389369592447,0.54889541497429,2.4051133269020517,2.672692849412779,,,0.6425374456860184,inf,,,0.8360125954501461
36,,0.0,0.0,0.7444914128415634,0.7245469753866431,0.4752422113758068,2.142783857080255,2.2047870882150997,,,0.6447042257417027,inf,,,0.8580340643538814
37,,0.0,0.0,0.6818169280130839,0.6088628712998961,0.5996424190046609,2.312135841945898,1.6390572465575843,,,0.6357360191111145,inf,,,0.6451562161227343
38,0.09137134177390223,-0.002131997974724385,0.0,0.9333498548609038,0.8938775157833775,0.5871955518203437,2.5640411926335434,1.312217302666446,,,0.6425374456860184,3.832493249804841,inf,,0.8229828472793911
39,0.23210714269187202,-0.009604226051539743,-0.004322202509972577,1.0614554393732143,1.0119553352445678,0.7100949511862864,3.4400950753572075,2.3693575150555066,4.336715248182791,,0.6153451465759925,2.92103717220705,2.581165929050782,inf,0.6939921421623066
40,0.0,0.0,0.0,1.2070364584631843,1.1798613974114804,0.7757932664436196,3.4530901380108747,1.576113549951018,,,0.6125606311107803,3.624340932976365,inf,,0.5995596445519331
41,0.20431500966939617,-0.010215750483469808,0.0,1.254099279213772,1.217829439718168,0.851237928240166,4.4202537184178325,6.190398070146064,,,0.6547956803312163,3.0613973549482676,inf,,0.5486093489552016
42,0.10105708867807503,-0.0016842848113012507,0.0,0.835798693881035,0.804711861674578,0.6760226666127123,2.735336740711412,1.0100165971887431,,,0.62595550513784,4.17700179590311,inf,,0.8759788526891826
43,0.20066213405432268,-0.008026485362172908,0.0,1.3323280734109662,1.296298153201871,0.8469198132170336,3.7426266553523515,2.910003471846368,,,0.6333676938231112,3.2977386732939253,inf,,0.7058250125973311
44,0.1209480032827132,-3.800039397182549e-07,-0.0032249000835993004,1.2599965675460325,1.2870057761055809,0.8098423506437797,3.848210202830702,9.147117809984302,4.1405302492481395,,0.6447042257417027,3.70500883604382,2.966357664874087,inf,0.5823453916444374
45,0.0266731797388098,-0.002400586176492882,0.0,1.2026540175204852,1.179883595420303,0.7673050383842557,4.671067867954937,19.63651358492636,3.2733025604528287,,0.6380535849069913,2.4271410129378577,3.2799803629838578,inf,0.4852294580421688
46,0.20925554114631095,0.0002915270350011285,0.00031683085300894184,1.14052508017592,1.0964862847090526,0.8148826984217608,3.1709679810872116,1.7396882173717518,2.599459547268753,,0.6068309995095971,3.0616346873333855,2.6061373497997824,3.3418976393808637,0.5926005517803563
47,0.12944074760629876,-0.01208113644325455,0.0,1.2059073440663224,1.191771506702073,0.8314286979965325,4.662133671033753,48.65596172492601,,,0.585052858160615,2.4069584417405117,inf,,0.5387064848539656
48,0.09347277730185086,-0.0040504870164135365,0.0,1.1052280846555458,1.038370137958194,0.7237706469288512,3.16600631319808,1.4031368528182258,,,0.6468212168108125,3.1944542517157264,inf,,0.6660876118578952
49,0.656638336633229,-0.028454327920773258,0.0,1.2119582398628066,1.192685821100844,0.7161892891950113,3.086255866422556,2.45987308118776,,,0.648888643467878,3.505817430792258,inf,,0.5920499717306429
50,0.3536811883441604,-0.015326184828246952,0.0,0.9824564863277354,0.9678973277420885,0.7087980681202122,3.5165035319086746,1.319318968182471,,,0.6284777104787076,3.3745554507157345,inf,,0.4327489118976076
51,0.3240137293533962,-0.010800457645113205,0.0,0.6717948049690503,0.6283162598853879,0.5012115445439782,1.2550635933912073,0.6587625058804909,,,0.6207552362147116,3.5680393676077236,inf,,0.5251897365675283
52,0.13912800489295693,-0.0021855521886278186,-0.001988287958160889,1.0312374659632015,0.9730703798552751,0.6726389760491833,2.2792441434449726,1.4727630562720386,3.023084219609273,,0.6125606311107803,3.6156289923743437,2.685990483037478,inf,0.505399729891289
53,0.0,0.0,0.0,0.8442296491294703,0.795509446044107,0.6342852741338759,2.3830500390303464,1.3054842386668999,,,0.663668482632973,3.912023005428146,inf,,0.6174410278607892
54,0.19756063528669626,-0.008560960862423504,0.0,1.3057975294769895,1.2421368070738734,0.7513160493206258,2.6565646688965154,1.492973461649143,,,0.6566669596287297,3.212507258417325,inf,,0.6384709754163236
55,0.046209812037329684,-0.0023104906018664843,0.0,1.2448790975032007,1.1955379973507967,0.7500844809456474,2.3394324413414025,0.7947638600445548,2.6708097481610142,,0.6309483474627791,3.029633825229672,2.6774875506920432,inf,0.7869735334990565
56,0.0,0.0,0.0,1.1696733915861635,1.1391668169000104,0.7565466685690337,2.9452462311103775,1.38473435993894,,,0.6668815377411301,3.757872325600888,inf,,0.45679515335252835
57,0.0,0.0,0.0,1.4183071649391963,1.4090349902586559,0.8378052281113936,6.988685216177436,14.958602422898952,,,0.6668815377411301,2.6127400212978853,inf,,0.8654228763694197
58,0.03172562141520315,-0.000634512428304063,0.0,0.7674629483418756,0.6846869510468868,0.6433127155885137,2.1591756348424997,0.8908895170339406,,,0.6333676938231112,3.941337393096921,inf,,0.8037571876367374
59,0.11305199769684167,-0.004898919900196472,0.0,1.0516780476852214,1.0343181738255074,0.6981255961659217,2.2250071169583694,1.3917138927481179,,,0.6333676938231112,3.19989052495712,inf,,0.6893488254860267
60,0.0,0.0,0.0,0.8094966921548598,0.7656039649476808,0.5957058651723905,2.4532721545669967,1.4906953968916299,,,0.6125606311107803,3.912023005428146,inf,,0.8107883943599044
61,0.0,0.0,0.0,0.8571859148629164,0.825028862464296,0.6055517632902904,3.3863304830247927,0.9831708066465241,,,0.6547956803312163,3.3058872018578307,inf,,0.8185514049456026
62,0.0,0.0,0.0,0.7325992310528331,0.6741755710958073,0.5813868722608455,2.4564500274297014,1.6841720089441408,,,0.6602640781246099,4.0943445622221,inf,,0.6771184539757892
63,0.4757054518800486,-0.004757054518800486,0.0,0.7988950969215777,0.7645892459724025,0.5955746383567385,2.3970342631998878,1.5166541413850165,,,0.6403206450210053,4.897306608789252,inf,,0.6365860681502419
64,0.0,0.0,0.0,1.1387273800014464,1.072101552633403,0.6548351070053245,1.5453020886118263,0.5557311662366795,,,0.62595550513784,5.703782474656201,inf,,0.7383613461456715
65,0.0,0.0,0.0,0.76996058242153,0.73316940723625,0.6223277708690952,2.1771521902428193,0.8264946420732295,,,0.6509067234006624,5.0106352940962555,inf,,0.5729357935832272
66,0.0,0.0,0.0,0.8707237050762983,0.8450207396144902,0.7114037506423754,2.951497583674761,1.8667674325120278,,,0.6652988471865258,4.31748811353631,inf,,0.9223137761483489
67,0.1172994258838611,-0.005082975121633981,0.0,1.2722218383340966,1.2490015418774802,0.7882723882088526,3.8839490035640405,11.538860795411152,2.4771133981731053,,0.6619902821573977,3.223330175217581,2.4837912007041347,inf,0.6390801243054194
68,0.1602968604073086,-0.002137291472097448,0.0,0.849232710145104,0.8285319417141722,0.6054664428517949,2.595861402224731,1.1713170166991116,,,0.6357360191111145,4.443429336894157,inf,,0.586709699200266
69,,0.0,0.0,1.174676453426733,1.1418769880696662,0.7712684273879816,3.0754812377236784,3.395716446013661,,,0.6380535849069913,inf,,,0.9280274172286327
70,0.1084670803996403,-0.0018077846733273383,0.0,0.9854416617344053,0.9218282191819385,0.7625395918074908,3.1927429719551332,4.468833381845041,,,0.648888643467878,4.182083476530107,inf,,0.7781555722720249
71,0.3555763784266385,-0.0023705091895109233,0.0,0.9936870295000477,0.9616710779488744,0.7796436442255507,3.3979645853396363,2.146531397632576,,,0.663668482632973,5.362559635276391,inf,,0.6418891983075787
72,0.0,0.0,0.0,0.9698251944118984,0.9577005454321329,0.7632018155360699,3.5483401381755257,7.147111669170357,1.7884205679625405,,0.6584896970785714,3.912023005428146,1.7950983704935697,inf,0.7925943747337497
73,0.0,0.0,0.0,1.2891635663827488,1.2376843391094623,0.8024464019533731,4.3661183330701485,21.088779320332428,3.1747149290824312,,0.6509067234006624,2.5257286443082556,3.1813927316134603,inf,0.6719716334183863
74,0.0,0.0,0.0,1.1190770820054445,1.024037911164227,0.7283261172904627,2.4663425926515896,0.9591184586615769,,,0.6309483474627791,4.0943445622221,inf,,0.7510432714994534
75,0.12805850562536186,-0.0017074467416714914,0.0,0.7023623984372559,0.5239947939311379,0.6618089851360969,2.4881980770329455,2.13857823878391,,,0.6038851895711802,4.436834871168877,inf,,0.6958836146406745
76,,0.0,0.0,0.8307487166445364,0.8171138872607735,0.6871644383083908,1.8072879647908664,1.903144677880065,,,0.5978297680564633,inf,,,0.9109257072340715
77,0.05539814253445112,-0.002400586176492882,0.0,1.181601131541324,1.1113360260885692,0.7909271356739465,3.7526012844557886,3.0939826675541684,,,0.6447042257417027,3.1791210663083684,inf,,0.5575202493998124
78,0.0,0.0,0.0,1.0875951317988366,1.0741776608084503,0.7431930335785255,3.147241323815927,3.778872200374239,,,0.6602640781246099,4.0943445622221,inf,,0.6756778498515726
79,0.10390114068769905,-0.0038097084918822985,0.0,0.9956675911478138,0.9619070086851443,0.7932773673338994,3.4307789050169695,3.7813328221171827,3.7804718730157085,,0.6284777104787076,3.3863087691684046,2.320812606753311,inf,0.5005071556887986
80,0.36108800390710344,-0.0036108800390710345,0.0,0.8580873126346653,0.8430312974890508,0.6861057241839235,2.863992945810946,2.1269330807196565,,,0.6528756675646988,4.915325114291931,inf,,0.6747714597016292
81,0.05509800610914506,-0.0005509800610914505,0.0,1.0535708648659603,1.0225042994897147,0.7409675494521627,3.100594947621583,3.056182496089549,,,0.6509067234006624,4.6576337555238325,inf,,0.9474617366166306
82,0.4623294907723358,-0.0030821966051489055,0.0,0.9346516737589148,0.8936696848093607,0.6355890384777572,2.3905916757018226,1.5491109491742248,,,0.6528756675646988,5.369694029390264,inf,,0.8044622004349946
83,,0.0,0.0,0.8971341369441798,0.8819861715533807,0.5643686405402731,2.559801279598852,3.093338033990736,,,0.6380535849069913,inf,,,0.7082847995721829
84,0.18349696005280736,-0.0018349696005280735,0.0,0.8362786707746057,0.7811328628981213,0.5824415356850933,2.55747545128376,1.8127321688588132,0.9431576726657063,,0.6566669596287297,4.75728590072498,0.9498354751967356,inf,0.5816678189004055
85,0.08662700796926846,-0.0031763236255398434,0.0,1.3198016047717493,1.313180234927967,0.827466275837117,4.032101503213141,1.44288302113398,,,0.6547956803312163,3.3706681766273325,inf,,0.725450476495667
86,0.4605170185988091,-0.01535056728662697,0.0,1.17326997113974,1.1548977535526153,0.877239571220334,3.325487004504934,4.3590049441608905,,,0.6380535849069913,3.5054474030359546,inf,,0.8381272407678217
87,0.02643417169610642,-0.0005286834339221284,0.0,0.8731853429882019,0.8444070431862735,0.7204474325507026,3.3448189862158975,3.5367481447734916,,,0.6180765742263259,3.93677117511734,inf,,0.6927703948123447
88,0.0,0.0,0.0,0.931768026344295,0.8724454654568299,0.6761730673085351,2.46141431527028,1.6574845700726173,,,0.663668482632973,3.757872325600888,inf,,0.6078785191686171
89,0.11874884829027099,-0.013062373311929809,0.0,1.2690399334102733,1.247794346504039,0.8579449909819424,4.483394958524322,23.993173049766085,3.4968304666976824,,0.6357360191111145,2.237629991971258,2.776344203390512,0.6964972674452273,0.5487849221521837
90,0.17452607838142567,-0.009889811108280787,0.0,1.2246573803686682,1.1653796525224862,0.811569379167998,3.5297231050586113,6.635117193515349,2.708260549347837,,0.6447042257417027,2.9921830240428493,2.714938351878866,inf,0.6035903774402956
91,0.02502957938816876,-0.0021692302136412924,0.0,1.3546810673274372,1.317109702204573,0.8277803831766323,4.400006266917788,1.7309312350642587,3.230168907658408,,0.6547956803312163,2.466935764466764,2.141573322786842,inf,0.6749458818084697
92,0.05646084700993866,-0.0033876508205963195,0.0,1.3285366066016855,1.2444127956027684,0.8579469654496459,3.149150581136654,1.9180290119447845,2.8417642622270116,,0.6207552362147116,2.858679311163675,2.8484420647580406,inf,0.8205374350407544
93,0.07643189677325996,-0.004331140817151398,0.0,1.3296939150273117,1.2477305221903128,0.8520141108603531,2.899788596927225,1.1127706984165426,,,0.6468212168108125,2.925791703127425,inf,,0.5523787814691191
94,0.0,0.0,0.0,0.8624224547742031,0.8450428857774506,0.6617087964873863,2.410930562532131,1.3394997399807727,,,0.6403206450210053,3.2188758248682006,inf,,0.6974850694885042
95,0.23512310788821664,-0.009116979513106959,-0.004206663267225318,1.1210934516897646,1.0739351782749187,0.7467837351562101,2.6489470866775195,1.9103375763641508,,,0.6284777104787076,3.0096058458198627,3.955307847002223,inf,0.660274640640896
96,0.04451439020764642,-0.0025224821117666306,0.0,1.2252695059647898,1.1870424616723627,0.8207799773367747,3.6952179095777344,4.626416232063967,2.7947551113826283,,0.6468212168108125,2.905688462008058,2.801432913913658,inf,0.5716210768626749
97,0.08368409460563515,-0.0019526288741314867,0.0,0.8460121980672431,0.7595129438014226,0.7129290181053304,2.7068753354905604,2.4780632339198783,,,0.6447042257417027,3.823300130923343,inf,,0.8038946937354886
98,0.2528005975027707,-0.017696041825193947,0.0,1.163022390366076,1.1252777370749503,0.8566773400308891,3.472858425145557,2.891169802854712,2.8859211277779595,,0.6652988471865258,2.814522445612727,2.892598930308989,inf,0.48240444751824324
99,0.1334044767995142,-0.010227676554629422,0.0,1.2888424956538282,1.2743673110991076,0.8088635244501279,4.167750406507947,11.877914785612866,3.062851835937038,,0.6233814453054027,2.6375917374536484,3.069529638468067,inf,0.6865880789033605
100,0.43351670783549784,-0.017340668313419915,0.0,1.214202682788152,1.1820515316072422,0.7951154488138994,3.35552026346018,8.215004242884342,,,0.6602640781246099,3.5267606046375013,inf,,0.851528809052594
101,0.0,0.0,0.0,0.9313433063492924,0.8538370108291113,0.7054523012841767,3.844114724411014,2.6652617535866834,,,0.6684167106117298,3.506557897319982,inf,,0.7053810455646969
102,0.0,0.0,0.0,0.8796921340218333,0.8035934897388766,0.7189068884646239,2.002439148750652,1.0236410864321468,,,0.6207552362147116,5.703782474656201,inf,,0.7278207460624425
103,0.0,0.0,0.0,1.0083956084465082,0.9765923104420077,0.7184667778934751,2.6171402561413983,1.3252052404522798,,,0.6233814453054027,4.31748811353631,inf,,0.6522803794809294
104,0.0,0.0,0.0,1.119821141223712,1.0892580900147468,0.809937749474136,3.383267272060028,3.1152602320328873,,,0.6699045166045591,3.4011973816621555,inf,,0.5184173889363075
105,0.0,0.0,0.0,1.1570101848514562,1.1343667033206462,0.7764555174046701,4.035939554545127,20.461068537206767,,,0.6684167106117298,2.445685936634719,inf,,0.7166935824400246
106,0.04302004467723685,-0.0037284038720271934,0.0,1.2540312602625099,1.2385432405696482,0.8782391333118312,4.680859108901085,5.321461553191228,3.22654280277922,,0.6425374456860184,2.4739007706114666,3.2332206053102492,inf,0.7923431413570445
107,2.8518912373281005,-0.03802521649770801,0.0,0.47039263768868894,0.4489755089692315,0.35558653248898753,1.922474296857429,1.6570698159509265,,,0.6509067234006624,5.007307504003581,inf,,0.7723130919917264
108,,0.0,0.0,0.4768043233294326,0.47396654114869813,0.5955900140906693,3.540991323933367,10.650787893551174,,,0.6447042257417027,inf,,,0.8717580247193468
109,,0.0,0.0,1.7032886433604992,1.6998984808233417,0.9192033724866407,3.0251836615236973,2.256836219785098,,,0.663668482632973,inf,,,0.8879466907268349
110,1.213716017097582,-0.012137160170975821,0.0,0.5464581072350898,0.47347076711392405,0.5319401674558573,3.288837052988548,3.4778270811745986,,,0.6357360191111145,5.005647752585217,inf,,0.7834279671319916
111,0.18084284156553962,-0.009042142078276982,0.0,0.8451977637471456,0.8175934016741084,0.6500316686023108,3.4243921288324684,4.128750545404408,,,0.62595550513784,3.1337180165278937,inf,,0.6332264406321102
112,,0.0,0.0,1.468328279922112,1.4373954004290326,0.8686765847708939,2.6972495944329595,8.063966303368119,,,0.6125606311107803,inf,,,0.7907717863551352
113,,0.0,0.0,1.313622667687249,1.2838894786876913,0.7755683369763442,3.001072034837736,3.4926895015396986,,,0.6068309995095971,inf,,,0.8036139976921051
114,,0.0,0.0,1.0998661720880476,1.0626691759749685,0.8021452077760203,2.3297267809673046,2.5159167971288943,,,0.6447042257417027,inf,,,0.8062355648976346
115,,0.0,0.0,1.4086836460399836,1.372960861301619,0.940319453309018,2.428372827675501,3.1605147629230386,,,0.6097226960127671,inf,,,0.8179036265294676
116,,0.0,0.0,0.40426291563730116,0.3674487283140986,0.5428364428492674,1.928795906430081,2.4296656980586135,,,0.5783247308855777,inf,,,0.6703426879062547
117,,0.0,0.0,1.0774182332591329,1.0525067933490024,0.7630253553397396,1.681440111004597,2.2484745488100084,,,0.6284777104787076,inf,,,0.7978199338660934
118,,0.0,0.0,1.1497874650379585,1.1281053360734574,0.7355972032960124,1.4695704712024615,1.649750227858475,,,0.6097226960127671,inf,,,0.8152015246497921
119,,0.0,0.0,1.192081830434201,1.1700692034606186,0.8358659995640503,1.2471588327021126,1.440319597251944,,,0.6125606311107803,inf,,,0.8402067983355999
120,,0.0,0.0,1.4549682734155973,1.4245804572653935,0.9131623572602309,1.1401111222785814,1.259906594712213,,,0.6068309995095971,inf,,,0.7302637911918375
121,,0.0,0.0,1.2811918742098105,1.2441255277245684,0.8608495888311795,0.9614591090000726,1.1925732588366977,,,0.585052858160615,inf,,,0.7680605603162411
122,,0.0,0.0,0.9571975275366938,0.9219886559689241,0.7257165926201261,1.053558713237975,1.2558441742552304,,,0.585052858160615,inf,,,0.7976984919542424
123,,0.0,0.0,0.8738289976321811,0.8483197075326312,0.6279869586981252,1.0530016660510988,1.3069407332833962,,,0.62595550513784,inf,,,0.7764332689105952
124,,0.0,0.0,1.245088721978585,1.2131902046905196,0.8551193813097862,1.0629611100467231,1.4141149230290868,,,0.5947193981915972,inf,,,0.6955760113081615
125,,0.0,0.0,0.7307433752988011,0.7045524260552262,0.5455953754899092,1.14240181945279,1.3250510311699737,,,0.6602640781246099,inf,,,0.7879900782449916
126,,0.0,0.0,1.3422583828389707,1.3195653894349837,0.8336930707833522,0.8805781925185282,1.0611611696825225,,,0.6097226960127671,inf,,,0.7007121065985443
127,0.0,0.0,0.0,0.576461882421219,0.5063443362362006,0.5382420680387366,1.6488305497546896,1.4210471324882015,,,0.6233814453054027,5.0106352940962555,inf,,0.6375107429159463
128,0.0,0.0,0.0,0.9833271934478431,0.8581429147836439,0.6858377813352783,2.844661197434701,2.1563967180428247,,,0.5915533975974677,4.0943445622221,inf,,0.7962729133934452
129,,0.0,0.0,1.6858001659379485,1.6521091655589855,0.9400334724777492,2.338916009968314,2.88869823934835,,,0.6425374456860184,inf,,,0.7269370593321838
130,0.0,0.0,0.0,0.6560463278605391,0.660978563426849,0.6700738950428906,2.4480005804928506,2.8438763005374907,,,0.6125606311107803,4.605170185988091,inf,,0.6629742754801562
131,,0.0,0.0,0.8329128242591792,0.7955006054877688,0.6811241382715584,2.1860444244684096,2.5202852840109142,,,0.6233814453054027,inf,,,0.666267936623424
132,,0.0,0.0,0.718847039080633,0.6717599734279548,0.6851287906123731,1.9731336223052274,2.642757204004083,,,0.6468212168108125,inf,,,0.8270690807260968
133,,0.0,0.0,1.1569110959652062,1.1020622981922341,0.8677367063470701,2.4922326328122084,2.520677445202625,,,0.6153451465759925,inf,,,0.7829280942189184
134,,0.0,0.0,1.440521973393611,1.4141777173070667,0.8286907737682182,2.104582601234225,3.0194406170210373,,,0.6097226960127671,inf,,,0.6778156863627859
135,,0.0,0.0,0.4025484572600011,0.3370360629735338,0.5021039891483671,1.100500856867777,0.9638321312644302,,,0.6425374456860184,inf,,,0.6759206091678246
136,,0.0,0.0,0.6389761047051082,0.6006380299815007,0.5754767834871346,0.4381374310623653,0.5192749347158934,,,0.5883313578629602,inf,,,0.7982855807713181
137,,0.0,0.0,0.26334616000293776,0.2339648372390072,0.5684367352732905,0.4282542552437612,0.5313272331744774,,,0.6284777104787076,inf,,,0.7984341904209186
138,,0.0,0.0,0.32036688462053936,0.29253812432551685,0.45808618461279427,0.4764342795854212,0.5794193991692478,,,0.6380535849069913,inf,,,0.8102919391394359
139,,0.0,0.0,0.23293085381488063,0.1876648795976998,0.3891191379901411,0.9869740215122645,0.9893148067828254,,,0.648888643467878,inf,,,0.5572636481758555
140,,0.0,0.0,0.6643848722507553,0.6579065431201612,0.6231971268102214,1.7165438124340224,1.5992190443859644,,,0.6380535849069913,inf,,,0.7766108110530162
141,,0.0,0.0,0.44042845283144105,0.3944957031397276,0.5085961899416802,1.3263755444814507,1.5259471414781205,,,0.6309483474627791,inf,,,0.7506922674201936
142,,0.0,0.0,1.1191929476809257,1.0872202147357124,0.7970858676650813,1.3982717221131653,1.47273745211072,,,0.6284777104787076,inf,,,0.7209496134159717
143,,0.0,0.0,0.8757435734218707,0.8530143421090849,0.6672261657293913,1.6423102566704773,2.0268440387341227,,,0.6233814453054027,inf,,,0.8081594637873211
144,,0.0,0.0,0.685894961058833,0.6721320675277499,0.7235678316772635,1.5365949939243395,1.9104957833752108,,,0.6180765742263259,inf,,,0.8466813185093738
145,,0.0,0.0,0.5849308765062281,0.5595074550633121,0.6268216330513263,1.7405722197367057,1.481494239390456,,,0.6425374456860184,inf,,,0.6920109151065154
146,,0.0,0.0,1.1363687859987845,1.1140705860325184,0.7708583096126531,1.8088478519545774,1.7632642838263426,,,0.6652988471865258,inf,,,0.7572167574854615
147,,0.0,0.0,0.37034117318545484,0.35246081667716794,0.5072685538328404,1.8337420218130058,1.6408279164017396,,,0.6713451011121618,inf,,,0.9171103551940037
148,,0.0,0.0,1.005114600712211,1.0132755435213363,0.6197237598646866,1.3378668576812263,1.2570475027840184,,,0.6233814453054027,inf,,,0.8691083351305788
149,,0.0,0.0,0.32653121558277415,0.28784911936105917,0.4027069186260018,1.0393543220429105,1.040046314171677,,,0.6468212168108125,inf,,,0.9255697949907316
150,0.0,0.0,0.0,0.7025629003174756,0.6392279935716906,0.6898853435508675,1.9264820973555756,1.1985531187706837,,,0.6125606311107803,5.0106352940962555,inf,,0.6076883603574028
151,,0.0,0.0,0.8794700996304741,0.8204453380901545,0.8506232336345284,2.024773650653771,1.7288457378074518,,,0.6008849035917525,inf,,,0.8501840472910068
152,,0.0,0.0,1.1060188806870608,1.0799331620077384,0.8179875848732792,1.8528265203489795,1.848786910454895,,,0.62595550513784,inf,,,0.7242816388605182
153,,0.0,0.0,0.8048940038679475,0.8089088651694956,0.605415821824257,2.030190613382772,2.479597404095205,,,0.6125606311107803,inf,,,0.7711046915627832
154,,0.0,0.0,1.3621780283370557,1.3333859873050535,0.7885363732529003,2.0847997596168315,2.747087088495424,,,0.6008849035917525,inf,,,0.714900814420769
155,,0.0,0.0,1.3488809172366376,1.316125863561217,0.8396073823732861,1.700127601216089,1.8187446633381794,,,0.6038851895711802,inf,,,0.7212599999208383
156,,0.0,0.0,0.3859449718024294,0.3510150789139485,0.44723776188835246,1.3031197948230615,1.0653808408401673,,,0.6447042257417027,inf,,,0.6239888804738823
157,0.0,0.0,0.0,0.2520696153350063,0.16722542530140164,0.2534385502666153,0.7486818926830724,0.6062049409480592,,,0.6097226960127671,5.703782474656201,inf,,0.8631156597906673
158,,0.0,0.0,0.6562245991402954,0.629647165212798,0.3913804420555408,1.5440265660134151,1.284176239277673,,,0.6097226960127671,inf,,,0.662026609067267
159,,0.0,0.0,0.2984071630395868,0.2752475978786781,0.58152530944111,0.7315050713853268,0.8978436301651408,,,0.6125606311107803,inf,,,0.8214484372253864
160,,0.0,0.0,0.12463234025682716,0.10440016157710556,0.3457908238279588,0.7482961813459059,0.9678640458298071,,,0.62595550513784,inf,,,0.9063607870390489
161,,0.0,0.0,0.7233835617950328,0.7112244656594828,0.5968511350377788,0.6043396725744705,0.8388006997953775,,,0.6509067234006624,inf,,,0.8550875276713501
162,,0.0,0.0,0.29474661112781414,0.26902322840054876,0.19470811563516016,0.6781905506453687,0.8117179797379521,,,0.6153451465759925,inf,,,0.9389713488523501
163,,0.0,0.0,0.335546419962534,0.32144361420691375,0.39637081533846946,0.7292016990618129,0.8517291600995927,,,0.6425374456860184,inf,,,0.8999424370374378
164,0.0,0.0,0.0,0.6845052171898364,0.6481669154564111,0.32355686150091956,1.0897190497545877,1.0016435464380746,,,0.62595550513784,5.703782474656201,inf,,0.8045399359337353
165,,0.0,0.0,0.5108857144389347,0.47665022800689405,0.581665285304411,1.745855915064483,1.8664239287446003,,,0.6233814453054027,inf,,,0.8330914693872662
166,,0.0,0.0,0.5693355355200428,0.5458165666877314,0.6713642850443313,1.5863635803969878,1.8323813268763165,,,0.6684167106117298,inf,,,0.836200913039681
167,,0.0,0.0,0.6100823055332052,0.589632341564019,0.716389311739366,1.8336137553862153,2.169484897129432,,,0.6333676938231112,inf,,,0.6851545077734322
168,,0.0,0.0,0.661260439286563,0.6428223727818767,0.5339536418631159,1.7385062827333222,1.6592672133605446,,,0.5915533975974677,inf,,,0.717282273466965
169,,0.0,0.0,0.33713994354455146,0.28567895823840944,0.5190974569794671,1.9984946733960587,2.2926708870782986,,,0.6008849035917525,inf,,,0.7431887793784773
170,,0.0,0.0,1.5298286285396965,1.4929601840163387,0.8929654481207274,2.4612232954227267,2.6057942183669227,,,0.6180765742263259,inf,,,0.7797670569897194
171,0.0,0.0,0.0,0.820989867473376,0.8039011584944348,0.7651486507762603,2.7011229360802633,2.60938304840193,,,0.6068309995095971,5.0106352940962555,inf,,0.8451694117984447
172,,0.0,0.0,0.8497656927323263,0.753290975251122,0.6558843547947861,2.1707957426057987,1.8988866323783489,,,0.6008849035917525,inf,,,0.7908718416593734
173,,0.0,0.0,1.3927656776138608,1.3470798409260458,0.8461092523810984,0.9651437621246711,1.3853392429284415,,,0.6547956803312163,inf,,,0.7284834217011186
174,,0.0,0.0,1.3788524015250267,1.3541219817498618,0.8454933397804641,0.9721814039691449,1.1558520897398874,,,0.6180765742263259,inf,,,0.7972537541451157
175,,0.0,0.0,0.17406567852275817,0.13710179155607258,0.44308418921029347,1.3508686743285585,1.4699190705425496,,,0.6403206450210053,inf,,,0.9326389600545485
176,,0.0,0.0,1.6231338005672447,1.596766122487412,0.9423421108905946,1.5142069123012816,1.9261550583274127,,,0.6038851895711802,inf,,,0.8470780661589379
177,0.1766425502230215,-0.00235523400297362,0.0,0.5688141866280298,0.403960471538336,0.5881391415766511,2.007812155841657,1.6939925229342192,,,0.6038851895711802,4.4529260844314145,inf,,0.8972954426825077
178,0.0,0.0,0.0,1.7023537509788707,1.6726144185564382,0.9598101673989362,3.2913692075129606,4.454034643824463,,,0.5947193981915972,4.31748811353631,inf,,0.8070876751245748
179,,0.0,0.0,1.3206407802135267,1.2941412084502841,0.8470969335480022,3.2389870803229486,3.5935845132994846,,,0.6153451465759925,inf,,,0.8125145469091443
180,,0.0,0.0,1.675785301809071,1.6689103713011513,0.9430047791429078,2.417367873026594,2.9775947127634503,,,0.6333676938231112,inf,,,0.8358328791726987
181,,0.0,0.0,1.5543105743583026,1.5332999400198264,0.9058160801350881,2.5857387609869247,3.5874609726510536,,,0.6284777104787076,inf,,,0.8296941238743556
182,,0.0,0.0,1.5133876536797342,1.4884246690391525,0.8965176251343777,2.518920622625924,2.4710692604709203,,,0.6357360191111145,inf,,,0.8478566980938671
183,,0.0,0.0,1.5984390683345315,1.5647560421189541,0.9265005403478842,2.696788397696287,8.098598098104542,,,0.6097226960127671,inf,,,0.8242850112673913
184,0.0,0.0,0.0,0.8632196127556789,0.8540298644128876,0.7382384795450742,2.9296251461588607,3.801740048378388,,,0.6333676938231112,4.31748811353631,inf,,0.7530294219793812
185,0.0,0.0,0.0,1.3979595397781588,1.387006025499927,0.9328569802466601,3.597247780320763,2.791493081694554,,,0.6357360191111145,5.703782474656201,inf,,0.6815236701156357
186,,0.0,0.0,1.621962744181519,1.6038060166509795,0.9375808075420912,2.6897948677645926,4.478826331434272,,,0.6180765742263259,inf,,,0.7586115086977003
187,0.0,0.0,0.0,1.4411901330003487,1.3820900569109615,0.8670701082691207,3.0422480689697142,3.6394228031087206,1.2494240672298536,,0.6153451465759925,3.757872325600888,1.2561018697608826,inf,0.8648989393998261
188,0.029133454063987877,-0.00038844605418650503,0.0,1.4244461199914,1.3715326408731456,0.9194298737881261,3.5488854735954085,11.550841930211178,,,0.6125606311107803,4.345373317025846,inf,,0.8142388665134414
189,0.0,0.0,0.0,1.5504316629049355,1.5030048786457626,0.9235904425627215,2.8419118874591,6.601323884624111,,,0.6068309995095971,5.703782474656201,inf,,0.7590986918322472
190,0.0,0.0,0.0,1.4240697239212299,1.3727628627290416,0.8650411536487431,2.7524112966364207,2.4980730922314307,,,0.6125606311107803,4.605170185988091,inf,,0.8214455533304809
191,0.0,0.0,0.0,1.5776317619465425,1.5686594364445043,0.9113200789896776,3.2575465058509705,5.355697729118982,,,0.6097226960127671,5.0106352940962555,inf,,0.7982701964169302
192,0.2953261403219792,-0.005906522806439584,0.0,1.5576492442225593,1.5239266588734837,0.9251446075118845,3.1360591480838163,6.108967294584233,,,0.5915533975974677,4.060909786135864,inf,,0.8250537557430419
193,,0.0,0.0,1.6105780159925016,1.5838063208830573,0.9385600941795066,3.1366363355792046,3.009946449067453,,,0.6447042257417027,inf,,,0.8376888276350032
194,0.6898358738724402,-0.009197811651632536,0.0,1.4805634527603506,1.4556032323009591,0.9283783782698025,2.9951341451670617,5.060512674478899,,,0.6447042257417027,4.584278826956715,inf,,0.8675835168805168
195,0.17980161022865496,-0.0035960322045730992,0.0,1.4570474694286517,1.3688398448404013,0.8969676187821513,3.063919575232769,3.0406741602139826,,,0.6309483474627791,4.028556821684098,inf,,0.8833829593755849
196,0.0,0.0,0.0,1.6201058536745399,1.6121985715724039,0.9522235280301163,3.338347690895505,3.507509189162602,,,0.585052858160615,5.0106352940962555,inf,,0.8413115389558117
197,,0.0,0.0,0.7243207120938189,0.6506675944373574,0.6832971169931399,2.3444409432023754,3.3712494815587752,,,0.5883313578629602,inf,,,0.8689159920224053
198,,0.0,0.0,1.5974625757360585,1.575420051024937,0.9215911328540732,2.401178503312549,2.4777768171204184,,,0.5641709578113449,inf,,,0.8243799493587239
199,,0.0,0.0,1.6818099029692086,1.664279165336162,0.9674343024715784,2.1607380653119717,2.409475822548037,,,0.5915533975974677,inf,,,0.8465554995917821
200,0.5594769279736839,-0.005594769279736839,0.0,0.9607026106591121,0.9043083843381942,0.6658891979045878,3.133599821650596,2.823114963762958,,,0.6447042257417027,4.921404160368313,inf,,0.574010224045885
201,0.47205269957946355,-0.004720526995794635,0.0,0.5668749211042996,0.5494071684645457,0.6571755492500837,3.0445849798141404,2.4706992078577215,,,0.62595550513784,5.008970014777194,inf,,0.833718561574397
202,0.0,0.0,0.0,0.5582844521090928,0.4585648248317834,0.5267397357789267,1.957181126237588,2.0414750083517337,,,0.6180765742263259,5.0106352940962555,inf,,0.795583665614988
203,,0.0,0.0,0.8023385516286111,0.7804272827396059,0.6564681438690545,1.2187472695864217,1.2435085004927287,,,0.6284777104787076,inf,,,0.8702079068232863
204,,0.0,0.0,1.4739013052764478,1.4325732244894354,0.8692526212235474,1.1502770057698823,1.2657377860327772,,,0.6547956803312163,inf,,,0.8118632970746966
205,,0.0,0.0,0.9245146008830788,0.9120696515159298,0.6347371822117341,1.1847402134214695,1.2943216172489802,,,0.62595550513784,inf,,,0.8571838756035761
206,,0.0,0.0,0.795448274712534,0.724358789044855,0.4880208091437984,1.4146627380141068,1.265256018162244,,,0.6333676938231112,inf,,,0.9196635289103634
207,0.04504252736931385,-0.0030028351579542566,0.0,1.2699336232152714,1.2632309818973289,0.8927885157871626,4.31543393724628,20.795490270116662,,,0.6425374456860184,2.747484270347617,inf,,0.6516733812155417
208,0.15573162146029568,-0.004152843238941218,0.0,0.8772492352278826,0.8310827231095363,0.6851631975438918,3.2588357760489743,2.3232692682777327,,,0.648888643467878,3.737602953838825,inf,,0.9199617257911324
209,0.3868643144431729,-0.009026834003674034,0.0,1.2548966645258646,1.2041149222394036,0.7737909239471082,2.9105156014975075,2.3997865390696838,1.7994704041491252,,0.6699045166045591,3.9009731692415612,1.8061482066801546,inf,0.7310142733094774
210,0.10787874946536725,-0.0046747458101659145,0.0,1.115942244355905,1.1115443327484797,0.8013873412569407,3.5911000397448607,3.210638519213263,,,0.6468212168108125,3.2089254940150327,inf,,0.7600517729977719
211,0.0516354603844843,-0.0012048274089713003,0.0,0.9197160703671545,0.8815958038858777,0.66897316220792,3.0450759838184736,2.9287568143672136,,,0.6125606311107803,3.802172584497468,inf,,0.8844245028340129
212,0.46633402842070826,-0.010881127329816526,0.0,0.6501172643769426,0.6299595448929532,0.6766722760870554,3.381991280593935,2.887783268398145,,,0.6619902821573977,4.015533381797811,inf,,0.8484749537677506
213,0.05918465367536068,-0.002761950504850165,0.0,1.185710781742636,1.1289491290564952,0.7198216536028387,3.4415918265443253,3.596893351965759,,,0.62595550513784,3.105795186195236,inf,,0.6001098536993812
214,0.647844454721518,-0.015116370610168751,0.0,0.8435358955532534,0.8072738212345619,0.4834752589245509,3.3596433017365617,5.090692040285285,,,0.6468212168108125,4.295237504601491,inf,,0.7657858634649087
215,0.09678862909508544,-0.0025810301092022785,0.0,1.2121397539025838,1.1575005000262233,0.7731486949512046,2.976296786492487,2.2284560355513987,,,0.6547956803312163,3.703654739696091,inf,,0.8525490392721887
216,0.1735001135409446,-0.0028916685590157434,0.0,0.8948241831838268,0.8385039126837188,0.7320407889467964,3.421702267472482,2.4624793486024266,,,0.6333676938231112,4.217642778566594,inf,,0.781711328778533
217,0.2328465823060585,-0.010866173840949397,0.0,1.210144897414744,1.1984373117681226,0.7585688896921636,2.9397560059556764,1.626453676561065,2.497550453029095,,0.6528756675646988,3.2028931203615914,2.5042282555601245,inf,0.8049824123780714
218,,0.0,0.0,1.136451812654163,0.9822906747542605,0.7880753118519626,0.15051580815848323,0.14193058054553587,,,0.6333676938231112,inf,,,0.9528067449917739
219,,0.0,0.0,1.428719490275596,1.4156609642333025,0.8859950869223574,0.03694866040314208,0.04550858735590814,,,0.6425374456860184,inf,,,0.9486262011960404
220,1.1130997366084423,-0.06245018409156078,-0.0006254676495842952,0.7245233027173302,0.6588828388439426,0.5565641300561855,2.246303649486566,1.589990716021298,3.705309226593057,,0.6619902821573977,3.351772498334632,2.5423637048127876,inf,0.5936880233439897
221,0.18229680110299315,-0.010937808066179588,0.0,1.1649724713277012,1.121665269813328,0.8152913690633788,3.709613036205779,4.183198827117302,,,0.648888643467878,2.9050793867684392,inf,,0.5475704720754856
222,0.05345495819769253,-0.003207297491861552,0.0,1.1204213248059114,1.0646058583773303,0.7798809605576539,3.573290020502755,3.7489631584025065,3.0593633486218694,,0.6233814453054027,2.848462354818955,2.8586590211027607,inf,0.735597683041113
223,0.0,0.0,0.0,1.2478500391592813,1.2316314770015582,0.8034033243722898,4.26091451157363,12.564343923082898,,,0.6602640781246099,2.70805020110221,inf,,0.7169115711313596
224,0.2299325363665669,-0.005834050269304214,-0.005662576549024132,1.221364654773446,1.1853088692878138,0.8005457442515329,3.367203853079912,2.7265259602045138,,,0.6699045166045591,3.1117668386762576,4.288464925403674,inf,0.5379826379287628
225,0.10946282038435214,-0.007297521358956809,0.0,1.1578204459163295,1.0889487941420537,0.8304477563919411,3.8541740495363874,2.7219314585961905,,,0.6068309995095971,2.7887181041696647,inf,,0.6294175146102676
226,0.0,0.0,0.0,0.5044453672142684,0.47082945870504905,0.6125031974703233,2.2860126114978496,2.537047348121099,,,0.6380535849069913,5.703782474656201,inf,,0.8063185130392236
227,0.33677047564129153,-0.007857977764963468,0.0,1.1077070979154255,1.0644247585513282,0.7523501899660866,3.244433618948005,2.186670327765929,,,0.6447042257417027,3.9384810643911674,inf,,0.5781873500685263
228,0.12494351784026933,-0.004164783928008978,0.0,1.1787112533603656,1.1402750673903215,0.776506206292385,4.263640436305281,22.766672603523443,,,0.6309483474627791,3.475202794972651,inf,,0.693668150037309
229,0.0,0.0,0.0,1.086264571884125,1.0211065981376428,0.7681813811692488,3.3349409072971223,6.365707955743138,,,0.6602640781246099,3.624340932976365,inf,,0.5838898465378638
230,0.2498483092108725,-0.00499696618421745,0.0,0.7388698704766673,0.6826759013663154,0.6411382022734193,3.066814539026633,1.5858825260264195,,,0.6403206450210053,4.050646706956381,inf,,0.7662248888974708
231,0.08411820736832086,-0.005047092442099252,0.0,0.9874369322161638,0.9326806398258197,0.7684685715284827,3.5019349229326617,2.1464508956154185,2.1495854171741247,,0.6333676938231112,2.8577109756566164,2.156263219705154,inf,0.5080187298506548
232,,0.0,0.0,0.9684861981776923,0.9414866470195054,0.6786392238384933,1.9415590085122028,1.8389176705540025,,,0.5915533975974677,inf,,,0.8674024315932394
233,,0.0,0.0,1.1618387359098108,1.1708315199817985,0.8351282330853247,1.7457700993620577,1.7550552171565932,,,0.6447042257417027,inf,,,0.808418570138198
234,,0.0,0.0,1.1305120550999266,1.1099398915199585,0.7687295905195968,1.7976641811605623,1.8773642591200543,,,0.6125606311107803,inf,,,0.7901179036966952
235,0.0,0.0,0.0,1.1375674540898086,1.062709585665455,0.7603910559032393,3.5151468796078666,1.935172793495271,,,0.6403206450210053,3.138833117194664,inf,,0.665090484152516
236,0.0,0.0,0.0,1.0086347614133049,0.959348696905693,0.6929871521775692,3.416013163538081,2.7221783982892434,2.3945563715328557,,0.6097226960127671,3.3058872018578307,2.401234174063885,inf,0.7693589474951116
237,0.0,0.0,0.0,1.2334057798778824,1.2018571743777529,0.7051074238959475,2.727272048672582,2.4318299841205966,,,0.6403206450210053,4.0943445622221,inf,,0.8837076456956912
238,0.2169032522306272,-0.009333060917651398,-0.005850166738492505,1.150046417399579,1.0694157410348326,0.7082026955482879,2.647887613014517,1.9811244414517302,2.9075614367717786,,0.6528756675646988,2.792882136618908,2.7538965892276286,inf,0.5328145154113588
239,0.2716086892693429,-0.019012608248854004,0.0,1.1466490250395116,1.1295127663904876,0.8317451283597347,4.497787450583151,11.820469685820633,,,0.6309483474627791,2.741434645121794,inf,,0.8262812813629445
240,0.21239392809560373,-0.013451615446054903,0.0,1.1912271578902671,1.1561933400466307,0.794780163290678,3.6036663921183667,7.78886944864991,2.84890783927972,,0.6684167106117298,2.8515357341109664,2.855585641810749,inf,0.7485242039091974
241,0.02615705869626656,-0.0021797548913555466,0.0,1.4406854690771747,1.3919946483512107,0.8495884100032277,4.17436878805517,12.229265254419065,3.196150209802496,,0.6566669596287297,2.5042933635881903,3.202828012333525,inf,0.6086884241794083
242,0.03389696242093388,-0.0006779392484186777,0.0,1.072990878028632,1.066468068158178,0.681612038385021,2.6769449252644746,2.571533679728283,,,0.6008849035917525,3.944775791899954,inf,,0.6313487949763938
243,0.0,0.0,0.0,0.6073365463824913,0.5628956195580325,0.4985183800635009,1.8922754275248315,1.4869543230230542,,,0.6309483474627791,4.605170185988091,inf,,0.6309385395900851
244,2.04717228111105,-0.013647815207407002,0.0,0.8677055995923038,0.8065236088891132,0.6528308104777565,2.811669149224863,2.34526257092455,,,0.6425374456860184,5.687253172704991,inf,,0.7093076683371131
245,0.0,0.0,0.0,0.37943480340877395,0.3327004967743007,0.46968412554286054,2.1334380305415825,2.082087878805476,,,0.6468212168108125,5.703782474656201,inf,,0.9227952321965971
246,0.0,0.0,0.0,0.6792457360166189,0.6473285591384339,0.5659121904671593,1.9397135995455281,1.7564051473349154,,,0.6468212168108125,4.605170185988091,inf,,0.6700431867032058
247,,0.0,0.0,0.8437493593446974,0.7574148718191068,0.45941992237987145,2.103200161241701,1.36463377975659,,,0.6125606311107803,inf,,,0.9054782176135276
248,1.2483626173355387,-0.016644834897807183,0.0,0.9980583443381048,0.9309784784005692,0.6155633424519609,2.462782136105978,1.7732651616537827,,,0.6468212168108125,5.2030071867437115,inf,,0.7717756800690535
249,0.0,0.0,0.0,0.4871757679046883,0.37707868567685326,0.4497509902289671,1.944051274616373,1.6056466112240422,,,0.663668482632973,5.703782474656201,inf,,0.6907192033613798
250,0.0,0.0,0.0,0.5217252209350177,0.48464837758088725,0.5461682218984009,2.1338847219783728,1.1761587797150517,1.7143125958088186,,0.648888643467878,4.605170185988091,1.1019511899336245,inf,0.8643232130584265
251,1.7633803023187506,-0.011755868682125005,0.0,0.9036756685679165,0.8711515123074046,0.7209960750088424,2.691421855973633,2.1248259405504935,,,0.6468212168108125,5.693832143803033,inf,,0.6433575817577899
252,0.0,0.0,0.0,0.8275444919621114,0.7862229138439714,0.611454261072884,2.558455486897811,2.2075441600734758,,,0.6380535849069913,4.0943445622221,inf,,0.910211652275823
253,0.0,0.0,0.0,0.7348863215164955,0.627708574392685,0.5707071982919069,1.2011447294057573,0.4843050917247822,,,0.6668815377411301,5.703782474656201,inf,,0.9447747292938576
254,,0.0,0.0,0.4236852223982557,0.2525993967076973,0.2945596363151085,0.8785420852320426,0.6576389766225783,,,0.6509067234006624,inf,,,0.754421151472433
255,0.17753023635800516,-0.004734139636213471,0.0,0.8498146793297175,0.764405041626946,0.6374088025301239,2.071410498280812,1.2474267821710803,,,0.62595550513784,3.7436876906089314,inf,,0.7860514790280186
256,0.0,0.0,0.0,0.9106856366707038,0.8610526100001247,0.5086474807005423,2.23591006053246,1.421530128515243,,,0.6380535849069913,5.0106352940962555,inf,,0.645958722891382
257,0.22011911924565145,-0.0022011911924565146,0.0,0.6564156180798842,0.6047622124803326,0.5548874061117807,1.757804966479264,0.9589525658998539,,,0.6584896970785714,4.780847200063377,inf,,0.8294787535592291
258,0.29790941829969164,0.0003885558956562927,-0.0023746186843209035,0.7700007192048114,0.7155631799787803,0.607508591675771,1.638082665878253,1.1405833553334257,,,0.62595550513784,5.302771716897417,1.114360645636249,inf,0.9440152533180307
259,0.05956684909350903,-0.002382673963740361,0.0,0.6892211167176668,0.6548212643707059,0.5271182323701135,2.906355569030992,1.5258759192402294,,,0.648888643467878,3.270169119255751,inf,,0.7417315001595737
260,0.0,0.0,0.0,1.044115375135268,1.0109665464984299,0.7904120763437524,3.1717519286689426,1.6688154026327968,,,0.6668815377411301,4.31748811353631,inf,,0.601787744443049
261,0.0977627681111992,-0.0055398901929679546,0.0,1.108676295510245,1.045758265651196,0.7321774005431894,2.8766116158144786,1.790743163381975,,,0.62595550513784,2.933905759919893,inf,,0.5991384176056189
262,0.17688677553693385,-0.008844338776846693,0.0,1.0988916642539732,1.0284011016626506,0.7303190036103093,2.5889681068985255,1.2405364225268607,,,0.6699045166045591,3.1132653404551673,inf,,0.6580296186646956
263,0.6717819184453361,-0.024704767654473395,-0.006645055206308959,1.1137713845966055,1.069602596736338,0.7166173886468814,2.476607800736621,1.03000274103794,,,0.6468212168108125,3.388939484266653,4.305053398341441,inf,0.7028484225367813
264,0.20631239266693624,-0.004126247853338725,0.0,1.0550168966221984,1.0153928333091666,0.7902896833212297,3.6642384859209183,3.742536398528738,,,0.6447042257417027,4.037964228785993,inf,,0.6641093997676729
265,0.16380181637465382,-0.012558139255390127,0.0,1.1693718697958329,1.1700235683601738,0.8439907371342322,4.287411536357753,2.0050615394087945,,,0.6713451011121618,2.6439805398622642,inf,,0.6785474094121066
266,0.0,0.0,0.0,1.1323584642323137,1.090135793238868,0.7282484468328206,3.766124921709038,5.503738125434668,2.5616104561960222,,0.6547956803312163,3.138833117194664,2.5682882587270512,inf,0.5387119988567319
267,0.5677534368818802,-0.005677534368818802,0.0,0.6514270316087718,0.5804717798807038,0.5818027402781002,2.400135950960976,2.658974940697878,,,0.648888643467878,4.995746681602505,inf,,0.8092098105264441
268,,0.0,0.0,0.3943472455130873,0.3589515143414766,0.47149801801944496,2.231209021196008,1.8627352578870555,,,0.6153451465759925,inf,,,0.7720509787682339
269,0.0,0.0,0.0,0.7941992266287686,0.7159301673140497,0.5784856845771654,1.9492931262324626,1.3858280131635157,,,0.6097226960127671,5.703782474656201,inf,,0.8127142962793823
270,0.0,0.0,0.0,0.9304690416049176,0.8775322029447055,0.57763941547974,3.213027321352063,4.686876876813157,,,0.6284777104787076,5.0106352940962555,inf,,0.6664617228696174
271,0.0,0.0,0.0,1.000496455402685,0.9614882810742126,0.8297687906936283,4.280791739863788,6.241573333744084,,,0.6547956803312163,4.0943445622221,inf,,0.57215928239677
272,1.1174848998546392,-0.0926546744118931,-0.011643916241206542,1.2346602957219206,1.2226092321430073,0.838228800351789,3.51143620927699,3.057676518418421,3.4786992727095054,,0.6125606311107803,2.8041940616551124,3.038850480334596,inf,0.7151356916850355
273,0.0,0.0,0.0,1.1463407941580777,1.1223484033983033,0.8199463245496379,4.873791848437293,6.979204571208703,,,0.6097226960127671,2.995732273553991,inf,,0.5261974449978317
274,0.01033772072249824,-0.0004135088288999296,0.0,1.065047141975231,0.9867899855066345,0.7224732812188674,2.963686361176366,1.5547633742453009,,,0.6008849035917525,3.228645616464006,inf,,0.6882469261120712
275,0.034461658700426626,-0.0010338497610127987,0.0,1.1786847061446466,1.1070968039911162,0.7446319123667331,3.0348159582551166,2.112714135554113,,,0.648888643467878,3.5366353525572594,inf,,0.6837965297690881
276,0.0029167788506481705,-0.00019445192337654469,0.0,1.203597567226405,1.139955565252095,0.8010645842043947,5.610513557787219,25.614108296273386,,,0.6403206450210053,2.7108875559223704,inf,,0.6324592702943181
277,0.0,0.0,0.0,1.2769249551076793,1.2590207081872304,0.7978122401068733,3.8235002465482193,10.410667504727558,,,0.6403206450210053,3.0647251450409425,inf,,0.5822565428051513
278,0.0067526502516279474,-0.0006077385226465153,0.0,1.0040715670058653,0.9859081291670214,0.7152777916608973,4.376432160988992,3.3886265156438506,2.593158813930948,,0.6357360191111145,2.414137578899793,2.194371508353813,inf,0.5414867925758791
279,0.0,0.0,0.0,0.7186586270189811,0.6863360925061572,0.5347984613307665,2.5219022283603327,1.8436072588121544,,,0.6309483474627791,3.912023005428146,inf,,0.6356686748905575
280,0.0,0.0,0.0,0.9315774389748664,0.8873624594952678,0.7253451007434497,2.8508306000055206,2.9138359084771412,,,0.6008849035917525,5.703782474656201,inf,,0.679163983031398
281,0.0006677802531029197,-1.1129670885048663e-05,0.0,1.0352945123950479,0.9870682394376412,0.7704567870244494,3.0827998131144323,2.108642486256089,,,0.6447042257417027,4.095011451209804,inf,,0.7687141107868811
282,0.0,0.0,0.0,1.0378737044744253,0.9974382657104464,0.7579980546477634,4.0181066280645155,33.23118543360245,,,0.6233814453054027,2.659260036932778,inf,,0.6556033616487519
283,0.0,0.0,0.0,1.1598892815648318,1.0867409847838345,0.7930768154613727,3.9255687322835464,4.424744203662618,,,0.6403206450210053,3.912023005428146,inf,,0.42852287406387185
284,0.0,0.0,0.0,0.72851439343568,0.6747392423175402,0.6483667392275079,2.8159875079434387,1.7047430848887224,,,0.6380535849069913,3.138833117194664,inf,,0.5292990353592992
285,0.0,0.0,0.0,1.0712790647223804,1.0132311306068702,0.7421503242716397,3.129680803928924,4.330555387019414,,,0.6403206450210053,3.757872325600888,inf,,0.556993521795427
286,0.0,0.0,0.0,0.8442224969665792,0.7758162091884407,0.566514176446484,2.2981429447819064,2.121960808199656,,,0.5915533975974677,4.31748811353631,inf,,0.6557892377826824
287,0.0,0.0,0.0,1.0859571480959689,0.9681123603537231,0.7447595808370031,3.2508001560571254,1.5793648886384148,,,0.6528756675646988,3.506557897319982,inf,,0.6053339498074717
288,0.06865026378412768,-0.0022883421261375896,0.0,1.2504297215405673,1.2009974405828823,0.7971165366977081,4.093979867659757,2.9611843890151244,,,0.6547956803312163,3.45213986039973,inf,,0.7888294162824503
289,0.09797839800392945,-0.004898919900196472,0.0,1.0608941561571703,1.0401530323982942,0.7218805615902126,3.6427902219571844,2.1873624407374175,,,0.6652988471865258,3.04843006255444,inf,,0.5605257197826325
290,0.033289641527532894,-0.0005548273587922148,0.0,0.8098906961842129,0.6489781492352045,0.6017580576816307,2.5152082325657754,1.357002730087156,2.07138916848564,,0.6547956803312163,4.125491291218937,1.5816300847027782,inf,0.6607041692420502
291,0.1555163083650894,-0.003110326167301788,0.0,0.7755392401056306,0.6877180112869621,0.5958698005744868,3.2169694269395226,4.2315929022274235,,,0.6380535849069913,4.018618851693965,inf,,0.8822178593404715
292,3.1516326468912426,-0.06303265293782485,0.0,0.9320790787709939,0.8931933830041776,0.6051455222160679,1.9758773797399065,1.072505788070053,,,0.6740851607140061,4.992467990140807,inf,,0.7954309628138512
293,0.0,0.0,0.0,0.6613642077274465,0.6032981243078802,0.6348068105481873,1.5733365665995078,1.1740895693426783,,,0.663668482632973,4.605170185988091,inf,,0.7255053418375957
294,0.0,0.0,0.0,0.8079933399905707,0.7491165187802905,0.6813317360108,2.1884869633080144,1.8063973056362714,,,0.648888643467878,5.0106352940962555,inf,,0.6801440157340096
295,0.4593068108230931,-0.009186136216461862,0.0,1.0382794556291854,0.9859095830246126,0.7886838645167877,2.460885001893629,2.2999156239244796,,,0.6380535849069913,4.10641714345637,inf,,0.5037157176602248
296,1.2882802192726277,-0.03005987178302798,0.0,0.8598187712191956,0.7679245701209365,0.6582289855580368,1.7647510686321535,1.2769314340677194,,,0.6509067234006624,4.294422840605314,inf,,0.5666265098094279
297,0.0,0.0,0.0,0.9451073536348131,0.8896908956643258,0.6696932937805222,1.8598196896352581,1.2444977082217377,,,0.6333676938231112,5.703782474656201,inf,,0.935987241669792
298,,0.0,0.0,0.8365283476457317,0.7661289912989377,0.4373964998220454,1.3438533092188216,0.995251479028237,,,0.6566669596287297,inf,,,0.6198808351411178
299,0.019941242117215638,-0.00026588322822954183,0.0,0.8603857847260299,0.8175695898664004,0.6663835598598535,2.6611039319365593,1.6757005493294725,,,0.6380535849069913,4.336840842052125,inf,,0.6928730972860447
300,,0.0,0.0,0.7883946731702891,0.7718393830935587,0.44298464366527457,1.5636505147889013,0.9521632119052907,,,0.6425374456860184,inf,,,0.7399621124909114
301,0.6821221318122365,-0.018021738399619826,-0.0047156659941213885,1.1085939746123161,0.9839962433658033,0.7300664075333702,1.8883705081055624,0.5774335545736498,,,0.663668482632973,3.9114676041364462,3.205637904027565,inf,0.7105409978279307
302,0.0,0.0,0.0,0.6726057033916558,0.5793476533362786,0.59814854347126,1.9007188763193525,1.243701558936476,,,0.6547956803312163,4.0943445622221,inf,,0.5905250116492156
303,0.0,0.0,0.0,0.5804463053828205,0.493740489150712,0.3218843774370732,0.8710550941637974,0.4904839820546161,,,0.6566669596287297,5.703782474656201,inf,,0.6238015533692698
304,0.0,0.0,0.0,0.6782149505884144,0.6245363514495667,0.6208529204216507,1.4847924221953044,0.6624759795146327,,,0.6468212168108125,5.0106352940962555,inf,,0.6070028123327703
305,3.912023005428146,-0.013040076684760487,0.0,0.6323519848169267,0.5656853183471452,0.5089041228816337,1.0996424233877065,0.8415565049976801,,,0.6403206450210053,9.615805480084347,inf,,0.6688858312110707
306,0.0,0.0,0.0,0.6313805152619505,0.5089705328201699,0.5222032656125849,1.545528543744977,0.7792771693199456,,,0.6528756675646988,5.703782474656201,inf,,0.788590819049041
307,,0.0,0.0,0.763502437502483,0.7187188038387545,0.34131991073966833,0.4920349116223524,0.5421216452472479,,,0.6008849035917525,inf,,,0.90975192360157
308,,0.0,0.0,0.3811021420357356,0.2659711167738645,0.4291575316135005,0.8946529411131523,0.826851405766458,,,0.6333676938231112,inf,,,0.6970279345918814
309,0.10706189529724945,-0.0032118568589174835,0.0,0.9040738930609632,0.8169769407050027,0.6287030274486587,1.8952411421729196,0.6715525338012525,,,0.6652988471865258,3.595186743323792,inf,,0.8134112016189394
310,0.8948837134078804,-0.02386356569087681,0.0,0.8425325694567669,0.8082737257728602,0.5807668553379094,2.119754801374707,1.2164608324035213,,,0.62595550513784,3.90152277079428,inf,,0.7818938353533414
311,0.0,0.0,0.0,0.7273601195887055,0.6788298861095414,0.5929287218216346,2.978845782198697,1.7181377680080208,,,0.6684167106117298,3.624340932976365,inf,,0.6816618379729189
312,0.0,0.0,0.0,0.6239897601579245,0.508464056935169,0.5542957177180472,1.9266940169392976,1.2474613566347663,,,0.6284777104787076,4.605170185988091,inf,,0.5396118605600294
313,0.0,0.0,0.0,0.5141620526226561,0.47712216717751116,0.3849204854341737,1.8455839765447914,1.1894943967531075,,,0.663668482632973,5.703782474656201,inf,,0.6841549115667642
314,,0.0,0.0,0.9019712214191803,0.8807601435472345,0.6469829381169304,2.3459529172587152,1.7086337949838284,,,0.6528756675646988,inf,,,0.7379149545884026
315,0.0,0.0,0.0,0.7311325636185414,0.6314494666638581,0.5409547707941122,1.3370610374661116,0.7834928074451184,,,0.676637947632344,5.703782474656201,inf,,0.5704292454897303
316,0.0,0.0,0.0,0.6614449221839535,0.5717670221856002,0.535264959380803,1.430184980031519,0.7392538063324203,,,0.6357360191111145,4.31748811353631,inf,,0.8034063563286535
317,0.010961647298999006,-0.00018269412164998342,0.0,0.8175210426085348,0.7524210036180958,0.7035485294179049,2.6563676157593212,2.094904104327289,,,0.5947193981915972,4.105068525585076,inf,,0.5992964164253791
318,0.8264718004644577,-0.011019624006192769,0.0,0.7932583489034931,0.719577177673848,0.6060411883515194,2.1466720994107633,1.5102682236748466,,,0.6447042257417027,4.593022052052444,inf,,0.6297151865369603
319,0.0,0.0,0.0,0.5964691037945618,0.5592631285699419,0.5901053192500272,1.6544220731920443,1.0165199961684857,,,0.6380535849069913,4.0943445622221,inf,,0.7375763898806755
320,0.21886718433847496,-0.0029182291245129994,0.0,1.1090171924462595,1.0587458816923052,0.6788139622338925,2.5177893126975763,1.5297478005375713,,,0.6309483474627791,4.475117057739894,inf,,0.8180648417060213
321,0.8769368973177137,-0.01847205972119269,-0.01368229318045681,1.040946339942424,1.0311110185558,0.6938431625080471,3.3075230613498525,3.412735575488134,6.393164274132152,,0.62595550513784,3.6214285115293303,6.1766985253489715,inf,0.728005009003326
322,0.0,0.0,0.0,0.7588329072988186,0.7028614577484001,0.7270123075315552,2.498461583334436,0.743030222744439,,,0.6097226960127671,4.0943445622221,inf,,0.6069316990365856
323,0.0,0.0,0.0,1.023606293715192,0.9922218722595112,0.7538622965673857,3.2067549425242965,2.423769771624761,,,0.6153451465759925,3.138833117194664,inf,,0.5921917001484882
324,0.29030444681087614,-0.008709133404326285,0.0,0.9906759570097379,0.9493810775462973,0.7265425189370676,2.9407695379300796,2.200615277132938,,,0.6668815377411301,3.6152160251993646,inf,,0.46688982981274835
325,0.20219488318560147,-0.010783727103232079,0.0,0.8470018195275204,0.8029746761787983,0.687094462783343,2.2388803435263407,0.9757753197719876,2.702057095619498,,0.62595550513784,3.022076248893593,2.685045127028123,inf,0.637785734240136
326,0.0,0.0,0.0,0.9637235011183569,0.9377332073127451,0.6541444161866886,2.253080120555689,1.6147152681987116,,,0.6740851607140061,4.605170185988091,inf,,0.6781176004599382
327,0.7546158651480924,-0.020123089737282465,0.0,1.1131587133497898,1.076911479163515,0.6864306986733051,2.343055384662978,1.1192064204206522,1.9017492532695437,,0.6727386042041725,3.7986943201211427,1.9084270558005727,inf,0.8486981239372061
328,0.6927667352143049,-0.016164557155000446,0.0,0.8584185688731106,0.8452855304009891,0.7173637458448205,2.1551914338238696,1.6796116201524351,,,0.6357360191111145,4.053842618912771,inf,,0.5731688023733584
329,0.0,0.0,0.0,0.6499467429940351,0.6134567187606617,0.4201117748199527,1.314760284038591,0.802715853507985,,,0.6528756675646988,4.605170185988091,inf,,0.5873472189918749
330,0.0,0.0,0.0,0.6923215434196375,0.6372521867469314,0.6597961101961681,2.2063188718306006,1.1715691211903367,,,0.6357360191111145,4.31748811353631,inf,,0.7605456632791241
331,0.0,0.0,0.0,1.365599204570029,1.3680131554886927,0.8335248993776833,2.29619697836706,1.0532527656891824,,,0.6619902821573977,4.0943445622221,inf,,0.8518222133958958
332,0.0,0.0,0.0,1.1447203806111321,1.1177778107937202,0.8341596172614302,2.5269680055458488,1.5356577876738968,,,0.6207552362147116,5.703782474656201,inf,,0.7846211369015599
333,0.0,0.0,0.0,1.0410145709101872,1.0076284461324372,0.6488658848399789,1.685565853581152,0.8277922762784724,,,0.6547956803312163,4.31748811353631,inf,,0.619577254157523
334,0.0,0.0,0.0,0.7361891780269278,0.6939969380156213,0.5348123358682159,1.7664589095727647,1.4931171643295746,,,0.6403206450210053,4.0943445622221,inf,,0.69378184687586
335,0.12056715289921842,-0.00281323356764843,0.0,1.1337523375504919,1.080584837554843,0.6956688477267897,2.5148946284791815,1.203970080183093,,,0.6403206450210053,3.842807936406673,inf,,0.5967701798637209
336,0.5364793041447001,-0.010729586082894002,0.0,0.8036232262932607,0.7577379566468928,0.6025018367445479,1.7100093869854773,0.9164500242225853,,,0.6284777104787076,4.086376392572924,inf,,0.508872957151911
337,0.10898774456777732,-0.0021797548913555466,0.0,0.6733087595010653,0.6535334804691887,0.5349929571781562,1.4254454424790592,0.8634632984352313,,,0.648888643467878,3.9954046143671973,inf,,0.7330893297541518
338,0.7460155239521581,-0.007460155239521581,0.0,0.7625902309657062,0.648987961720051,0.5375263210112583,1.229075632310629,0.5814364493622548,,,0.6468212168108125,4.958675555165545,inf,,0.8564664759689157
339,0.0,0.0,0.0,1.0728379154044092,1.0078289715158548,0.578675939458135,1.9175845099253255,0.8258129951012403,1.7014091909729105,,0.6233814453054027,3.3058872018578307,1.7080869935039398,inf,0.5174942334821165
340,0.6178782909820475,-0.006178782909820475,0.0,0.4413124857490934,0.4121841550618764,0.5161516655101053,2.4148034255009647,1.8742472903968745,,,0.6357360191111145,4.935218654811502,inf,,0.7294806984784559
341,1.6964492894237302,-0.005654830964745767,0.0,1.1491915200669376,1.1019867674700496,0.7946569641095577,3.2629178836984853,2.073572517568125,,,0.6403206450210053,7.4002317640799316,inf,,0.6433017497663712
342,0.0,0.0,0.0,1.022063811725151,1.0287673516150737,0.6802841835973853,3.7483707071320977,1.8617282559666188,2.88703285663065,,0.62595550513784,2.8134107167600364,2.8937106591616795,inf,0.8212009640150378
343,0.03313714739172725,-0.001435943053641514,0.0,1.1052382469577229,1.101234771751811,0.798034190876571,3.7444500845888506,2.0843482538262803,,,0.6380535849069913,3.166125259482672,inf,,0.8352617045016018
344,0.0,0.0,0.0,0.8350285104796045,0.7700232818841002,0.6062037931700544,2.5008889922819324,2.414017305583587,,,0.6309483474627791,3.3058872018578307,inf,,0.5668467512872549
345,0.0,0.0,0.0,0.993490889457318,0.8940689102022819,0.7094634221957183,2.0428965278925606,1.4218183076243838,,,0.648888643467878,4.605170185988091,inf,,0.7591839297188626
346,0.0,0.0,0.0,0.7086236294850681,0.6325001747467351,0.47561230384752545,1.4799741006153226,1.0515378588658375,,,0.6684167106117298,4.605170185988091,inf,,0.7164119845099358
347,0.26823965207235007,-0.010729586082894002,0.0,0.8908872985421138,0.7986644237689146,0.5757378233241864,2.4604458010543078,1.9895669167597303,,,0.6468212168108125,3.302257433807252,inf,,0.711347726385695
348,0.028414865340586303,-0.0007577297424156348,0.0,0.9882980441314688,0.8190784970661251,0.6900431699258142,2.853174360142684,1.9358786092446678,2.295479848695448,,0.62595550513784,3.650086182728223,2.0570351931934927,inf,0.7589298550416589
349,0.045145990298368084,-0.00045145990298368086,0.0,0.7657172060593542,0.7190722522836359,0.5005304585620325,1.8508355633148212,1.4924643695481379,,,0.62595550513784,4.648309678648709,inf,,0.7069887730828516
350,0.0,0.0,0.0,1.2610971033489387,1.2583121142803693,0.8323547280255885,3.8652113130313674,1.8818591011488315,,,0.6403206450210053,3.3058872018578307,inf,,0.6306135969251856
351,0.0606515737358718,-0.004447782073963932,0.0,1.0742559064680581,1.0514282994565578,0.8149635254294089,5.903149184474943,14.72350530248875,,,0.5915533975974677,2.646798325070447,inf,,0.8715413873698087
352,0.41393786120310505,-0.020696893060155253,0.0,1.3038093240780628,1.265227668491318,0.8439685316718818,4.144786092847049,9.584722897781244,,,0.6333676938231112,3.093222605942612,inf,,0.7775234297913363
353,0.1518831595899983,-0.011644375568566536,0.0,1.4616095335516277,1.4158777544165764,0.8704269800530768,3.550393666308546,1.822172261281091,2.3854238879695835,,0.6822068148872973,2.6218725048611575,2.3921016905006125,inf,0.40919738365828395
354,0.2740003484165073,-0.01031031870880486,-0.002476364217298814,0.9238597757086072,0.8619462342275651,0.7175629675386119,3.097818990638399,2.366928751902808,3.15147204403299,,0.6740851607140061,3.252202828984268,2.127083600097436,inf,0.44304509557981475
355,0.31260119075111514,-0.009378035722533455,0.0,1.0369875040801937,1.0326198295481646,0.7648257181883303,4.213037735146279,8.969552082427562,,,0.6566669596287297,3.6168689181376643,inf,,0.4844562036313522
356,0.0,0.0,0.0,0.6273147493395654,0.610222464755149,0.5831073646548548,3.005414262029036,3.730228016690022,,,0.6425374456860184,5.0106352940962555,inf,,0.7428999143062601
357,0.007360685421798018,-0.0003680342710899009,0.0,1.1280669778784638,1.0818427019128631,0.7452142349446712,3.8148659275863475,4.707974025724961,2.6975747842673754,,0.663668482632973,3.002868789123311,2.704252586798405,inf,0.726870733510338
358,0.11397196912179247,-0.0022794393824358493,0.0,1.071372968219287,1.0096160846381759,0.8252731832991705,3.385228752560874,1.867635065301842,,,0.648888643467878,4.008166865981048,inf,,0.6263086117190413
359,0.06350720371407469,-0.002328597469516072,0.0,0.7870256834762265,0.7457962702576606,0.668102704876183,2.451235408046395,1.6679386894559705,,,0.6727386042041725,3.3594158476472007,inf,,0.6007126231781779
360,0.1789463012190899,-0.012526241085336292,0.0,1.2816840330348362,1.2478658373940954,0.7941863735914976,4.088802387917326,4.281093306914631,2.9935593589284455,,0.6233814453054027,2.706884214462241,3.000237161459475,inf,0.6314077729656807
361,0.1748948196655552,-0.010493689179933312,0.0,1.140654642018921,1.0568389241829041,0.7789186095349935,3.5361770151169605,2.648537874732222,2.803248590146396,,0.6333676938231112,2.8971949832442903,2.8099263926774256,inf,0.8282943380401803
362,0.09797519360350952,-0.0026126718294269204,0.0,0.9780272142891004,0.9428792701659057,0.7935907876961882,3.321738597919657,2.7205599268011453,,,0.6357360191111145,3.6946739878222727,inf,,0.7338775220145626
363,0.20380716138622657,-0.008152286455449062,0.0,1.0124613376261073,0.9367619992031064,0.7270190311256809,3.6290620669619598,4.543992690988018,,,0.6233814453054027,3.298039289559529,2.4090820863621865,inf,0.6450902529537639
364,0.08996442380944493,5.883219900850063e-06,-0.005103867235769396,1.1939044244702313,1.1432265469545115,0.8286112445903346,3.545712377193985,3.105949043654529,2.7827006186983896,,0.6668815377411301,2.917742954692297,2.592668126983365,inf,0.6641592129285375
365,0.0,0.0,0.0,1.1980024004578784,1.1411011768509303,0.7840551153116123,3.517479978061792,8.7173083425361,,,0.648888643467878,4.0943445622221,inf,,0.7449124835315919
366,0.1111464647659722,-0.007780252533618054,0.0,1.2730736066863448,1.2069749003260217,0.8293852803991794,4.1974761958416265,1.9104161200040366,,,0.6528756675646988,2.7211354406508654,inf,,0.6173356158853552
367,0.0,0.0,0.0,0.9991466791909878,0.9347389116199147,0.7229477418493169,2.823808343803884,2.0434263340905257,,,0.6233814453054027,3.624340932976365,inf,,0.7663700632310136
368,0.09088109152945333,-0.0024234957741187555,0.0,0.790635763975883,0.6744978749402405,0.5369472547872086,2.1156476733881053,2.123583486891586,,,0.6097226960127671,3.6911041491360472,inf,,0.6853626417369332
369,0.020866887342940083,-0.0009737880760038705,0.0,0.9038940917499217,0.8734550290276583,0.7340403193734986,3.523046121513183,4.487834567628639,2.6174574692151347,,0.6333676938231112,3.0829861041755517,2.624135271746164,inf,0.572649648917045
370,0.33208692879521506,-0.021032172157030286,0.0,1.2863069145896842,1.2458273561941042,0.8507604812357931,3.5842411003899595,9.329345510600778,2.804254930172957,,0.6153451465759925,2.8961886432177293,2.810932732703986,inf,0.501657484122077
371,0.01907036031414882,-0.0013349252219904174,0.0,1.3887783225423744,1.3429652067410294,0.8547485931842034,4.916897452062384,7.406421240391003,3.0253444724281624,,0.6509067234006624,2.675099100962524,3.0320222749591914,inf,0.43934699864914645
372,0.0,0.0,0.0,1.1170429265420283,1.094355476292521,0.806259572918107,3.8835827432881187,11.368480265560997,,,0.6357360191111145,3.506557897319982,inf,,0.41091010463093486
373,1.4707743644852822,-0.083343880654166,0.0,0.8241849009339074,0.7781565363939044,0.6869316802242341,2.9973816822928097,2.7779117068611447,,,0.676637947632344,3.2623053827955366,inf,,0.7004676053704917
374,0.0,0.0,0.0,1.076171638824013,0.9821107371220047,0.7790349360217669,2.803083058866202,1.6818598179197584,,,0.6125606311107803,3.624340932976365,inf,,0.7038810404742593
375,0.30092484657139584,3.24454027399515e-05,-0.013072522087500439,1.112288147241945,1.0867788832521528,0.7153548178495933,3.1063197716679256,2.0897914204106405,,,0.6153451465759925,3.2172105455491393,6.398594934535208,inf,0.5075404641669928
376,0.0,0.0,0.0,1.2146783235179113,1.193723390619779,0.7977107933975475,4.22497559984455,7.009603723831315,,,0.6602640781246099,2.9311937524164198,inf,,0.8353137854104578
377,0.0,0.0,0.0,0.9484100424138864,0.8818512667306757,0.6417135113535459,2.323175819829579,2.4955235201745656,,,0.6125606311107803,3.912023005428146,inf,,0.5991102513912402
378,0.0005564835442524331,-1.1129670885048663e-05,0.0,0.9563563566201336,0.9405489901406269,0.7481512876250369,2.934707806696726,2.515118193980547,,,0.62595550513784,3.912578715361869,inf,,0.6278258760926313
379,0.1417504985560253,-0.0028350099711205064,0.0,0.8720310430584951,0.8061975186710357,0.6120445572820563,2.753072864801606,2.4843302738204662,,,0.6468212168108125,4.022954566135428,inf,,0.5546213463271187
380,0.03628534641741769,-0.00024190230944945125,0.0,0.9873574389104297,0.9401441000619255,0.7499257699911507,3.0894404217108313,2.4093006196596063,,,0.6233814453054027,5.046262471739407,inf,,0.75795292400648
381,0.0,0.0,0.0,0.787432983239911,0.7382864871267963,0.7725861863422111,2.4368926764699705,2.1746575540083395,,,0.6699045166045591,5.703782474656201,inf,,0.9081115588540218
382,0.42833815053413926,-0.008566763010682786,0.0,0.808964113705147,0.6654620677296218,0.5959122720890347,3.0453088164895386,2.3890623180045303,,,0.6038851895711802,4.087037987039663,inf,,0.8834384900727267
383,0.0,0.0,0.0,1.1836304578250891,1.1403553787760545,0.8164360326883094,3.3781383526714652,2.249958710278157,,,0.6584896970785714,3.624340932976365,inf,,0.7673082816493297
384,1.8121704664881826,-0.0241622728865091,0.0,1.0672558217585044,1.0036938052863358,0.6540158500788692,2.38739244563726,3.4528030060231965,,,0.6380535849069913,4.984317985778882,inf,,0.8149337818550286
385,0.7348379850294708,-0.004898919900196472,0.0,0.7050263808255484,0.6565915107032729,0.6858219018830167,3.149918279760157,4.525837203225006,,,0.6447042257417027,5.496768305271875,inf,,0.6906975526152063
386,0.02650454867077372,-0.0012368789379694402,0.0,1.2070444059287766,1.1535826439884576,0.8658548897350427,3.2150535681754717,7.216219239589141,,,0.6447042257417027,3.0871168353558436,inf,,0.7179239447695804
387,0.013507744850334735,-0.0003602065293422596,0.0,0.8273867761193237,0.8204799542717409,0.7478134364723595,3.5135817241242475,3.8768156464963974,,,0.6425374456860184,3.637763953308506,inf,,0.8448612494343312
388,0.0,0.0,0.0,1.069244327631294,1.025199575042779,0.7761302302837031,3.0021262142794707,2.495528125863841,2.635718428349744,,0.6333676938231112,3.0647251450409425,2.6423962308807734,inf,0.7923511670952822
389,0.07779726370896727,-0.002074593698905794,0.0,0.8042121784379033,0.7599609928404503,0.607533537415277,2.5305031259862476,1.7622088135407568,,,0.6207552362147116,3.6840024770344324,2.0231188988872835,inf,0.7563096465289353
390,0.0,0.0,0.0,1.2531068719071619,1.2140642198546434,0.8326987632447743,4.2508639071026915,16.53955530047429,,,0.6207552362147116,3.3058872018578307,inf,,0.5380085501477552
391,2.853560687960858,-0.0380474758394781,0.0,0.5789884849802324,0.5818909673334676,0.4542110255134631,0.9842605823896402,0.46022979246593687,,,0.6547956803312163,5.0106352940962555,inf,,0.5566822357208427
392,,0.0,0.0,1.4929299348509246,1.4887926276862715,0.7370928579030614,0.28520328981361337,0.3071361831367896,,,0.6528756675646988,inf,,,0.9522119656955677
393,,0.0,0.0,0.10060391803536385,0.05224099837419999,0.07475840449642986,0.2669181354126712,0.2417714622512468,,,0.663668482632973,inf,,,0.8019680897342418
394,0.537003957277906,-0.015817581742092107,-0.005662576549024132,1.131747947159,1.1373791289922892,0.7525209937707789,3.6290021455000208,3.1444103871008444,,,0.6547956803312163,3.4795193484376252,3.920712415642306,inf,0.8489188246307766
395,0.0,0.0,0.0,1.5526741128955264,1.5079765201121316,0.9118407549934151,5.066925151476558,23.182405008552017,,,0.6668815377411301,2.336486644669727,inf,,0.3868228602401396
396,,0.0,0.0,1.0296303576640744,0.9993117770791271,0.714234115200422,1.098890198441102,1.4493442869872089,,,0.5947193981915972,inf,,,0.8547182018967893
397,,0.0,0.0,1.5716260690208892,1.5149874790920053,0.9274960492436517,0.9097522852699261,1.2714539424504516,,,0.6284777104787076,inf,,,0.7856615625430302
398,,0.0,0.0,1.6358731157995061,1.62852480820651,0.9435953521470821,1.0612105532351734,1.5054897260089273,,,0.6153451465759925,inf,,,0.7829364575620845
399,,0.0,0.0,1.5902551902520687,1.5690743361541304,0.9050091648862117,1.0523557763885139,1.4627945180258248,,,0.6447042257417027,inf,,,0.83930325803893
400,,0.0,0.0,1.5360256017859997,1.53173218753467,0.895341634235881,0.9903403056772404,1.31240912284172,,,0.62595550513784,inf,,,0.8337852866315794
401,,0.0,0.0,1.561558277336634,1.5185480593010974,0.919992868067366,1.022282660119305,1.5192705851683872,,,0.6566669596287297,inf,,,0.7917004231037009
402,,0.0,0.0,1.5173944834889521,1.49593877523834,0.891719564101967,0.9359759849036926,1.2774612163760264,,,0.6357360191111145,inf,,,0.814684951510895
403,,0.0,0.0,1.513452934832763,1.4761221462325491,0.8703695981307844,0.818050831692976,1.0818980510412033,,,0.6684167106117298,inf,,,0.823257464832672
404,,0.0,0.0,0.7515280648040473,0.7322589340225969,0.7459116712895046,0.7953599790816387,0.9678417043628121,,,0.6284777104787076,inf,,,0.842194031305373
405,,0.0,0.0,0.6385138476635862,0.616952849053959,0.4752250937614955,0.9132211080652114,1.0327071947504523,,,0.6207552362147116,inf,,,0.9102147553614166
406,0.0,0.0,0.0,0.8821211723555696,0.82883082930258,0.6677525046339472,1.8836592577969904,1.6985670243242261,,,0.6153451465759925,5.703782474656201,inf,,0.7218761079966745
407,,0.0,0.0,1.4720042660140074,1.4559888362194842,0.8914290024261288,2.920009714695605,4.292445816756121,,,0.6008849035917525,inf,,,0.7850895242877408
408,0.6799019538099246,-0.0022663398460330817,0.0,1.3164774700295938,1.2982723499553825,0.9030851187468965,3.192519274302702,4.682640963591211,,,0.6153451465759925,6.383684428466125,inf,,0.8613732672127077
409,,0.0,0.0,1.680028994889687,1.6366005439938065,0.9488226407611097,2.5488995559138665,3.5558098086843897,,,0.6357360191111145,inf,,,0.8291989424116056
410,,0.0,0.0,1.586281151397707,1.5647243602622687,0.9438362484574223,2.8122676285081516,3.7580287240333146,,,0.5947193981915972,inf,,,0.8132023189121368
411,,0.0,0.0,1.6737092901930044,1.6501507458109372,0.9366554613901388,2.6261168146830065,2.6109656088857487,,,0.6333676938231112,inf,,,0.7842343197716284
412,,0.0,0.0,1.3092519871214148,1.289123020581303,0.7892225953272226,2.339951429120121,2.7747770101967526,,,0.5978297680564633,inf,,,0.748452348248222
413,,0.0,0.0,0.29874863549611025,0.2232194658199489,0.3057510344542238,0.7213770321037881,0.7019305900592288,,,0.6380535849069913,inf,,,0.4970391934260924
414,,0.0,0.0,0.8022689217590288,0.7649678613668947,0.6807445679374166,0.4706656684250099,0.5388882079007693,,,0.6097226960127671,inf,,,0.860462287296433
415,,0.0,0.0,0.20726765807716444,0.1430867793549189,0.31486299126847184,0.9098381741043462,0.9688929012527399,,,0.6468212168108125,inf,,,0.7995497491591668
416,,0.0,0.0,1.5692162888151222,1.4994084739451725,0.9430286265501275,0.8674110978810824,1.1278208071083813,,,0.5641709578113449,inf,,,0.8431332813856063
417,,0.0,0.0,1.574514293747238,1.5378289052415481,0.8895606359639406,0.991321072542858,1.2002393586980764,,,0.5978297680564633,inf,,,0.8622202762510414
418,,0.0,0.0,1.5235465208438408,1.4986360541147778,0.9288565025024005,0.9869329765430795,1.3737388304880065,,,0.6380535849069913,inf,,,0.861134871808495
419,,0.0,0.0,1.5964983087367441,1.5920632145088691,0.9203341021540897,1.0667741279442826,1.502610008004088,,,0.6333676938231112,inf,,,0.8438952332018558
420,,0.0,0.0,1.0972391026778454,1.062187332490109,0.7168347810805226,0.9196127096045578,1.1439796076410687,,,0.6380535849069913,inf,,,0.8561688733095738
421,0.0,0.0,0.0,0.49845612690918006,0.40345279143042506,0.599344556565654,1.0742890924632773,1.0751539781658497,,,0.5915533975974677,5.703782474656201,inf,,0.9285131516061229
422,,0.0,0.0,1.20008936053548,1.1881689728028857,0.9115620967904708,1.530102102114269,2.0982331103987395,,,0.6233814453054027,inf,,,0.8915675404885451
423,,0.0,0.0,1.309626009225918,1.29517899694488,0.8339490692190497,1.4046960333847969,1.7259860819590893,,,0.6180765742263259,inf,,,0.8504045936675922
424,,0.0,0.0,1.3006564306536792,1.2821458651617261,0.8497532480148632,1.088006245998069,1.3338674624090856,,,0.6153451465759925,inf,,,0.7607677721188616
425,0.0,0.0,0.0,0.6518363974848486,0.6355134349048801,0.5108946811483457,2.11921718516848,2.190098663573318,,,0.6284777104787076,5.703782474656201,inf,,0.9142995351549218
426,,0.0,0.0,0.8011762862399912,0.7613592057703265,0.7625650514894481,1.5922434594062427,1.7635230433567575,,,0.6380535849069913,inf,,,0.670014734111483
427,,0.0,0.0,0.14257358439717902,0.11604264040796178,0.3533971016791129,1.2629125741500158,1.6515999971257216,,,0.6357360191111145,inf,,,0.5371775608691672
428,0.0,0.0,0.0,0.42952311633582924,0.3681650461871976,0.5695567491310778,2.1161601998642667,2.0787433873848578,,,0.6380535849069913,5.703782474656201,inf,,0.6407605291263961
429,,0.0,0.0,1.476119448524463,1.4004298276747087,0.886516524290032,1.8634648992679086,3.03426735207442,,,0.6309483474627791,inf,,,0.7900880208504736
430,,0.0,0.0,1.3125419929508506,1.27585834033911,0.8008807913208859,2.391440789204121,2.6348488068516196,,,0.6333676938231112,inf,,,0.8033518688935161
431,1.6575280797913154,-0.04420074879443508,0.0,0.8340769006661218,0.8398757411928323,0.7375124460565984,2.7093777305499795,0.8297889934570009,,,0.6447042257417027,4.091016772129426,inf,,0.4972796029817856
432,,0.0,0.0,0.10696905971831198,0.10893951653084494,0.047087699195106164,0.0858138439806296,0.054844394834342516,,,0.6425374456860184,inf,,,0.6628528217547623
433,,0.0,0.0,1.5425973990817232,1.545007314777608,0.24618684715537115,0.05322218095610126,0.05720274932570138,,,0.6528756675646988,inf,,,0.8885830481521519
434,1.7715263208002723,-0.03543052641600544,0.0,0.8384322770322793,0.8245671548580517,0.7318614739512797,2.8028035790045145,1.4699638465593217,,,0.5915533975974677,4.56594947283481,inf,,0.7650803186709014
435,0.0,0.0,0.0,1.0380108598858127,0.9510719204379627,0.6949534102759855,3.3747559684458794,3.58231531171115,,,0.6566669596287297,3.757872325600888,inf,,0.7635282534806238
436,0.08879661864217242,-0.007103729491373794,0.0,0.9488342412144768,0.8842240515114476,0.680988696348537,4.7400377889335035,8.234532336044577,,,0.6468212168108125,2.5862751441762892,inf,,0.7787746232024748
437,0.0,0.0,0.0,1.2819072601598915,1.26841386451167,0.7560701149944585,3.568685789838778,2.905899123101318,,,0.6233814453054027,3.2188758248682006,inf,,0.7170673709076144
438,0.27879545638279735,-0.01208113644325455,0.0,1.3663718214147729,1.3395502386947162,0.8535441630762987,4.259482410518913,12.929231487832325,2.4837875052607985,,0.6309483474627791,3.216656068129888,2.490465307791828,inf,0.7944795457606663
439,0.0,0.0,0.0,1.2072334527530777,1.1847356860833766,0.7915924605634128,3.307830636719296,2.5542904900950734,,,0.62595550513784,2.9311937524164198,inf,,0.4537944400807401
440,0.0738906170921254,-0.00566494731039628,0.0,1.2814777050392265,1.2416210909595624,0.8578496352910789,4.262583707948849,3.5485036400958876,2.4936384129857503,,0.6068309995095971,2.6119827323559766,2.401991463005794,inf,0.5817678984056089
441,0.345696426296655,-0.01037089278889965,0.0,0.9894680992770595,0.8278111329284848,0.6467089299107973,2.227338916938768,1.8295428269551848,2.5484487127628914,,0.6699045166045591,3.6539414027526558,1.3600327926091147,inf,0.7290831367016034
442,0.0,0.0,0.0,0.30658131237848235,0.24991045528901337,0.35353311000558224,1.6054647442743655,1.6608463640841566,,,0.6068309995095971,5.0106352940962555,inf,,0.7612622221456119
443,0.0,0.0,0.0,0.5294471093949962,0.43312048808840087,0.484313246173634,1.7753281846949627,2.089319595828973,,,0.6333676938231112,5.703782474656201,inf,,0.6517702936826855
444,0.054543702663372544,-0.002908997475379869,0.0,1.0769385479117453,0.9336528259242184,0.7154675408120507,2.7002632663400625,1.4791478086085896,2.7258202630469306,,0.6619902821573977,2.974623310343756,2.73249806557796,inf,0.5434847544298537
445,0.01645355530980456,-0.00043876147492812154,0.0,0.8121867979472921,0.793882232798991,0.6338616824942743,3.2250145181562355,2.1778450865893584,,,0.6447042257417027,3.639877672125494,inf,,0.6651392759979103
446,0.06750811694022561,-0.0040504870164135365,0.0,1.0609482309030798,1.0112223324209657,0.7625009593506656,3.660737289358874,3.0632038492350064,2.847174903446024,,0.6153451465759925,2.8532686699446623,2.853852705977053,inf,0.46964403257936166
447,0.06121314120579688,-0.0022444818442125523,0.0,1.012926735983718,0.9359792690627828,0.7950207364807265,3.7660548039463744,6.023757875818708,,,0.6778444222523095,3.3514552897673413,inf,,0.5774179437001403
448,0.0,0.0,0.0,1.2953612987760534,1.2540680160296975,0.7878766133910982,3.2366278038662375,2.242416352261944,,,0.6207552362147116,3.4011973816621555,inf,,0.8446227322583628
449,0.13183825908499877,-0.0013183825908499875,0.0,0.5395953985049495,0.4989570753416039,0.4337334953320975,2.0722486893065484,1.7109871078872962,,,0.6584896970785714,4.720456341445888,inf,,0.7569360371988485
450,0.0,0.0,0.0,0.6132873012235488,0.5612206352636319,0.5664626795307187,2.3287013208824963,1.6691046636296032,,,0.6468212168108125,4.31748811353631,inf,,0.5931452913458611
451,0.020573303096385234,-0.0005486214159036063,0.0,1.1112412755905396,1.0447677621765346,0.7607633839578257,3.1504148797282743,1.810294569174824,,,0.6333676938231112,3.6441185605850395,inf,,0.7929168802488328
452,,0.0,0.0,0.5887871019126725,0.46604011275787494,0.5345664776764885,1.8700597603857863,1.4844804465196497,,,0.6447042257417027,inf,,,0.7743723271672437
453,,0.0,0.0,1.1190863186564493,1.0875251499202325,0.7750507045118872,1.9150849097111347,1.466379016448671,,,0.6740851607140061,inf,,,0.8349958832381518
454,,0.0,0.0,1.1810995155431987,1.126758846519167,0.7867469567647215,2.3411974904390878,2.477597170749496,,,0.6153451465759925,inf,,,0.85720188310225
455,0.0026996470730289777,-0.00017097764795850193,0.0,1.2489914430669218,1.1423334970139605,0.8097312473190181,3.3415025168797583,3.200155862238489,2.9384650302629205,,0.6233814453054027,2.761978543127766,2.94514283279395,inf,0.8792308911485831
456,0.0,0.0,0.0,0.4748001738845232,0.428917075188848,0.5164497776829755,2.0962729143711063,1.574223673423118,,,0.663668482632973,4.605170185988091,inf,,0.7139361337076932
457,,0.0,0.0,0.34606708618650167,0.30411145421437474,0.3632356297425909,2.3142688662494324,2.095517525596992,,,0.6284777104787076,inf,,,0.7233005488917403
458,0.0034195529591700387,-0.00017097764795850193,0.0,1.1863132885911112,1.1482374665250252,0.7644985821362127,3.4505179353116966,2.9894641405189994,2.159592706506702,,0.6425374456860184,2.999071174819506,2.0149030205422647,inf,0.7901266282729598
459,0.0,0.0,0.0,1.1822249226253274,1.1568192029893225,0.7764730270259284,3.078900028559291,1.5339163566176444,,,0.6309483474627791,3.3058872018578307,inf,,0.5824505924421757
460,0.0,0.0,0.0,0.3256767374273267,0.2852133555294557,0.22586425157647796,0.20248236637885106,0.07696615058853123,,,0.6403206450210053,5.0106352940962555,inf,,0.5847312462306178
461,,0.0,0.0,1.566239795412617,1.5540854189514857,0.811106136794482,0.04832780965715617,0.05404988572459162,,,0.6333676938231112,inf,,,0.9183446783091255
462,,0.0,0.0,1.30348439969705,1.269242632723903,0.7871053479078737,0.06415501940445376,0.07975306729442529,,,0.6309483474627791,inf,,,0.9053169408400362
463,0.9398537777976681,-0.04699268888988341,0.0,1.0511150284429154,1.0191679829403661,0.724858346807156,2.805320672513054,1.5027331450313728,,,0.6380535849069913,3.3422997404146697,inf,,0.6338857282876547
464,0.7126988324042663,-0.03563494162021332,0.0,1.265460496545673,1.2449857047353705,0.8258219811803249,4.254889407022969,12.928675799615103,,,0.6509067234006624,3.424807247301289,inf,,0.8439108275232482
465,0.09497600829612796,-0.0037990403318451183,0.0,1.2455932889368755,1.221246265832365,0.7848643934488243,4.447279325365492,17.142506768307893,2.4119794617157706,,0.6153451465759925,3.288464111674916,2.4186572642467996,inf,0.6850956273772415
466,0.4103819533724081,-0.0218870375131951,0.0,1.2528211381734289,1.257303276034892,0.7997465335350951,3.9479014331564417,11.785448014573417,,,0.6309483474627791,3.111018429011787,inf,,0.8236883827499981
467,0.18204368186760977,-0.006674935001812359,0.0,1.086886498586339,0.9858922308509561,0.7382999674664612,3.5812350002054907,3.260597607285785,2.2780225552769044,,0.6699045166045591,3.422421018113782,2.2847003578079335,inf,0.7470214543202873
468,0.0,0.0,0.0,0.8930782069587772,0.8321502348175043,0.6669397280070253,2.2035662756239023,1.564981279564349,,,0.6468212168108125,4.605170185988091,inf,,0.8084453515993917
469,0.5266302037116025,-0.017554340123720084,0.0,1.2745175775049211,1.2446830083113292,0.7908287613287321,2.9838166662881176,1.5962517543567105,,,0.6153451465759925,3.6306105459899607,inf,,0.6531775373431072
470,0.08944842492278561,-0.0052486974460761865,-0.0004163694657002351,1.1284483616112144,1.1003956390935243,0.8423264659209473,4.866892911718874,21.848319952019303,3.1531182592433513,,0.6447042257417027,2.8184232585835804,3.0131925875825054,inf,0.563091055057517
471,0.0,0.0,0.0,1.0002962461264262,0.9379330194239734,0.6799162212873465,2.5089960676093623,1.9154182623097729,,,0.6740851607140061,3.4011973816621555,inf,,0.7652737890866724
472,0.0,0.0,0.0,1.035527133243077,0.9732768795014872,0.6824207629541146,2.571459023198189,1.863515467711479,,,0.6584896970785714,4.0943445622221,inf,,0.8237284526883606
473,0.0,0.0,0.0,0.6058623464474324,0.558232833107705,0.5846223412736485,2.2555981241520797,1.9681404644897005,,,0.6403206450210053,5.703782474656201,inf,,0.6330622255163877
474,0.0,0.0,0.0,0.6980030223453901,0.659355816929067,0.5943839046265634,1.9583584299894676,1.3468309351631798,,,0.6584896970785714,5.703782474656201,inf,,0.6717501798251971
475,0.0,0.0,0.0,0.6873647504914595,0.64762456731298,0.4365782065688364,1.2967632029393406,1.1751686839984568,,,0.6380535849069913,5.0106352940962555,inf,,0.654684204543157
476,1.2615566656503274,-0.046257077740512006,0.0,1.0363330542405242,0.9856750112680607,0.7169692929004493,2.158320231490502,1.4338719131311737,,,0.6284777104787076,3.7287759511132483,inf,,0.6996275796253977
477,0.19508096853308354,-0.005202159160882228,0.0,1.0826167084453175,1.0602861929552738,0.7484965638064035,3.813337407830493,5.2387655215153135,,,0.6207552362147116,3.7283135233593434,inf,,0.7603166145463962
478,0.014207432670293152,-0.0007577297424156348,0.0,1.1259298462372742,1.1130782179224212,0.7215582781220667,4.007144491876871,2.6504466216660756,2.063312865485927,,0.6778444222523095,2.943983527344814,2.0699906680169566,inf,0.5812955948281682
479,0.0,0.0,0.0,1.0717949134027114,0.9736000846529449,0.7652716351469416,3.310084496326448,2.8151215772380955,,,0.6309483474627791,3.624340932976365,inf,,0.7379456599730466
480,0.0,0.0,0.0,0.6194160320085046,0.5842893176363446,0.522281176462387,2.773188374617222,2.226639368467968,,,0.6447042257417027,5.0106352940962555,inf,,0.8636323614834067
481,0.24849066497880004,-0.008283022165960002,0.0,1.0456787708284205,0.9627276722885808,0.7427812478850557,2.920700209020107,2.795591154370429,,,0.6357360191111145,3.497341242215058,inf,,0.6768620958282954
482,0.03938977591744455,-0.0028885835672792675,0.0,1.0891980330269775,1.0143846883928533,0.74224689617984,3.216832734257302,1.4686132572573767,3.0530179941049114,,0.6528756675646988,2.647425579285775,3.0596957966359404,inf,0.7642028160179836
483,0.0,0.0,0.0,1.1032156629588,1.076760384545491,0.750556371806988,3.071341325467409,1.462556550003573,,,0.62595550513784,3.3058872018578307,inf,,0.6121072624077286
484,0.05630107660572492,-0.0011260215321144984,0.0,0.8277396789749782,0.8106207312017374,0.6393325496457382,3.779727221916853,2.0467759890301487,,,0.6380535849069913,3.960979850154677,inf,,0.5249601164846865
485,0.0,0.0,0.0,1.260519707696347,1.2171565224292478,0.8652075461262478,3.9303569191376573,2.9978716023781957,,,0.6866242695638369,2.7593434954897607,inf,,0.5088345525836337
486,0.5115830706322667,-0.010231661412645334,0.0,0.6618818771685935,0.6199318060023042,0.5474904190406901,3.186897435373933,2.508044415678597,,,0.6233814453054027,4.142834771382534,inf,,0.5251566315826485
487,0.12190536790606865,-0.004469863489889184,0.0,1.0637529994258803,1.0295889332279946,0.7032961628756588,3.351004037955288,2.233620926107586,,,0.6068309995095971,3.38008841845192,inf,,0.6712406819626763
488,0.5256041516006937,-0.02277617990269673,0.0,1.1040187117726816,1.010456589979541,0.768566510188362,3.106463984361975,2.6512391120666803,2.4238209263101615,,0.62595550513784,3.276622647080525,2.430498728841191,inf,0.7456808616384294
489,0.0,0.0,0.0,1.0184680370291337,0.9430492092964932,0.5659683019071452,2.350530733746293,1.6500174061006936,,,0.6233814453054027,4.31748811353631,inf,,0.4734494016557106
490,0.3277568775084974,-0.01201775217531157,0.0,1.0437435081966677,0.9508747708486219,0.6191924088972207,3.019957566496378,2.0934562275541877,,,0.6380535849069913,3.4925819434640077,inf,,0.6502816410880782
491,0.0,0.0,0.0,0.9330498655016632,0.9104667107587033,0.6456315628037212,3.0665616688212114,3.5446742063921173,1.095273387402595,,0.6425374456860184,4.605170185988091,1.1019511899336245,inf,0.7043738590403191
492,0.0,0.0,0.0,1.206801415778961,1.1364786010918015,0.8395938173167803,2.7216235565857243,1.364730867665997,,,0.6447042257417027,4.31748811353631,inf,,0.5802935713940929
493,0.20095230915519302,-0.006592722943234882,-0.007473938697628629,1.0112805920610668,1.0064255977437433,0.8248152794099926,3.635291602844734,3.169611808659568,2.6126426188322416,,0.6309483474627791,2.7647969349880985,2.1970481949387253,inf,0.6613142590631146
494,0.6207571041228014,-0.02276109381783605,0.0,0.94552120797736,0.9290461883346323,0.6782529981696542,3.7270363463873837,4.027437042744809,,,0.6180765742263259,3.5226120035525885,inf,,0.885291894825541
495,0.6674810632847669,-0.006674810632847669,0.0,0.4978358944062024,0.38144879603430987,0.5154439246978371,2.364024214821451,2.364444115889504,,,0.6333676938231112,5.144166686720778,inf,,0.5991657687687035
496,,0.0,0.0,1.1261404055314703,1.1214312042619088,0.7111773407895076,3.384549549101816,2.2835729035546173,,,0.6284777104787076,inf,,,0.9265900589888538
497,0.0,0.0,0.0,1.2626193367810108,1.2182013419303077,0.7835554783502102,3.240949776417778,4.653579127949909,,,0.648888643467878,4.31748811353631,inf,,0.9128083910207534
498,,0.0,0.0,1.1215833386279905,1.0934935305564717,0.7397503374579593,2.627058976847929,1.7572146729229199,,,0.6207552362147116,inf,,,0.9414841015454671
499,0.9060852332440913,-0.01208113644325455,0.0,0.7809261131031572,0.7639882504278647,0.5631480860626327,2.0840270529973823,1.261941253212894,,,0.6447042257417027,4.596320570711109,1.1108008052106069,inf,0.7602952363045047
500,0.0,0.0,0.0,0.980805139769577,0.9454411942028065,0.7389081278216845,3.332601306923015,3.977721479788816,,,0.6528756675646988,5.0106352940962555,inf,,0.927329910715508
501,0.0,0.0,0.0,0.9782483957580018,0.937066972225874,0.6674168141924511,2.413093633565637,3.0747274616720635,,,0.6528756675646988,5.703782474656201,inf,,0.89320693513777
502,0.16126400437695093,-0.0032252800875390186,0.0,0.9071704812905322,0.8615699963996115,0.7128536465662796,3.396178817428503,4.672563225922863,,,0.6468212168108125,4.021094100482508,inf,,0.7282239672404219
503,0.8957029769748587,-0.0572487988810234,-0.008436086097132912,1.1470661497404893,1.1095281445071394,0.7541806112745357,3.622709870347456,3.218421633441219,8.112125194449005,,0.6403206450210053,3.2887619523323672,4.94074916663209,inf,0.6726411874800717
504,1.2316128592248146,-0.03694838577674443,0.0,0.8980990877579835,0.8295720118884979,0.6714852708171067,2.515094665494467,1.4307891778873336,,,0.6180765742263259,3.8911316463967696,inf,,0.6585277064319507
505,0.9268174364730712,-0.006178782909820475,0.0,0.7178423468725127,0.6189713183083503,0.4269772109193246,1.1395538606491025,0.8682515052369733,,,0.6684167106117298,5.5582401693655425,inf,,0.7660812999119652
506,,0.0,0.0,0.493515286115091,0.4542681621601915,0.5322312031081112,1.7219124072977878,1.1367776170553734,,,0.6180765742263259,inf,,,0.7812528451306987
507,0.0,0.0,0.0,0.6732565711276712,0.49406654790473625,0.5709465287154911,2.379334678270618,1.6475059184849048,,,0.675384900321601,3.912023005428146,inf,,0.7053289142729139
508,0.0,0.0,0.0,0.6822969803284268,0.5702336057844483,0.5079863517372998,2.3900855606413436,1.9224585395603722,,,0.62595550513784,5.0106352940962555,inf,,0.88001092036729
509,0.10088799211771778,-0.0030266397635315334,0.0,0.9407841831597882,0.8905190895412358,0.6417581001263669,3.2819426370638447,3.421362740841712,,,0.6333676938231112,3.575154022124482,inf,,0.7118116693894757
510,0.0,0.0,0.0,1.1727784481906771,1.1403109048160909,0.8552690223579359,3.880889712608232,1.6121107200776241,,,0.6284777104787076,3.138833117194664,2.5682882587270512,inf,0.48676178955966787
511,0.05727520223301638,-0.003436512133980983,0.0,1.2950845736545151,1.2773391260100417,0.8027662454731566,3.459411133845166,2.3125681950918784,,,0.6584896970785714,2.849805796149503,2.8573155797722127,inf,0.7706902802926469
512,0.0,0.0,0.0,0.8952566045239083,0.8751012034460002,0.7065999128620535,3.4741757383592002,16.980608928068865,,,0.6713451011121618,4.0943445622221,inf,,0.7962552548955762
513,0.28034654451893076,-0.01121386178075723,0.0,0.5840084190115215,0.5475439041021807,0.6033848865776226,2.4151688376733507,1.9718736178991363,,,0.6584896970785714,3.3846680797109445,inf,,0.8500606986922662
514,0.38615357652508947,-0.01802050023783751,0.0,1.2089645951706542,1.1674043726061871,0.7521546922492703,3.194312584548324,1.131303066393496,,,0.6403206450210053,3.163756525647121,inf,,0.6278670765838752
515,0.0,0.0,0.0,1.3293737868026803,1.3024797761340228,0.8367402019225005,5.120194069607816,19.775379444632065,2.481567748522486,,0.6180765742263259,2.5257286443082556,2.488245551053515,inf,0.6174865591888307
516,0.04981525346993652,-0.0005771029569108849,-0.0005852529573876339,0.6325680907213701,0.5360728899626999,0.4973108679479805,1.8305949758407527,1.3879385356896705,2.07476174181148,,0.6509067234006624,3.8046644871076465,2.0774475230729714,inf,0.581980993901933
517,0.0,0.0,0.0,1.1433180092762008,1.0973735072506674,0.7056728574865079,2.7663731218557412,1.2700469027875094,,,0.6097226960127671,3.3058872018578307,inf,,0.4568591173003076
518,0.7321905489325988,-0.03172825712041261,0.0,1.3962869136015124,1.3863496470454029,0.8699968724712822,4.506030750333335,4.3084411041082875,,,0.6425374456860184,3.3843402645957323,inf,,0.7299922268657296
519,0.13855247789528274,-0.011546039824606896,0.0,1.1110131363385263,1.0608772605561043,0.7612463274015692,3.64898714475116,2.2500035980922486,2.0258322145312375,,0.6652988471865258,2.5759990701913393,2.0325100170622665,inf,0.7102733018947087
520,0.23412335979791862,-0.0031216447973055816,0.0,1.1165626773111237,1.0691160512589735,0.6808424997040777,2.047707106020621,0.9317031496110433,,,0.6566669596287297,4.485906765161274,inf,,0.7545599183212157
521,0.0,0.0,0.0,1.3409359103764327,1.3338709486114004,0.8267499861303641,3.8800829132200882,1.8922352464840722,,,0.6403206450210053,2.445685936634719,inf,,0.6539519610245416
522,0.19155824061814486,-0.017878769124360188,0.0,1.2068469519271845,1.1687041311991364,0.7835716316393784,4.51304088005879,5.7831876862635445,3.206966972919619,,0.648888643467878,2.4934766004710673,3.213644775450648,inf,0.6318481265803645
523,0.07115382925597982,-0.003557691462798991,0.0,0.988792167245833,0.9389050033169067,0.7072503780159687,3.4970466264551376,2.591519299777545,,,0.6380535849069913,3.0517149083049278,inf,,0.46384113386270026
524,0.0,0.0,0.0,1.0456548555805918,0.9831819847002287,0.699375386670679,3.2234198508793748,4.437886733639562,2.7047112998366956,,0.6068309995095971,2.995732273553991,2.7113891023677246,inf,0.5115027164254405
525,0.0006080898318906047,-2.2296627169322174e-05,0.0,1.0188709458333154,1.0018644506400054,0.7759544687907178,3.6585642976967607,2.67707679925789,,,0.6619902821573977,3.306493446192858,inf,,0.5239142405957541
526,0.07377214039227621,-0.0035379499137585587,-0.0011342856444189343,1.4313121682128507,1.4033875454615057,0.8586409057280392,4.317626815246554,5.725541776686467,3.8533996231581993,,0.6468212168108125,2.820099704910833,3.226173078692144,inf,0.5537682304198089
527,0.9776657049472696,-0.013035542732630261,0.0,0.7635972824071754,0.6535176854222378,0.5079164644132488,2.963180443151197,2.395202121019403,,,0.6403206450210053,4.957094527168226,inf,,0.7170668097918695
528,0.6277666234389329,-0.010462777057315548,0.0,0.6060791332281633,0.5331180815107884,0.5603303757985382,2.3495951485843865,1.5964500031120266,,,0.6380535849069913,4.306713040368352,inf,,0.766236040322821
529,0.0,0.0,0.0,0.8091864727117719,0.7763491514327053,0.6717924720241195,2.56642044826785,3.43318373902376,,,0.62595550513784,4.0943445622221,inf,,0.7059647089859276
530,0.0,0.0,0.0,0.5152838390982888,0.46158687116130054,0.558846895481242,2.07354888412793,1.8238723048420096,,,0.6284777104787076,5.0106352940962555,inf,,0.7939331779819516
531,0.0,0.0,0.0,1.0099110276835512,0.9723315562373446,0.8043218461852101,3.221529500610726,4.673214806861119,,,0.6468212168108125,3.912023005428146,inf,,0.7837882940587377
532,0.021829983795603445,-0.0010187325771281609,0.0,0.9447574903694081,0.8983808407838444,0.7472258157265214,3.0739619918164034,1.8975643602646146,,,0.6584896970785714,3.083713817973585,inf,,0.6374053501919161
533,0.17873753239753024,-0.006553709521242776,0.0,0.9799743162966563,0.9223837129181202,0.6680115918175545,2.322151384558514,1.6525575576651752,,,0.6425374456860184,3.387294476493164,inf,,0.726555858787403
534,0.001683558943126622,-6.734235772506488e-05,0.0,0.7470167085020825,0.7303203264521904,0.6160055451045432,3.899806731561995,10.357118885756092,2.479899691421789,,0.6309483474627791,3.2205438819688976,2.486577493952818,inf,0.8031937734504025
535,0.5394048306859649,-0.0035960322045730992,0.0,0.4106459636890295,0.31637266363360667,0.5157538176317464,1.5512312908370887,1.3848767903462749,,,0.6233814453054027,5.411112860693381,inf,,0.8656626541114301
536,,0.0,0.0,0.47090697698000955,0.43538698436302503,0.5789882693121167,1.7558496913303123,1.6431786740757521,,,0.6468212168108125,inf,,,0.561497443770922
537,0.0,0.0,0.0,0.3674266001833952,0.29515734723990905,0.43481368107475604,2.1169634894317713,2.018302039961159,,,0.6602640781246099,5.703782474656201,inf,,0.8156530562312274
538,0.0,0.0,0.0,0.9824274490281412,0.9350045163104826,0.7321208106020304,3.0512767996739867,2.2993480836487286,,,0.6566669596287297,3.757872325600888,inf,,0.8250651905353035
539,0.16699691473328493,-0.006123220206887115,0.0,0.973286039559161,0.940121285736386,0.5750020300051348,4.083684141105547,11.646256688488506,,,0.6566669596287297,3.415296306041657,inf,,0.7635351667534681
540,0.2390027956240512,-0.01035678781037555,0.0,1.3290229342942517,1.2705848893375706,0.8185140086056171,4.682685246674834,11.938280152194636,,,0.6528756675646988,3.2681244274377934,inf,,0.5155398547378812
541,0.08292742203488347,-0.0052520700622092865,0.0,1.2181757232929824,1.1257850493631498,0.8609526755986371,4.622479890333498,12.561490188968694,,,0.6180765742263259,2.8253333617169423,inf,,0.8940731757430448
542,1.3599770528025172,-0.004533256842675058,0.0,0.9010825956246512,0.7547954364840145,0.5572750965808595,2.4517968676740414,3.0095412296042428,,,0.6584896970785714,7.063759527458719,inf,,0.9338168874409801
543,0.08368409460563515,-0.0019526288741314867,0.0,1.146547301473818,1.095625393366283,0.7155942765911073,3.5243506387863515,2.0556328568987436,,,0.6727386042041725,3.823300130923343,inf,,0.5878042244806023
544,0.0,0.0,0.0,0.9039378613837113,0.8958674163279379,0.5479024141090904,2.447286799041971,2.42462192087576,,,0.6403206450210053,5.0106352940962555,inf,,0.8536858143842393
545,,0.0,0.0,0.35058602071092915,0.31424680975534813,0.5853466328529517,2.8456765762051957,3.932492048458997,,,0.6284777104787076,inf,,,0.753342515139707
546,0.0,0.0,0.0,0.677531173836901,0.6163694510993287,0.6090053828682233,2.9377245957905678,2.7286508477113185,,,0.6425374456860184,4.605170185988091,inf,,0.662881068561291
547,0.13617112164860606,-0.010893689731888485,0.0,1.210835076088637,1.1794421526183492,0.8377900764534087,3.9394461935295686,8.227300831260198,,,0.6233814453054027,2.596807022286228,inf,,0.7815124100774563
548,0.0,0.0,0.0,1.125160071521895,1.0478252765444545,0.6938284737714474,2.9036568073334332,2.604725393676923,,,0.6468212168108125,4.605170185988091,inf,,0.8729622642865027
549,0.13062964963904103,-0.009579507640196343,0.0,1.1904541148938668,1.177164945070813,0.8392549561989334,4.663150454634625,13.123841577853304,4.414277142883355,,0.62595550513784,2.6825449106938484,3.0245764652278675,inf,0.8741292105596526
550,0.0,0.0,0.0,1.1096812102290174,1.0683101848423124,0.6993663567710352,3.4547756112096066,9.624091875829667,6.677933925136898,,0.6333676938231112,3.624340932976365,2.0827804429453507,inf,0.9116623607619369
551,0.40943445622221003,3.44779730498089e-05,-0.01368229318045681,0.824876150616123,0.746023179761813,0.6365740319325066,2.897286247090623,2.540646150436846,,,0.6008849035917525,3.50470775803182,6.293419278846481,inf,0.6028791181363018
552,0.035775210910168324,3.316624958565103e-06,-0.0004803194370941428,0.7112405904351256,0.6051573115961898,0.5320723245242895,2.043762830163943,1.3989728923426727,,,0.6153451465759925,4.351389665211991,1.4993472224008726,inf,0.6668714042114149
553,0.0,0.0,0.0,0.6417993102440206,0.5900274110171709,0.6605803909979804,2.5334361193037402,2.5851233634785924,,,0.6447042257417027,5.0106352940962555,inf,,0.717271281122454
554,0.0,0.0,0.0,0.609513337070474,0.5423442313040023,0.6293181379771543,2.0505783265804696,1.2069004376856465,,,0.6528756675646988,5.703782474656201,inf,,0.8550261642113622
555,0.0,0.0,0.0,0.8888824864328464,0.8299498009097132,0.6979079719982949,2.992363075454955,1.9607015323332955,,,0.6357360191111145,3.912023005428146,inf,,0.5096240433593412
556,0.6480440466168708,-0.004320293644112472,0.0,0.43319127916890493,0.40124769149698797,0.5283622465140723,2.300091471703422,2.2261953143721054,,,0.6425374456860184,5.658171963404149,inf,,0.8437726675566821
557,,0.0,0.0,0.08467349851939515,0.06739637304307608,0.3595056340135062,1.458534643283965,1.9016654621600162,,,0.6528756675646988,inf,,,0.8670608413219498
558,0.0,0.0,0.0,0.8177477298900204,0.7687810795103444,0.5758006265854452,2.3232603331981787,2.1728342256424114,,,0.6380535849069913,4.31748811353631,inf,,0.7823286245221331
559,0.0005564835442524331,-1.1129670885048663e-05,0.0,0.8594051479303192,0.8051876837308649,0.6091977708349635,2.3198569853369637,1.816783827621971,,,0.6584896970785714,3.912578715361869,inf,,0.7328636478326191
560,0.0014756166024458585,-7.869955213044579e-05,0.0,0.8848412700970808,0.8426073491828318,0.6647218951508163,2.723287606886013,1.4774710536512763,,,0.6468212168108125,2.932653150152771,2.774468225768945,inf,0.7815972901106731
561,0.0,0.0,0.0,0.7185621088058587,0.6569550472647327,0.5475825096590003,1.8072794933433163,1.1809640872335632,,,0.6180765742263259,3.912023005428146,inf,,0.5295671822472772
562,0.0,0.0,0.0,0.655719658828955,0.5928289760614159,0.5057525454801437,2.0643063939503095,2.1585758321121276,,,0.6425374456860184,5.0106352940962555,inf,,0.825595596880421
563,0.05140902059797823,-0.0008568170099663038,0.0,0.8545549422964818,0.8250948089386138,0.5265564939960913,3.0757728863832767,3.1547905965665777,,,0.6357360191111145,4.140737601791811,inf,,0.5673933226725508
564,0.0,0.0,0.0,0.7345393510135667,0.6728253132737828,0.6453460589445922,2.5348143792396542,2.441547800166287,1.382955459854376,,0.6180765742263259,4.31748811353631,1.3896332623854053,inf,0.6720548240784363
565,0.0,0.0,0.0,0.8283103320533218,0.7370039730477206,0.6098308442975313,1.8976901422715624,1.6382384817355393,,,0.6403206450210053,3.912023005428146,inf,,0.7263546958325828
566,0.0,0.0,0.0,0.6618743727437454,0.6221881054304965,0.6080376519637019,3.1311527075761596,5.476656472161846,,,0.6207552362147116,4.605170185988091,inf,,0.6312486584747069
567,,0.0,0.0,0.6886576292949571,0.6539546274251595,0.6225818324601772,3.0470188358361336,3.145413380369516,,,0.6403206450210053,inf,,,0.8926308519175922
568,0.0,0.0,0.0,0.6686463640290741,0.6381286549331843,0.3360498696052574,1.935477928779947,1.70749425396328,,,0.6447042257417027,5.703782474656201,inf,,0.8043115992011284
569,,0.0,0.0,0.9620917583472837,0.9315100130627599,0.6215955468755422,1.6775376634979193,1.2385306768892366,,,0.6233814453054027,inf,,,0.7375131772184347
570,0.0,0.0,0.0,0.7869167047873129,0.7514227313858348,0.6540085673559876,2.5816729713988322,1.779477997893094,,,0.6233814453054027,3.624340932976365,inf,,0.6551402846370558
571,0.09471519768132,-0.006314346512088,0.0,1.1600248559712354,1.135375122165405,0.7722204495146296,3.6122842814001865,2.578098257546031,,,0.6233814453054027,2.7729443410202004,inf,,0.4642568730000586
572,0.7963699542036947,-0.07167329587833252,0.0,1.2517851440848142,1.2413723864002943,0.8110487870949245,4.12351868673239,2.949984459773227,,,0.6547956803312163,2.7177638932898494,inf,,0.46404566959392995
573,0.9121498918746361,-0.00912149891874636,0.0,0.9944718735606206,0.903525640726987,0.6788268527811635,3.3352694317062266,9.333989372067212,,,0.6309483474627791,5.110455629378467,inf,,0.8490180789283062
574,1.4259456186640502,-0.019012608248854004,0.0,0.6118042829019358,0.560840547195333,0.4966110861316759,3.1774001496423345,3.6885199717038755,,,0.6125606311107803,4.604059691704064,inf,,0.8490155933860043
575,,0.0,0.0,1.1729601776100813,1.1598399220808135,0.7599406492210442,3.188711587710691,3.4008561542415365,,,0.6008849035917525,inf,,,0.9117355443064327
576,0.9763946559438605,-0.003254648853146202,0.0,0.6715749466901451,0.6540126646259289,0.6669529100230089,2.5951515835045567,3.381719454943825,,,0.6528756675646988,6.680177130600062,inf,,0.716734646907223
577,,0.0,0.0,1.0824593025990488,1.0683003931621609,0.779222458971206,2.6447166714718016,4.257092166208029,,,0.6233814453054027,inf,,,0.8351749015352805
578,0.055049088015842206,-0.0018349696005280735,0.0,1.0501458266187491,0.9950503102367908,0.7407989309211398,3.037001933657245,3.0421684776950877,,,0.6740851607140061,3.4444528903331126,inf,,0.8368544316848612
579,,0.0,0.0,1.218571357651153,1.2054393524667515,0.8872933592754558,1.993031976120324,2.428296960915387,,,0.6357360191111145,inf,,,0.7077502371090744
580,,0.0,0.0,0.7361296775097997,0.7241295616923613,0.5847626473827567,1.6892594563542627,2.258876052813596,,,0.6068309995095971,inf,,,0.8102765020588485
581,,0.0,0.0,1.207347074479919,1.1927799765252296,0.8057515299486517,1.5068150309101422,1.7244068992077257,,,0.62595550513784,inf,,,0.8023173313543545
582,,0.0,0.0,1.572905749343522,1.5358366748141965,0.927140409210062,1.8778208016203963,2.6195203548320842,,,0.6180765742263259,inf,,,0.7928750592350166
583,,0.0,0.0,1.2943677909300355,1.2820507164015746,0.9555903752723479,1.8609519895601287,2.1080497991631804,,,0.585052858160615,inf,,,0.8120790276922213
584,,0.0,0.0,0.845150100961501,0.7948959045056704,0.5823033705400491,2.357398114040922,3.773226311327677,,,0.6528756675646988,inf,,,0.8178002841458566
585,,0.0,0.0,0.45467735117737645,0.38163587535069465,0.5431358998706629,1.7969773013500188,1.7167928464232796,,,0.6403206450210053,inf,,,0.9400797430549079
586,,0.0,0.0,0.7902234271212965,0.7724923068835028,0.6961753739718217,1.6899115129252846,1.828206795410331,,,0.6207552362147116,inf,,,0.8878228330849899
587,,0.0,0.0,1.3202697484183297,1.30506637660987,0.8911719692451329,2.0834754344659703,2.211846141952974,,,0.6447042257417027,inf,,,0.8363038319629278
588,,0.0,0.0,0.2205191014544508,0.1915574133738637,0.46586012750601324,2.0001461087093295,2.4640232442122225,,,0.6038851895711802,inf,,,0.7678634913167109
589,0.0,0.0,0.0,0.8108927961570223,0.7334583855705029,0.5719972454939479,2.0882871854985154,2.076152618530473,,,0.6309483474627791,5.703782474656201,inf,,0.5661137841876275
590,,0.0,0.0,0.9803119338233179,0.9845405731423829,0.48026172564577374,1.5641472359194855,1.3259260256547762,,,0.6153451465759925,inf,,,0.727660459770624
591,,0.0,0.0,0.31347238570933617,0.2856150255586556,0.4913280079299343,1.336944199669859,1.616305416016843,,,0.6309483474627791,inf,,,0.7256648787819227
592,,0.0,0.0,1.5665505597044915,1.5544606621595984,0.9372631788319746,1.30693779064917,1.7075677613323994,,,0.6068309995095971,inf,,,0.8278554860166493
593,,0.0,0.0,0.7713652522773313,0.7623079801306104,0.7492256471543486,1.3703049156808362,1.4138531630203708,,,0.6125606311107803,inf,,,0.734191346479828
594,,0.0,0.0,1.1683317540133031,1.151247930418857,0.8493396934114129,1.6050190833400388,2.2036150304930375,,,0.6038851895711802,inf,,,0.7899229211259249
595,,0.0,0.0,0.9408482591903489,0.9235625933165251,0.7077809966082677,1.9204767305436685,2.327281497090727,,,0.6284777104787076,inf,,,0.8735927354094072
596,,0.0,0.0,1.4570482578697628,1.4179004086709002,0.9197936158286805,1.6198057352719442,1.7039772023267623,,,0.5947193981915972,inf,,,0.8130277088338055
597,,0.0,0.0,1.6078245662914188,1.6223119422171781,0.9566150903542486,1.7320402508609591,2.1222439437123475,,,0.524519217297268,inf,,,0.7643396143216658
598,,0.0,0.0,0.3034089062470924,0.26714451388753324,0.5044659869758642,1.8466795670878031,2.912017258675979,,,0.6509067234006624,inf,,,0.857865870384582
599,,0.0,0.0,0.5443248283754367,0.5171685898284067,0.578423737217404,1.3626853451788337,1.5958371650367795,,,0.5947193981915972,inf,,,0.8824903338684689
600,,0.0,0.0,0.8263258552222649,0.8165285459873397,0.4814550880717646,1.354136078961139,1.4765775153037548,,,0.6566669596287297,inf,,,0.7955469004100119
601,,0.0,0.0,0.759457569492474,0.7443588587456937,0.5822764119953543,1.52156263553545,1.8589715736827108,,,0.6447042257417027,inf,,,0.73567418755733
602,0.0,0.0,0.0,0.29681302633400447,0.25757227901513147,0.36163516568312964,1.0718294982406018,0.7849224268917829,,,0.6447042257417027,5.703782474656201,inf,,0.5451286345221809
603,,0.0,0.0,0.9342595063990046,0.8746004567047511,0.8208710411342217,0.22423407429462902,0.29636798614411897,,,0.5947193981915972,inf,,,0.8307332660330307
604,,0.0,0.0,1.4383088097889942,1.404841675497521,0.8617720612078739,0.18337238895380875,0.2693856092963353,,,0.6447042257417027,inf,,,0.7393317983809974
605,,0.0,0.0,0.5392519731596717,0.5287428886704317,0.5584839295300649,0.3003321973171482,0.35935287664774834,,,0.6509067234006624,inf,,,0.8827526425029825
606,,0.0,0.0,0.750231817069983,0.7302570343256504,0.5153673278507575,0.28905246487073827,0.39033251281885584,,,0.5783247308855777,inf,,,0.8701524977504367
607,,0.0,0.0,0.838996322352005,0.8123915309999119,0.7536594026611726,0.3043144101318248,0.3639614196625386,,,0.6180765742263259,inf,,,0.8351908375899452
608,,0.0,0.0,1.2497194405827523,1.242505327793218,0.8654756820495013,0.3003363982164193,0.41130180509226527,,,0.5915533975974677,inf,,,0.8241488611269099
609,,0.0,0.0,0.7867915608662414,0.7716926824727047,0.6063561235915913,0.36824389383837586,0.4853023791689065,,,0.6125606311107803,inf,,,0.8173191795052245
610,,0.0,0.0,0.9169097027526291,0.8925960540660783,0.7725104680224406,0.3760662407874603,0.5197678045268207,,,0.6233814453054027,inf,,,0.8474973542669619
611,,0.0,0.0,0.2479229545603823,0.19114869601158782,0.1774848801785432,0.47961458267862644,0.4600642095119707,,,0.6284777104787076,inf,,,0.6461950876812215
612,,0.0,0.0,0.21741154249979316,0.19366540139953362,0.45464521689560655,1.6189879066121349,2.2735998439708283,,,0.5883313578629602,inf,,,0.8395080796371409
613,,0.0,0.0,0.8364802576657869,0.7937196538790015,0.6432947907388636,1.6707324326374384,2.348590541816222,,,0.5677978065141052,inf,,,0.8260843820746384
614,,0.0,0.0,1.5419177282726004,1.51169851969917,0.900046579266096,1.4477496149475748,1.7942272215312003,,,0.6403206450210053,inf,,,0.7355707762455558
615,,0.0,0.0,0.7456477373388647,0.7053744621258426,0.40685321937109054,1.7191299799314628,2.218319017109633,,,0.62595550513784,inf,,,0.8834785685791732
616,,0.0,0.0,0.9485077289615131,0.9003202932389233,0.8279221631428226,1.5027010194234838,1.822061541009264,,,0.6584896970785714,inf,,,0.7659067835113749
617,,0.0,0.0,1.227855382847709,1.1882382414920747,0.7364414162314236,1.6240550279947505,2.288051365365654,,,0.585052858160615,inf,,,0.755511216073473
618,,0.0,0.0,0.8647194165254677,0.8626040607887682,0.7011090797908289,1.7099391660503873,2.3280693071368326,,,0.585052858160615,inf,,,0.7912639128953272
619,,0.0,0.0,0.31084702462423275,0.28203859166003753,0.4124680528762298,1.4840064034864306,1.4126652351194486,,,0.6602640781246099,inf,,,0.6806896482665868
620,,0.0,0.0,0.8473318618836949,0.8350805546366435,0.6027609238161511,1.3503259153456841,1.7986234198458275,,,0.6284777104787076,inf,,,0.8551476426273644
621,,0.0,0.0,0.2554429354324269,0.21582354620487773,0.5555540221805023,1.1799524326833113,1.4717028814622355,,,0.6619902821573977,inf,,,0.8770178634320539
622,,0.0,0.0,0.7297580546254077,0.7074143729791368,0.6581110643067478,1.4788659712420433,1.5407729205620544,,,0.663668482632973,inf,,,0.9101394131198521
623,,0.0,0.0,1.40170662692882,1.3737001533860886,0.8719248711377614,1.4217428605617994,1.515512780176874,,,0.62595550513784,inf,,,0.8222494645510231
624,,0.0,0.0,1.6242906600842635,1.5758461485001714,0.9210780712479995,1.4926242385523631,1.630255625782115,,,0.6233814453054027,inf,,,0.7701801303152394
625,0.0,0.0,0.0,0.5141620526226561,0.4994444054998306,0.44261491956960497,1.8419931182414848,2.1581710009849546,,,0.5783247308855777,5.703782474656201,inf,,0.668916663614605
626,,0.0,0.0,0.6101866641951752,0.49917576837131855,0.7037272165616253,2.3344839883155175,3.0128835513308228,,,0.6403206450210053,inf,,,0.749090692126728
627,,0.0,0.0,1.6628339558518714,1.638490689880956,0.9196928678150352,2.211217652784596,2.212670721360507,,,0.5947193981915972,inf,,,0.8405501324655236
628,,0.0,0.0,1.2412120954391037,1.201242117065351,0.8538297290140132,2.612238041284786,3.3712924751253244,,,0.6309483474627791,inf,,,0.8918407055461557
629,,0.0,0.0,1.5673303115850235,1.5173466697107119,0.9224349512174252,2.664958950055158,3.1368913486859755,,,0.6528756675646988,inf,,,0.8582721855754141
630,,0.0,0.0,1.6046392190411574,1.5805690344432846,0.9293932576799215,2.6870407264492857,2.649577119916903,,,0.6602640781246099,inf,,,0.8452091077053759
631,,0.0,0.0,1.5716919817917523,1.5478721535292945,0.9389259608612959,2.570431524244641,2.5158988059999285,,,0.6425374456860184,inf,,,0.8495434083816386
632,,0.0,0.0,1.62071430532187,1.6027159409061118,0.9400847144176707,2.6832795743904905,1.8451065649456173,,,0.6180765742263259,inf,,,0.8329866835970017
633,,0.0,0.0,1.5994376404593718,1.589478933372879,0.9386569467040271,2.992696671513479,2.960236843740804,,,0.6008849035917525,inf,,,0.8301730777722918
634,,0.0,0.0,0.842207134805227,0.7463888382096804,0.6466114760262428,2.2135851321447815,2.8720051867539933,,,0.6008849035917525,inf,,,0.8597130238377307
635,,0.0,0.0,1.6613674974700907,1.632721878526153,0.9571431109265401,2.1763181795749715,2.7416230952499236,,,0.6233814453054027,inf,,,0.8479405328422313
636,,0.0,0.0,1.6792357080360936,1.6885472804683015,0.9538039916012279,2.373959728880413,3.193275041130051,,,0.6125606311107803,inf,,,0.8717820599625242
637,,0.0,0.0,1.6957212776428043,1.6689614744317889,0.9618880767172174,2.0572530798871576,3.4068961802688933,,,0.6207552362147116,inf,,,0.8327159475247451
638,,0.0,0.0,1.563741285383906,1.5350400948707466,0.938464719471276,2.1677971215591874,2.5549116572696318,,,0.6097226960127671,inf,,,0.8473225776736767
639,,0.0,0.0,0.9804105547320654,0.974488253287402,0.8837461711362192,2.189280170623624,2.59258240559629,,,0.6180765742263259,inf,,,0.8619488201143958
640,,0.0,0.0,1.6057998575253203,1.5572672504199885,0.9605791366980106,2.1933904803583144,2.9759683730164714,,,0.6233814453054027,inf,,,0.8437878114803209
641,,0.0,0.0,1.756361544511876,1.7218208273725164,0.9831797151014782,2.7924583227033666,3.2211702639878728,,,0.5915533975974677,inf,,,0.8617201802424984
