,temp+bvp_XAp0,temp+bvp_XAp1,temp+bvp_XAp2,temp+bvp_XCond1,temp+bvp_XCond2,temp+bvp_XDist,temp+bvp_XFuzz1,temp+bvp_XFuzz2,temp+bvp_XK2_1,temp+bvp_XK2_2,temp+bvp_XPermEn,temp+bvp_XSamp0,temp+bvp_XSamp1,temp+bvp_XSamp2,temp+bvp_XSpec
0,0.2417133247889381,-0.0016114221652595872,0.0,1.275833981218229,1.220002906789492,0.7798431492226644,3.204605869074338,2.7558057188732388,,,0.6447042257417027,5.2234160583749185,inf,,0.9474279786014895
1,1.4271163556401458,-0.004757054518800486,0.0,0.8926708081960453,0.8588355416640018,0.673078865794146,2.3011001033491514,2.0397374976526037,,,0.6380535849069913,7.1308988302963465,inf,,0.9218012600845003
2,0.0,0.0,0.0,0.6853895506010133,0.6804943259420856,0.5776236500246723,2.5727878210861737,3.70421920039574,,,0.6125606311107803,4.605170185988091,inf,,0.7268009065701757
3,0.4193311044829048,-0.006988851741381746,0.0,1.15170368383171,1.1010709565024326,0.7506738216953003,3.686690795512257,4.49400243988711,,,0.648888643467878,4.293608839746367,inf,,0.9230330461534659
4,0.0,0.0,0.0,0.6946851264753279,0.6291108237967304,0.6740979888557224,2.592156376201833,2.3335555940800012,,,0.6403206450210053,5.0106352940962555,inf,,0.7653575184782411
5,0.0,0.0,0.0,1.0293735243842423,0.998689846896502,0.690486003267789,2.0887126557715496,1.4975700589016845,,,0.6153451465759925,5.703782474656201,inf,,0.8591116180387832
6,0.0,0.0,0.0,0.8076740420146663,0.7626236283645191,0.6569513011316012,2.112590789395246,1.3195795601269422,,,0.6403206450210053,5.703782474656201,inf,,0.8125764361202292
7,0.10187325771281608,-0.0010187325771281609,0.0,0.7976737774237311,0.7585253054846374,0.6202941029751893,2.4871497414979578,2.9200087440603286,,,0.6713451011121618,4.697041839859974,inf,,0.862154894767475
8,,0.0,0.0,0.7369072681075182,0.7258895066676113,0.4738605484142427,1.962795765726882,2.093746818509943,,,0.6447042257417027,inf,,,0.9492798478484176
9,0.0,0.0,0.0,1.0944248787989896,0.9867100054743043,0.6698413932849149,2.1545755954302166,1.9589410218964107,,,0.6584896970785714,5.703782474656201,inf,,0.8897879041976414
10,1.0211599822966846,-0.02382706625358931,0.0,1.3507391641781887,1.2992333341279463,0.8549040578778169,3.346129684241817,3.3886564328693467,,,0.6509067234006624,4.610741231037546,inf,,0.9350027312897056
11,0.8482246447118651,-0.005654830964745767,0.0,1.5056008361366022,1.5078741841685714,0.8870372681488202,3.658112614506857,25.355597341002902,,,0.6468212168108125,5.535447159836986,inf,,0.9047325352677822
12,0.1505030155365237,-0.001505030155365237,0.0,1.2702769224972699,1.2589034562640926,0.8039526105606858,3.806597172457069,4.535643354210239,,,0.6447042257417027,4.7342669815447485,inf,,0.9452561235053442
13,,0.0,0.0,1.5215948558392403,1.5058461529888467,0.8610276640508373,3.4904582520357095,5.043554452218462,,,0.6584896970785714,inf,,,0.9013512126223728
14,1.2424533248940002,-0.008283022165960002,0.0,1.2946841258603792,1.2544477726366763,0.800933030661137,3.243358597012534,1.9788333638789086,,,0.6547956803312163,5.6237397669826645,inf,,0.9538545809840613
15,0.0871766935723889,-0.0005811779571492594,0.0,1.3957297424637303,1.3565770201505134,0.8223373031726702,3.24651808160861,2.7982559913056546,,,0.6528756675646988,5.094016903035307,inf,,0.9342277009958807
16,,0.0,0.0,1.4008984830588451,1.3701471263300486,0.7973846378172054,3.819184717937934,5.122117410814232,,,0.6333676938231112,inf,,,0.8785594900601845
17,1.703239750773385,-0.01703239750773385,0.0,0.8831407480045695,0.7761118513804103,0.7151178875243626,3.4840190650927845,7.011885884123297,,,0.6602640781246099,5.541096892379105,inf,,0.7509680498830253
18,0.1401929153060709,-0.0014019291530607087,0.0,1.113144831382273,1.0820751558520014,0.7075037366331021,2.9957815077922705,2.342073205074831,,,0.6038851895711802,4.726710270522187,inf,,0.9420248799568198
19,0.9516025305608571,-0.01265505567848112,-0.019065028673547448,1.064579017644834,1.035805905706351,0.7339404425799415,3.3240905406114694,2.74437746417457,,,0.6668815377411301,3.746037867953885,7.661527081358517,inf,0.6999479444841752
20,0.0,0.0,0.0,0.9572495790158759,0.9010390912277882,0.6734312583803445,3.514375070671204,9.44185408883384,,,0.6566669596287297,5.703782474656201,inf,,0.8458343648547114
21,1.8599274049774994,-0.030998790082958323,0.0,0.8302745275896313,0.8004153363191412,0.6854563312559685,2.9176695431396262,3.696786674589741,,,0.648888643467878,5.485986529668587,inf,,0.8865447548475723
22,0.0,0.0,0.0,0.9559908124231328,0.9432001363522519,0.8286096499872534,3.4489133258695177,7.050465881520229,,,0.62595550513784,5.703782474656201,inf,,0.6600651368662557
23,0.19411907056980132,-0.005176508548528035,0.0,0.7401403280491927,0.6497447546000876,0.6958616546649591,3.044368867055391,2.8787838747159085,,,0.6403206450210053,3.756444773609702,inf,,0.6641419937264659
24,0.029167788506481704,-0.00019445192337654469,0.0,0.9329997840817009,0.904887975771955,0.8140508879863462,3.0083541436402306,4.57365410599037,,,0.6403206450210053,5.03937776296191,inf,,0.7111293964562203
25,0.0,0.0,0.0,1.0441372153592066,1.009681126341615,0.6899742890910573,3.356196731101533,3.348724113193578,,,0.6425374456860184,4.0943445622221,inf,,0.7547183888335406
26,0.0,0.0,0.0,1.1120518647988458,1.0633204274347665,0.7332770864818359,3.988647697028884,9.671002972990818,,,0.6528756675646988,3.4011973816621555,inf,,0.7544923935226903
27,0.0,0.0,0.0,1.0040683860571396,0.9732920309226504,0.6746945115441161,2.8461797142802183,4.342170761134128,,,0.6528756675646988,5.0106352940962555,inf,,0.8308631549960562
28,,0.0,0.0,0.682417164642761,0.6048106442877376,0.5094017652040286,2.423839235823604,2.2241394296167285,,,0.6509067234006624,inf,,,0.7890273073514641
29,0.47892747028715654,-0.007982124504785942,0.0,0.8114904588428666,0.7653850488239847,0.6438560330759266,2.5181317007162436,1.9356476028873866,,,0.6425374456860184,4.530268877814973,inf,,0.6704861862448664
30,0.15737597916441287,-0.005245865972147096,0.0,1.1826176797095782,1.1274126201779506,0.7375286506621636,3.261120401616022,3.003276516092222,,,0.6468212168108125,3.517356736202441,inf,,0.6055712600420992
31,0.0,0.0,0.0,0.9785037027403557,0.9335252160547983,0.6252129246071048,3.0984515602539346,2.524983950146655,,,0.6668815377411301,4.31748811353631,inf,,0.8913820249012089
32,0.333414936121286,-3.7328930592175034e-06,-0.002219033347749356,0.8399710892915372,0.7969516212494905,0.7000718731219502,2.683299647796611,1.9454535464645297,,,0.6668815377411301,5.289467751271054,1.0811445956277188,inf,0.7461424584614276
33,0.0,0.0,0.0,0.8192022705163569,0.7700937269404973,0.623884842526602,2.5682553734576827,2.2576306708733056,,,0.6180765742263259,5.703782474656201,inf,,0.9468710412468075
34,0.0,0.0,0.0,1.0118707853167763,0.9932497058787264,0.6407365250269941,2.51429261111445,2.3938806876774463,,,0.6333676938231112,4.605170185988091,inf,,0.9381061634300217
35,,0.0,0.0,0.7984108718164544,0.7420000466971483,0.4741161363765662,2.1635932930066266,2.04407501175775,,,0.6425374456860184,inf,,,0.9299516055809771
36,0.0,0.0,0.0,1.0908872786267971,1.0595003352543275,0.7342724468122067,3.038069867147608,3.3349958319161686,,,0.6509067234006624,5.703782474656201,inf,,0.90950608624128
37,0.0,0.0,0.0,1.1799971876338446,1.1320392802682222,0.7842860392031521,3.4186245492608145,1.9980288990110004,,,0.6547956803312163,3.624340932976365,inf,,0.7493476298480167
38,0.5539021098580816,-0.014770722929548844,0.0,1.034219267525208,1.0113878819122553,0.6775653848301395,3.1533130868192485,2.5521782927186205,,,0.6447042257417027,3.8433264741419113,inf,,0.7583702270066522
39,0.0,0.0,0.0,1.0561573076407296,1.0218810954756319,0.7383040276074493,2.9818436650602256,2.179635759670713,,,0.6425374456860184,5.703782474656201,inf,,0.941464747243469
40,0.3606210219930128,-0.01322277080641047,0.0,1.4016076364776344,1.354788046391003,0.8454490147368935,4.459005793341418,6.459679793834274,,,0.6699045166045591,3.40453628292767,inf,,0.6533326971060953
41,0.011621215591807716,-0.00042611123836628294,0.0,1.264792505726217,1.2327976962270835,0.7977747665148818,4.179988468557858,9.96908926143476,,,0.6403206450210053,3.3168562332284046,inf,,0.8509419294714237
42,0.6996489236297085,-0.009328652315062781,0.0,0.9020139009656474,0.8380750671966414,0.6257613888016472,2.680077049277276,1.945991731411075,,,0.6528756675646988,4.860779538551879,inf,,0.8012660704356813
43,0.0,0.0,0.0,0.9659795888523852,0.9603890035195712,0.6531710989687395,3.1557186884570725,2.091318868403578,,,0.6713451011121618,4.0943445622221,inf,,0.7489034816244683
44,0.4247315829665563,-0.0028315438864437085,0.0,0.6571962080901259,0.577582522512667,0.6177153174433441,2.7666300179071386,1.5628891743775357,,,0.663668482632973,5.369694029390264,inf,,0.6849304011932966
45,0.0,0.0,0.0,0.852266261581549,0.8138846565019042,0.7178684917678076,3.248918141682016,3.35525874446761,,,0.6584896970785714,4.31748811353631,inf,,0.7133821945468802
46,0.7550225842780328,-0.002516741947593443,0.0,1.1483363757190033,1.0953845784064964,0.7083099071082043,3.625907120901799,3.2428072859336985,,,0.6403206450210053,6.458805058934233,inf,,0.6718230390920478
47,0.04642068911116922,-0.0004642068911116922,0.0,0.6401386559067269,0.6036929330834087,0.5726769129935981,3.3244006266015798,2.6703524315197944,,,0.6333676938231112,4.649470444884671,inf,,0.9065691818840785
48,0.2328671287279584,-0.00776223762426528,0.0,1.2989325334474773,1.26093960213732,0.8172645600268476,3.8895991291597576,4.351275440466503,,,0.6425374456860184,3.5512453779058144,inf,,0.732264007767728
49,0.055785887828552434,-0.0014876236754280648,0.0,0.9629133439703403,0.9292176675211712,0.7914747240056874,3.6751025213618744,2.2271289113058477,,,0.6284777104787076,3.670384871477772,inf,,0.8077268562087353
50,0.0,0.0,0.0,1.0345246054694592,0.9950419077800979,0.7603540093225052,3.6171643232960538,5.601824716705236,,,0.6380535849069913,4.31748811353631,inf,,0.9021290280555361
51,0.3668399534602778,-0.004891199379470371,0.0,0.9148978740533001,0.8758858090200043,0.6643884048773921,2.49935073898388,2.260010102640078,,,0.6684167106117298,4.584278826956715,inf,,0.7736022079601256
52,0.0,0.0,0.0,0.9423229661640907,0.8679332424593559,0.7559282351171511,3.007794015723874,2.554673545566866,,,0.6357360191111145,3.4011973816621555,inf,,0.8758295021607795
53,0.573150683551182,-0.022926027342047284,0.0,0.9935307422101475,0.9783346978517609,0.7159177402265311,3.2780839294095436,5.0350709579054715,,,0.6547956803312163,3.4055401310962923,inf,,0.8262131885251298
54,1.297063227391948,-0.004323544091306493,0.0,1.090567258196861,1.0275320250378177,0.6465669938064609,2.7505320136646065,2.47755381698799,,,0.6403206450210053,7.000845702048149,inf,,0.7848061340899196
55,0.0,0.0,0.0,0.8843640217821486,0.8617568296046634,0.7224229471196264,2.8966632671022117,2.762166952878383,,,0.6425374456860184,5.0106352940962555,inf,,0.8577482596348458
56,0.0,0.0,0.0,1.019580301109882,1.002771657790588,0.6737542894047109,2.721256271395493,2.3890464519772077,,,0.6309483474627791,5.0106352940962555,inf,,0.611949169431628
57,0.2332862302420052,-0.004665724604840104,0.0,1.0192933243269473,0.9579604766778044,0.7270852432993936,2.886886371049481,2.971105674464824,,,0.6652988471865258,4.046189520335053,inf,,0.7547294638941768
58,0.0,0.0,0.0,0.8459116333967319,0.831698621163966,0.6606812985098613,3.3469653502401293,3.067583349970783,,,0.6602640781246099,4.605170185988091,inf,,0.6572254514273426
59,0.7201689981336855,-0.0072016899813368545,0.0,0.698650240517505,0.6530886610144918,0.5922314895584937,3.2074435147913394,2.5468203976496024,,,0.6284777104787076,5.117849378403405,inf,,0.7661844583753541
60,0.06758621559815896,-0.0011264369266359828,0.0,1.0757702830526992,1.0719957105619689,0.6818425066166822,2.7299172499095845,3.26570987732679,,,0.6509067234006624,4.157639412594414,inf,,0.8891805839962265
61,0.169535289009226,-0.00169535289009226,0.0,0.9980643726609659,0.9878369141380346,0.5937118726204894,3.605635032673843,6.012687153569708,,,0.6547956803312163,4.766382779571811,inf,,0.7540756089817182
62,0.0,0.0,0.0,1.1841663250127994,1.1187977678253005,0.8091068855785402,4.265974407363334,51.64596393508393,,,0.6652988471865258,3.912023005428146,inf,,0.9339607897047336
63,0.0,0.0,0.0,0.9350112299932102,0.9101124553182923,0.7015227139116804,4.804405500676075,13.382192637470542,,,0.6180765742263259,4.0943445622221,inf,,0.6782345564355396
64,0.4197672365252136,-0.011193792974005695,0.0,1.0693455651461243,1.0643138854451848,0.7449417991014552,4.026808515273258,2.399409728843736,,,0.648888643467878,3.8386692859054063,inf,,0.7834181163169253
65,0.009338946635942215,-0.00012451928847922954,0.0,1.2735499325167334,1.2492248401971728,0.7714047997485767,4.784586068943124,11.039824370462238,,,0.6684167106117298,4.32669705262162,inf,,0.8129279121066428
66,0.0,0.0,0.0,1.2858455149223897,1.2788302933532578,0.7301024165354825,3.495144367801695,9.699611731614121,,,0.6509067234006624,5.703782474656201,inf,,0.8202354893992955
67,,0.0,0.0,1.2216354439313408,1.2090289176396158,0.7376167958726094,3.985265505022489,43.94836733985959,,,0.6509067234006624,inf,,,0.9079796495201139
68,0.0,0.0,0.0,1.1648840619565137,1.1453560146201849,0.7154517776419099,3.471662577834403,4.41798594242261,,,0.6468212168108125,5.0106352940962555,inf,,0.8294464818694264
69,0.0,0.0,0.0,1.2702023036142975,1.2485369144447813,0.7490809107187408,4.338012953596174,7.779754106022352,,,0.663668482632973,5.703782474656201,inf,,0.9320688780003148
70,0.0,0.0,0.0,1.1163586615869265,1.1081568889181566,0.7984203389117036,3.1933855484221545,2.550469696147328,,,0.6309483474627791,5.0106352940962555,inf,,0.8133946410605192
71,0.0,0.0,0.0,1.2946600190716608,1.3010828036930306,0.8440370497035253,3.4100912672784727,5.9720604341025245,,,0.6468212168108125,3.912023005428146,inf,,0.9375479699056448
72,0.0,0.0,0.0,1.2156839741476573,1.2159308005936171,0.8178899772398993,3.850957842522625,10.71556302871542,,,0.6740851607140061,5.0106352940962555,inf,,0.9289896608495244
73,,0.0,0.0,1.1828149830552985,1.121311307417455,0.8269864680493038,3.282177443521492,14.912130301482428,,,0.6528756675646988,inf,,,0.8703352262448232
74,0.0,0.0,0.0,1.2828142806113094,1.258794504197336,0.7703167553343787,3.3608233886379715,5.495631126595958,,,0.6333676938231112,5.703782474656201,inf,,0.8698235273448979
75,,0.0,0.0,1.2121397589304825,1.180646991891901,0.8266057288920653,3.815928657924336,2.353506990898859,,,0.648888643467878,inf,,,0.9013214455963663
76,0.0,0.0,0.0,1.1042530966968018,1.1191835851526475,0.6883166875452749,2.97507977681354,2.170429913258905,,,0.6668815377411301,4.605170185988091,inf,,0.8355882523552272
77,,0.0,0.0,1.3863553415384036,1.3592486594410464,0.8283025440528371,3.3919212866947417,3.4231086438028577,,,0.6180765742263259,inf,,,0.9093954389714057
78,0.0,0.0,0.0,1.0166414715720447,0.9084252149140225,0.7362572137992872,2.9495992732720713,2.9939246533319595,,,0.6125606311107803,4.31748811353631,inf,,0.7292008247600927
79,0.0,0.0,0.0,1.3389801765679303,1.3166067753553095,0.8231999353763321,3.195008052240449,3.4542768604392533,,,0.6602640781246099,5.0106352940962555,inf,,0.923325668632275
80,0.0,0.0,0.0,0.9696697673648782,0.9160361380022225,0.6906200308050096,2.911754926369287,3.811000247226861,,,0.6097226960127671,5.703782474656201,inf,,0.9276064282045542
81,0.03867659744024531,-0.0005156879658699375,0.0,1.1282044884299134,1.1052016073654471,0.8093433779497334,3.9318776439329,3.6676723297234326,,,0.6447042257417027,4.353979222118726,inf,,0.8785486915682285
82,0.9712911794813193,-0.006475274529875462,0.0,0.6898563190139103,0.5035539824404301,0.537742161836285,2.80269737407307,2.980284638532479,,,0.6528756675646988,5.569834502146462,inf,,0.9514719952165981
83,,0.0,0.0,1.1653609082970577,1.099232185828854,0.7132270834575708,2.9630996249041934,2.891206186817028,,,0.5783247308855777,inf,,,0.9533925930888898
84,0.0,0.0,0.0,1.2203549365535427,1.1599353191764818,0.7661177235723379,2.704525284176257,1.7883255564858507,,,0.6357360191111145,5.703782474656201,inf,,0.8087861293373756
85,0.020202707317519466,-6.734235772506488e-05,0.0,1.0533113373607241,1.034736861930017,0.6915208600396513,2.3383689295945396,1.576979821849747,,,0.5883313578629602,5.72398518197372,inf,,0.8798555679661174
86,0.0,0.0,0.0,1.1157903235921793,1.1101542905456634,0.7487241755304596,2.7322162066664473,2.295852994538171,,,0.6180765742263259,5.0106352940962555,inf,,0.9014534498191783
87,0.5828999932558694,-0.005828999932558694,0.0,1.0149953335109032,0.970558938491626,0.6730416696741284,2.9313850889265822,2.9123583450392174,,,0.6509067234006624,5.095830140159488,inf,,0.8929525689470924
88,0.052680257828913134,-0.0007024034377188417,0.0,1.0220760181382995,1.008270300820563,0.6149242022148018,3.187270012457453,5.5590871487583575,,,0.6528756675646988,4.3661532855175915,inf,,0.9424164111183604
89,0.0,0.0,0.0,1.0401194639358027,0.9811494410457663,0.6854681446449362,3.199712226781599,3.192486036978666,,,0.6038851895711802,5.703782474656201,inf,,0.7881802318889835
90,,0.0,0.0,1.5572575278120777,1.4649809930492004,0.8647024104342561,2.5518268596998057,2.4651175034263795,,,0.5713653840954815,inf,,,0.9392893633830871
91,0.0,0.0,0.0,1.0619167314865015,0.984428300055385,0.8022092640632729,2.9842243599918508,3.8396978050098545,,,0.6233814453054027,5.0106352940962555,inf,,0.9466190085510509
92,0.0,0.0,0.0,1.2324820404589216,1.2072271743796255,0.7379046955979379,3.3588895125156686,9.078425341879,,,0.6284777104787076,4.605170185988091,inf,,0.7359553869207993
93,,0.0,0.0,1.0926723827169247,1.0699883811737416,0.774134440301451,3.57162889132417,4.826794781006656,,,0.6619902821573977,inf,,,0.9381786487640003
94,,0.0,0.0,0.8221580941465797,0.7883413951881274,0.6424244278514254,2.6307738842017288,2.1560749424712062,,,0.6584896970785714,inf,,,0.9444211282379137
95,0.7226929594793762,-0.009635906126391681,0.0,1.1696617218472456,1.151955157239924,0.6996713608231535,2.157636874865806,1.398696518163507,,,0.6668815377411301,4.593022052052444,inf,,0.9519504759607113
96,0.0,0.0,0.0,1.159480616770322,1.1377724225352854,0.7335227690938104,2.7088380908208434,2.3130202554413133,,,0.6509067234006624,5.703782474656201,inf,,0.8034057625437234
97,,0.0,0.0,1.0508714477234868,1.0109562467379996,0.6994593436930274,3.240208934433532,2.5439954652652648,,,0.6207552362147116,inf,,,0.8991201235781473
98,0.05268025782891314,-0.0003512017188594209,0.0,1.2313130435720334,1.1857461612433686,0.7736993286098893,3.5314785797112473,2.0402225364730193,,,0.6357360191111145,5.061928588483807,inf,,0.8971344945409597
99,0.0,0.0,0.0,1.0827791778400184,1.0203025810665431,0.7102439899673801,2.968190952743246,2.7299377908876172,,,0.6778444222523095,5.0106352940962555,inf,,0.933371960929636
100,0.0,0.0,0.0,1.1480589587780656,1.1371236068073463,0.6967298856826633,3.2960450246440094,3.4128883247113877,,,0.6380535849069913,5.0106352940962555,inf,,0.9504899562730275
101,,0.0,0.0,1.1144581376715468,1.0448911067288,0.6887033255718139,3.5488205193130606,3.75111987783498,,,0.6727386042041725,inf,,,0.937319567937667
102,,0.0,0.0,1.1141315373667233,1.0988019861152432,0.6894589319270784,2.6936006449640244,1.6234059611863638,,,0.6509067234006624,inf,,,0.9469641951511246
103,0.9485599924429406,-0.006323733282952938,0.0,0.8480206771327845,0.8188365210392361,0.6995907923440223,3.222434392118882,3.4341081682268895,,,0.6180765742263259,5.5640205322810425,inf,,0.767966047533897
104,0.0,0.0,0.0,1.071587873054821,0.9966063132809407,0.8243915867872837,3.4627918427998545,3.9451448181196924,,,0.675384900321601,5.703782474656201,inf,,0.822453934922464
105,,0.0,0.0,0.9622027349349133,0.8657474936634814,0.6745250265994135,3.3364987175231824,2.356506675251365,,,0.581717464821069,inf,,,0.9367352384424283
106,5.0106352940962555,-0.016702117646987518,0.0,0.6272090708368429,0.5501325823437849,0.4792098573864666,1.8750685364210822,1.8447673111224445,,,0.6713451011121618,10.714417768752456,inf,,0.759616194053887
107,,0.0,0.0,0.950368396166643,0.9325727065413604,0.7285730771543272,1.7044556014406282,2.1086982182735525,,,0.62595550513784,inf,,,0.929165884415932
108,0.0,0.0,0.0,1.1479110757867745,1.0971142934616092,0.7242919815050785,2.861873539973974,2.3955517611154735,,,0.6309483474627791,5.703782474656201,inf,,0.9477394804161137
109,0.09030180932191421,-0.001505030155365237,0.0,1.1429787070138575,1.1251891996731986,0.7504126924314318,3.1367868601514366,1.8765705030961333,,,0.6309483474627791,4.169786757388959,inf,,0.9159236505694348
110,0.48069009093664467,-0.009613801818732892,0.0,1.0356201716073052,0.9709729162910756,0.7269849536541032,2.918455140914343,1.9470329904958468,,,0.6699045166045591,4.229019465548702,inf,,0.9111480901886954
111,0.28391740357886125,-0.002839174035788613,0.0,1.0717714977875095,1.050238956839447,0.7550765107358616,3.14278301436627,3.2773559276921214,,,0.6207552362147116,4.817263901115716,inf,,0.9321368114803718
112,0.45332568426750575,-0.004533256842675058,0.0,1.0716586691605436,1.0415088504120231,0.7288594733656533,3.0962780349081833,5.00612194404494,,,0.6153451465759925,4.889893676400127,inf,,0.7346259177238896
113,0.0,0.0,0.0,1.2069590797535186,1.1362670999328737,0.8601287768665854,3.565706552077536,5.466125750308651,,,0.6008849035917525,5.703782474656201,inf,,0.9468751143084885
114,0.0,0.0,0.0,0.9690258434439877,0.9512019581378933,0.7173350850668813,3.070003492647092,3.997276639285156,,,0.6447042257417027,5.703782474656201,inf,,0.9390913844245203
115,1.0690534864265653,-0.003563511621421884,0.0,1.0634452801322802,1.0534359405355194,0.7979791174424741,3.115893996285037,2.9413755401149864,,,0.676637947632344,6.772835961082766,inf,,0.9430794244327507
116,,0.0,0.0,1.7861440395302548,1.764740764938547,0.957593358373638,4.222483306377589,71.0745470239801,,,0.5783247308855777,inf,,,0.8359215268645813
117,,0.0,0.0,1.7809948483382783,1.7592206905341092,0.9518811444796281,4.129382258313987,53.88735238629058,,,0.5915533975974677,inf,,,0.817954320152202
118,,0.0,0.0,0.7642393962645296,0.7089353377745321,0.5968728719056304,2.5542771722523265,3.305334829487217,,,0.6068309995095971,inf,,,0.7849544184222079
119,,0.0,0.0,1.6016217530063797,1.5205555208242425,0.9370602871150788,2.9789554575181425,1.609679264925791,,,0.5783247308855777,inf,,,0.9061575165366752
120,,0.0,0.0,1.1607854792563197,1.1406015177913726,0.760282911367128,3.924500600424632,14.386959429265863,,,0.6008849035917525,inf,,,0.9362935038116053
121,,0.0,0.0,1.6292854794377676,1.629189029329529,0.8949039453958184,3.6057174628519317,2.6594608877377506,,,0.6309483474627791,inf,,,0.9260163058322796
122,0.6305656090829423,-0.004203770727219616,0.0,1.3421848334171445,1.1487528055905196,0.7764500729063215,3.641566688928017,22.369950913193062,,,0.5883313578629602,5.454321615024618,inf,,0.8715548334917214
123,1.0355445508606929,-0.041421782034427715,0.0,1.7856867849133329,1.7603771085924045,0.9392508849963109,5.351357322698254,146.3268697431795,,,0.6207552362147116,3.543145044317837,inf,,0.9207003746815104
124,0.048211171067955104,-0.0033747819747568576,0.0,1.784938576229188,1.7398525245546346,0.9486661632104302,4.446746149292393,110.50456902796621,,,0.6380535849069913,2.690046576662635,inf,,0.8738817952381177
125,0.1004789541700013,-0.009378035722533455,0.0,1.7815125576341284,1.7378386742654637,0.9372576035334016,4.6706356819927155,734.722926989812,,,0.6403206450210053,2.405725851913559,inf,,0.9050005954032939
126,0.05531607832554602,-0.005715994760306422,0.0,1.786352996002181,1.755124631642773,0.9302514877338759,5.741672001794519,196.0365468006818,,,0.6207552362147116,2.296603021316498,inf,,0.9053123998435709
127,0.0,0.0,0.0,1.7726367244307992,1.7487993441114984,0.9332686777252039,5.059377728010834,inf,,,0.6547956803312163,2.1484344131667874,inf,,0.8493016486252876
128,0.09872482446410893,-0.014150558173188946,0.0,1.7739022446961665,1.7599398212142137,0.9309061369853793,5.022932633506366,inf,,,0.6309483474627791,1.9724024356434544,inf,,0.8416022786582446
129,0.0,0.0,0.0,1.7765491438077492,1.7486912259666936,0.9447438978484117,4.7689273306929785,inf,,,0.6528756675646988,2.0402208285265546,inf,,0.8474173676836849
130,0.0,0.0,0.0,1.7770134131538833,1.7257432159909316,0.9341542376826607,5.797977862972906,152.91407037593575,,,0.5783247308855777,2.0661963149298153,inf,,0.9073578107093663
131,0.0,0.0,0.0,1.2797576874312009,1.2483451566662307,0.870047612899821,3.9020454974923235,2.8205289335434456,,,0.6425374456860184,2.2697952701710546,inf,,0.9094418948703504
132,0.045362994160028425,-0.005594769279736839,0.0,1.7781032023815149,1.744828288044161,0.9190781644201194,5.3000092414375715,413.80768095662756,,,0.6309483474627791,2.115091747797697,inf,,0.8492786389821441
133,0.0,0.0,0.0,1.7744153648739733,1.7330356716272006,0.9364349799114673,4.773046316627528,416.83160240633964,,,0.6357360191111145,2.2072749131897207,inf,,0.8641232400151851
134,0.0008141332979011634,-7.869955213044579e-05,0.0,1.7833044864042993,1.7582561668323484,0.9303872877774185,4.588887944322363,inf,,,0.6008849035917525,2.3372915662333376,inf,,0.8522104595371536
135,0.08742729596764803,-0.009325578236549123,0.0,1.7874866587999847,1.7833306721352236,0.9353559206639666,4.090941326642916,97.95040992587506,,,0.6097226960127671,2.280280152473545,inf,,0.8918743411641048
136,0.0,0.0,0.0,1.3940065130732089,1.332038783636431,0.8256868274943072,3.9332974606364246,4.46038784464484,,,0.5978297680564633,4.605170185988091,inf,,0.8762854080752358
137,,0.0,0.0,1.4272414835322746,1.4055398304260018,0.8494437073518614,4.639063229427927,16.367938525884846,,,0.585052858160615,inf,,,0.8386864004181865
138,,0.0,0.0,1.785862675311169,1.7880992227554628,0.9473912076595815,4.248312630910801,71.14452322798621,,,0.6528756675646988,inf,,,0.8783371490019557
139,,0.0,0.0,1.7852199340994095,1.7507765951850705,0.9482357433272748,3.9711516340950843,92.87299877909317,,,0.5713653840954815,inf,,,0.8582624447676294
140,,0.0,0.0,1.7836117333162615,1.7497701153734446,0.9572198626836418,5.161022698442226,275.6642143949269,,,0.6447042257417027,inf,,,0.8926511231425578
141,,0.0,0.0,1.7769291701685208,1.7680644000302683,0.9531921195848009,4.405607279737429,74.95242574702799,,,0.6180765742263259,inf,,,0.9180699655492017
142,0.0,0.0,0.0,1.3822068984811129,1.3416693953460537,0.803335768798135,6.367802651153558,134.3546063221357,,,0.581717464821069,5.0106352940962555,inf,,0.9021556173035686
143,0.9852836033611064,-0.0032842786778703548,0.0,0.7472638305135384,0.7217593433945384,0.6625233196323246,4.2790872812607885,12.399074825553043,,,0.62595550513784,6.689066078017308,inf,,0.9192005812285973
144,,0.0,0.0,1.7781688995210163,1.7150453505480452,0.9324359546459027,3.9104399774059657,9.731999762387408,,,0.6727386042041725,inf,,,0.8973986232853239
145,,0.0,0.0,1.7512053280050806,1.7337863865982805,0.8859138112773487,4.326121703016253,171.50588023415065,,,0.6668815377411301,inf,,,0.8343033426297911
146,,0.0,0.0,1.4113202183366191,1.40179997868794,0.7526304705777656,3.842428160795825,10.248164485702375,,,0.6619902821573977,inf,,,0.920221376168614
147,,0.0,0.0,1.1918901104014823,1.1605021306074055,0.8736060640703158,3.9341233900153902,24.425331788022607,,,0.581717464821069,inf,,,0.8358231656422932
148,,0.0,0.0,1.7731048298179175,1.7814410100232567,0.9439038586842599,4.032425886086371,152.08132609855954,,,0.6380535849069913,inf,,,0.8681408187037007
149,,0.0,0.0,1.7813564622722016,1.7458648179135845,0.947236391501456,4.535622634050354,8.469117219749165,,,0.62595550513784,inf,,,0.8749676491336339
150,,0.0,0.0,1.774458225417434,1.7300864588970566,0.9257947977993541,4.110197574873628,621.607246303648,,,0.6528756675646988,inf,,,0.8376975057241843
151,,0.0,0.0,1.7859595649500486,1.774645814281863,0.9461893329123826,5.308234104111004,460.46378381864594,,,0.6309483474627791,inf,,,0.8732739210542283
152,0.0,0.0,0.0,0.9947106886432707,0.9407912914025478,0.7353900211548561,4.123970840215923,39.20881113500444,,,0.6468212168108125,5.0106352940962555,inf,,0.6784359410445634
153,0.0,0.0,0.0,1.2511479415479094,1.2070462735531444,0.7815339075126518,5.038337250809426,76.92942578764222,,,0.6684167106117298,4.31748811353631,inf,,0.9139710956987656
154,0.17981225987411012,-0.014984354989509176,0.0,1.369494573754671,1.3413941232500972,0.8205211291856975,3.737175415014304,1.4479795950285985,,,0.6447042257417027,2.602939716699593,inf,,0.7383242813821455
155,0.0,0.0,0.0,1.2553902509339485,1.2317691435258855,0.8962302825545531,3.671803822331846,4.468442982167209,,,0.6233814453054027,3.4011973816621555,inf,,0.9414187220754213
156,,0.0,0.0,1.5181288084058966,1.5009473010551573,0.9355882916915842,2.861508390710072,2.886396899567169,,,0.6125606311107803,inf,,,0.8579408601775435
157,,0.0,0.0,1.3399840186597647,1.3117680071277351,0.8488821361967288,2.8630354660316395,3.1519914923292336,,,0.5604843169999094,inf,,,0.8534136196247772
158,0.0,0.0,0.0,1.3600749488431587,1.3452881196991313,0.9301784209629697,2.817828707148364,2.6670984086488816,,,0.5641709578113449,5.703782474656201,inf,,0.8638586453461153
159,,0.0,0.0,1.7259056084529205,1.6906070769080181,0.9655975060748884,3.093832148407249,2.436965853451514,,,0.6284777104787076,inf,,,0.8501651226945341
160,,0.0,0.0,1.7414454632404341,1.7111148351154224,0.9672357877191557,3.677387688907014,12.210174041661393,,,0.581717464821069,inf,,,0.8269690529143849
161,,0.0,0.0,1.7350054491369378,1.7123114847792884,0.9788671294466988,3.7875286559222987,4.525488350305253,,,0.5915533975974677,inf,,,0.81179466012399
162,,0.0,0.0,1.7333124496793881,1.7053404844164175,0.9696831588565241,3.9325519767560206,3.640387896225322,,,0.5567373465730988,inf,,,0.8145495706961104
163,,0.0,0.0,1.6383680926062785,1.6215769004663367,0.9432139247585822,3.5024806658363206,2.2552548504966414,,,0.6207552362147116,inf,,,0.8421909107148571
164,0.0,0.0,0.0,1.4359678989301992,1.4096698757912645,0.9447381908315889,4.223850344529482,6.635808033598592,,,0.6008849035917525,4.31748811353631,inf,,0.8103990143475948
165,0.004431387137159031,-0.00026588322822954183,0.0,1.7532610080667985,1.7301680713698864,0.9688692300940132,4.4858399699020755,5.368665976222529,,,0.6309483474627791,2.817679072502724,inf,,0.8667849659475689
166,0.0,0.0,0.0,1.7817884492285976,1.7295275447642675,0.9639578794559602,4.786589015034565,316.5454537316651,,,0.6068309995095971,1.9661128563728327,inf,,0.8789815759171709
167,0.0,0.0,0.0,1.7729333671246728,1.7391834891812432,0.9347655234728605,4.035542723268564,421.072139548673,,,0.6380535849069913,2.120263536200091,inf,,0.9213636608348889
168,0.00040675819188305037,-4.474340110713554e-05,0.0,1.7816047387662337,1.7265595525101507,0.9498098265705578,5.171418717884263,146.0339189247256,,,0.6447042257417027,2.207679035240078,inf,,0.9185466218334385
169,0.012731487170551916,-0.0014429018793292172,0.0,1.77871938719853,1.7719515952508695,0.946193535423137,4.715748013030011,79.96675388360123,,,0.5641709578113449,2.188165732847873,inf,,0.9239512308196896
170,0.20707555414900003,-0.008283022165960002,0.0,1.2441489913277965,1.220765283057524,0.9207103058779119,3.7518771784894525,23.931263431434946,,,0.6207552362147116,3.2983399962224476,inf,,0.7551970342613678
171,0.0,0.0,0.0,1.0260340399967829,1.0065548425485311,0.7723594056211013,4.186053610190106,64.82773261767466,,,0.6125606311107803,2.7593434954897607,inf,,0.8013744551544174
172,0.0,0.0,0.0,1.6547384867976616,1.6215482527609524,0.9746143096249963,3.537007641811431,3.4969388604402534,,,0.6008849035917525,3.912023005428146,inf,,0.858742478264163
173,0.0,0.0,0.0,0.9598975565653682,0.9498386824167812,0.6532459697374048,2.9995402561012514,3.180266056960512,,,0.5748741956352443,5.0106352940962555,inf,,0.8408202029537021
174,0.0,0.0,0.0,1.4142881296360148,1.406055020623585,0.8738628408099738,3.137199395616127,5.4967143387581885,,,0.5677978065141052,5.703782474656201,inf,,0.8173889007631955
175,,0.0,0.0,1.6807038878454332,1.6547250288412079,0.9533461073716603,3.6943974978036564,7.572323205271227,,,0.5883313578629602,inf,,,0.7902662196613935
176,,0.0,0.0,1.6686292134265273,1.6334057075249042,0.9586719218513025,2.849300883039505,3.4081711035326396,,,0.6038851895711802,inf,,,0.8427888463350635
177,0.0,0.0,0.0,0.6927218518754401,0.6574298564085191,0.7491477222077876,3.227413377297856,5.455111582432697,,,0.5915533975974677,4.605170185988091,inf,,0.9083717567833253
178,0.018595295942850813,-0.0014876236754280648,0.0,1.495670739761421,1.4637663161575047,0.9388069487065864,3.443032330338788,22.788665398692935,2.060989002604273,,0.6333676938231112,2.540842282118304,2.0676668051353024,inf,0.8096786637394875
179,,0.0,0.0,1.6876366099899258,1.6612396014208093,0.9565124072735126,3.239923414526801,7.541417353545768,,,0.6233814453054027,inf,,,0.849951106042621
180,,0.0,0.0,1.0190390786056074,0.9580475513236331,0.8175060513080612,2.901983810250461,3.547445172193187,,,0.585052858160615,inf,,,0.905813998694694
181,,0.0,0.0,1.593365791672516,1.5362698274173496,0.9456706843508932,2.201946768028431,2.5187092962191557,,,0.5783247308855777,inf,,,0.8137009040816262
182,,0.0,0.0,1.6872236194888761,1.6565590462065676,0.9749105235992693,2.5277019231523203,2.011434096154689,,,0.6008849035917525,inf,,,0.7940230711579286
183,,0.0,0.0,1.541227292555269,1.52785143850192,0.9316134521701135,2.1823283683688044,1.6623427270959819,,,0.6038851895711802,inf,,,0.8137825585712432
184,,0.0,0.0,1.5760504133811943,1.555580388832877,0.9117126463638203,2.340101382750635,1.9209025486999214,,,0.62595550513784,inf,,,0.8204722272575755
185,,0.0,0.0,0.8310213130829897,0.8005918895239739,0.7859402516547693,2.599783642875406,3.0637078307506194,,,0.5783247308855777,inf,,,0.7922522831820523
186,,0.0,0.0,1.6570792948688176,1.6205591373742079,0.955641324981183,2.668776734378223,2.9836300345045443,,,0.6097226960127671,inf,,,0.8553436734103227
187,0.06187540371808753,-0.00020625134572695844,0.0,0.7876086757357327,0.7398571340708595,0.6806998373061833,3.39207561114313,3.7058927069017873,,,0.5713653840954815,5.765657878374289,inf,,0.8949718032799447
188,0.0,0.0,0.0,1.583485016133895,1.537223423934504,0.9692061594586355,2.4826431857122535,2.507763633600176,,,0.6153451465759925,5.703782474656201,inf,,0.877334601397953
189,,0.0,0.0,1.116039017383749,1.0926831913276218,0.8453526093917985,3.1932481653209868,2.9044675984865838,,,0.6357360191111145,inf,,,0.8900574060392191
190,,0.0,0.0,1.7340322298145798,1.6611369880413274,0.9703209177857587,3.3357080224027986,2.1626736752139966,,,0.6068309995095971,inf,,,0.873735711447133
191,,0.0,0.0,1.6917464599893757,1.66126391495768,0.9709769237535552,3.6557512230614995,5.08685996985059,,,0.6153451465759925,inf,,,0.9014830778143016
192,0.0,0.0,0.0,0.8881727150150265,0.8679703582506642,0.7280472380061104,2.927629537422699,2.5925872094004627,,,0.6068309995095971,5.703782474656201,inf,,0.8481199028062216
193,0.0,0.0,0.0,1.3643417088806615,1.3162986780913848,0.8651139139962408,3.6787307140726124,6.307553348350563,,,0.6125606311107803,3.624340932976365,inf,,0.8671461773320621
194,0.3819010822825563,-0.013575807113384268,-0.0042462433931350265,1.1427987149472716,1.0392538141876886,0.775078731977834,3.5827004450073736,8.188410341620447,,,0.6425374456860184,3.2713393944039417,3.7054087560651467,inf,0.8307266847255605
195,0.0,0.0,0.0,1.0011608908587273,0.9786181214885886,0.8131635121487444,3.4451464125786586,12.200358310092748,,,0.6153451465759925,5.703782474656201,inf,,0.8808922990391591
196,0.0,0.0,0.0,0.8811308921925264,0.8240294376144666,0.7673801404402353,3.078108646498569,2.9608695336742623,,,0.5748741956352443,5.703782474656201,inf,,0.9228132309498109
197,0.10769572902311356,-0.001435943053641514,0.0,1.1819818973639484,1.172753780278737,0.7446498648902994,3.7769989918798967,4.920976081744399,,,0.6468212168108125,4.409055307061801,inf,,0.6166937716455309
198,0.3301786788684772,-0.0022011911924565146,0.0,1.077434350534937,1.0271184012878034,0.7353087262727799,3.1107875236615268,3.123440187349753,,,0.6038851895711802,5.287267530361452,inf,,0.8149434528006259
199,0.0,0.0,0.0,0.9497922490723584,0.9162987339433368,0.7304993760987236,2.7993508634826303,2.486654327894356,,,0.6509067234006624,4.0943445622221,inf,,0.6670381972484675
200,,0.0,0.0,1.1484908247315793,1.1308174533605673,0.7402753688007041,3.3105574497664696,13.878884736183466,,,0.6097226960127671,inf,,,0.9387434565598013
201,0.20661424936299916,-0.0006887141645433306,0.0,1.0839243890497705,1.049116257400009,0.8272072864073172,3.0206565717470593,3.9213576337609144,,,0.6097226960127671,5.910396724019201,inf,,0.924736412210658
202,0.0,0.0,0.0,1.3591612628432137,1.2986380537275368,0.8711293273402225,3.0816733635406224,2.8510681896105465,,,0.6153451465759925,5.703782474656201,inf,,0.8928898294545128
203,0.0,0.0,0.0,1.223237323807187,1.2105574799674148,0.8241604119614863,2.8020884721043764,2.718953342555504,,,0.6153451465759925,5.703782474656201,inf,,0.8839664732975102
204,,0.0,0.0,1.1987343882313226,1.1915550341794998,0.7843037294501868,2.561235879300922,2.4855982778216363,,,0.6153451465759925,inf,,,0.915698971202239
205,0.0,0.0,0.0,0.8990664623310399,0.8857596842325242,0.7857444464201649,2.5874757878787094,2.0302600838604428,,,0.6284777104787076,5.703782474656201,inf,,0.9244373399896563
206,0.0,0.0,0.0,0.8757169030922239,0.8563241266569833,0.647715567562088,2.3005552660423048,1.839749253285392,,,0.6778444222523095,4.31748811353631,inf,,0.7632472499961874
207,,0.0,0.0,1.332543305275526,1.3152893194634012,0.7914097429090058,2.7825173442366196,2.273793937277078,,,0.6468212168108125,inf,,,0.9460037285168402
208,,0.0,0.0,1.163023024970933,1.1292008290258737,0.8283414125354991,2.400817212529645,3.0596127799305735,,,0.6547956803312163,inf,,,0.9414217572580461
209,,0.0,0.0,1.0760479794523012,1.055357497340092,0.7253382637219743,2.1591752404547444,2.5441788361431397,,,0.5978297680564633,inf,,,0.9419192160937091
210,,0.0,0.0,1.084762670676426,1.0656289200931817,0.8033713755403347,2.581291711902972,6.257580178626688,,,0.6684167106117298,inf,,,0.8893756891933124
211,0.10421520718961001,-0.0020843041437922003,0.0,0.9023563490110484,0.8413049085820642,0.5763814880650938,2.0713580619912695,0.5841103020534866,,,0.6528756675646988,4.006333684899388,inf,,0.7089534064825855
212,1.3511158832225212,-0.013511158832225213,0.0,0.7858447382077973,0.7219075893330835,0.6117859571267882,2.935820081860415,2.010715414809358,,,0.6284777104787076,5.7585907111511965,inf,,0.7367648923280532
213,0.34142178697985376,-0.0034142178697985377,0.0,1.1475738239670874,1.1204628972470785,0.6980903942634199,2.5273988338116657,1.9983591499265656,,,0.6125606311107803,4.898795812340721,inf,,0.942279812684954
214,5.703782474656201,-0.019012608248854004,0.0,0.4296239601486483,0.4128205477220657,0.4193084600087908,2.209098981467632,1.7797282215661019,,,0.6153451465759925,11.407564949312402,inf,,0.6156726381698762
215,0.2657031657330056,-0.0008856772191100187,0.0,1.0981036548121208,1.0747104670513445,0.7066246307713492,2.5142023474705923,1.9663454931525406,,,0.6468212168108125,5.969485640389206,inf,,0.7948613541782978
216,0.009310113235298985,-0.00011293053917316605,-1.120430396415376e-05,0.8048002880653674,0.7809721523472793,0.5215545582439537,2.61993755930606,1.9585897560446819,,,0.6425374456860184,4.32669705262162,1.3837744101853775,inf,0.6724834807764485
217,0.185004681405938,-0.004316775899471887,0.0,0.9686637907731291,0.9046175232263266,0.7738951902969564,3.227319247664642,2.766422562461829,,,0.5915533975974677,3.871201010907891,inf,,0.6803072772095574
218,0.0,0.0,0.0,0.855749035681553,0.8245015222959986,0.6382044868892007,2.404901235771377,2.4934714498174877,,,0.6333676938231112,5.703782474656201,inf,,0.7867209203133224
219,,0.0,0.0,1.0704557996282165,0.9887250101040804,0.6716968131668789,1.8144331985325377,2.7999425018377284,,,0.6233814453054027,inf,,,0.894861344473884
220,,0.0,0.0,0.8479711488893108,0.8148951521954579,0.5610581055362118,1.703780897534365,1.693251752307479,,,0.6180765742263259,inf,,,0.8907369067915657
221,0.0,0.0,0.0,0.871382336163624,0.8207045617932369,0.5883629616300803,2.3705317078553247,2.987733416152864,,,0.6380535849069913,5.0106352940962555,inf,,0.9456094850188855
222,0.02252583933934247,-0.0013515503603605482,0.0,1.1645293752551067,1.0845825223272334,0.8065430844436946,3.137532096893477,2.643211899142802,2.8683407236184975,,0.6284777104787076,2.832102849772189,2.875018526149527,inf,0.7310911556764821
223,0.2457162806979424,-0.016064558600281924,-0.0003165267795809002,1.2067949945737515,1.1937623452007358,0.8525226615537627,3.8971402159662483,2.314717455104272,2.896249511735574,,0.6380535849069913,2.8041940616551124,2.2559816780012794,inf,0.5597429196483695
224,1.1723125689916567,-0.019538542816527612,0.0,0.8766162303846915,0.8631628166826921,0.6264066206450358,3.1813674954045017,2.4328618065503824,,,0.6528756675646988,4.9032767757757565,inf,,0.6245000575103723
225,0.11889164797957746,-0.0023778329595915493,0.0,0.7779962623619767,0.7440286921892582,0.6370588555179552,2.687510394580879,2.3298845957221395,,,0.6097226960127671,4.000854219134761,inf,,0.7379571113691175
226,0.0,0.0,0.0,0.6486974449624267,0.6163469738245427,0.6065155961478108,2.8761916221057766,2.7354441202209974,,,0.6284777104787076,3.912023005428146,inf,,0.7331665496741718
227,0.2617973519640443,-0.006108604879161034,0.0,1.1306959586214156,1.114788092591212,0.7332918091245332,3.247438541594011,2.9114526438668085,,,0.6468212168108125,3.8911316463967696,inf,,0.9496705689614358
228,1.2424533248940002,-0.008283022165960002,0.0,1.0514997983768173,1.022105405988084,0.6986026336149214,3.128901314186959,3.4068843642551725,,,0.6652988471865258,5.6237397669826645,inf,,0.7363329315493906
229,0.19995962592171873,-0.004665724604840104,0.0,0.9387950405579816,0.8746649711577623,0.6721476229798984,2.9926939268408184,3.952597050948632,,,0.6566669596287297,3.871734486514035,inf,,0.8134862157962472
230,0.0,0.0,0.0,0.9627926481905547,0.9394318414319016,0.7366459618663646,2.479129554432537,2.4511819390532446,,,0.6547956803312163,5.703782474656201,inf,,0.6018018602632847
231,0.0,0.0,0.0,0.9842973929430606,0.9463823297983814,0.7129422831385837,3.484731196289514,3.8632188172347686,,,0.6468212168108125,4.0943445622221,inf,,0.7182014941862025
232,1.6529436009289153,-0.011019624006192769,0.0,0.9999798729225173,0.9706191046638349,0.6772996347918785,4.104199179477618,7.8290202147551105,,,0.648888643467878,5.667772037133168,inf,,0.8437506348632903
233,0.0,0.0,0.0,1.1244862023038231,1.0965716483406196,0.8054723175538906,3.6415669335315597,2.9329803101129377,,,0.6509067234006624,5.703782474656201,inf,,0.9163660434041907
234,0.2025242641114741,-0.0006750808803715803,0.0,1.058299650175105,1.04128602385525,0.6872118374792464,3.2289613908554062,1.8249101836897261,,,0.6584896970785714,5.906306738767675,inf,,0.9523031409845467
235,0.06581422123921823,-0.00043876147492812154,0.0,1.128969297114467,1.0715110793842204,0.7902524350867144,2.7828202577355037,2.0562442554806153,,,0.6447042257417027,5.074285321172711,inf,,0.9315197256341436
236,,0.0,0.0,1.0139416685289375,0.9751081116743971,0.6400123108718919,3.1572879247955363,4.725494295469108,,,0.6233814453054027,inf,,,0.9181424086546588
237,0.0,0.0,0.0,0.9210730563064249,0.89537609529571,0.7257451177179601,3.3204647493760313,15.606590197307561,,,0.6509067234006624,4.0943445622221,inf,,0.9170572155496043
238,,0.0,0.0,0.9989717058343026,0.9691912960994931,0.6891347648195756,3.6898047958308187,2.6229110884172013,,,0.6357360191111145,inf,,,0.9322260274729225
239,,0.0,0.0,0.6110229457220787,0.5780480918506624,0.6864870129908629,3.246158602044588,5.806850185167318,,,0.6727386042041725,inf,,,0.9307357594483006
240,,0.0,0.0,1.3293411964073263,1.2659422211138234,0.8610598810968204,2.271006031813686,2.9429542463929015,,,0.6038851895711802,inf,,,0.9301062912121263
241,,0.0,0.0,1.0318450601750522,0.9697657371998645,0.7693939037651909,2.624139513540475,3.1056018258739724,,,0.6333676938231112,inf,,,0.9262164222493099
242,,0.0,0.0,1.7066451099813114,1.6721870321422811,0.9737114409011033,2.28949239392605,4.000389822163772,,,0.6097226960127671,inf,,,0.8639912364850548
243,,0.0,0.0,1.6685021883787132,1.6324709258561947,0.9450228270970273,2.504561675449504,3.889370322862744,,,0.5783247308855777,inf,,,0.8570152411151826
244,0.0,0.0,0.0,1.0084466160108925,0.9857622312555607,0.6945065667056053,4.1334036137683245,14.129350747563247,,,0.62595550513784,4.31748811353631,inf,,0.5400042285794364
245,,0.0,0.0,1.6862898131486674,1.646434758671814,0.9678749798600507,2.7426727688848915,4.313445640747162,,,0.6125606311107803,inf,,,0.8972054335783022
246,,0.0,0.0,1.7094105822104002,1.6877553723077487,0.960585064425281,3.3487903529641057,4.466947426902896,,,0.62595550513784,inf,,,0.8426500803048891
247,,0.0,0.0,1.7568491447780525,1.7404927179470093,0.9574217363513633,3.354156156047141,50.283667886302396,,,0.5947193981915972,inf,,,0.8358906678880326
248,,0.0,0.0,1.7845800887542402,1.7639532883483662,0.9744586047669871,3.558767235142444,75.85114710360666,,,0.5978297680564633,inf,,,0.8471599029729998
249,,0.0,0.0,1.7839200669316804,1.7632794920308812,0.9739132237897028,4.037600554600095,31.729207774355764,,,0.5915533975974677,inf,,,0.8790846373809759
250,,0.0,0.0,1.7699781246776767,1.743413896559753,0.9600202988495369,4.451296712703187,10.797533510980449,,,0.6547956803312163,inf,,,0.8959125848719978
251,,0.0,0.0,1.7812585371710745,1.7666915633538487,0.9599396442607729,3.5338893063130334,23.78850079502124,,,0.5915533975974677,inf,,,0.8857785793961337
252,,0.0,0.0,1.787807849229527,1.7657181432020805,0.9550408258655237,4.5908310085690855,65.28110488257535,,,0.6509067234006624,inf,,,0.9065440186954249
253,0.0,0.0,0.0,1.0141176399523086,0.9889074969088766,0.6902929040180341,4.537170066639877,19.143010973695304,,,0.6619902821573977,5.703782474656201,inf,,0.7486222892376434
254,0.0,0.0,0.0,0.8709704284148078,0.8316353673273544,0.7304053008616945,3.9136740608516924,11.799325185492481,,,0.6566669596287297,4.31748811353631,inf,,0.7175892762211749
255,0.9268174364730712,-0.006178782909820475,0.0,1.7819604755749545,1.7609576524961033,0.9655203363942938,3.7922494891630256,52.952766400256934,,,0.6125606311107803,5.5582401693655425,inf,,0.8474172523246534
256,0.0,0.0,0.0,1.7715423962661028,1.7459429103637865,0.9647685762912319,4.445190395404405,87.65046201382197,,,0.6125606311107803,4.31748811353631,inf,,0.8957059493527794
257,0.0,0.0,0.0,1.790204378038263,1.7442885731007314,0.9691556211166479,5.088406645610277,34.67957429771347,,,0.6038851895711802,5.703782474656201,inf,,0.8963083214740356
258,,0.0,0.0,1.7858032945438858,1.751708851878982,0.9556990657649936,4.279461636834067,7.257103782181363,,,0.6284777104787076,inf,,,0.9161300890315764
259,0.0,0.0,0.0,1.2330973816482271,1.191047083196999,0.8585565661266705,3.932772641756047,3.2160708076546185,,,0.6180765742263259,5.703782474656201,inf,,0.8794244365669579
260,,0.0,0.0,1.7030144922811026,1.681906428729754,0.9785051143922411,2.6273354904544717,1.608421825907477,,,0.5641709578113449,inf,,,0.8723666316324611
261,,0.0,0.0,1.7745491634328394,1.7262808901311595,0.9439101954682058,3.5536581121018256,4.091324498916296,,,0.6357360191111145,inf,,,0.8919352502587289
262,,0.0,0.0,1.7759040162131798,1.734276912934221,0.9541103285882208,3.3869283713653733,61.399096993534016,,,0.6380535849069913,inf,,,0.8936602093446732
263,,0.0,0.0,1.001640567228862,0.9591348331556806,0.7602630970556199,3.083667576111191,3.8466068926260752,,,0.6357360191111145,inf,,,0.9320052866175286
264,,0.0,0.0,1.1681020863261926,1.152313483430398,0.7730557723809102,2.754449176694563,2.579698919220419,,,0.6403206450210053,inf,,,0.871078305165516
265,0.0,0.0,0.0,0.9124977075062228,0.8751888069317795,0.6344533967628899,2.7739673416400814,4.447369945112973,,,0.6566669596287297,4.605170185988091,inf,,0.7380078478531085
266,1.28651831624784,-0.0171535775499712,0.0,1.019534400930691,0.9847407449174456,0.6577338335926585,2.8208873432590824,4.2543648085417765,,,0.6447042257417027,4.807694450099565,inf,,0.7572138824490783
267,0.0,0.0,0.0,0.7789580521185332,0.706626373106506,0.6588341869649437,2.817525484176233,2.7228594602255267,,,0.6468212168108125,5.0106352940962555,inf,,0.5291536434885452
268,0.0,0.0,0.0,0.6073695775588578,0.4874449058353534,0.5778231524126043,2.3953039005579453,2.7770593990949175,,,0.62595550513784,4.605170185988091,inf,,0.6916608413916632
269,,0.0,0.0,1.007484834094373,0.9605902371253512,0.795245594657141,1.399209970792676,1.6304891235004417,,,0.5947193981915972,inf,,,0.7997379116970885
270,,0.0,0.0,0.6115169440574754,0.5594176015699674,0.8098735186560185,1.7361176524355177,2.119117892011685,,,0.6153451465759925,inf,,,0.7169984789513086
271,,0.0,0.0,0.8988930642395994,0.8878828004012932,0.6384411721718021,1.5667741195184246,1.8262440328061407,,,0.6153451465759925,inf,,,0.6963446521436403
272,,0.0,0.0,1.664839476276338,1.6448638326248246,0.9881409950363654,2.045952352692294,2.021712854827509,,,0.6068309995095971,inf,,,0.7771281474253944
273,,0.0,0.0,1.71759068614637,1.6839853088902994,0.9812520926784801,2.4143945326392724,2.514645938478066,,,0.5978297680564633,inf,,,0.8015026550967334
274,,0.0,0.0,1.7332284420536177,1.7184186781125057,0.9620326366491374,2.457006155340504,2.080846049256102,,,0.5567373465730988,inf,,,0.821614677585884
275,,0.0,0.0,0.7358674754100644,0.6779621821361413,0.6608015481410475,2.726195727045326,1.9375362798984153,,,0.5883313578629602,inf,,,0.6467884162490337
276,,0.0,0.0,1.7276689943737518,1.6907061162612456,0.9643346123536184,3.702049289149498,4.986558535880353,,,0.6180765742263259,inf,,,0.8618456461780168
277,,0.0,0.0,1.5699090200164307,1.5504677989713178,0.9586093079661236,2.6432798048213795,2.0572965340323925,,,0.5915533975974677,inf,,,0.878280254975919
278,0.3541425773345099,-0.004721901031126799,0.0,0.85599417217795,0.7852661205649059,0.5885113905477549,2.615915617118254,1.9744286997363076,,,0.6403206450210053,4.555322380260524,inf,,0.6581410192742754
279,0.0,0.0,0.0,1.0101902312901219,0.9085660070480608,0.7475847370285799,2.663306171051233,2.7085489853950424,,,0.6284777104787076,5.703782474656201,inf,,0.8099644145024533
280,,0.0,0.0,1.637807686891009,1.5998793099723985,0.9573221766007908,2.5509808286252036,2.8085459753763264,,,0.5202020156036558,inf,,,0.801827948642067
281,,0.0,0.0,1.773568400211671,1.7107605870201912,0.9799958458546949,3.0690657410711806,7.513107706501666,,,0.5915533975974677,inf,,,0.8053524650738966
282,,0.0,0.0,1.6498738091093268,1.6386330997189975,0.9829028476908066,3.4298442854643483,6.72686978866534,,,0.6207552362147116,inf,,,0.8627268487548146
283,,0.0,0.0,1.7785646258936596,1.7503984624769038,0.9807379242338948,3.3898874831484394,52.93240247901589,,,0.6125606311107803,inf,,,0.8468451968663354
284,,0.0,0.0,1.769271973241454,1.7322351680168384,0.9734357884399698,3.4824127119389465,8.425669979986319,,,0.5641709578113449,inf,,,0.8358614731270789
285,,0.0,0.0,1.7849508538728884,1.7979476839065363,0.9847162496228468,3.8171069434878784,19.569231226463287,,,0.6008849035917525,inf,,,0.8001400457437758
286,,0.0,0.0,1.7814381150799723,1.7413623676614676,0.9737544885087436,2.959721859966033,14.66826304818707,,,0.5915533975974677,inf,,,0.802675172201784
287,,0.0,0.0,1.7309166650582242,1.68954918626854,0.9541038185316231,3.7270766410406226,11.18477408582214,,,0.581717464821069,inf,,,0.7858815385787284
288,,0.0,0.0,1.7818682980909384,1.7562103342611595,0.9784715732961491,3.3876019978846723,12.776556714249146,,,0.552929491858785,inf,,,0.8494865185122864
289,,0.0,0.0,1.7343384182872947,1.723186951182956,0.9687169657993324,4.190385960118985,24.399074826501383,,,0.6068309995095971,inf,,,0.890995229903836
290,0.0,0.0,0.0,1.3699448779857606,1.320000407783219,0.8150382921117894,6.271025136228637,9.34189631997818,,,0.6207552362147116,4.0943445622221,inf,,0.9212498234484706
291,0.13939344200849912,-0.013939344200849912,0.0,1.552654702019031,1.5168539532822274,0.9148113284412001,4.409114942955136,42.05962416156937,,,0.6509067234006624,2.396895772465287,inf,,0.9198943732449348
292,0.0,0.0,0.0,1.778476297261871,1.7742341030667392,0.9720525766133397,4.757606613240757,8.178544138591633,,,0.6180765742263259,3.2188758248682006,inf,,0.909228561690799
293,0.161645683941484,-0.00484937051824452,0.0,0.8741367091795617,0.7280483611355734,0.7652047454738514,3.9022857370249717,6.978967534121232,,,0.6284777104787076,3.623924353091149,inf,,0.8105032536294908
294,,0.0,0.0,1.7825603382564876,1.7456877379141826,0.95863330479895,3.8125666378982603,57.165371743068064,,,0.5883313578629602,inf,,,0.8787460337395527
295,,0.0,0.0,1.773131440876635,1.7520724211717038,0.9497687505353062,3.4289286387995825,4.8523496488691364,,,0.5748741956352443,inf,,,0.8885912917796556
296,,0.0,0.0,1.7891215619293657,1.7257620117514534,0.9270604583818236,3.6716842384514927,3.994882469549548,,,0.6207552362147116,inf,,,0.8857945613536967
297,0.29601032141768385,-0.010853711785315074,0.0,1.3503467262843398,1.1202048124722777,0.8300674184796162,2.902788605077262,1.2477386089491898,,,0.6509067234006624,3.503230107227307,inf,,0.8422085840685107
298,0.6290799529200504,-0.016775465411201344,0.0,0.9465207888176858,0.8210142158622559,0.7956645137199461,3.7032431031907262,3.2185807052176254,,,0.6447042257417027,4.003894659300029,inf,,0.6872329379943665
299,0.9773469412359438,-0.019546938824718876,0.0,1.114932803832085,1.1088588043799354,0.7757307937939371,3.387194961198979,5.011153897013145,,,0.6380535849069913,4.360047727955107,inf,,0.6726385201792212
300,0.29182291245129993,-0.0029182291245129994,0.0,0.9974027243506148,0.8982039756812412,0.7663916858461054,4.276076697386531,16.97947629928734,,,0.6233814453054027,4.821393294457727,inf,,0.8789107964475305
301,0.2299452912908134,-0.009197811651632536,0.0,1.4713015339556474,1.4682327919873384,0.9324359030863767,4.198872734877697,32.714200287105996,,,0.6125606311107803,3.3001461375924275,inf,,0.7042107697280836
302,0.0,0.0,0.0,1.2975543134158856,1.255566340074655,0.7846835529553841,4.402963368769337,52.351606522796075,,,0.581717464821069,5.703782474656201,inf,,0.8897184018878077
303,0.6531850053244713,-0.008709133404326285,0.0,1.0462898286576225,0.9999557719307406,0.8702676972319029,4.010336567771732,6.542267451844751,,,0.5604843169999094,4.581019725755808,inf,,0.9197998105185289
304,,0.0,0.0,1.0585136053542965,0.9964635059465332,0.7460791374065973,3.483447054201238,51.174436789067,,,0.6468212168108125,inf,,,0.7372038584951547
305,0.0,0.0,0.0,1.2500270460522112,1.2070377694474945,0.8120258619273304,4.652316756828192,61.30324475563471,,,0.6528756675646988,5.0106352940962555,inf,,0.9354585795513294
306,0.0,0.0,0.0,0.9918460634167406,0.9417081530086493,0.7261755375476068,3.614696347944188,4.514281803958601,,,0.6547956803312163,5.703782474656201,inf,,0.7731159491355469
307,0.0,0.0,0.0,1.1142460195253758,1.0656136630073525,0.7945047088616936,4.4902331983856145,14.187166143288586,,,0.648888643467878,4.605170185988091,inf,,0.8429825414163049
308,0.0,0.0,0.0,1.2509229819619974,1.2137737320141309,0.777384707461839,3.7874536214110743,129.7698255710929,,,0.6425374456860184,5.0106352940962555,inf,,0.8907076418610361
309,0.0,0.0,0.0,0.6380857527506588,0.551791035878674,0.5508186869008638,2.073621800682085,1.8345088742644982,,,0.6425374456860184,4.605170185988091,inf,,0.8726863415052082
310,0.0,0.0,0.0,0.6782467715929187,0.6578123437447108,0.4885212205953646,2.1112825896030083,1.8380597374688104,,,0.6097226960127671,5.703782474656201,inf,,0.9248659389104733
311,,0.0,0.0,0.3340055355332284,0.30629007028461086,0.46010219558241233,1.7753588914954475,1.7141306105873677,,,0.6547956803312163,inf,,,0.9138515771931824
312,0.0,0.0,0.0,0.7231043185107177,0.6351492274154715,0.4991341104920566,2.0301560703913215,1.4578379249743807,,,0.648888643467878,3.757872325600888,inf,,0.8486521573916618
313,0.11147801209597609,-0.0033443403628792825,0.0,1.069577523797236,1.0567195698002474,0.7365651783177432,2.4723300708833795,1.3319599585423232,,,0.6584896970785714,3.5795269171865725,inf,,0.8229701658878542
314,0.2995732273553991,-0.00998577424517997,0.0,1.3258957438937493,1.2756975600014733,0.8134022001047938,4.730303033452608,3.3105039837278225,,,0.648888643467878,3.501017716944366,inf,,0.897963956340665
315,0.0,0.0,0.0,0.8328021675398596,0.7755446690306268,0.5595003271064233,1.9093761004823595,1.3653306351904562,,,0.663668482632973,5.0106352940962555,inf,,0.7290657957003689
316,0.0,0.0,0.0,0.5033765015163618,0.46924210990294124,0.5077170435608199,2.5251541539208158,1.546717430333476,,,0.6547956803312163,4.31748811353631,inf,,0.7698682031522004
317,0.0,0.0,0.0,0.6669465007374012,0.6235199869499247,0.5790923324186734,2.8045168551751214,3.2926321663185063,,,0.6403206450210053,5.703782474656201,inf,,0.7897214902036866
318,0.4921435885716964,-0.01312382902857857,0.0,1.3341071975616934,1.296888473200067,0.7633471504912577,3.693818385771418,19.605892315875128,,,0.6566669596287297,4.034190639402354,inf,,0.84607092580487
319,0.0,0.0,0.0,1.305096778119102,1.2513689042284784,0.7988401098900625,4.018603910767857,11.356085137305609,,,0.648888643467878,5.0106352940962555,inf,,0.890990836571077
320,0.6039873921818582,-0.006039873921818582,0.0,1.2810220071766025,1.250070432807908,0.8095093260724092,3.2330957096512942,2.2835318177501374,,,0.6008849035917525,4.932132232608312,inf,,0.9099108143565342
321,0.0,0.0,0.0,1.0298714659509862,1.0284658861676808,0.7590972747218211,3.53260866076665,3.723359598371488,,,0.6207552362147116,4.605170185988091,inf,,0.8988407020646819
322,0.43375028385236153,-0.0028916685590157434,0.0,0.8202814826919494,0.7872745372729955,0.552096399322522,3.1041905082435393,7.081315847852447,,,0.648888643467878,5.353125603043032,inf,,0.7655640186387579
323,0.0,0.0,0.0,1.1630772759109977,1.145789081496504,0.7782593420224576,3.7146749869291797,4.1582176283944685,,,0.6740851607140061,3.757872325600888,inf,,0.8166311485898418
324,0.0,0.0,0.0,1.0561901853709277,1.0199641926593797,0.789452473210258,4.786173053706265,12.520902343280557,,,0.62595550513784,3.624340932976365,inf,,0.7934945218458331
325,0.0050506768293798665,-6.734235772506488e-05,0.0,1.2432038200961972,1.2055967682028723,0.7624840762060138,4.1857249822284155,5.998784900167395,,,0.6547956803312163,4.322500655359855,inf,,0.921616334163841
326,0.24411073548390894,-0.0014648717319901833,-0.008299557687366173,1.1332908003030266,1.049246602152442,0.7616456344989093,3.217290570668055,2.0889250893116027,,,0.6153451465759925,3.336034055755742,4.852655068688459,inf,0.6718582694642092
327,0.24234989848910432,-0.005654830964745767,0.0,1.134452377588717,1.1286686813879192,0.7138164842543249,3.2831794962222016,3.420688470836666,,,0.6652988471865258,3.881924974270867,inf,,0.8631956268314389
328,0.4936070066008561,-0.013162853509356164,0.0,1.4030070713591327,1.360894229093587,0.8444709744299626,3.4559033085942517,4.703050305794929,,,0.6509067234006624,3.8754768057706794,inf,,0.8104111347134595
329,0.24829086471253273,-0.008276362157084424,0.0,1.3192025290693963,1.313596467142292,0.8293553465066021,4.2494409356313385,4.25262385285785,,,0.6425374456860184,3.5396934589160804,inf,,0.8271841700991748
330,0.0332128957166257,-0.0008856772191100187,0.0,1.1149330021035462,1.0744397039469986,0.725649566234449,3.808624819662536,2.8419430198289386,,,0.6566669596287297,3.6539414027526558,inf,,0.6403150909119455
331,0.45239098474045103,-0.012063759593078694,0.0,1.3649877160126702,1.3338476238256003,0.8064576150698521,3.551951595810842,2.322234029727695,,,0.6740851607140061,3.912578715361869,inf,,0.9299370200203474
332,0.05585246156142271,-0.0020479235905854994,0.0,1.1750550074938193,1.1449808853840948,0.8235419680893041,3.5282671420106038,4.190944853750819,2.348353765835559,,0.6180765742263259,3.3520898075551275,2.3550315683665883,inf,0.9292947671294979
333,0.0,0.0,0.0,1.0407236324151596,1.028216292276057,0.6693983338732854,3.507730229649235,5.8111151404437535,,,0.648888643467878,3.624340932976365,inf,,0.936229271602296
334,0.7309845994240678,-0.019492922651308475,0.0,1.166137431585592,1.10196742988607,0.7828171787493307,3.4730829988163823,12.729114805654767,,,0.675384900321601,3.9893841265856143,inf,,0.7213703654722804
335,0.041344807256870876,-0.0011025281935165567,0.0,1.2917380117986372,1.3010632809006866,0.8359297056975207,3.6847937385024103,2.9648538757987883,,,0.6357360191111145,3.661696719520134,inf,,0.7117298667694615
336,0.3400722436290358,-0.015516418658801446,-0.0003536193772202253,1.2294788165736041,1.2141770288571543,0.8082738087878368,4.3776573713976745,18.537852318073554,3.484095798271132,,0.648888643467878,3.2533522543981737,2.559501315312389,inf,0.7675764330227126
337,0.1952789311887721,-0.003254648853146202,0.0,1.476024713484774,1.455398819337765,0.854403151756065,3.981519808818288,12.42716925609974,,,0.6357360191111145,4.227495075009606,inf,,0.9328999729821712
338,0.0,0.0,0.0,1.2389579380268165,1.199830169485333,0.7682250216360675,3.8405650500415205,10.041914012955575,,,0.6584896970785714,4.0943445622221,inf,,0.9209739054003455
339,0.15082288973458366,-0.0005027429657819456,0.0,1.2626591703932117,1.2258217354700018,0.7210041760674569,4.235558215231949,9.851109936242265,,,0.6528756675646988,5.8546053643907845,inf,,0.931924332893961
340,0.58817179219534,-0.0117634358439068,0.0,1.0948612665772284,1.0754105259233975,0.7252566880419953,3.6047598000799876,3.7319885785479614,,,0.648888643467878,4.234373206825804,inf,,0.7692929936895054
341,0.1047904163829719,-0.005588822207091834,0.0,1.2168225059327635,1.2120627856763926,0.7348269427306859,3.8325597386300254,2.9200590997212212,2.7093671113728894,,0.6547956803312163,2.991076462017797,2.7160449139039184,inf,0.7121881503986223
342,0.21559799677099975,-0.007905259881603323,0.0,1.3993107153633653,1.3985152058500336,0.8773524335771214,3.90509522758909,5.5051285493982824,,,0.6425374456860184,3.391907334755063,inf,,0.9316283530673555
343,0.0,0.0,0.0,1.18146176957894,1.15932802410909,0.8113740203686781,3.651490495751827,10.32282503310593,,,0.6380535849069913,5.0106352940962555,inf,,0.9496273887746948
344,0.0,0.0,0.0,0.996582501304392,0.9522699013658105,0.7934251827121431,3.995734935791353,8.941587121891974,,,0.6602640781246099,4.0943445622221,inf,,0.860333996373094
345,0.9633028674088341,-0.022477066906206128,0.0,1.0743276313822674,1.0251518124878387,0.717457469975734,2.829467722735259,2.076550313083134,,,0.6619902821573977,4.056406722881708,inf,,0.875183588514009
346,0.3567582599157756,-0.0059459709985962604,0.0,1.3300094362051171,1.279298845617327,0.8726320975929266,3.61559378840499,4.504540091908714,,,0.6403206450210053,4.314991233337723,inf,,0.7931953272082195
347,0.0,0.0,0.0,1.2077385175299276,1.1714226903222529,0.7400479971281819,4.139720257393732,1.612129076100687,,,0.6602640781246099,5.0106352940962555,inf,,0.9450199571687248
348,0.4850957442022807,-0.004850957442022807,0.0,1.1816986758276427,1.1617876065779975,0.7515435720305185,4.327496599989872,23.996380063943846,,,0.6309483474627791,4.90028723692739,inf,,0.8532105249728341
349,0.0,0.0,0.0,1.100717547520291,1.0770552217038356,0.6794691296694901,4.708965806740502,8.86468854366154,,,0.648888643467878,5.703782474656201,inf,,0.9185040894707933
350,0.0,0.0,0.0,0.9278571055245411,0.8661252720675398,0.6804045885347133,3.383291483659703,2.3328450069197073,,,0.6619902821573977,4.605170185988091,inf,,0.9360069212526152
351,0.0,0.0,0.0,1.2259952267422858,1.2242302416200124,0.8073795018769127,4.4392467356315315,8.00244503875872,,,0.6727386042041725,4.0943445622221,inf,,0.8795260047230566
352,0.003395980594888078,-0.00012451928847922954,0.0,1.1711385377323913,1.1624862137033767,0.7780278396358173,4.345617239641608,26.35021947336544,,,0.6584896970785714,3.309226103123345,inf,,0.8733982576599341
353,0.0,0.0,0.0,1.0151732964657236,1.00930351350113,0.692134022240402,4.14572988939373,13.986052923370234,,,0.648888643467878,4.605170185988091,inf,,0.9166908663431165
354,,0.0,0.0,1.1559965070502407,1.1113870745316419,0.697998322971389,4.08158001858144,13.4417458090164,,,0.6125606311107803,inf,,,0.7772882089010139
355,0.0,0.0,0.0,0.9433947060866724,0.9228453471995451,0.6522250098978745,3.760579332294817,10.157861390985058,,,0.6309483474627791,5.703782474656201,inf,,0.9134230363046546
356,0.0,0.0,0.0,1.0485937320426222,1.000629281869961,0.6651630078586659,3.882587205910821,2.835988832713496,,,0.6528756675646988,3.506557897319982,inf,,0.8657377005787652
357,0.0,0.0,0.0,1.2328971440605423,1.1781432238074419,0.7809065480878256,3.6338584133557066,3.416077371736083,,,0.6790044388599258,5.703782474656201,inf,,0.8067879318863966
358,0.0,0.0,0.0,1.1228935574927708,1.1063722961034748,0.7918549338537381,3.8680079979415405,2.460420494467725,,,0.6727386042041725,5.703782474656201,inf,,0.7172504631315465
359,2.8518912373281005,-0.019012608248854004,0.0,1.0684926893335973,1.0203158531698837,0.7750563280987811,3.6270587934818574,7.340530878292695,,,0.6425374456860184,5.700454684563526,inf,,0.6566410333216428
360,0.21797548913555465,-0.0021797548913555466,0.0,1.0093620825274294,0.9767491301183931,0.6267030127758023,2.64227670121939,2.1657556454969735,,,0.6333676938231112,4.779523573132869,inf,,0.7801754469724885
361,0.0,0.0,0.0,0.8959955997073069,0.8517537505931381,0.6188932469334949,2.42261916442206,1.251069387437616,,,0.6602640781246099,5.703782474656201,inf,,0.7029897512429124
362,0.02628360855153199,-0.00026283608551531994,0.0,1.1034362126375912,1.0764280328865645,0.7079242479153511,3.3311505071514924,2.2537297868762574,,,0.6509067234006624,4.631057956940219,inf,,0.8586436821714819
363,0.04642068911116922,-0.0004642068911116922,0.0,1.1822240507600117,1.0906495113800294,0.8043043952266931,3.221510646794444,2.789921653491314,,,0.675384900321601,4.649470444884671,inf,,0.6492279600755178
364,0.0,0.0,0.0,0.7446540970043932,0.7154642016814557,0.620443070166854,3.1787733512877043,2.530338837559169,,,0.6207552362147116,4.31748811353631,inf,,0.6214558448742313
365,0.0,0.0,0.0,1.3018668469724204,1.303326826640067,0.8196932974618707,3.986972945177601,18.4167368634131,,,0.5915533975974677,3.506557897319982,inf,,0.8818452019962792
366,0.009856124498135919,-0.00022997623828983812,0.0,1.0355366135234934,1.0074512425906619,0.7252375356877615,3.1014727522013903,4.2567693776026125,,,0.6425374456860184,3.7674417766170385,inf,,0.7205327476813765
367,0.0,0.0,0.0,0.963042410310964,0.9156982305371064,0.6686879005060421,3.844412138548572,7.752178635089299,,,0.6584896970785714,3.757872325600888,inf,,0.8575942483164016
368,0.0,0.0,0.0,0.829877520128463,0.7919025627904086,0.6470635720325645,3.0512477791711037,2.29589926550656,,,0.6233814453054027,4.0943445622221,inf,,0.762887771805876
369,0.36787915219828676,-0.007357583043965736,0.0,1.1489048556813783,1.1167292532570239,0.7307073864764734,3.825644850997512,3.0661172954193034,,,0.663668482632973,4.072583070440588,inf,,0.7443191481371917
370,1.7719568419318752,-0.005906522806439584,0.0,1.2032452657437198,1.152337710608348,0.8086524174495586,3.5610330468460725,6.327432083570226,,,0.6528756675646988,7.4757393165880766,inf,,0.8096796483386479
371,0.0,0.0,0.0,1.0189807818684882,1.0247040802527776,0.7240821170170375,3.6717290508722167,5.247888881900837,,,0.6584896970785714,5.0106352940962555,inf,,0.783998183816329
372,0.2266339846033082,-0.0022663398460330817,0.0,1.0798483051369954,1.062790792792973,0.7672350870861854,3.086509388381414,1.9303642381458173,,,0.6309483474627791,4.784828625362563,inf,,0.7239197016802134
373,0.19927900025187348,-0.0019927900025187347,0.0,0.7016699833365764,0.6570901558752423,0.722598870185326,3.8637271580108346,7.431453784429687,,,0.676637947632344,4.767689115485866,inf,,0.6004885206581453
374,,0.0,0.0,0.8649285438245683,0.7820951745536252,0.6065689747353026,2.725040762642754,1.574356582663221,,,0.6403206450210053,inf,,,0.813899529991455
375,,0.0,0.0,0.9857212791226485,0.9668486933901486,0.6909700498877587,3.5284371336943656,2.6766599997626086,,,0.6740851607140061,inf,,,0.934537178338349
376,1.2526241085336294,-0.012526241085336292,0.0,1.0851178487945374,1.0707051271122072,0.6862313492632104,3.4317817340837045,3.166709862429513,,,0.6309483474627791,4.9990361582529035,inf,,0.8884450788828557
377,0.7415194260024577,-0.014830388520049155,0.0,0.8114102564180207,0.7760700208870943,0.7357971781931615,3.282807368754932,4.525205552951737,,,0.6403206450210053,4.11659017116942,inf,,0.8439473951357566
378,,0.0,0.0,0.8025263609515711,0.7750456689838904,0.679786755449103,3.279537035539462,2.58781336746202,,,0.6547956803312163,inf,,,0.7572094431037406
379,0.0,0.0,0.0,1.2650352314381008,1.2182732214723464,0.7981189138896871,3.3259603549967354,1.963557132313495,,,0.6822068148872973,4.0943445622221,inf,,0.8719219615276398
380,0.0,0.0,0.0,1.22004230503705,1.124767978222806,0.7718922001747,3.5140051924756004,2.049441116611013,,,0.676637947632344,5.0106352940962555,inf,,0.8858974398635198
381,0.0,0.0,0.0,1.0212791668149355,1.0021750074358031,0.6948648043173737,3.33041932617223,1.9031023482357474,,,0.6547956803312163,5.703782474656201,inf,,0.9318552570070648
382,0.0,0.0,0.0,1.0366003445911278,1.0236892627920944,0.7632591918488065,3.5001627804786053,3.9484579022215636,,,0.6547956803312163,5.0106352940962555,inf,,0.8230732848202567
383,0.08057110826297936,-0.0016114221652595872,0.0,0.7911170109497196,0.761035897048799,0.7391201714004662,2.986780517655922,4.8061681129120615,,,0.62595550513784,3.9780441065259398,inf,,0.6574931827142398
384,0.0,0.0,0.0,0.8175759011733855,0.7610002270718883,0.6371132013094603,2.7400769624445953,2.4412341764455454,1.095273387402595,,0.6509067234006624,4.605170185988091,1.1019511899336245,inf,0.7400252234700757
385,0.0,0.0,0.0,1.0019865028337822,0.9834003168946418,0.6407059694288765,3.254767730008639,6.904886450178296,,,0.6509067234006624,3.624340932976365,inf,,0.6434503990142642
386,0.1020022281465105,-0.001700037135775175,0.0,0.8096272327105575,0.7506866155768515,0.7342378475480809,2.615172797058258,1.899658820416974,,,0.6309483474627791,4.188655241693342,inf,,0.8069434542995574
387,0.2166863201380099,-0.00577830187034693,0.0,1.3142362024189442,1.2948734838268,0.8254963534356423,3.1431994757723944,2.4461457093011867,,,0.6566669596287297,3.7329474519480392,inf,,0.8650918589024531
388,,0.0,0.0,1.3538229310911176,1.3438759997163734,0.7872083906737753,3.783594618020912,2.564405312282682,,,0.6284777104787076,inf,,,0.9148870319578921
389,0.0,0.0,0.0,1.2336482293515638,1.20010888429,0.7889955315398413,4.289599205792665,4.878944670010928,,,0.6068309995095971,5.703782474656201,inf,,0.9480582512003697
390,0.45332568426750575,-0.004533256842675058,0.0,1.2810849830066253,1.2657816378056597,0.8649151830217038,4.44973374936371,6.517064178074653,,,0.6619902821573977,4.889893676400127,inf,,0.953920117812089
391,,0.0,0.0,1.0794376314285723,1.0531532562364136,0.6781459953724419,2.5903931389963843,2.3650816783591453,,,0.6528756675646988,inf,,,0.934050860923822
392,,0.0,0.0,1.1320521480474963,1.0887074016883782,0.6068891285941223,3.7039934018118825,3.3412367535892358,,,0.6447042257417027,inf,,,0.9346558397189008
393,,0.0,0.0,1.2873682780311972,1.2490174582665385,0.8571540697590854,3.3032200425162097,5.635288530278611,,,0.648888643467878,inf,,,0.8602722489929712
394,,0.0,0.0,0.7961867372012804,0.7365907826629121,0.7646934323547995,2.9379943464791904,5.695570342865204,,,0.6180765742263259,inf,,,0.9063385661508798
395,,0.0,0.0,1.127846718203429,1.1093517349337754,0.7361478714937592,2.4874131682385427,1.9625886624649143,,,0.6468212168108125,inf,,,0.9328247200905208
396,,0.0,0.0,0.8642145774701879,0.7955406983662061,0.6418164269304703,2.5330175367592,2.4427401695856994,,,0.6447042257417027,inf,,,0.9521171367752062
397,,0.0,0.0,0.9122032691089454,0.8621814621551729,0.6010390688004501,2.071840514687812,1.8323637648239117,,,0.6284777104787076,inf,,,0.9359331389479834
398,0.8047189562170501,-0.010729586082894002,0.0,1.1037496444470805,1.0402014523595895,0.6893177899193798,2.4970503354960387,2.4902342473745884,,,0.6727386042041725,4.591924959238071,inf,,0.9463783112578943
399,1.14075649493124,-0.019012608248854004,0.0,1.275574943049986,1.2501412910861511,0.8076564880410424,3.1703490342483,2.8630864530658267,,,0.6309483474627791,4.316655127232418,inf,,0.9388542942165394
400,0.0,0.0,0.0,1.1565624353882142,1.1163855469311523,0.7538394596801656,2.9858150704002058,6.4662651139698575,,,0.6097226960127671,5.0106352940962555,inf,,0.9475953589049744
401,0.0,0.0,0.0,1.1640157726991969,1.126058819830442,0.7951366284526291,2.5628470913592536,2.6915421534014,,,0.6309483474627791,5.703782474656201,inf,,0.9454228326810836
402,,0.0,0.0,1.7856728901028582,1.7673214983578478,0.9402780447060678,3.4916681345733087,19.95546103277531,,,0.6619902821573977,inf,,,0.8841693868409024
403,,0.0,0.0,1.7603002171468196,1.720604785195695,0.9406799480064468,3.9306275328332085,53.32639764782553,,,0.6097226960127671,inf,,,0.8662654785046808
404,2.70805020110221,-0.01805366800734807,0.0,1.3245894253605057,1.263051727662756,0.7657480446848315,3.490450663012944,7.557722082414047,,,0.6790044388599258,7.495541943884256,inf,,0.9154703061964923
405,,0.0,0.0,1.5995852079448567,1.561417423566506,0.8482530379009543,5.188478462444594,74.67393406605112,,,0.6284777104787076,inf,,,0.914567997924769
406,0.0,0.0,0.0,1.4880217448784425,1.4234148756370226,0.842591998269173,4.40346989399038,80.06276845758383,,,0.6233814453054027,5.703782474656201,inf,,0.8983920059558975
407,,0.0,0.0,1.6289493484527562,1.5833156981685597,0.9363607042421964,4.443357214079549,104.30880904849215,,,0.6180765742263259,inf,,,0.899073756539835
408,,0.0,0.0,1.7579886639601559,1.7276679072644399,0.9389273554358973,4.656401868692926,523.7136485913478,,,0.6778444222523095,inf,,,0.8510411221666979
409,,0.0,0.0,1.2467165950337808,1.1981112367476858,0.7716633097446141,3.939021807441018,10.594308886703775,,,0.6380535849069913,inf,,,0.9022213790221983
410,,0.0,0.0,1.7781796816226394,1.7462936505053586,0.9278261379036528,3.9602726539570856,210.37241534488462,,,0.6180765742263259,inf,,,0.8397347829463687
411,,0.0,0.0,1.7841136028336286,1.750501123358533,0.9244593239971082,4.184241094268712,2.0569818713324484,,,0.6097226960127671,inf,,,0.9062205487733554
412,,0.0,0.0,1.777461101843521,1.7353477271922342,0.9103952979089185,4.179854228283933,96.47896917573165,,,0.6528756675646988,inf,,,0.9058330957389273
413,,0.0,0.0,1.5153051188635378,1.4381749916774917,0.9239559102147886,3.9683033934672194,74.38273214804808,,,0.6468212168108125,inf,,,0.9227788014920997
414,0.0,0.0,0.0,1.2084050648192206,1.1980196711149695,0.8510165940774008,4.0835390963366525,25.37039664707811,,,0.62595550513784,5.0106352940962555,inf,,0.7622987272085906
415,0.0,0.0,0.0,1.0714243566399015,1.04093548519265,0.7982028324641179,3.894715157698073,29.972810597175318,,,0.5604843169999094,4.31748811353631,inf,,0.8947533441480445
416,,0.0,0.0,1.7787204831262058,1.74189315772443,0.9070144398164431,3.987162458603012,180.96716274704946,,,0.6528756675646988,inf,,,0.9008121664251443
417,,0.0,0.0,1.3172212187343912,1.30208895176002,0.8527966565611568,4.178615077441969,19.705135784061667,,,0.6566669596287297,inf,,,0.9202220165115215
418,0.0,0.0,0.0,1.0838351887444126,1.0363746341933386,0.849149988712136,4.213890068463737,64.58651233965718,,,0.62595550513784,4.0943445622221,inf,,0.9360674022327673
419,,0.0,0.0,1.7792775883815046,1.7121346122544168,0.9264752565656162,4.33115133994712,104.08702066879742,,,0.6547956803312163,inf,,,0.9000184147985436
420,0.0,0.0,0.0,1.0561439687920902,1.0289407609807717,0.8042506876800932,2.8676686381084027,2.0355939906942764,,,0.6333676938231112,4.31748811353631,inf,,0.849999550508824
421,,0.0,0.0,0.8435889457438623,0.803052772638969,0.42850707604128935,0.35239968930551674,0.31814600271383825,,,0.6309483474627791,inf,,,0.9023691057686595
422,,0.0,0.0,1.0204679578612597,0.9847763544428861,0.6439814185886714,0.486329826725579,0.506663968673671,,,0.6602640781246099,inf,,,0.9409190544187243
423,,0.0,0.0,0.45711687490834657,0.441468023112926,0.500455658858235,0.2988175116191637,0.30418084892584507,,,0.6584896970785714,inf,,,0.9395619772546675
424,,0.0,0.0,0.598652759157524,0.5715910001930262,0.4936399752773031,0.40931830772716793,0.3022313504696322,,,0.6097226960127671,inf,,,0.9227455918479918
425,,0.0,0.0,0.5934247308654913,0.5555787601764722,0.5036063698450929,0.44584876770290044,0.3045818056558709,,,0.6357360191111145,inf,,,0.933495608558829
426,,0.0,0.0,0.6679109679191518,0.6257259031836206,0.44937099431676897,0.6989086412125634,0.5072451023358796,,,0.6403206450210053,inf,,,0.9438571225598964
427,0.0,0.0,0.0,0.6977963545111577,0.44690357485314613,0.5235820467222396,1.872134627840251,1.217968056121542,,,0.6447042257417027,5.703782474656201,inf,,0.692973091481596
428,0.11460874231337526,-0.00916869938507002,0.0,1.7421374666301834,1.6966204978606396,0.9388811769099401,4.399989998612263,1.7094095239724645,,,0.5978297680564633,2.5748313573159876,inf,,0.8797541683119068
429,0.05783337118031487,-0.0028916685590157434,0.0,1.7877595880775237,1.7552675189744256,0.9627655599584515,4.257923544182373,240.21630832624606,,,0.6125606311107803,3.035166342799398,inf,,0.8490921236641246
430,0.0,0.0,0.0,1.2543623417268406,1.0936006046807634,0.7836610065314041,1.7000180507236369,0.9437768589620934,,,0.6333676938231112,4.0943445622221,inf,,0.867206902684745
431,,0.0,0.0,0.1469052641087327,0.1203044748129768,0.27404115260836776,0.5330871258574414,0.759779446284611,,,0.6153451465759925,inf,,,0.9506691723513933
432,,0.0,0.0,0.16656787659450742,0.14707735359814733,0.2818841655499877,0.6383627857573481,1.0496157072992554,,,0.6528756675646988,inf,,,0.5740630142633776
433,0.11583321436475427,-0.007336103576434437,0.0,0.9261566557437888,0.9066321790809743,0.7694368457173842,4.462927603773025,16.515674747395636,,,0.6153451465759925,2.824396768972632,inf,,0.6598307112688478
434,0.29078305137816113,-0.0261704746240345,0.0,1.465373342768665,1.385621037996112,0.8711412237874776,4.80245725347678,101.59285459773587,,,0.6447042257417027,2.513992230683097,inf,,0.7426398844286264
435,0.20948740911459046,-0.014664118638021332,0.0,1.347140271946975,1.2949298369474211,0.9090094511714324,4.56743616398172,127.50793440946616,,,0.6333676938231112,2.7605723203613204,inf,,0.8169916744749458
436,0.0,0.0,0.0,0.7682792310732259,0.7181688668055127,0.71297219550106,4.170426134759756,20.932986291119626,,,0.648888643467878,4.605170185988091,inf,,0.6669079784226324
437,,0.0,0.0,1.0518255964890366,1.0274379838904175,0.7596715724328873,3.859045513591461,29.71429876058305,,,0.5883313578629602,inf,,,0.8922833252500535
438,,0.0,0.0,0.694373263981246,0.6383124419186019,0.7016913272954338,4.1044838490911335,42.9568156340664,,,0.6333676938231112,inf,,,0.7593127009600004
439,,0.0,0.0,1.768001852951377,1.7377906762514301,0.9435470359865871,3.728009307656844,27.62924163833991,,,0.6038851895711802,inf,,,0.8845799269990304
440,,0.0,0.0,0.5706137201666738,0.5104778932785952,0.44049500620470233,3.9896213150627244,49.65807202262497,,,0.6309483474627791,inf,,,0.6954681929297497
441,0.19691324064718158,-0.011814794438830895,0.0,0.7400731684814434,0.6904763162519473,0.6820340535399045,5.34754931556556,7.950470365093285,,,0.6180765742263259,2.971581813321708,inf,,0.6810583304173033
442,0.0,0.0,0.0,1.1225131530242067,1.110229145943616,0.81606320259688,3.8198364924713357,8.98472076637485,,,0.6097226960127671,5.703782474656201,inf,,0.8276726674348848
443,,0.0,0.0,1.7759548523257487,1.7483550336462652,0.9552624990022716,4.078623453571164,95.76396957219174,,,0.5783247308855777,inf,,,0.8539533397116122
444,,0.0,0.0,1.7655826803309798,1.7519751457373611,0.9460647777706712,3.87591209913239,106.96143916362395,,,0.6284777104787076,inf,,,0.8579770588158204
445,,0.0,0.0,1.7749563833820545,1.751194560543202,0.9549327290003202,4.361910110659705,23.631577235448002,,,0.62595550513784,inf,,,0.8603371115875157
446,,0.0,0.0,1.7540341734141565,1.7375993735582853,0.9286395261240524,4.000011775752656,58.7006212206866,,,0.6038851895711802,inf,,,0.840178971867601
447,,0.0,0.0,0.9188122664499141,0.897770692147776,0.6329782453339561,3.5070833559001,90.69396591522839,,,0.6125606311107803,inf,,,0.9201692963420814
448,0.0,0.0,0.0,1.2852456713386091,1.2429512510550993,0.7516015642355436,3.66455145152088,9.452134315799231,,,0.62595550513784,3.912023005428146,inf,,0.929284069838373
449,,0.0,0.0,1.7744000871680345,1.7457967560750212,0.9594291389602304,3.9245068906063056,81.78280979803023,,,0.6153451465759925,inf,,,0.8843809134410541
450,,0.0,0.0,1.6345868005849025,1.5815532158002412,0.9472487651551204,4.191994374052041,28.812505685044684,,,0.5641709578113449,inf,,,0.897808592768879
451,,0.0,0.0,1.7537164450449474,1.7199325259923788,0.9588415814407139,3.527976401288603,28.333825405142786,,,0.62595550513784,inf,,,0.9005635529509077
452,,0.0,0.0,1.7588579663053174,1.70356818565751,0.9482019642317522,2.8363431669990677,14.736036495156656,,,0.5947193981915972,inf,,,0.8609502299968289
453,,0.0,0.0,1.7623208607539687,1.7373350685585907,0.9480010098780239,3.613695838192456,10.43059083614226,,,0.6425374456860184,inf,,,0.8828601044603721
454,,0.0,0.0,1.7771245894969394,1.763979619072769,0.9613816173329136,3.10948661884715,24.01304258858614,,,0.5947193981915972,inf,,,0.8777236284923131
455,,0.0,0.0,1.4417476036789607,1.447351942392885,0.936512900767142,3.108286297099615,31.58204128449847,,,0.5783247308855777,inf,,,0.8854797358618
456,0.0,0.0,0.0,0.4669010610795933,0.4435998409026937,0.6035389818312863,3.103492435429032,4.056889702033432,,,0.6008849035917525,5.703782474656201,inf,,0.6221150367427596
457,0.3212354667149008,-0.004283139556198677,0.0,0.9043820370877742,0.8505927948780025,0.7624285058783585,3.2164339045227166,10.024304268722702,,,0.6068309995095971,4.516955829165235,inf,,0.8435413098519103
458,,0.0,0.0,1.2750472022049573,1.2487417039129491,0.7933232058675358,2.3960631343126035,2.682718525014233,,,0.5978297680564633,inf,,,0.900409805965473
459,0.0,0.0,0.0,0.9099825931432705,0.9035763833187517,0.6203934952074504,2.5310621119351797,2.9424942861331402,,,0.6309483474627791,4.605170185988091,inf,,0.807092221547293
460,0.0,0.0,0.0,1.0860441748841128,1.0515216914241508,0.7870864818356502,4.0002155548678,14.409792137466056,,,0.6233814453054027,2.9311937524164198,inf,,0.9078770971082787
461,0.00023849294753675704,-1.1129670885048663e-05,0.0,1.4273627369577628,1.4006870178312074,0.9652252501981169,4.814193164804259,4.312587302732092,,,0.5978297680564633,3.0649632686282087,inf,,0.8565519795324761
462,,0.0,0.0,1.505046304137995,1.4787568314209416,0.9176766769271045,3.2855510492649813,2.560382332594755,,,0.6207552362147116,inf,,,0.8760789568692948
463,0.0,0.0,0.0,0.8195308369265205,0.748155777434043,0.7277564218715413,4.001092377692601,33.94003276205737,,,0.62595550513784,5.703782474656201,inf,,0.9038668850351744
464,,0.0,0.0,1.7771243433412478,1.7583531448973901,0.9565900595855639,3.800054047813236,78.90999356833238,,,0.581717464821069,inf,,,0.8800413547944584
465,,0.0,0.0,1.7805232312931474,1.7429442790054404,0.9560576551437234,4.000523158784745,21.38410602794323,,,0.6333676938231112,inf,,,0.8712965314199472
466,,0.0,0.0,1.766490246838824,1.7538797197356988,0.9624792056545088,3.858334828754621,46.81828468230337,,,0.6008849035917525,inf,,,0.8482451010804083
467,0.0,0.0,0.0,1.1682718529354321,1.1516914096711168,0.7089068772282688,4.161885516171913,35.712145312836185,,,0.6425374456860184,5.0106352940962555,inf,,0.844678171598831
468,,0.0,0.0,1.1654038078450575,1.1362696739159408,0.8409648668948714,4.089953744186356,25.99083908555737,,,0.6125606311107803,inf,,,0.9064232259073226
469,,0.0,0.0,1.7740451084537499,1.754126405815567,0.9668344301348389,4.934487902760335,8.818596916241244,,,0.6233814453054027,inf,,,0.8818668079811794
470,,0.0,0.0,1.7861528734277234,1.726374302470828,0.9601815355493443,4.348202013276281,67.45557458448283,,,0.6038851895711802,inf,,,0.895803246690109
471,,0.0,0.0,1.7758211604805023,1.7630897385755424,0.9533206091358882,4.177619879018345,38.48631374384324,,,0.6207552362147116,inf,,,0.9069839520260601
472,,0.0,0.0,1.782660918934755,1.7562001924921165,0.9570026564427238,4.275442582997975,78.05400993525046,,,0.6097226960127671,inf,,,0.9136174627390927
473,,0.0,0.0,1.783792832802534,1.7666429130746613,0.9536058209921163,3.7027574958660368,19.71144351035814,,,0.6333676938231112,inf,,,0.9253859017360443
474,,0.0,0.0,1.1438865339822348,1.1069870394471522,0.7304177957686443,4.330345561900353,20.826743225672637,,,0.6180765742263259,inf,,,0.86385565142121
475,,0.0,0.0,0.821750061441278,0.7844133289506879,0.767187800533611,2.403563088314463,2.36869769832028,,,0.6153451465759925,inf,,,0.8840791016331819
476,,0.0,0.0,0.7242201980406839,0.7008701788102234,0.6818492725161299,2.935648338338144,4.30728226953495,,,0.6357360191111145,inf,,,0.8400610794255655
477,,0.0,0.0,1.753099641958022,1.7132641753248976,0.968790992649111,3.0341344328118405,4.44964574320956,,,0.5915533975974677,inf,,,0.8308811356170801
478,,0.0,0.0,1.7709286404678053,1.7267885467967372,0.9697792594786309,2.978611273488438,6.872545212916998,,,0.585052858160615,inf,,,0.8302306695948402
479,,0.0,0.0,1.7573626924523402,1.7544992984727765,0.9655106553340455,3.403774450917491,4.726837188465138,,,0.6068309995095971,inf,,,0.8419521232595292
480,,0.0,0.0,1.7428387397093232,1.6835646021946056,0.9702615828684102,3.0741393712367544,2.969985111612754,,,0.5677978065141052,inf,,,0.8078567940774816
481,,0.0,0.0,1.7701980500557795,1.756037437219609,0.9675903305288645,3.1321352714156636,8.48974671034509,,,0.581717464821069,inf,,,0.8498052340267483
482,,0.0,0.0,1.7554530225339502,1.7291152757195791,0.9786125698321361,3.5203751250627335,7.569737172108909,,,0.5915533975974677,inf,,,0.8557015139039725
483,,0.0,0.0,0.7314748224103187,0.6127615133078633,0.7040357592305945,3.6384357206360227,11.919607174819822,,,0.5947193981915972,inf,,,0.8476462146936726
484,,0.0,0.0,0.9937451987173672,0.9092357161342528,0.7366973765827621,3.081933741796788,2.5637020552901566,,,0.6380535849069913,inf,,,0.9072156615172126
485,,0.0,0.0,1.7279403662433008,1.6974284218273066,0.9795445736618893,3.4570271881970234,4.803395705805584,,,0.5748741956352443,inf,,,0.9142282058406052
486,,0.0,0.0,1.7266335870212752,1.6780870871537499,0.968725544423462,2.9588290729787516,2.570244412065145,,,0.581717464821069,inf,,,0.8783529303246208
487,,0.0,0.0,1.629418013787645,1.6108329466071107,0.9405708536437769,3.084292640780114,3.0350788046869943,,,0.5883313578629602,inf,,,0.8554864392378214
488,0.0,0.0,0.0,0.7078234133645415,0.6244610867791673,0.6774360802063359,2.5636185759744596,1.7272828194622152,,,0.6180765742263259,5.703782474656201,inf,,0.8433267698508454
489,0.0,0.0,0.0,1.1658102928740057,1.1214726245294904,0.7834695657975139,2.687535147650846,2.9649343211809454,,,0.6528756675646988,5.703782474656201,inf,,0.9076466254993653
490,,0.0,0.0,0.7393911539811967,0.7295882452925291,0.5902208089807923,2.191480898313053,2.770410612109526,,,0.5947193981915972,inf,,,0.696995726686002
491,,0.0,0.0,1.7318269166228921,1.683632020860845,0.9636954589505533,3.2291583953698884,1.931135342974566,,,0.6180765742263259,inf,,,0.8921671493845554
492,,0.0,0.0,1.6972214980827491,1.636424310073762,0.9549436766084656,2.610032620255488,2.827483937535554,,,0.5641709578113449,inf,,,0.8684403479945861
493,,0.0,0.0,0.4999816666436416,0.46908251082340086,0.6816071038623566,2.0989450014976954,2.4351065890574497,,,0.6380535849069913,inf,,,0.8202872057156202
494,,0.0,0.0,0.8037800524564543,0.7168973166228728,0.7391209470055425,2.711232657362813,2.485973677938337,,,0.6233814453054027,inf,,,0.7970642319794524
495,,0.0,0.0,1.689149825022568,1.6566450968091218,0.9689428262736286,3.3886566838335717,15.056332423377842,,,0.6180765742263259,inf,,,0.8401844173760711
496,,0.0,0.0,1.7457529864176653,1.7092914074611802,0.9822877762583025,3.3476315191692527,2.788825482667412,,,0.5883313578629602,inf,,,0.8010666396773342
497,,0.0,0.0,1.7392159260511728,1.6866239574695143,0.9826645173124028,3.6213000427532727,4.03281364804261,,,0.6153451465759925,inf,,,0.7949149819366763
498,,0.0,0.0,1.7259480619715308,1.7047072025200432,0.9603804421840839,3.8743664036172833,4.495969257812167,,,0.6180765742263259,inf,,,0.7801439747011001
499,0.21028937295910632,-0.0014019291530607087,0.0,1.1565379289284,1.121360843100843,0.8044063771905398,2.5201926370835768,2.7735856413346727,,,0.5677978065141052,5.198974923215773,inf,,0.8809085016208625
500,,0.0,0.0,1.5666320639357416,1.5397060938408207,0.9457539397420661,2.2861615504810846,2.5276237557588175,,,0.6068309995095971,inf,,,0.820792034299272
501,0.07857411117368994,-0.0007857411117368994,0.0,1.359300036751868,1.3185277161856224,0.8329585399727425,3.726950963367769,12.322436864898151,,,0.6068309995095971,4.677740878822926,inf,,0.9278750049971797
502,0.0,0.0,0.0,1.617780254349186,1.5633712830573727,0.9457019809013623,4.387310247178204,9.378119037494923,,,0.6619902821573977,5.703782474656201,inf,,0.8969969281978596
503,0.34657359027997264,-0.0046209812037329686,0.0,1.150410094770729,1.1177381746982613,0.8288832308014406,4.338497603465807,11.245779696679222,,,0.62595550513784,4.5251274783145545,inf,,0.8299273731590011
504,0.0,0.0,0.0,1.2422727187430158,1.210939400869699,0.797201058533423,3.642716110952762,3.3195211487493297,,,0.6447042257417027,4.31748811353631,inf,,0.9119015543603662
505,,0.0,0.0,0.9658261557313852,0.9357055071243803,0.7346481015569561,2.6326899200810976,3.399637770405339,,,0.62595550513784,inf,,,0.8051073010733092
506,0.706661516753905,-0.004711076778359366,0.0,1.0936599052008094,1.0404753384728278,0.817607369407558,2.9978665172728194,3.7724126398868276,,,0.6509067234006624,5.485986529668587,inf,,0.944820845528285
507,0.4457990596418918,-0.0029719937309459453,0.0,1.3792945308839115,1.3000122418079751,0.8775210820211788,3.246763082832411,3.4817273623728853,,,0.6125606311107803,5.360192770266124,inf,,0.9243381947250787
508,0.0,0.0,0.0,1.451007585112571,1.4130260594785986,0.9103506229706473,3.950410270575405,2.1678051929413713,,,0.648888643467878,4.31748811353631,inf,,0.9213677158860486
509,0.0,0.0,0.0,0.8774382844835964,0.8215694756503316,0.8484811203446032,2.598446488693618,1.745715628010435,,,0.648888643467878,5.703782474656201,inf,,0.854926696143979
510,0.0,0.0,0.0,0.7848358412412969,0.7802505893732138,0.7379598512100319,2.9142866021643616,2.941510159089761,,,0.62595550513784,5.703782474656201,inf,,0.9441088797972258
511,0.013423020332140661,-4.474340110713554e-05,0.0,0.6251518137396231,0.5782530255033596,0.5628249994608281,2.959163160635373,4.012279636791991,,,0.6547956803312163,5.717205494988342,inf,,0.9419072775363808
512,0.0,0.0,0.0,1.1579476704312703,1.118720261011349,0.8062987311825853,2.6607122455484675,1.4820845395193913,,,0.6584896970785714,5.703782474656201,inf,,0.942930042911029
513,,0.0,0.0,0.953666995987835,0.8815520886648983,0.7559336021734727,2.3249289296283244,2.5594113340862443,,,0.663668482632973,inf,,,0.9428722260367984
514,1.5141277326297755,-0.005047092442099252,0.0,0.9424126520487123,0.9117143406027478,0.6764823670012161,2.6131083359472926,2.1650402181468134,,,0.6403206450210053,7.217910207285977,inf,,0.9289433840675125
515,0.054535547527181004,-0.00036357031684787337,0.0,1.0120458789032283,0.9779428530304135,0.729229882365296,2.9234509552294856,2.5667062351871714,,,0.6357360191111145,5.063684515186071,inf,,0.9263311368200225
516,0.39057649561441377,-0.001301921652048046,0.0,0.5860883347868542,0.5351958644501053,0.5457459945000621,2.447353326647397,2.765614411613715,,,0.585052858160615,6.094358970270615,inf,,0.9397043548224376
517,,0.0,0.0,1.3264969669730609,1.3041644077292824,0.9393521801881541,2.0653793513333736,3.0461730950656736,,,0.6727386042041725,inf,,,0.9093404341540889
518,,0.0,0.0,0.7086011617685968,0.6802207234617821,0.6055952727334466,2.2588990069685457,3.181700716827581,,,0.6357360191111145,inf,,,0.8457271517179822
519,0.0115253892814317,-0.00046101557125726795,0.0,1.048646542896637,1.0212896331410215,0.8153646691633409,4.2584734979660555,27.647540672489406,2.7197995677493463,,0.6468212168108125,3.230049125466326,2.47707225045539,inf,0.694586698710402
520,0.11285146760851252,-0.0011285146760851251,0.0,1.1150122050238838,1.0471498478145922,0.7437841104446626,3.0050494101944922,2.9318077538313947,,,0.6153451465759925,4.706833839764592,inf,,0.7065340509647443
521,0.6354744581444757,-0.006354744581444757,0.0,0.8737448385112114,0.8380213198387652,0.6395324224433594,3.062802760281131,5.984134599128858,,,0.6699045166045591,5.22754829565983,inf,,0.9431470203753899
522,,0.0,0.0,0.39836821029223257,0.35197334825876314,0.5754267508884211,2.575835643676589,2.568534652397232,,,0.6425374456860184,inf,,,0.9275314116940536
523,0.0,0.0,0.0,0.8911742122834457,0.8304320167485572,0.6862082394645687,2.104665555550695,2.135924565565336,,,0.6180765742263259,5.703782474656201,inf,,0.9069599667471507
524,0.2901219230965493,-0.00386829230795399,0.0,1.0707989823084572,1.0475213755873678,0.6855583746510845,2.8729499755106245,2.1165897054868483,,,0.6309483474627791,4.505827742655828,inf,,0.7961086373448567
525,0.0,0.0,0.0,1.1059736257259085,1.0688517362741836,0.7131937042573759,2.778355812395378,2.6591456733472993,,,0.6309483474627791,4.605170185988091,inf,,0.8148459046173842
526,0.0,0.0,0.0,0.7444671882115175,0.6411287104649308,0.6322152234070294,2.741349523681255,1.8855700618573636,,,0.6566669596287297,4.605170185988091,inf,,0.8789166086433259
527,0.0,0.0,0.0,1.141784632397162,1.0999849973322697,0.7105106904230544,2.635725660288684,2.6637603357432127,,,0.6333676938231112,4.605170185988091,inf,,0.8060977795988298
528,0.0,0.0,0.0,1.0418647679436057,1.0154732836032387,0.6992901438515818,2.9760298849231233,3.3394082340668367,,,0.648888643467878,5.703782474656201,inf,,0.7614107816049526
529,0.0,0.0,0.0,0.6034541592616323,0.5716262826483242,0.5543915152841565,2.393975642334665,3.664705246867111,,,0.6357360191111145,5.0106352940962555,inf,,0.8394585763009377
530,0.0,0.0,0.0,0.8806337990532824,0.8250917385127233,0.6139770464814235,2.4913910989783994,1.3057426134621983,,,0.6207552362147116,5.0106352940962555,inf,,0.9446189762571425
531,0.9951052039759467,-0.006634034693172978,0.0,0.9846644596764683,0.9623465268010695,0.6811271362705421,3.2908731816193626,4.9311759463282865,,,0.62595550513784,5.575682472028885,inf,,0.811376411873322
532,0.0,0.0,0.0,0.973970214031806,0.9488057540971192,0.7104001799445754,3.1279871081859265,4.893936920922179,,,0.6668815377411301,5.0106352940962555,inf,,0.8108760465201079
533,0.8162558677240423,-0.008162558677240424,0.0,0.7771799543716834,0.7527646531234409,0.6859876904163544,3.6683776625130915,10.364902217330933,,,0.6097226960127671,5.173154223594031,inf,,0.9041124089797854
534,0.0,0.0,0.0,0.8687578505813996,0.8599834086393198,0.613578754582928,3.068133765342159,7.911852740730941,,,0.6619902821573977,3.912023005428146,inf,,0.6503150433102973
535,0.0,0.0,0.0,0.617121885710435,0.5751055341290678,0.5706992648185848,2.5418596274089236,1.9975171908741176,,,0.6380535849069913,5.0106352940962555,inf,,0.8403972027217437
536,,0.0,0.0,1.1489406671802496,1.0804345819836119,0.7168413568178817,3.13947185468246,3.23672580416989,,,0.6447042257417027,inf,,,0.547587860554531
537,0.0,0.0,0.0,1.1676448515012359,1.1409091474770472,0.7982847592143725,3.390276562485016,5.34555859841204,,,0.6207552362147116,3.2188758248682006,inf,,0.8445676303722144
538,0.16749399615692614,-0.007258073166800133,0.0,1.1398096842502272,1.1004925290736516,0.8144380889527215,3.5026602392584554,14.255213837326792,2.4909678730344007,,0.6357360191111145,3.2094757003562857,2.49764567556543,inf,0.6378154407394591
539,0.0005564835442524331,-1.1129670885048663e-05,0.0,1.0140741477778057,0.9855141025396742,0.6879935815543798,3.8680890268948027,1.361919418945563,,,0.6619902821573977,3.912578715361869,inf,,0.6933311756890403
540,0.0,0.0,0.0,1.232971476100918,1.168086339223199,0.7606454719550135,3.761585272203946,4.955157107238044,,,0.6547956803312163,3.506557897319982,inf,,0.6556141009633096
541,0.038054478771864,8.390047274427692e-06,-0.0011500244104303478,1.1628617524978764,1.1300038405796455,0.7657321710401107,3.3780930192376553,3.1603890845920364,,,0.62595550513784,3.5393106837917894,2.5116679908486,inf,0.6686767471044517
542,0.21345315079977958,-0.007115105026659319,0.0,1.030883375646327,0.9908340651795681,0.790239475416012,3.645657454280288,3.562495912294668,,,0.663668482632973,3.532065656867194,inf,,0.7277393391919871
543,0.0,0.0,0.0,1.0663311528252366,1.0329097507286704,0.681252976882599,3.3534889658812697,3.115943114315579,,,0.6447042257417027,4.0943445622221,inf,,0.6854405548218254
544,0.0,0.0,0.0,1.1566247007739108,1.1364043871554252,0.7037934041444487,2.679887462107601,2.450564801307943,2.0761026404143212,,0.6713451011121618,3.624340932976365,2.0827804429453507,inf,0.7594668823750318
545,0.7009793815162714,-0.030375773199038426,0.0,1.1149350088272025,0.9731107751204777,0.7576228174935311,3.651327402132131,3.1130667632067595,,,0.62595550513784,3.4210600107584073,inf,,0.5792759397737184
546,,0.0,0.0,0.5232309075182661,0.4850734829360841,0.3790434929399136,2.8439143116646872,2.504134121102342,,,0.6584896970785714,inf,,,0.7277391524317575
547,0.0,0.0,0.0,0.5106604851235836,0.4402697944612269,0.5931982050251111,2.915951097737647,2.8713911336009112,,,0.6668815377411301,5.703782474656201,inf,,0.7839801633729763
548,0.0,0.0,0.0,0.8664232402086913,0.8274297403094175,0.6073773040301742,3.3676131637752116,1.9816180965952523,,,0.6233814453054027,5.0106352940962555,inf,,0.747434220418912
549,0.0,0.0,0.0,1.026582477095566,0.9955345398123598,0.7266358525432149,3.1810466550726177,3.309320151548371,,,0.6547956803312163,5.703782474656201,inf,,0.9258536864934435
550,0.1307524798186174,-0.003486732795163131,0.0,1.1781154142634083,1.1517693246901084,0.7437637647864671,3.4337258848277825,1.9820386911898287,,,0.6180765742263259,3.720943614367782,inf,,0.6020554816155783
551,0.0,0.0,0.0,1.0033289993762038,0.9580666471907991,0.7743517296873852,4.009436572025468,8.589594310909025,,,0.6790044388599258,5.703782474656201,inf,,0.5757576002963564
552,0.027741367939610743,-0.0005548273587922148,0.0,0.9429456038879539,0.913967427946804,0.6557865065995693,3.322212954935016,2.1703457095591046,,,0.648888643467878,3.937910776380274,inf,,0.7462386009406592
553,0.026325688495687293,-0.00043876147492812154,0.0,0.9094822606052593,0.8784852079370359,0.6400024348673502,4.247930269868579,2.6238690475676476,,,0.6153451465759925,4.1193205482922775,inf,,0.7642601093842252
554,0.0,0.0,0.0,0.755677982101783,0.6954211710065855,0.7070759660072571,2.9767018271520613,6.266008096624791,,,0.6403206450210053,4.31748811353631,inf,,0.8537673702113785
555,0.0,0.0,0.0,1.2161985735211938,1.2211972799193491,0.7732739035297557,3.3491619107079647,4.5906132982593935,,,0.6309483474627791,3.757872325600888,inf,,0.8428643341010713
556,0.0,0.0,0.0,1.1691898108971341,1.12380909125742,0.7992412481619966,3.6669132524416272,14.564161712762319,,,0.6425374456860184,3.912023005428146,inf,,0.7825723995910047
557,0.0,0.0,0.0,1.2692918616248547,1.2145633433986163,0.8414588860281764,4.076140422949379,2.486130481292644,,,0.6038851895711802,3.757872325600888,inf,,0.747102621818016
558,0.3685707190995114,-0.014742828763980457,0.0,1.157401603599633,1.1362654044000595,0.8519236499506092,4.646790482068278,15.708729339243902,,,0.6566669596287297,3.3546319125148347,inf,,0.8127356737441539
559,0.18804634520716754,-0.0014906240196176593,-0.009792156692812392,1.0478121848546218,1.0184112438534232,0.7401130323882248,4.288177975366509,5.555679931809266,,,0.6509067234006624,2.8913722582297483,2.763620052257021,inf,0.6999940370880505
560,0.39322257127456656,9.134568506618309e-05,-0.006645055206308959,1.0063138604467745,0.9385472140707057,0.6878186974776771,3.4026924164051406,4.340711631679031,,,0.6357360191111145,4.283086686818978,3.4109061957891162,inf,0.7976982133493292
561,0.0,0.0,0.0,1.1848817012424395,1.124208927117276,0.7682952047395765,3.3198729768001116,2.2812233632043277,,,0.6566669596287297,5.0106352940962555,inf,,0.6220740817423668
562,0.13664272904927877,-0.004099281871478363,0.0,1.0279115843868147,1.0082142019014535,0.7707116130795013,3.4285845540273634,4.163188291933993,,,0.6547956803312163,3.5887325055089976,inf,,0.6608510063204011
563,0.03701604961428203,-0.0011104814884284608,0.0,0.9974726267688618,0.9853001728273932,0.7813048548596347,3.5923492560507415,2.3844431160099395,,,0.6153451465759925,3.538545572813379,inf,,0.6265492729107635
564,0.08009551331942505,-0.0013349252219904174,0.0,1.1243338857845615,1.0724682782683317,0.7542548366309465,3.149778126437015,7.474333110915164,,,0.6233814453054027,4.162623402975395,inf,,0.8245961838120861
565,0.0854787268361677,-0.002564361805085031,0.0,1.0302458499928395,0.9802156191892056,0.7277299710254765,2.814824085098768,1.9972773677148843,,,0.6652988471865258,3.5680393676077236,inf,,0.5227145227279216
566,0.5458988697672839,-0.020016291891467076,0.0,1.22603840640013,1.2021811581569126,0.7550237395282412,3.4391408729918393,2.661924292517898,2.2096861150158875,,0.6357360191111145,3.490757458374799,2.216363917546917,inf,0.7055844681114317
567,0.05944786067333308,-0.0021797548913555466,0.0,1.1434206206597595,1.1160416852743495,0.7454988842549065,4.292501244798459,1.7806060544071869,,,0.6380535849069913,3.350504267346637,inf,,0.7627347267720759
568,0.03963054932652583,-0.0011889164797957749,0.0,0.6822373425481191,0.6351963751334685,0.6786177418658004,3.53527498334084,4.744777134465062,,,0.6447042257417027,3.540459448995663,inf,,0.6682270114747038
569,0.5191036494060727,-0.0034606909960404847,0.0,0.9536044723773203,0.8913269728232494,0.6523652246645606,3.066519436817095,3.926783447452516,,,0.6528756675646988,5.464765574185701,inf,,0.6756131601029146
570,0.38225123769668046,-0.010193366338578145,0.0,1.2621301170308272,1.224643910539296,0.7859026214968208,2.9477080913528813,2.14302952823163,,,0.6153451465759925,3.9271366432381942,inf,,0.9468304678596428
571,0.8520508047144634,-0.01988118544333748,0.0,1.114127076745008,1.019557560176281,0.734164906505201,3.097967242890901,3.0166440719125256,,,0.6713451011121618,4.122058400789617,inf,,0.7507066530872868
572,0.23093604107992396,-0.010777015250396453,0.0,1.1405226865730311,1.121120890044415,0.7425164478389675,3.504802738432552,5.995988028589428,2.4726391177781846,,0.6207552362147116,3.227804455612502,2.4793169203092136,inf,0.8193561861924049
573,,0.0,0.0,0.7200850705870472,0.6854610315226657,0.5358983254483912,2.6722666235516916,2.7882275030941908,,,0.6380535849069913,inf,,,0.6398139800963937
574,,0.0,0.0,1.3708579997031374,1.290374020197144,0.8516548440127826,2.8006523135164403,7.367904358723891,,,0.62595550513784,inf,,,0.9360178263967772
575,,0.0,0.0,0.9000341864790353,0.8129489821729062,0.6956262313900399,2.787706781578517,5.265834341145425,,,0.6357360191111145,inf,,,0.9183099590334651
576,2.5257286443082556,-0.008419095481027518,0.0,1.0343816636073717,0.9718151013348,0.816330393742538,3.0665811059650383,2.6152767900608147,,,0.6447042257417027,8.229511118964457,inf,,0.8769480584768977
577,0.0,0.0,0.0,1.1537452481932635,1.141033354993439,0.734505740536552,3.4318907583775418,6.740276437759096,,,0.6468212168108125,5.0106352940962555,inf,,0.8866804783972404
578,,0.0,0.0,1.1284743263169608,1.114027574965781,0.7488972871659164,3.194382988130257,2.0643384943915217,,,0.6380535849069913,inf,,,0.8939384476355866
579,,0.0,0.0,1.1590268609782444,1.1245029549680647,0.7728172513518364,3.4664870804605674,12.984038989814852,,,0.6668815377411301,inf,,,0.9300054277257457
580,0.15418196457849662,-0.0025696994096416105,0.0,1.150144755161448,1.1221551806210555,0.7392178184853027,3.58044866383013,8.44270380050843,,,0.648888643467878,4.234373206825804,inf,,0.928618794402419
581,,0.0,0.0,0.4120279157265517,0.3564713597858605,0.5156247937656852,2.6465323366566276,2.2678940431690835,,,0.6425374456860184,inf,,,0.9382657825689853
582,1.005352935205228,-0.016755882253420465,0.0,0.8554850489615774,0.8286558310540463,0.71330902583924,3.0472426141644533,2.009695603565322,,,0.6425374456860184,4.75728590072498,inf,,0.8498984469170807
583,0.1263213608475938,-0.0016842848113012507,0.0,0.6451502507135564,0.614367555477034,0.5793569947219408,3.4021374136316043,6.149409751491318,,,0.6447042257417027,4.421923131673194,inf,,0.6806105248398072
584,,0.0,0.0,0.7376431046867157,0.6819517529091499,0.6136289021043493,3.1776720618783916,5.41540527996324,,,0.6357360191111145,inf,,,0.7949789299062574
585,,0.0,0.0,1.3223249121870577,1.2843248389729904,0.8466659410879445,2.930097339889076,3.2272172927641427,,,0.6284777104787076,inf,,,0.916468837574982
586,0.0,0.0,0.0,1.229789507027614,1.1820655784139125,0.8027269158487116,3.3831574496698957,4.958276617389274,,,0.6668815377411301,5.703782474656201,inf,,0.8647682933833895
587,0.6437751649736401,-0.010729586082894002,0.0,0.9900406966918479,0.9825759676444539,0.7165358517720641,3.9329115367167975,8.937232989280504,,,0.6309483474627791,4.307537782683142,inf,,0.8774724745274802
588,0.0,0.0,0.0,1.0844770607773861,1.0242528569842175,0.730922048505454,3.0441358026393126,2.334941702857927,,,0.6425374456860184,4.605170185988091,inf,,0.8819597681962454
589,,0.0,0.0,0.9370811304553127,0.8892886564179641,0.7712020588755092,2.5208387891449724,4.33668281776157,,,0.6125606311107803,inf,,,0.9103474401299209
590,,0.0,0.0,1.0753578054206054,1.0286414680165037,0.7869732984233464,2.2173905536960294,3.368639676291552,,,0.6380535849069913,inf,,,0.8744506948786176
591,0.010205498630063791,-0.00013607331506751722,0.0,1.2305600989185896,1.1776925915448648,0.8351697606036129,3.724063566701907,9.830211274278216,,,0.6566669596287297,4.327538449389812,inf,,0.9526333501875969
592,0.0,0.0,0.0,0.8453490914564249,0.8038132473690355,0.6878567772116048,2.7582496043038565,3.4867133060090816,,,0.648888643467878,5.703782474656201,inf,,0.9344761436358595
593,0.0,0.0,0.0,1.041514447685514,1.0220449583083389,0.74545829689802,3.127968715833002,2.4477714869735956,,,0.6566669596287297,5.703782474656201,inf,,0.9499375597200991
594,0.030218122756043613,-0.0003021812275604361,0.0,0.5578208088279786,0.5062765709139504,0.6356359531682452,2.695925378392977,2.5085373184708404,,,0.6284777104787076,4.6344845736568665,inf,,0.9003282412353002
595,0.6411874416292344,-0.002137291472097448,0.0,0.8699364866953321,0.8378577425825057,0.7040409574617955,2.371309390232822,2.0164411473020687,,,0.6207552362147116,6.344969916285435,inf,,0.9452087488214409
596,0.0,0.0,0.0,1.05859730894849,0.9905092613571919,0.7224444469081419,3.2467441436113047,3.2192882071055573,,,0.6309483474627791,5.0106352940962555,inf,,0.7644126892700067
597,0.0,0.0,0.0,0.8088735715853634,0.734867309646292,0.6830693783693677,3.4348145397119,4.7251109037266374,,,0.6284777104787076,5.0106352940962555,inf,,0.7759668553138807
598,,0.0,0.0,1.266576842558177,1.2231193632480044,0.772828562302685,2.8110127551578117,1.9706539757095847,,,0.6153451465759925,inf,,,0.9428705606627928
599,0.0,0.0,0.0,1.1538121768553933,1.1290973512535951,0.790266309204877,2.9632770390030103,5.477281767133023,,,0.6180765742263259,5.0106352940962555,inf,,0.9424313194701752
600,,0.0,0.0,1.2282994100999958,1.209520688827375,0.773289166715787,2.628889394428785,4.225651417010907,,,0.6097226960127671,inf,,,0.9277602148062056
601,,0.0,0.0,1.1761584525123885,1.1775904505433241,0.7307644878705111,2.541077809774013,2.1592926748739565,,,0.5783247308855777,inf,,,0.9380784758481246
602,,0.0,0.0,1.471525159854962,1.43590107478387,0.8806266116022603,3.0242299093497094,2.4743247559521744,,,0.6403206450210053,inf,,,0.9420261495552328
603,,0.0,0.0,1.0670087244948034,1.0493651318694224,0.7454416500131569,3.507532359301342,3.2696594340020195,,,0.6068309995095971,inf,,,0.9426134534321469
604,,0.0,0.0,1.4674210790884188,1.4524107220207896,0.8965559529500894,3.2393007126235895,4.854583378925705,,,0.6778444222523095,inf,,,0.9324465255478664
605,0.0,0.0,0.0,1.2528357067444535,1.239142676746982,0.7550961947796244,2.7112806057250536,2.7422538675678956,,,0.6547956803312163,5.703782474656201,inf,,0.9390208200402764
606,0.0,0.0,0.0,0.8971064814720945,0.8660028090401228,0.7226130545972792,2.923183826489326,2.4270719312092646,,,0.6180765742263259,5.703782474656201,inf,,0.9505752250702995
607,,0.0,0.0,0.5946275967967009,0.536914964090488,0.5427695561913235,2.643894790408666,3.457538199979028,,,0.6008849035917525,inf,,,0.9465300540868342
608,0.0,0.0,0.0,0.8302062860745548,0.7596750582920508,0.5483102375490049,2.9151316704587296,3.555403688391237,,,0.6468212168108125,5.703782474656201,inf,,0.9520774457256403
609,,0.0,0.0,0.6123411743399892,0.5723332851479732,0.593248173423003,2.594575637154257,3.0963022094364465,,,0.6309483474627791,inf,,,0.948034596536566
610,0.18072411134569505,-0.0012048274089713003,0.0,0.9877556673054195,0.9664750877746207,0.6629783229737801,2.427694594393019,2.480661448939497,,,0.6357360191111145,5.175116932761879,inf,,0.9525070335182311
611,,0.0,0.0,1.1242817795864628,1.1067791975645078,0.6849445570048777,2.754283101782969,4.8321485689711725,,,0.6509067234006624,inf,,,0.9224057393308717
612,0.6733445532637656,-0.0022444818442125523,0.0,1.0670208511962165,1.0413953482181544,0.7528731672734538,2.877168408526684,3.749515219913106,,,0.6233814453054027,6.3771270279199666,inf,,0.9390867051271881
613,0.0,0.0,0.0,0.5196398388388923,0.47985400339922296,0.6278138642241147,2.574456857009742,2.0395517487749375,,,0.6333676938231112,5.703782474656201,inf,,0.9463863084536726
614,,0.0,0.0,1.2397304125315005,1.2242081203920143,0.7771914059070624,3.033613043115287,4.947441851457802,,,0.6068309995095971,inf,,,0.9369913156928411
615,,0.0,0.0,0.9942869067196244,0.9723624667768368,0.6643724703419843,2.88222862596695,2.5461474899746417,,,0.6038851895711802,inf,,,0.9406201898883048
616,0.0,0.0,0.0,0.9912817329008148,0.9744341726213679,0.7567390477736633,2.846899180337113,3.2752798367554163,,,0.6602640781246099,5.703782474656201,inf,,0.9464487968764645
617,0.0,0.0,0.0,1.2145021471207007,1.2254162579434085,0.7496999980960161,3.3685280873707657,3.381160507697022,,,0.6727386042041725,5.703782474656201,inf,,0.9546230223313519
618,,0.0,0.0,1.5349962680234195,1.4801571583770428,0.9225225712482047,2.9347287851071036,3.197009826645792,,,0.6425374456860184,inf,,,0.9516626470496492
619,0.12637201054525027,-0.0008424800703016685,0.0,1.3415664586615934,1.304034506737768,0.842012466618739,2.9798425693489436,2.9047618761360856,,,0.6380535849069913,5.129043525146558,inf,,0.9048394043658747
620,0.0,0.0,0.0,1.1006346008881598,1.0813936359386884,0.7273811800342616,2.657161829620592,1.8624579848395988,,,0.6425374456860184,5.703782474656201,inf,,0.939060197598373
621,,0.0,0.0,0.8028011147900477,0.7910229227084944,0.4998050407884938,3.351855087017688,8.836318776720123,,,0.6468212168108125,inf,,,0.9390179594969169
622,,0.0,0.0,1.2881306154768908,1.2560208037930038,0.852897093128678,3.2041178930810057,4.417756582945069,,,0.6380535849069913,inf,,,0.939160039145131
623,,0.0,0.0,1.2068049281395297,1.1121041107754883,0.7050283426687299,2.26145946845953,1.712217286038423,,,0.6125606311107803,inf,,,0.9325735419482888
624,0.0,0.0,0.0,1.117102251918434,1.0891359375849767,0.7858389635852979,3.1563845351997384,3.1207636347680223,,,0.6425374456860184,5.703782474656201,inf,,0.9182683791835023
625,,0.0,0.0,1.0636561971438494,1.054584134136689,0.6472276514188622,2.9720214141658996,2.8410398471011082,,,0.6684167106117298,inf,,,0.9315905972445668
626,0.00335011195116715,-3.3501119511671504e-05,0.0,1.0867903797749672,1.0703592904042984,0.673484597616095,3.3612793340373086,2.349834818499837,,,0.648888643467878,4.608509087253606,inf,,0.9535992986136388
627,0.0,0.0,0.0,0.9003471112234986,0.8691292660137196,0.7115124161125511,2.4086337841889067,1.4787650544301956,,,0.6038851895711802,3.912023005428146,inf,,0.9509667917866057
628,0.6373736086330796,-0.006373736086330796,0.0,1.2103703807338109,1.1921589005280468,0.7815573213321793,3.054185128214497,2.85295073949439,,,0.6447042257417027,5.1234307882416,inf,,0.9509731899056695
629,0.6424709334298015,-0.004283139556198677,0.0,0.8056235113500024,0.7373475871087973,0.7193029093419622,3.0489500064794757,2.4725467652006703,,,0.675384900321601,5.459529960131756,inf,,0.942067577781784
630,0.0,0.0,0.0,0.9571776509811529,0.9401963785350537,0.6551688569134139,3.4119138655329477,4.099455473626275,,,0.663668482632973,5.703782474656201,inf,,0.7097131598228898
631,0.0,0.0,0.0,0.6807574642248599,0.6451388064867636,0.7206102845607979,3.1042242191958875,2.828029549137888,,,0.6180765742263259,5.703782474656201,inf,,0.8148640414463385
632,1.0215750483469808,-0.010215750483469808,0.0,1.0326564919600871,1.0183949086311874,0.5890702121285113,4.010961733354695,14.943714449974824,,,0.62595550513784,4.98757002116526,inf,,0.9319089262033127
633,0.0,0.0,0.0,1.1103288809694698,1.0772152165660434,0.7788806683750569,3.374935616326615,7.4030403577295925,,,0.6727386042041725,5.703782474656201,inf,,0.7754433306752719
634,0.0,0.0,0.0,0.8382135067321079,0.8326590279010072,0.5736232268987213,3.5316565361136663,4.4304152210213,,,0.6547956803312163,5.703782474656201,inf,,0.7316162681904794
635,2.2072749131897207,-0.007357583043965736,0.0,0.6194160320085046,0.5943315143304226,0.6289413133462433,3.680590861557536,2.067534687059735,,,0.6509067234006624,7.911057387845922,inf,,0.7653409301315794
636,,0.0,0.0,1.4777000040205508,1.4566620168686166,0.8650066399060995,3.5735645303300823,3.410270163322061,,,0.6547956803312163,inf,,,0.8602014972111982
637,,0.0,0.0,1.2636749744703497,1.2215222113745139,0.736464854671091,2.9111722035223275,2.1665642515254966,,,0.6309483474627791,inf,,,0.9429136388348727
638,0.3096476585124087,-0.0051607943085401455,0.0,1.110225120870913,1.0498302857067352,0.7319563135115258,3.5440642635525554,11.750101567886682,,,0.6528756675646988,4.266319826961911,inf,,0.9471039251666256
639,0.0,0.0,0.0,1.0486359472042526,1.0378213245374854,0.7385842857198851,3.468252317734329,3.43240500703745,,,0.6309483474627791,5.703782474656201,inf,,0.7392575537852777
640,0.0,0.0,0.0,1.0370355577667625,1.0364239053983906,0.7115731169451699,3.27761935563939,1.5891241998750303,,,0.663668482632973,5.703782474656201,inf,,0.8340355077375964
641,,0.0,0.0,0.5643983672357568,0.48260520882441604,0.4838810289873011,2.0374367828289075,1.9480678954622244,,,0.648888643467878,inf,,,0.9417081450709278
642,0.0,0.0,0.0,0.9588911137730832,0.9265782395017241,0.6354155651000359,2.919562918024762,3.633435620304066,,,0.6713451011121618,5.703782474656201,inf,,0.7508402133066098
643,,0.0,0.0,1.1703303699340402,1.1325888257457841,0.7182442697103207,3.0004317588530545,5.7855307677252945,,,0.6097226960127671,inf,,,0.9286259687468461
644,0.0,0.0,0.0,0.9182867501192874,0.9066901680171248,0.6074985357018515,3.35394082679047,13.091068139292604,,,0.62595550513784,5.703782474656201,inf,,0.938868750679108
645,0.7621400520468967,-0.0025404668401563225,0.0,1.116071897616951,1.074312435139624,0.7560552443356184,3.806877412039802,7.0512001731008525,,,0.6425374456860184,6.465922526703098,inf,,0.9317722138048125
646,0.0,0.0,0.0,1.3380798761113106,1.2646860540037446,0.7957863545852013,3.031369896604259,3.470501891877121,,,0.6284777104787076,5.703782474656201,inf,,0.8623856554808862
647,1.9012608248854004,-0.019012608248854004,0.0,1.1328904870231091,1.0856379501866507,0.746856805879516,3.5024258516555498,3.320631275836289,,,0.6468212168108125,5.008970014777194,inf,,0.7758488313382815
648,0.0,0.0,0.0,1.247792827540271,1.233488907718273,0.7919238034754467,3.2880596172581606,2.5666663884099954,,,0.6284777104787076,5.0106352940962555,inf,,0.9063403810493416
649,0.0,0.0,0.0,1.1657720646258918,1.13942824954311,0.7706827103431192,3.9788882575429394,56.35540627775641,,,0.6447042257417027,5.0106352940962555,inf,,0.756704563891992
650,,0.0,0.0,1.3707982752506103,1.3213046164974347,0.8525019440924553,3.6764008712224485,15.695022796325592,,,0.6180765742263259,inf,,,0.9150391122141821
651,1.5448993912965292,-0.005149664637655097,0.0,1.4014277830161614,1.3397818783041169,0.8649594883765739,4.036675388014148,20.34797144970981,,,0.6528756675646988,7.24868186595273,inf,,0.8787952017824918
652,,0.0,0.0,0.8816981294386123,0.8443045620272519,0.6733016869535496,3.4552317483060953,24.84278148118609,,,0.6284777104787076,inf,,,0.8089489801190543
653,,0.0,0.0,0.961006881469639,0.9269998357390274,0.7354789292090009,4.6269570744340385,16.55745608533644,,,0.6284777104787076,inf,,,0.9151595792168592
654,1.1596961056552133,-0.007731307371034756,0.0,1.2349736265236868,1.2219682383482904,0.7927952648425332,4.613678621111158,59.51391940665728,,,0.6403206450210053,5.6237397669826645,inf,,0.920092704445716
655,0.0,0.0,0.0,1.3377834177340306,1.3382597797879308,0.8027392438035063,3.779460408024267,20.07966728589905,,,0.6097226960127671,5.703782474656201,inf,,0.9153205731720401
656,0.0,0.0,0.0,1.393724464613274,1.3052820573788295,0.7646439544352868,4.549644970508032,95.7518160677843,,,0.6468212168108125,5.703782474656201,inf,,0.92582199591552
657,0.023609865639133736,-7.869955213044579e-05,0.0,1.0376761230809488,0.9647440757889757,0.7810496838359485,3.496234847854347,16.125103318873844,,,0.6602640781246099,5.727392340295335,inf,,0.8230505223201242
658,1.141424275184343,-0.01902373791973905,0.0,1.1187255320629206,1.0533355294989248,0.7850238471964118,3.488056746870231,10.211304099417053,,,0.6566669596287297,4.31748811353631,inf,,0.8250310537532541
659,0.0,0.0,0.0,1.169314524393873,1.1121228337374869,0.749842469997256,3.55513818567638,2.1876338571654474,,,0.6008849035917525,5.0106352940962555,inf,,0.8193920317148116
660,0.0,0.0,0.0,0.9623864785809894,0.9306688736234974,0.6768034691065273,3.4462006855689378,17.91141702348827,,,0.6547956803312163,5.703782474656201,inf,,0.9108369838197913
661,0.0,0.0,0.0,0.9477622311077916,0.9145547274146949,0.7018685535231122,4.051124572578684,46.209241333510505,,,0.6207552362147116,3.912023005428146,inf,,0.8724899631922289
662,1.91959284073794,-0.0063986428024597995,0.0,1.036900591275936,1.0286240960986235,0.7563483383865284,3.682640278688328,13.021062931638177,,,0.6284777104787076,7.623375315394141,inf,,0.8308430118038731
663,0.0,0.0,0.0,0.992093300175752,0.9587792974841345,0.7515839539413192,3.550543370887928,3.6507415084035353,,,0.585052858160615,4.31748811353631,inf,,0.8320610657867402
664,,0.0,0.0,1.1821239342470504,1.1488510507135992,0.8628940703507629,3.6911163769856206,15.835918938263617,,,0.6125606311107803,inf,,,0.9282409256800955
665,0.4665489250952682,-0.003110326167301788,0.0,0.9721912534583039,0.9542763580374735,0.677620456928788,3.6367370939775334,30.28019305964818,,,0.6180765742263259,5.3720835167876455,inf,,0.9287563919604364
666,0.0,0.0,0.0,1.2467579748672506,1.1420538379873826,0.7967684841680666,3.6563201135086505,18.39551782563526,,,0.6125606311107803,4.31748811353631,inf,,0.8576805580335057
667,0.3901619370661671,-0.005202159160882228,0.0,1.0907422630932202,1.0542418253999541,0.7874970503955318,3.863354795335004,8.772719164289578,,,0.6668815377411301,4.537511537514277,inf,,0.7967947070433411
668,0.2408643131580137,-0.009634572526320549,0.0,1.558643472302815,1.5227013047040447,0.8685708823543694,3.9575873190441286,4.700869681049669,,,0.6309483474627791,3.315019685421103,inf,,0.9334127939659848
669,0.0,0.0,0.0,1.3470635950511303,1.3236509759943393,0.8113170762761396,3.692128343298587,67.61073150734495,,,0.6233814453054027,3.506557897319982,inf,,0.8288336849374474
670,0.0,0.0,0.0,0.3560050029692372,0.23839615746543383,0.5531774790120463,4.115403103782272,2.4677130472459616,,,0.6333676938231112,3.912023005428146,inf,,0.7158747679528628
671,0.0841680691579707,-0.0022444818442125523,0.0,1.7749600577296802,1.7404105898952011,0.9591034581501887,5.230646434149294,278.3629723834582,,,0.6153451465759925,3.687547008880158,inf,,0.873646293654247
672,0.20431500966939617,-0.010215750483469808,0.0,1.778810396120043,1.7754954651958468,0.9550088623141869,4.87647612406335,566.6289248393081,,,0.6153451465759925,3.0613973549482676,inf,,0.8675180289597013
