,temp+bvp_XAp0,temp+bvp_XAp1,temp+bvp_XAp2,temp+bvp_XCond1,temp+bvp_XCond2,temp+bvp_XDist,temp+bvp_XFuzz1,temp+bvp_XFuzz2,temp+bvp_XK2_1,temp+bvp_XK2_2,temp+bvp_XPermEn,temp+bvp_XSamp0,temp+bvp_XSamp1,temp+bvp_XSamp2,temp+bvp_XSpec
0,,0.0,0.0,1.05221502722971,1.028390733510545,0.6895913721010236,1.1419816268828233,1.1152165217434469,,,0.6619902821573977,inf,,,0.9505555770766629
1,,0.0,0.0,1.1679231127081091,1.1451134151824869,0.8305711089601009,1.5752121771352163,1.5240697951262057,,,0.6425374456860184,inf,,,0.9382545572947675
2,,0.0,0.0,0.9623857567895684,0.9216025630442213,0.699390680055893,1.970985746276932,1.7264518132276296,,,0.6357360191111145,inf,,,0.9434578730712365
3,,0.0,0.0,1.286231718328218,1.260074540992062,0.8236087269126342,1.9563824379109942,1.4455578906752842,,,0.6309483474627791,inf,,,0.9425438020370472
4,,0.0,0.0,1.133868357367688,1.097429713700052,0.8113877641248262,2.0154959344159913,1.616305515627328,,,0.6403206450210053,inf,,,0.9270635555631455
5,,0.0,0.0,1.12844556780561,1.1003423993420614,0.7279725207836171,1.5235291212850621,1.6054171187872128,,,0.6547956803312163,inf,,,0.9190229992334431
6,,0.0,0.0,1.0547953568345383,1.0219025893201283,0.7446053404555786,1.5841954733695331,1.4999270464456016,,,0.6684167106117298,inf,,,0.9504162350030624
7,,0.0,0.0,1.2391814839068542,1.2303586035938228,0.7600213465894397,1.2799451537315785,0.9103892474548938,,,0.6447042257417027,inf,,,0.9103539261795143
8,,0.0,0.0,0.7931207949990663,0.7816706548635622,0.5990299554574702,1.5210526244216345,1.9050959298256647,,,0.6509067234006624,inf,,,0.8962852707928176
9,,0.0,0.0,1.0020218607337894,0.9812989916448022,0.7006914366981,1.3924208466989656,1.2739161087354132,,,0.6180765742263259,inf,,,0.9343969400336216
10,,0.0,0.0,1.1536463533729933,1.162139223328417,0.8192409997358425,1.6985158915963312,1.9799101784077016,,,0.6447042257417027,inf,,,0.9510628416816255
11,,0.0,0.0,1.2813340382734746,1.2417856452386085,0.7830025142770548,1.8905226147740044,2.1936702465942104,,,0.6309483474627791,inf,,,0.9505503310561274
12,,0.0,0.0,0.9863635083382734,0.9721228194243889,0.6462313310880444,1.5349289801264727,1.8697176652964422,,,0.6068309995095971,inf,,,0.9236326388995971
13,,0.0,0.0,1.1490283477679752,1.1133748756327158,0.7031215703672855,0.8656349579586292,0.7440332516656281,,,0.5883313578629602,inf,,,0.9461832921010719
14,,0.0,0.0,0.8993561894281337,0.8685731691770741,0.6435678163841438,0.5492601266501512,0.5982232001537164,,,0.6284777104787076,inf,,,0.9379204952711545
15,,0.0,0.0,0.9083598875665275,0.913835861496551,0.6904962913871866,0.32905359992293115,0.511108090405623,,,0.62595550513784,inf,,,0.9412922154477897
16,,0.0,0.0,0.9925598617396421,0.9640481028097762,0.7838490459873882,0.4381158918455525,0.6032177208016594,,,0.6447042257417027,inf,,,0.946440783467717
17,,0.0,0.0,0.9921618493018658,0.9590205716149476,0.6815400576090185,0.8077728007841118,0.9083992354969528,,,0.6068309995095971,inf,,,0.9493681189001938
18,,0.0,0.0,1.0609613391189565,0.9465196052309736,0.7197138181729048,0.8402575197091735,1.0145942273992747,,,0.6180765742263259,inf,,,0.9370385615514438
19,,0.0,0.0,1.2715780521697597,1.2447318645412329,0.7767854410966583,0.5605439164478726,0.9883975557228709,,,0.5915533975974677,inf,,,0.9064821590072812
20,,0.0,0.0,0.8176131921310773,0.8043378618035386,0.4806196236812278,0.4065042879973089,0.5599457059088373,,,0.6180765742263259,inf,,,0.9345545737337404
21,,0.0,0.0,0.558936042925166,0.47037885119210415,0.5432297156522685,0.48859882656271525,0.6688540116710222,,,0.6528756675646988,inf,,,0.9373663065121562
22,,0.0,0.0,1.293821354282162,1.2181319699353756,0.7757423620236011,0.9956981278387106,1.0218665140561,,,0.6509067234006624,inf,,,0.9364867433460055
23,,0.0,0.0,1.3079157634494782,1.3006837627710615,0.7992461818010655,1.605727864768154,1.1984097358034336,,,0.6566669596287297,inf,,,0.913090636415161
24,,0.0,0.0,0.5790801762573972,0.5034789217236202,0.6375805409044715,0.9482248239419366,0.9710391842351295,,,0.6038851895711802,inf,,,0.8568230998118729
25,,0.0,0.0,1.3328709237553993,1.28930989052715,0.789513908756699,0.6453310797392082,0.6360525207821245,,,0.6357360191111145,inf,,,0.8858407576813127
26,,0.0,0.0,0.8007749361180678,0.7350991700745988,0.77824240212804,1.0664369791066284,1.180949756062209,,,0.6509067234006624,inf,,,0.9429830273852482
27,,0.0,0.0,1.1868404076798895,1.1432588573200115,0.7590218535348824,1.8834773264293725,2.4242206375237974,,,0.6619902821573977,inf,,,0.8973375779342854
28,,0.0,0.0,1.3533101506723366,1.314895584029208,0.7856995319559298,1.8642402012387183,1.772158406175479,,,0.6207552362147116,inf,,,0.9159152263003904
29,,0.0,0.0,1.114107713376255,1.0719430834283459,0.6643781967281099,1.9856848937057354,2.550654132274847,,,0.6233814453054027,inf,,,0.9431326001029884
30,,0.0,0.0,1.1949869786858054,1.1674746061284544,0.7947968994238439,2.144933431315835,2.3894695140478195,,,0.62595550513784,inf,,,0.9311700010275407
31,,0.0,0.0,1.1058652695352797,1.0608436904009058,0.8636214618637288,1.9153017350827337,2.0482779619722686,,,0.6357360191111145,inf,,,0.9407686718356031
32,,0.0,0.0,1.3056677245239983,1.265194316048986,0.8399314879694507,1.6725557008554042,1.4053787435203866,,,0.6713451011121618,inf,,,0.9181612499787858
33,,0.0,0.0,1.288964692776308,1.2498788888413899,0.8085945384982253,1.8197557836919886,2.0367917180376622,,,0.6233814453054027,inf,,,0.9204734824320784
34,,0.0,0.0,1.4145728152401114,1.344053432012213,0.844758417790374,1.607961278619607,1.792105978352542,,,0.6811855325194978,inf,,,0.8651909970187687
35,,0.0,0.0,1.2569235939819234,1.2059168681932682,0.8068151217116774,1.2285618931898161,1.5031186727816697,,,0.6333676938231112,inf,,,0.8735272765896555
36,,0.0,0.0,1.1275110113270075,1.0458402302358945,0.8623210462734093,0.9752651666924395,1.1874894678018824,,,0.6403206450210053,inf,,,0.9419761717254839
37,,0.0,0.0,1.2455124311758443,1.227917762842106,0.7579206838354335,1.4329555138236532,1.4844688472312497,,,0.6097226960127671,inf,,,0.9267594912002504
38,,0.0,0.0,1.2906614973403718,1.2360175557680237,0.7640602945845849,1.5777416911181976,1.1866494383979076,,,0.585052858160615,inf,,,0.9377790468991256
39,,0.0,0.0,1.2423733955799179,1.2304094888713695,0.8729640468178642,1.7950770077626943,1.6431940566313747,,,0.6207552362147116,inf,,,0.9419553564772996
40,,0.0,0.0,1.2856709924958063,1.2710552710643694,0.8428546347695635,1.7811462344431142,2.060956335861719,,,0.6284777104787076,inf,,,0.9333437120117903
41,,0.0,0.0,1.2604994628822284,1.2409898165918092,0.7786340738241679,2.0379182159636207,1.7891550195330952,,,0.6547956803312163,inf,,,0.924073244723295
42,,0.0,0.0,1.1120974524353804,1.0976452971682278,0.7359444550266014,1.2738814161478624,0.9754631260855886,,,0.6333676938231112,inf,,,0.9424002313705243
43,,0.0,0.0,1.2192966041986808,1.195151067563702,0.7813404993621754,1.960532844732599,1.7759568557497072,,,0.6380535849069913,inf,,,0.8955583387039935
44,,0.0,0.0,1.110303021438722,1.102534421477597,0.7374003567533335,1.4201417183743583,1.5868042580017276,,,0.6547956803312163,inf,,,0.8375481111253441
45,,0.0,0.0,1.3526444837931861,1.3253013607776567,0.8254142368807763,1.7893854993931817,2.131022513145868,,,0.6425374456860184,inf,,,0.9083092953897544
46,,0.0,0.0,1.12307305710417,1.0994728311886923,0.7523579150259339,1.4565378831483624,1.3431903937602674,,,0.663668482632973,inf,,,0.9454720203037983
47,,0.0,0.0,1.0787678034119366,1.072554409519496,0.6838547800488777,1.3899408560320734,1.2372444614625322,,,0.6509067234006624,inf,,,0.9492508725609016
48,,0.0,0.0,1.2610316093503724,1.26273422982263,0.825464442988865,1.681691087482159,1.717850350378217,,,0.648888643467878,inf,,,0.9410477315968905
49,,0.0,0.0,1.2601235564311415,1.2339963328038852,0.720182021432511,1.954754770781338,1.619099414934682,,,0.6740851607140061,inf,,,0.9204328117796718
50,,0.0,0.0,1.1812667355549802,1.1493259634012043,0.7044616460778377,1.9448579283644793,1.957021453445709,,,0.62595550513784,inf,,,0.9322812506120337
51,,0.0,0.0,1.200340005745472,1.1665237434068945,0.8124158206735737,1.6182639106551298,2.2128816194715784,,,0.6008849035917525,inf,,,0.8937240799448966
52,,0.0,0.0,1.2682520589341948,1.2071736860984283,0.8403389524545233,1.7230599660003367,2.1544686517154714,,,0.6233814453054027,inf,,,0.9268742355264553
53,,0.0,0.0,1.2859796793985385,1.230751784192002,0.7538249596198388,1.7569407504097216,2.3004715763306187,,,0.6425374456860184,inf,,,0.9316512637389204
54,,0.0,0.0,1.6173386735100443,1.5485129525424484,0.9139669352177401,1.3826701907829757,1.8624529201850009,,,0.6380535849069913,inf,,,0.8975415190964615
55,,0.0,0.0,1.3460500076270383,1.3182755767358463,0.7446089305247343,1.7560219092717926,2.013436695311062,,,0.6668815377411301,inf,,,0.8912650629503884
56,,0.0,0.0,1.2927819746968061,1.205682053430917,0.7507772906085305,1.6850192940577755,1.9854508824601833,,,0.6447042257417027,inf,,,0.9430147956690633
57,,0.0,0.0,1.2524678253940644,1.2210832722422515,0.7725795606525057,1.3434720762455679,1.6674236223901602,,,0.6125606311107803,inf,,,0.9143790490268329
58,,0.0,0.0,1.2562696989443831,1.197716328943451,0.8762694577226625,1.1572133035773033,1.2652300587898824,,,0.6333676938231112,inf,,,0.8723754761143084
59,,0.0,0.0,1.5812020969005716,1.542281417009639,0.9465137870732602,1.8809137438342274,2.211604921047828,,,0.6008849035917525,inf,,,0.9300258543356472
60,,0.0,0.0,1.5585203975954942,1.57191584851574,0.896181118553686,2.070215103756418,3.2031021543220457,,,0.6309483474627791,inf,,,0.937060809148385
61,,0.0,0.0,1.3577741677821293,1.3164127991971382,0.8688281798480586,1.7833727809092157,2.2856680789625297,,,0.6038851895711802,inf,,,0.9412187487957627
62,,0.0,0.0,0.9792572365391984,0.9507741127727988,0.7621678972354423,1.7184437135936985,1.9689653159965648,,,0.6547956803312163,inf,,,0.9198812583723367
63,,0.0,0.0,1.2317648270907982,1.2061708712399297,0.788243454118803,2.2162216720632273,1.6836250692170585,,,0.6153451465759925,inf,,,0.9215358000301854
64,,0.0,0.0,1.3281524300559049,1.2984611542084359,0.8324343148223851,1.8193975092785717,2.401615567648194,,,0.6468212168108125,inf,,,0.9451542184937598
65,,0.0,0.0,1.061672351086896,1.0386309835945347,0.7707123953688019,1.5966557524190639,1.2177826623180674,,,0.6566669596287297,inf,,,0.9438346354968219
66,,0.0,0.0,1.249789784463549,1.204194135148341,0.7278574130293654,1.8060328250161426,1.914845546267392,,,0.6309483474627791,inf,,,0.9449843706169132
67,,0.0,0.0,1.17336334255235,1.1351507486099686,0.8129458812354574,1.8560698187448283,1.9531957653797598,,,0.675384900321601,inf,,,0.9483024783998579
68,,0.0,0.0,1.4791886807314565,1.4402603675270966,0.891104908769504,2.1843821194868194,1.9412683118624225,,,0.6447042257417027,inf,,,0.9245979302952446
69,,0.0,0.0,1.3739173559336382,1.3354434995434825,0.7605271973927413,1.8628221941359697,2.197939090031895,,,0.6528756675646988,inf,,,0.9315068052383255
70,,0.0,0.0,1.374442495200377,1.363322130721442,0.7919830702001491,2.146847564658802,2.8760605174016987,,,0.6380535849069913,inf,,,0.9364406671213324
71,,0.0,0.0,1.1070360997519244,1.0268231917131863,0.678959045091216,2.0281354525318616,1.9227545189580288,,,0.6584896970785714,inf,,,0.9354098909725086
72,,0.0,0.0,1.1624722903882927,1.1440892310074966,0.7986356248552717,1.8647768239305877,2.486339775160987,,,0.680118107274185,inf,,,0.884692228686431
73,,0.0,0.0,1.1060510387781854,1.0595042328842796,0.7425771556813625,2.3323679898334144,2.6161939273793977,,,0.6097226960127671,inf,,,0.9015177705026036
74,,0.0,0.0,1.3433748614451726,1.2988296376398338,0.8416813812221761,1.8301574719497886,1.910701029010707,,,0.6425374456860184,inf,,,0.9502226512364513
75,,0.0,0.0,0.8982261545720478,0.8781910296907925,0.6888714221862446,1.607744667198196,2.406050495077218,,,0.6207552362147116,inf,,,0.9061556249957352
76,,0.0,0.0,1.0581177104244759,1.028026178531364,0.7349054304922533,1.6822230893717,2.0742198715223896,,,0.6447042257417027,inf,,,0.9042548183854188
77,,0.0,0.0,1.4057861903060247,1.3590705506822776,0.7981929208057341,1.9564699093145985,2.345769680298412,,,0.62595550513784,inf,,,0.9235717926289814
78,,0.0,0.0,1.1205732935233812,1.1073206177194799,0.8854460065333069,1.898347625602906,1.8235877635562265,,,0.6097226960127671,inf,,,0.8990426755838465
79,,0.0,0.0,1.2113505199874701,1.1980319562933315,0.8506880122455088,1.6367694991546022,1.958035952566778,,,0.6380535849069913,inf,,,0.9369664724216503
80,,0.0,0.0,1.1673803286064062,1.123528307732178,0.7774198517037835,1.352890834242661,1.3852551084217628,,,0.6153451465759925,inf,,,0.9385710573423008
81,,0.0,0.0,1.309744412387068,1.2850859003870663,0.8234355624733599,2.001436931323248,1.4047954562018716,,,0.6380535849069913,inf,,,0.9519197728978896
82,,0.0,0.0,1.368443768080799,1.3255698466995856,0.849059011957261,1.6213870698499966,1.5644574088831733,,,0.6038851895711802,inf,,,0.9492124428945818
83,,0.0,0.0,0.7636323596716856,0.7287318365763992,0.6956140074891994,1.2766965938541175,1.491470312901253,,,0.6333676938231112,inf,,,0.9514602521908179
84,,0.0,0.0,1.177543055541189,1.1354271078922096,0.7108422844349634,0.9260389672786699,1.1347897936467266,,,0.5883313578629602,inf,,,0.9129432172037022
85,,0.0,0.0,1.1194586159415447,1.059846835162898,0.7671405790312432,1.4069153267282377,2.1396242111405264,,,0.5604843169999094,inf,,,0.9371603193633891
86,,0.0,0.0,1.2880600432111626,1.2697161249768423,0.8340699494606119,1.2318935874204018,1.787889949952992,,,0.6380535849069913,inf,,,0.8896884008281096
87,,0.0,0.0,1.4196649153073047,1.4150809197133845,0.8443506050893328,1.175298764441116,1.6328222236190866,,,0.6207552362147116,inf,,,0.8736899463657236
88,,0.0,0.0,0.7039497377984891,0.6753446005456004,0.6524392276990284,1.0374211108119213,1.2509078458098193,,,0.6547956803312163,inf,,,0.932178193793298
89,,0.0,0.0,1.0937350854622518,1.054329966223053,0.8303988819089859,1.3114610529922317,1.7620601253878687,,,0.6097226960127671,inf,,,0.9167701872933025
90,,0.0,0.0,0.9693832127647515,0.906849731585066,0.6977231651642981,1.137145745664309,1.348320892004879,,,0.62595550513784,inf,,,0.941789836617931
91,,0.0,0.0,1.5717242864595549,1.5172394289616422,0.9408899556947002,0.8011266540072448,1.378739034912491,,,0.6125606311107803,inf,,,0.909864240301916
92,,0.0,0.0,1.401058981463976,1.3754703215384798,0.9550755069355259,1.2098103752154425,2.2108435846779204,,,0.6233814453054027,inf,,,0.9056385099827479
93,,0.0,0.0,0.971924194311096,0.9674938964631643,0.7518886133685307,1.184115815271004,2.1775670577237722,,,0.6547956803312163,inf,,,0.9113237090714834
94,,0.0,0.0,1.5832607113886372,1.5340489356047897,0.9408595501300862,1.2672436639623559,2.234835930384585,,,0.581717464821069,inf,,,0.9004186462203536
95,,0.0,0.0,1.3177905663194456,1.29655236093569,0.901197737789337,1.3604076260290487,2.604436412344206,,,0.6425374456860184,inf,,,0.8897306715022653
96,,0.0,0.0,1.550673567786498,1.4807042057644204,0.8694876346127624,1.6319735037087861,2.1751153659354223,,,0.6125606311107803,inf,,,0.8903606047347618
97,,0.0,0.0,0.9286156635841504,0.8897160861521808,0.7475464218100204,1.680700186080449,2.3693835565173904,,,0.6068309995095971,inf,,,0.9225346615123133
98,,0.0,0.0,1.3527013543598811,1.3408920768595733,0.8960324625808762,1.2932919557122666,2.4549857333836727,,,0.6097226960127671,inf,,,0.8852949247913365
99,,0.0,0.0,1.768126124119901,1.7617498090529373,0.940583247016343,1.3551551802548343,3.125610076694114,,,0.6068309995095971,inf,,,0.8660986452108987
100,,0.0,0.0,1.785191561950875,1.7436499389680227,0.9206328739930195,1.3682870534531986,3.3967084192474104,,,0.6584896970785714,inf,,,0.8498495965312548
101,,0.0,0.0,1.525933275347204,1.5030641642035276,0.8497556925522748,1.3597230765337387,2.6665789372833033,,,0.62595550513784,inf,,,0.835412258495998
102,,0.0,0.0,1.0936220916513062,1.0903782856226143,0.6870535735120701,0.9544206422516797,1.4419535035060544,,,0.581717464821069,inf,,,0.9115243719630628
103,,0.0,0.0,1.1691831240173096,1.173655349873066,0.6830285190364179,1.897790735492366,2.248914171876112,,,0.6468212168108125,inf,,,0.9342160350433879
104,,0.0,0.0,1.6139792600399248,1.5538710056590277,0.8918586985419702,1.8345553371868073,2.7892377127486876,,,0.6153451465759925,inf,,,0.9106603852846056
105,,0.0,0.0,1.0990833797806179,1.0757229818994176,0.7272455730876382,1.8250121428566453,1.7982887908324894,,,0.6068309995095971,inf,,,0.9222674732824516
106,,0.0,0.0,1.2038344537809174,1.099417785941575,0.7224614209191916,1.1841952755580698,0.6919700041774619,,,0.6403206450210053,inf,,,0.9479001515014693
107,,0.0,0.0,1.5431155761846955,1.4537231860545412,0.9000178883542294,1.3084030468698933,1.3291687262074983,,,0.6333676938231112,inf,,,0.9120433421501525
108,,0.0,0.0,0.8403474122189145,0.7540022374263463,0.5867619555132857,1.8612724574745865,3.1372901128065815,,,0.581717464821069,inf,,,0.9200636203136283
109,,0.0,0.0,1.7849603347110077,1.744210400426752,0.9700781428161175,2.5041024476257743,5.6703279687164265,,,0.6309483474627791,inf,,,0.8533287386800408
110,,0.0,0.0,1.3815253650803816,1.3424825017691289,0.8549091954343603,1.6516999703955155,2.6624153906815122,,,0.62595550513784,inf,,,0.8932248241048899
111,,0.0,0.0,1.5209458760339822,1.4933612807920336,0.9324868035433278,1.8970222615709855,3.118132290200995,,,0.6153451465759925,inf,,,0.902363992704377
112,,0.0,0.0,1.34634661273015,1.315202761940139,0.8719875076449941,1.435859243340594,2.110701839009901,,,0.6284777104787076,inf,,,0.9258518995164596
113,,0.0,0.0,1.4382530814817571,1.4003088881405452,0.907296505926327,1.2968002936268803,2.6311992971964626,,,0.5915533975974677,inf,,,0.8555080705090422
114,,0.0,0.0,1.0156644913186135,0.9889891942058565,0.6965489411263172,1.4874635212775715,1.7943432299470814,,,0.6447042257417027,inf,,,0.8820546185511161
115,,0.0,0.0,1.3367303333217788,1.306408005360334,0.9302639928160313,1.9617810163150886,3.113358831634306,,,0.6125606311107803,inf,,,0.7400917872727197
116,,0.0,0.0,0.764163066918006,0.7526050612560621,0.6986130775856809,1.3274860997462445,2.4308636146062623,,,0.6333676938231112,inf,,,0.9054300325993134
117,,0.0,0.0,1.716594549888983,1.683018584046257,0.9391874576516595,1.89746584085692,3.406745911054214,,,0.6097226960127671,inf,,,0.8780897773556136
118,,0.0,0.0,0.7425696569190828,0.7195299224971342,0.34010405893165385,1.3631748161918646,1.502508895634821,,,0.5978297680564633,inf,,,0.9507896120753512
119,,0.0,0.0,0.49203287129615664,0.3397756040153645,0.6225929493109098,1.0024051606104007,1.4397228287400345,,,0.6153451465759925,inf,,,0.9356667331310204
120,,0.0,0.0,0.8037863231163411,0.7961334859449806,0.7520414776178868,1.0106820261515457,1.7698067008284153,,,0.6180765742263259,inf,,,0.8484766787706127
121,,0.0,0.0,0.9440527671186206,0.923563873543011,0.6824915884912943,1.5451445716218455,1.782811026365313,,,0.6068309995095971,inf,,,0.9484207453647787
122,,0.0,0.0,1.31957784165981,1.2745040252521862,0.8391906656105164,0.46170532430983013,0.8400323604172414,,,0.5947193981915972,inf,,,0.9064299570054821
123,,0.0,0.0,1.4455089693734404,1.4139995709490092,0.8513897155324665,0.3004858530936927,0.612490221988603,,,0.585052858160615,inf,,,0.867888127405138
124,,0.0,0.0,1.6932954245886715,1.6835842513356105,0.9551946813535283,0.25127812524460513,0.4910924989950019,,,0.6309483474627791,inf,,,0.8171658705314848
125,,0.0,0.0,1.6192048983642229,1.5998165803314097,0.9235225131443734,0.25007422534917806,0.4847331073788109,,,0.552929491858785,inf,,,0.8190592471100129
126,,0.0,0.0,0.8389085929263811,0.7230848472704551,0.7768649599090284,0.3479533632657189,0.5173063285005925,,,0.5783247308855777,inf,,,0.89587664517441
127,,0.0,0.0,0.9548714309202779,0.8905047140998001,0.6721651124256156,0.7255557895757568,0.5891540424635111,,,0.6068309995095971,inf,,,0.9221416138749959
128,,0.0,0.0,0.41730317772600345,0.400972609190452,0.36711878513263607,0.5928921570488924,0.6098557761963379,,,0.62595550513784,inf,,,0.9386824049743596
129,,0.0,0.0,0.6714116365405265,0.6500907103199556,0.3939747097692747,0.3856032402436976,0.4554233010589179,,,0.6357360191111145,inf,,,0.9444220928601729
130,,0.0,0.0,1.2577885361596741,1.2323744063042779,0.8085482817037459,0.09198789295343247,0.1603025419953153,,,0.5947193981915972,inf,,,0.7232843292270954
131,,0.0,0.0,1.1831801939359334,1.1536468187387952,0.7216324382051187,0.0705602665629024,0.12212758171291853,,,0.6180765742263259,inf,,,0.7101465161863276
132,,0.0,0.0,1.2204815296117217,1.1896612442997359,0.7847166636161919,0.07674927513554619,0.12167220178403376,,,0.581717464821069,inf,,,0.7405158950028033
133,,0.0,0.0,1.4573207665074042,1.4387836605843924,0.7972424014762632,0.07235872264342025,0.12755460399431925,,,0.6547956803312163,inf,,,0.7275533624452266
134,,0.0,0.0,1.5086858659409517,1.5127101941551622,0.7799467851869717,0.08999467551903148,0.1608614075174315,,,0.6380535849069913,inf,,,0.7120997846233913
135,,0.0,0.0,0.2126938811736031,0.12930931949384347,0.4598547212966668,0.1789569445122956,0.21329238792186608,,,0.6528756675646988,inf,,,0.9025935690209803
136,,0.0,0.0,1.5128456204065235,1.4885293113384799,0.8643024789924141,0.21585574741925465,0.3980163367439983,,,0.5978297680564633,inf,,,0.7878223547836379
137,,0.0,0.0,1.3365108929442389,1.3264645503668022,0.8552664339090679,0.16206599099852143,0.2940368736213922,,,0.6447042257417027,inf,,,0.7971950590722672
138,,0.0,0.0,0.7673475133940165,0.6680551010847279,0.6731813845383734,0.2627575454766119,0.3327217279215408,,,0.6068309995095971,inf,,,0.8778975951620245
139,,0.0,0.0,0.8051941709898258,0.7845979962597732,0.4839524576870147,0.34900408532853944,0.3821315591019267,,,0.6357360191111145,inf,,,0.9160878822127895
140,,0.0,0.0,0.8255656683010663,0.7769042197373777,0.6042000994684809,0.15163994403976794,0.17437147394257632,,,0.6333676938231112,inf,,,0.8710545276300529
141,,0.0,0.0,0.7965492654504561,0.7772814962380085,0.5495694948046159,0.19343607824360118,0.2573451269212679,,,0.6153451465759925,inf,,,0.8697094174516447
142,,0.0,0.0,0.4128048388903693,0.3523971611821961,0.5055948134865029,0.12287549199787344,0.18847978471855026,,,0.6284777104787076,inf,,,0.857646845089783
143,,0.0,0.0,0.4120279157265517,0.285514059116001,0.528791732472187,0.4216386814113085,0.48227558568685175,,,0.648888643467878,inf,,,0.9120259552310247
144,,0.0,0.0,1.4127414744840696,1.379304280777282,0.8274232939881855,0.29906300512067796,0.5038653772996575,,,0.62595550513784,inf,,,0.7496094916195194
145,,0.0,0.0,1.0018557554283583,0.9528444973997617,0.7571463999674902,0.4124720688686318,0.6774049182708728,,,0.5978297680564633,inf,,,0.7732998757029791
146,,0.0,0.0,0.8085657966740931,0.7545570302994349,0.6625067040920813,0.5260390299503823,0.5899862660925635,,,0.6125606311107803,inf,,,0.9055081223301602
147,,0.0,0.0,0.7109365370703793,0.6760730155893862,0.48926196689950696,0.1405492472286982,0.1672529944399233,,,0.581717464821069,inf,,,0.8779268992298556
148,,0.0,0.0,1.4103572828716011,1.3697093012801076,0.7841492729027738,0.10418110225465659,0.1768623954653881,,,0.6425374456860184,inf,,,0.8069004112093346
149,,0.0,0.0,0.8254278295457889,0.7672982279859438,0.4737473689781064,0.19286257534079027,0.23163381544646325,,,0.6425374456860184,inf,,,0.8486865092542497
150,,0.0,0.0,1.6084772150159268,1.5812010994523924,0.8729068568260574,0.20275322118829583,0.3541010411594534,,,0.6447042257417027,inf,,,0.7387728154508386
151,,0.0,0.0,0.18683165482699773,0.14191054571298448,0.4193972980924233,0.21934659755190003,0.30075099982076114,,,0.6068309995095971,inf,,,0.8685862059605163
152,,0.0,0.0,1.3273188536954263,1.3006257642368755,0.8139615645593137,0.08322154874368982,0.15358089205563416,,,0.6509067234006624,inf,,,0.7814987357188353
153,,0.0,0.0,1.1810655140464508,1.1632858116390568,0.7706841017239164,0.08605311498268332,0.15601678730627444,,,0.6233814453054027,inf,,,0.7495991757583329
154,,0.0,0.0,0.8237460346956144,0.800350164449759,0.5934091290898218,0.1954166197304689,0.2997832097751126,,,0.6068309995095971,inf,,,0.8507502578126928
155,,0.0,0.0,1.4173219055377395,1.3771250425324428,0.8670093333062545,0.16463517490796784,0.29101604241776524,,,0.6684167106117298,inf,,,0.7938123683544491
156,,0.0,0.0,1.2537782415797674,1.2254041713367447,0.836633664935923,0.25200750874314337,0.3981018444569029,,,0.6125606311107803,inf,,,0.7738356394828121
157,,0.0,0.0,1.0498787785911552,1.0302104394622682,0.8151302693120313,0.27874053283442907,0.4315227500424359,,,0.6038851895711802,inf,,,0.7734549228929902
158,,0.0,0.0,1.21668357538814,1.2017750517286956,0.7679562979712311,0.27155563085288975,0.43938198570017023,,,0.6403206450210053,inf,,,0.7826613646483046
159,,0.0,0.0,0.3108102892920412,0.2966781698212617,0.37785193775130127,0.4568792972778608,0.6219561778865235,,,0.6153451465759925,inf,,,0.9221075145731561
160,,0.0,0.0,1.3211010511332408,1.2939846688663568,0.8344393001513905,0.2782791376981103,0.3754715086052033,,,0.6309483474627791,inf,,,0.8353338646219488
161,,0.0,0.0,0.9752850399615791,0.9509073015245907,0.7856728024370017,0.6177717283594238,0.7768817473038507,,,0.6509067234006624,inf,,,0.8296994061592756
162,,0.0,0.0,1.353591060490851,1.3271059912632865,0.860055682105625,0.5123356522632924,0.6636906030114442,,,0.6333676938231112,inf,,,0.7855367977870518
163,,0.0,0.0,0.49274784944921735,0.4790611380264662,0.46061913648061686,0.604241366868339,0.5619101032117191,,,0.5978297680564633,inf,,,0.9138210889049754
164,,0.0,0.0,0.804621701607195,0.6420050521974391,0.6676861658557425,0.5744456165786135,0.41751200556585766,,,0.6509067234006624,inf,,,0.9106859352793648
165,,0.0,0.0,1.00539028910558,0.9587902687017575,0.6675953414156212,0.8155381378458744,0.5489556351120221,,,0.6068309995095971,inf,,,0.9192327567789272
166,,0.0,0.0,1.2848008408622387,1.2556327356297081,0.8510972176292516,1.4329697242249635,0.8495212986748344,,,0.6528756675646988,inf,,,0.8612864341948105
167,,0.0,0.0,0.8972577791755423,0.8811843126631573,0.6596344393282353,0.915852725068982,0.8757000400110971,,,0.6180765742263259,inf,,,0.7841827634159149
168,,0.0,0.0,0.5629871005157768,0.5337520422222866,0.5189934100090524,0.42376220803524667,0.3728062177277496,,,0.6008849035917525,inf,,,0.9202554393878875
169,,0.0,0.0,0.8612823578397465,0.8282847178655943,0.7048462131464357,0.6589520856203921,0.5109960518234219,,,0.6468212168108125,inf,,,0.9186530905594463
170,,0.0,0.0,0.9591667101178043,0.8914136172157635,0.64017147772064,0.7012706557476609,0.4029856963162489,,,0.6509067234006624,inf,,,0.8891087476784069
171,,0.0,0.0,0.8238551415726683,0.80296453382804,0.5358230490961492,1.0190333777226677,1.0471582079603035,,,0.6566669596287297,inf,,,0.8982897240695424
172,,0.0,0.0,1.0090579600062257,0.9620758289119468,0.72846787161059,0.7773319875307279,0.6653660039037567,,,0.6309483474627791,inf,,,0.9385475865278979
173,,0.0,0.0,0.9252930264963006,0.9019821326142542,0.7146540022179824,0.5287915010042772,0.494749638721503,,,0.6403206450210053,inf,,,0.9179062610605639
174,,0.0,0.0,1.0207340433240177,0.9584498739492179,0.7287435931019995,0.955648339823849,0.6901639860233661,,,0.6008849035917525,inf,,,0.9446624915798228
175,,0.0,0.0,0.9377678280964931,0.9016157655593292,0.6963942601051206,0.7044931671907043,0.5246616576686868,,,0.6528756675646988,inf,,,0.9253186885493125
176,,0.0,0.0,0.7130911976816955,0.7096314506012363,0.6018308642056189,0.7678719203356433,0.582206389364553,,,0.6284777104787076,inf,,,0.9457060009700846
177,,0.0,0.0,1.0322329777246737,1.0006157288436999,0.8372250815786819,0.5027791792947324,0.5204566497135253,,,0.6309483474627791,inf,,,0.9231211900776669
178,,0.0,0.0,0.7826297217293723,0.7535222665114296,0.5462382818748772,0.7986348324988886,0.7029279660924996,,,0.648888643467878,inf,,,0.8480587680860956
179,,0.0,0.0,1.1042854408225025,1.0639425440837165,0.7345761874261628,1.0275930422812503,0.9275352842177744,,,0.6153451465759925,inf,,,0.8505081096112183
180,,0.0,0.0,0.6712317400520922,0.6028597204299931,0.6264661423267625,0.2781336528819501,0.3117406392469312,,,0.5677978065141052,inf,,,0.9131180261977789
181,,0.0,0.0,0.6543823615216986,0.6167908375023783,0.47563064491743473,0.2897160391227299,0.2266594652991048,,,0.6380535849069913,inf,,,0.9211139372697068
182,,0.0,0.0,1.0856752530469742,0.9775052516362145,0.7038832474575608,0.6748153702888217,0.4204949859802175,,,0.6380535849069913,inf,,,0.9345820974937732
183,,0.0,0.0,0.7701809378068044,0.708092320287593,0.6002914999365475,0.5166734869025935,0.5422463233965931,,,0.6284777104787076,inf,,,0.93753704719695
184,,0.0,0.0,0.9872218678420115,0.8859698879041348,0.7541195587325692,0.8616721228854605,0.5986109038252585,,,0.6357360191111145,inf,,,0.9342502728603911
185,,0.0,0.0,0.8054024397854198,0.7410568805858386,0.7559619461775562,0.28855606445990195,0.3075182242862301,,,0.6284777104787076,inf,,,0.9100108760493035
186,,0.0,0.0,1.0304448934791717,1.0398844938246057,0.7126712805047232,0.6405271652984952,0.4879728364831324,,,0.6380535849069913,inf,,,0.9234640296478263
187,,0.0,0.0,0.6932456887147511,0.6153911207474246,0.6275977493408867,0.45442218414566315,0.3165418361930224,,,0.648888643467878,inf,,,0.8954496171552924
188,,0.0,0.0,0.4727870410598005,0.41736267566833685,0.5553424723147554,0.3802962512530225,0.44088947398192596,,,0.6333676938231112,inf,,,0.8539138217119533
189,,0.0,0.0,1.4736412976809135,1.4594057036333221,0.8914022408797934,0.24145392103175392,0.4057305253809337,,,0.6509067234006624,inf,,,0.7167359628871778
190,,0.0,0.0,1.2668646957571847,1.2501393198173072,0.7714354770380598,0.24995092792958737,0.4707433074075841,,,0.6153451465759925,inf,,,0.7445842976368445
191,,0.0,0.0,1.284364778976074,1.2615550024318507,0.7840405806886139,0.27647544667401114,0.5131114709191675,,,0.5915533975974677,inf,,,0.7093941536059436
192,,0.0,0.0,1.288215106177877,1.2672195638174704,0.7773408802953543,0.254896999593364,0.4942170411295843,,,0.581717464821069,inf,,,0.7321563019144584
193,,0.0,0.0,1.4171534719368863,1.3866300754449017,0.8521810868689995,0.27076234268882354,0.5072392743658678,,,0.581717464821069,inf,,,0.7491789594446865
194,,0.0,0.0,0.70915906257291,0.6498141826056967,0.714907656652514,0.46089120722570825,0.45237774586853524,,,0.6509067234006624,inf,,,0.9286185877527358
195,,0.0,0.0,0.8237508003088521,0.7741623815343592,0.561564911375767,0.3384762204409441,0.3064108736627418,,,0.6333676938231112,inf,,,0.921963207344598
196,,0.0,0.0,1.0318168163285502,0.9695769145530205,0.776225572813757,0.6988987424559722,0.4550587907189845,,,0.6403206450210053,inf,,,0.9281913691506669
197,,0.0,0.0,1.3380661522390416,1.3074798818321205,0.8232009369771605,1.2505768639120565,1.1298689948830114,,,0.6668815377411301,inf,,,0.9370570758911122
198,,0.0,0.0,0.9472541354277431,0.9038617845521231,0.6967595279324064,0.3342807856349137,0.230648346397899,,,0.6602640781246099,inf,,,0.9074582568504628
199,,0.0,0.0,0.9750956218147411,0.9520937705003067,0.5900723525401388,0.2691660128961489,0.1643659407107836,,,0.6447042257417027,inf,,,0.9243718820285244
200,,0.0,0.0,0.690057715553141,0.6394008023732034,0.5784310421814297,0.3516047615691116,0.25238607443581984,,,0.6547956803312163,inf,,,0.915347754290304
201,,0.0,0.0,0.6841810154491834,0.6203696013604458,0.6426113750406012,0.36248676586098894,0.3446677179164447,,,0.6357360191111145,inf,,,0.8961097959307877
202,,0.0,0.0,0.37963695508045747,0.31388140081412724,0.42609332126253074,0.21278972711344213,0.1708483454095806,,,0.6403206450210053,inf,,,0.8974887333120908
203,,0.0,0.0,0.4390767741582272,0.4067538638590959,0.5302254757240213,0.2567004087367521,0.20664597619150243,,,0.6180765742263259,inf,,,0.933283771878538
204,,0.0,0.0,0.5061320840427864,0.48088794180985317,0.454217733213029,0.4320398459204951,0.35755671181950616,,,0.62595550513784,inf,,,0.9431261584598634
205,,0.0,0.0,0.6987693771588801,0.6915193034206758,0.40946561920759267,0.2583153442166894,0.34962799307004483,,,0.6447042257417027,inf,,,0.9196965230192676
206,,0.0,0.0,0.7421049895986519,0.7201593701182165,0.5390147556804453,0.296488894772475,0.287953010311177,,,0.6447042257417027,inf,,,0.8766532346048044
207,,0.0,0.0,1.0839192235804727,0.9858394280748899,0.7310453074809052,1.0067823260979618,0.4123516487736747,,,0.6447042257417027,inf,,,0.9140378442153496
208,,0.0,0.0,1.2700026267444897,1.2009704668639662,0.8130653013757132,1.4672430008287445,0.9551338763537716,,,0.6528756675646988,inf,,,0.944860983993407
209,,0.0,0.0,1.2926264680596313,1.2309004650143178,0.8572394113634105,2.2177900997123774,1.4999083928230812,,,0.6619902821573977,inf,,,0.8878833047404279
210,,0.0,0.0,0.18592973281183492,0.15405497603476737,0.35998993894455655,1.2466888835201924,1.0723376569797618,,,0.6333676938231112,inf,,,0.6171691478090998
211,,0.0,0.0,1.0820503079974648,1.0415096332494345,0.726179487610863,0.9824779666080872,1.0457838332343434,,,0.6380535849069913,inf,,,0.9486202912153631
212,,0.0,0.0,1.12086842145562,1.1099016404851045,0.7514881257123757,1.424462451490864,1.0035154258650747,,,0.6509067234006624,inf,,,0.9500802534954119
213,,0.0,0.0,1.086672285458262,1.0649023510467754,0.7636278838347413,1.8054425390451312,1.5849501957371253,,,0.6153451465759925,inf,,,0.8829942299839555
214,,0.0,0.0,1.01176259585233,0.9784327892996867,0.6995627364297274,0.6464933558999352,0.7400539026707896,,,0.5978297680564633,inf,,,0.8208510654992958
215,,0.0,0.0,1.1191532882222288,1.1036086493302886,0.7031249415921843,0.6547649150916296,0.45986485778501274,,,0.6468212168108125,inf,,,0.9255959402602474
216,,0.0,0.0,0.6290589098187807,0.6003242559713804,0.540397574623937,0.46290495603774406,0.4783226526682915,,,0.6380535849069913,inf,,,0.9197490746308479
217,,0.0,0.0,0.2285328140111255,0.19579358206237082,0.4276112464427532,0.22422464288329894,0.23743751075352337,,,0.6309483474627791,inf,,,0.9448564449755321
218,,0.0,0.0,1.0263211791606328,1.0105824877583824,0.6009599107898299,0.556423706251508,0.3478429043381629,,,0.6180765742263259,inf,,,0.933138334721029
219,,0.0,0.0,1.1115953697547516,1.0567956877354951,0.7081805844519672,0.5593185285667928,0.44051088644773395,,,0.648888643467878,inf,,,0.9092643247688024
220,,0.0,0.0,0.17118885779824036,0.12234351261274984,0.31686618202074074,0.4249125497028224,0.39729071283943734,,,0.6566669596287297,inf,,,0.9651349612592536
221,,0.0,0.0,1.3318838178365486,1.305719346975236,0.8509262654981644,0.22379376381636495,0.3288260442441605,,,0.6284777104787076,inf,,,0.9139874913777492
222,,0.0,0.0,0.8339246785176777,0.8170400195028873,0.5722372244187145,0.192011438069371,0.21770093811686597,,,0.5604843169999094,inf,,,0.9257964764524904
223,,0.0,0.0,0.8696798430490489,0.8455976138059089,0.6758319943831087,0.3795576713276051,0.39269958416893286,,,0.6125606311107803,inf,,,0.9424702469728942
224,,0.0,0.0,0.9821721724555897,0.9536904661027408,0.6735916804655806,0.3789857451171984,0.4532063593554039,,,0.5915533975974677,inf,,,0.9342303951316029
225,,0.0,0.0,1.1840308890592048,1.1474470415617168,0.7132174178128455,1.0825222300212465,0.813114951315822,,,0.6357360191111145,inf,,,0.9326751525928914
226,,0.0,0.0,0.9882243699705667,0.9368830412888345,0.7080005068517081,1.3027601345767845,0.9762973436359423,,,0.6425374456860184,inf,,,0.9434530478352642
227,,0.0,0.0,0.9332654093113804,0.9000633843175414,0.6839391273157026,0.4668593438270771,0.6130491197858701,,,0.6125606311107803,inf,,,0.8610784960697574
228,1.8119621765455745,-0.006039873921818582,0.0,0.857721953349761,0.8568628964354509,0.23973710852123298,0.8117809200728625,0.8859926604198529,,,0.6566669596287297,7.515744651201776,inf,,0.9523502586961263
229,,0.0,0.0,0.7890248897113475,0.7576967770024652,0.6321580349223954,1.0677401722073503,1.023548221120014,,,0.6068309995095971,inf,,,0.9073051645898426
230,,0.0,0.0,1.129051759394219,1.0782475148646669,0.7440290051013299,1.2608899517275198,1.288126667235469,,,0.6333676938231112,inf,,,0.8794282430091074
231,0.0,0.0,0.0,0.5402171493504888,0.49917753013967653,0.4802378313499431,1.0123798946054925,0.7743545560076388,,,0.6380535849069913,5.703782474656201,inf,,0.7565131060139786
232,,0.0,0.0,0.6787470220679094,0.6515126097845664,0.46370944707788053,0.6446478850753191,0.4014581506507454,,,0.6284777104787076,inf,,,0.9525202961594447
233,,0.0,0.0,0.9636160232570163,0.9525039881717973,0.6434976386137745,0.9892138793301357,0.6788201626064672,,,0.6357360191111145,inf,,,0.9486056512588301
234,,0.0,0.0,1.2083967003175664,1.1831618656441638,0.6222396625838102,1.6956913637525373,1.4833610089721094,,,0.6309483474627791,inf,,,0.950506956124501
235,0.0,0.0,0.0,0.5644096423156999,0.49188339190382213,0.5034545496620296,1.5689098413128229,0.8377283973665808,,,0.6528756675646988,5.703782474656201,inf,,0.5632457450090897
236,0.10950135565734537,-0.0010950135565734537,0.0,0.6850754588362359,0.6647771504516511,0.6225910321549949,1.6601373815617282,0.8760900714910089,,,0.6309483474627791,4.703150594348295,inf,,0.6811891394003946
237,0.0,0.0,0.0,1.139633342588873,1.11821545569457,0.6838806230545991,2.329822726421375,1.6000617924119065,,,0.6333676938231112,5.703782474656201,inf,,0.8789701969317714
238,,0.0,0.0,0.9467789905037894,0.9003090187516525,0.7398426640494664,1.4551798789968584,0.889914279889104,,,0.5947193981915972,inf,,,0.8093616058310608
239,0.18632957819149348,-0.0006210985939716449,0.0,0.82656050240555,0.8055436466441169,0.5772746303946004,1.3203835390776155,0.8275797737178936,,,0.6038851895711802,5.8901120528476945,inf,,0.9421859754900885
240,,0.0,0.0,0.7967162490170049,0.7775235741415435,0.5921101370963878,0.983983809892808,0.8180758429671053,,,0.62595550513784,inf,,,0.9377996560835222
241,,0.0,0.0,1.1398971755969154,1.104443658101634,0.7399455633652412,1.0807713393674816,0.6552882381757141,,,0.6447042257417027,inf,,,0.9489693986635632
242,,0.0,0.0,0.8474940809655398,0.8303917150712361,0.5663214022225401,0.930244419457489,0.8891619367231296,,,0.6097226960127671,inf,,,0.9496930845680831
243,,0.0,0.0,0.7976908712446259,0.7523657059892193,0.6421406328920648,0.6592297300457732,0.43016570400186327,,,0.6528756675646988,inf,,,0.9461310227631619
244,,0.0,0.0,0.8588488280776332,0.8225672908311157,0.5121390063936138,0.2916332227568256,0.38985425823433534,,,0.6547956803312163,inf,,,0.9509171236387393
245,,0.0,0.0,0.11539037784936122,0.08862977074617114,0.26269313999134347,0.6349819102276962,0.6947588032019357,,,0.6447042257417027,inf,,,0.6716584208075027
246,,0.0,0.0,0.400721650866001,0.3790381442332528,0.4679498465463473,1.3401863572094372,0.922048268386932,,,0.6619902821573977,inf,,,0.7947382873350906
247,,0.0,0.0,0.47520082260193564,0.4653136498450837,0.640239417321185,1.5652578737327298,1.0422517888092644,,,0.6699045166045591,inf,,,0.65822669170668
248,,0.0,0.0,0.775939114673364,0.7390242056736989,0.583130363211477,1.7854078028231406,0.9325595965193241,,,0.648888643467878,inf,,,0.9256134080677698
249,,0.0,0.0,0.9221108390633594,0.8749547683517327,0.7135920153746295,1.6193823920621275,1.1127988082119074,,,0.6425374456860184,inf,,,0.9152301332529403
250,,0.0,0.0,0.3108102892920412,0.26865391499171154,0.3293216947153811,0.7636659799748685,0.38685232699436967,,,0.6309483474627791,inf,,,0.5934355213619962
251,,0.0,0.0,0.7010017199308738,0.6282981510707837,0.5997334061712593,0.5503826822687212,0.3445185675881277,,,0.68318204999448,inf,,,0.9464122740106685
252,,0.0,0.0,0.6996820928181435,0.6630897667499436,0.6753034409202904,0.8672686300673689,0.6096702724176982,,,0.6447042257417027,inf,,,0.9478449747149851
253,,0.0,0.0,1.0607698738796436,0.9908408745223021,0.6194882418908864,1.1567815627090878,0.7328212138729271,,,0.6602640781246099,inf,,,0.9442213833280274
254,,0.0,0.0,0.7438682893433751,0.7222102204934299,0.5599388218816784,1.6707283312996928,1.2702231360898515,,,0.6380535849069913,inf,,,0.9428757968912037
255,0.0,0.0,0.0,1.0974008652605867,1.0622218825858811,0.7246548038223154,2.2680061292703098,1.6144696265599499,,,0.6425374456860184,5.703782474656201,inf,,0.8671824879564921
256,,0.0,0.0,0.9983790937671576,0.9558909385180924,0.7805349993126497,2.3561178870826818,1.3500772676681856,,,0.6468212168108125,inf,,,0.6895195387170766
257,,0.0,0.0,0.5445495865853889,0.500469667928537,0.649082367267698,1.8565826909804233,1.3652159812576914,,,0.6447042257417027,inf,,,0.6388895746234354
258,,0.0,0.0,0.44256062104342075,0.38437069780389055,0.37239383978480894,1.0160011357755412,0.9158622912330427,,,0.6652988471865258,inf,,,0.9413868942282212
259,0.0,0.0,0.0,0.4962663691823033,0.449590247046301,0.44891254739332576,1.3664560391631992,1.0178383899229497,,,0.5883313578629602,5.703782474656201,inf,,0.9396483305027798
260,,0.0,0.0,0.3746090005862306,0.3363128246780402,0.47659406240306607,1.459718515914439,1.6154553659746163,,,0.6309483474627791,inf,,,0.9371971554381336
261,,0.0,0.0,0.9532327802260604,0.906728460427517,0.4415104752933508,0.9330225614211051,0.7986605613314479,,,0.6468212168108125,inf,,,0.9188908194980293
262,,0.0,0.0,0.9571537156419133,0.9377601561641271,0.4806176593673802,1.3195232067113987,1.1491381450429083,,,0.6284777104787076,inf,,,0.8803791938216807
263,2.445685936634719,-0.008152286455449062,0.0,0.48121114884489746,0.46978966132954003,0.4606594077676279,1.4860953498274354,1.4329072276642276,,,0.585052858160615,8.14946841129092,inf,,0.925848132670595
264,,0.0,0.0,0.360658446061434,0.27471191959719743,0.42317396118229356,1.370792331599255,1.330792908099593,,,0.5677978065141052,inf,,,0.7527374674496983
265,0.706661516753905,-0.004711076778359366,0.0,0.5390841687303629,0.4771181473982942,0.38451117901029375,1.1351979709372997,0.8302928438097239,,,0.6403206450210053,5.485986529668587,inf,,0.7571762728071413
266,0.003344494075398326,-2.2296627169322174e-05,0.0,0.6493173479525434,0.42612262847702803,0.4044433586037155,0.7721489379528506,0.5017684687425005,,,0.6309483474627791,5.0139741953617705,inf,,0.6315160563216455
267,0.0,0.0,0.0,0.28588429402253124,0.24833465686434844,0.2112237398054969,0.6245840335807085,0.44091780185501706,,,0.6403206450210053,5.703782474656201,inf,,0.44932933955333304
268,,0.0,0.0,0.8923818743489123,0.7963005625752327,0.6594379215073485,1.8489859756445344,1.0615479687972806,,,0.6097226960127671,inf,,,0.9493451490609723
269,,0.0,0.0,0.38638982516786635,0.35477831502226287,0.35079143141707564,1.4876225299343262,1.418932182259957,,,0.5713653840954815,inf,,,0.648296991455386
270,,0.0,0.0,0.651232332859856,0.6054193667921375,0.541506671979901,0.8036802463471006,0.8250062627653731,,,0.6357360191111145,inf,,,0.9506576012978657
271,,0.0,0.0,0.2702261217973413,0.24596263127913173,0.3507624016443396,0.2578692897256647,0.24096844651215438,,,0.6447042257417027,inf,,,0.9431094533736348
272,,0.0,0.0,0.7404083197134113,0.7291605855674284,0.25385782614762364,0.20485209914422928,0.14978213822347677,,,0.6207552362147116,inf,,,0.9622759388524847
273,,0.0,0.0,0.6182211934765531,0.5847383814651144,0.4656577487705098,0.9061778529490724,0.8629718604718273,,,0.6566669596287297,inf,,,0.9428387983690533
274,,0.0,0.0,0.6375293459751039,0.593174794014483,0.564755190368227,0.8950553395563695,0.9463905207886952,,,0.6468212168108125,inf,,,0.9509136272530606
275,,0.0,0.0,1.0422043458109138,1.011986019387064,0.7132522351289234,0.9690688000357622,1.0905479966990628,,,0.62595550513784,inf,,,0.949136329249527
276,,0.0,0.0,0.9061569493430914,0.8975743914167775,0.494386816609264,0.701642049646031,0.633307228915835,,,0.6309483474627791,inf,,,0.9450836944480113
277,,0.0,0.0,0.6121882658163641,0.5904238497076658,0.6239849920608724,0.7422021424285248,0.6227375266363763,,,0.6180765742263259,inf,,,0.9478854246819938
278,,0.0,0.0,0.7416920860973447,0.715744466425798,0.3041870897721303,0.5026729260275999,0.5413284286666658,,,0.6038851895711802,inf,,,0.9562997974265113
279,,0.0,0.0,0.7326712203964592,0.6758594756654878,0.5795680218539518,0.6458710602173642,0.6626012328231619,,,0.6425374456860184,inf,,,0.947042947536409
280,,0.0,0.0,1.2411490915516956,1.2220923734504978,0.8068873768353442,1.072342752314528,1.0334184743737684,,,0.6584896970785714,inf,,,0.928933619056414
281,,0.0,0.0,0.7881066407666216,0.7627698631322266,0.5807311368834225,0.8776171132281824,0.7467639436339333,,,0.6008849035917525,inf,,,0.9442118632607645
282,,0.0,0.0,0.5362944793053777,0.48836530269453193,0.5479704720929737,0.8346178567110987,0.947727773982255,,,0.581717464821069,inf,,,0.9491406556061375
283,,0.0,0.0,0.8453860798190449,0.7788486145313892,0.6100727174622307,0.8485143970452595,0.7723180827919696,,,0.6357360191111145,inf,,,0.9535339617286397
284,,0.0,0.0,0.514582108870093,0.45003773315440443,0.5454862208067134,2.15994263610078,1.8956379698221304,,,0.6097226960127671,inf,,,0.6741615894973099
285,,0.0,0.0,0.48156596428488374,0.4371800263967206,0.3953813309279685,1.33824135844438,0.8070719224715379,,,0.6207552362147116,inf,,,0.920802927040421
286,,0.0,0.0,1.1577652518102477,1.1059735809564806,0.7201715967006406,1.8491997825540136,1.8653092180698525,,,0.6153451465759925,inf,,,0.9505944137783705
287,,0.0,0.0,1.1333322294049704,1.0811611861376842,0.718892631795248,1.4271645778793216,1.135371744798458,,,0.5947193981915972,inf,,,0.9063342115283957
288,,0.0,0.0,1.407121884599887,1.3317297417398952,0.8149963214391209,1.1497249792233517,0.7192207780932194,,,0.6468212168108125,inf,,,0.8648592940219526
289,,0.0,0.0,1.2161402404528883,1.1753918559018517,0.7466148496468064,1.2240345185148995,1.0174630682510508,,,0.62595550513784,inf,,,0.9422948207127001
290,,0.0,0.0,1.2869953538861498,1.280078800204079,0.8302265995192337,0.27266635533411704,0.3749395692981523,,,0.6097226960127671,inf,,,0.8892593588092759
291,,0.0,0.0,0.6878037285800901,0.6659595725090055,0.7160322035044433,0.5080692554439667,0.4783538179247808,,,0.6602640781246099,inf,,,0.9339993506498011
292,,0.0,0.0,0.6181397549291829,0.5637889249638955,0.6601959096697654,1.07288671325264,0.8923001205611063,,,0.6380535849069913,inf,,,0.9491137405611961
293,,0.0,0.0,0.9337538878453616,0.9077605960358538,0.636060591593194,0.5736263072530184,0.7751897516198712,,,0.6097226960127671,inf,,,0.9004512658869515
294,,0.0,0.0,1.2150082537614422,1.1862454420111448,0.8278262616836449,0.7890782554077799,0.773783429121467,,,0.6284777104787076,inf,,,0.9225658231123112
295,,0.0,0.0,0.9579063686194738,0.8774210551300314,0.7212866868360571,0.6317803539042339,0.7029010636806164,,,0.6233814453054027,inf,,,0.9076899569202366
296,,0.0,0.0,1.7035440058372373,1.6696110446991212,0.964619584131736,0.6776151125169144,1.275530557073874,,,0.6284777104787076,inf,,,0.8401390257832801
297,,0.0,0.0,1.2819090643962938,1.2626855773169023,0.9148631028200961,0.6847133746124825,1.2333178945326837,,,0.6153451465759925,inf,,,0.8412539921656762
298,,0.0,0.0,1.4086162049156146,1.3713306095965097,0.8826337448365696,1.1542399252192885,1.8336195606821888,,,0.6380535849069913,inf,,,0.8620766423940939
299,,0.0,0.0,1.2763571498413335,1.1222961649429104,0.8200972478357542,0.6614309097228679,0.615702104403209,,,0.5713653840954815,inf,,,0.8593359168174357
300,,0.0,0.0,1.6793590162614054,1.6643291104699998,0.9052887527093562,0.1804650357677948,0.3683449058506507,,,0.585052858160615,inf,,,0.8540559207394498
301,,0.0,0.0,0.6868567672273772,0.6465244382157055,0.5935361499671176,0.874854086746465,1.0687919152897112,,,0.6403206450210053,inf,,,0.9403361032380119
302,,0.0,0.0,1.5473534011626182,1.4543748071319411,0.8869258068200565,1.0203832524717944,1.3128487662221446,,,0.5713653840954815,inf,,,0.8427126208298573
303,,0.0,0.0,0.08467349851939517,0.06456776637850545,0.28440299259934554,1.091226121764998,1.523578666124442,,,0.6425374456860184,inf,,,0.9604117550884799
304,,0.0,0.0,1.3362455819535406,1.2804521268381046,0.8379223696477494,0.5850859190717945,0.932928441755609,,,0.62595550513784,inf,,,0.8922978040138358
305,,0.0,0.0,1.7478845144159991,1.7295210092930586,0.9557685194493689,0.3878141297220826,0.7748850576581409,,,0.6284777104787076,inf,,,0.8421833969208513
306,,0.0,0.0,1.7553392789586986,1.7315879524263829,0.9706817645664834,0.3574942991908271,0.7346762014730266,,,0.6207552362147116,inf,,,0.8465147494373227
307,,0.0,0.0,1.6691179125794702,1.638135603126256,0.936649252784586,0.37006160007990724,0.7202526591097491,,,0.6038851895711802,inf,,,0.8593776355883092
308,,0.0,0.0,0.871557138030728,0.8496053731459136,0.5183282573756922,0.5237002308508009,0.5149965892579574,,,0.6380535849069913,inf,,,0.9199296430259155
309,,0.0,0.0,1.29012909418299,1.2953457217600546,0.7965040910943553,0.10013435964568657,0.1808290705756051,,,0.6038851895711802,inf,,,0.7808993606962211
310,,0.0,0.0,1.3569749083974294,1.3672500069797766,0.8346247446355001,0.09652865213281506,0.17202748526202244,,,0.6309483474627791,inf,,,0.7100875135491502
311,,0.0,0.0,1.5310062989300652,1.512925549171784,0.8911807615626258,0.1036074928812958,0.17596432012673463,,,0.6233814453054027,inf,,,0.7139557880053374
312,,0.0,0.0,1.3525229092627917,1.355462805949341,0.8608890094166656,0.10395035142074152,0.1778314191525256,,,0.6097226960127671,inf,,,0.7328735790010553
313,,0.0,0.0,1.5678837735607787,1.5485797705338211,0.8903475648119423,0.09199328134569887,0.1659420256881073,,,0.6233814453054027,inf,,,0.7005162989933013
314,,0.0,0.0,1.6339491833460826,1.616771155281666,0.8910478814765342,0.09928122244199183,0.17463334508120643,,,0.6509067234006624,inf,,,0.772405694693532
315,0.01005033585350145,-3.3501119511671504e-05,0.0,0.3005320855225746,0.26017278767173874,0.3722332821653857,1.0931236272940492,0.7755089576631142,,,0.6425374456860184,5.713832810509703,inf,,0.9224997294150526
316,,0.0,0.0,1.4740566632887209,1.4604458353816603,0.872088436723898,0.3864315363650996,0.6189532476512598,,,0.6357360191111145,inf,,,0.8065918841288866
317,,0.0,0.0,1.5542287018598744,1.5209453244469018,0.8964378797268248,0.3451489877886043,0.5543119378228434,,,0.62595550513784,inf,,,0.8307607806436527
318,,0.0,0.0,1.7705585562414283,1.736822067154152,0.9685088930491985,1.0035523742816792,1.8029497842238875,,,0.5883313578629602,inf,,,0.8258450360562224
319,,0.0,0.0,1.5475098021345746,1.4885098417178075,0.8951446621091796,0.2156522002771468,0.39278218276482835,,,0.5883313578629602,inf,,,0.7584411047512519
320,,0.0,0.0,1.4927997836685343,1.4368247741874016,0.8368317664294012,0.1450949879929341,0.2697750329537625,,,0.6153451465759925,inf,,,0.8273627493155024
321,,0.0,0.0,1.4106714109167398,1.320797173062265,0.8467696731544215,0.1589996217303636,0.260231641918383,,,0.6180765742263259,inf,,,0.8137867767226575
322,,0.0,0.0,0.9108883257953997,0.7586438761100245,0.6845257894477639,0.3474721296760629,0.46709955067589876,,,0.6068309995095971,inf,,,0.8294714679994069
323,,0.0,0.0,1.3661683657219967,1.332112372937492,0.8410305685850865,0.18289941610067983,0.30736142911963316,,,0.6403206450210053,inf,,,0.7407229884740211
324,,0.0,0.0,1.4365208475710554,1.4312239458416496,0.8271266139089197,0.12181090947608686,0.20955884393921778,,,0.5641709578113449,inf,,,0.7324025992181892
325,,0.0,0.0,0.6180006044491856,0.5967720555206799,0.6740290653638036,0.2566097059292774,0.3001793846404272,,,0.6068309995095971,inf,,,0.8752158833471785
326,,0.0,0.0,0.8566451040997956,0.8108035933252172,0.6601891947029249,0.5883590607726653,0.6093208701438863,,,0.6207552362147116,inf,,,0.9170252474096696
327,,0.0,0.0,1.5452280039723192,1.505399487257247,0.9016700557057576,0.31002711414289763,0.5068802881983057,,,0.6038851895711802,inf,,,0.7876829661992799
328,,0.0,0.0,1.490481946269158,1.470944203136433,0.9041715446688784,0.29369473218046155,0.49770722100458376,,,0.5713653840954815,inf,,,0.7252052039252888
329,,0.0,0.0,0.7871305479837192,0.7599568672351885,0.5260324741241833,0.3377668520252472,0.4127270812534947,,,0.6068309995095971,inf,,,0.8892960874616216
330,,0.0,0.0,0.40731012515243287,0.33938717208425084,0.5415536865206105,0.3915387590636989,0.38773551987311283,,,0.6125606311107803,inf,,,0.9161885479469156
331,,0.0,0.0,1.1094029522192503,1.0879774016295385,0.7882393064461001,0.30981261825615386,0.42407696344578727,,,0.6547956803312163,inf,,,0.6714041889835168
332,,0.0,0.0,0.5629845207927551,0.5350264378554794,0.34922553496270503,0.3923791859140259,0.4502982340526109,,,0.62595550513784,inf,,,0.8732353418325589
333,,0.0,0.0,0.8747907024906284,0.8336205039670747,0.6100965707248237,0.5308190312584908,0.620023541263462,,,0.6038851895711802,inf,,,0.9005521256814667
334,,0.0,0.0,0.7610780268195542,0.6837806820888862,0.5983418331075722,0.3671139053727121,0.5317548230006365,,,0.5748741956352443,inf,,,0.7537512179930442
335,,0.0,0.0,0.8449817756452866,0.7836845674015055,0.6691145964925903,0.6291689434431647,0.7235693192901053,,,0.5915533975974677,inf,,,0.868006732795645
336,,0.0,0.0,1.294142506405209,1.269631206259239,0.7907229295510483,0.46197294613251616,0.6377751199825242,,,0.6380535849069913,inf,,,0.8309909581173865
337,,0.0,0.0,0.6820971321813402,0.6510306463968096,0.7249551559964955,0.6430197657518689,0.7634909847133826,,,0.6125606311107803,inf,,,0.8743459908899652
338,,0.0,0.0,1.1115443703665635,0.9760688689922163,0.7206647054837918,0.4872602474591319,0.6763043983231188,,,0.6509067234006624,inf,,,0.8049858402735762
339,,0.0,0.0,1.4536777245949417,1.4372043029143295,0.8819963489241175,0.4388133451766618,0.6671570400555271,,,0.5677978065141052,inf,,,0.7481489175818477
340,,0.0,0.0,1.0937976062153902,1.0706298568201327,0.8145963448238757,0.30945643687122665,0.5154691814323673,,,0.6357360191111145,inf,,,0.7144203377423798
341,,0.0,0.0,1.2555680909388103,1.2375506372461842,0.8548931562621365,0.38149349269055455,0.593807538688071,,,0.6284777104787076,inf,,,0.8141392604281613
342,,0.0,0.0,0.8673121936935874,0.8319439718956864,0.6299818711835679,0.4804843647808189,0.5774222507857112,,,0.6153451465759925,inf,,,0.8870732596542471
343,,0.0,0.0,1.427974846594532,1.3373231545971997,0.8779605934300106,0.732867001944163,1.1360542263869648,,,0.6153451465759925,inf,,,0.8424448163093925
344,,0.0,0.0,1.5192607906530073,1.5084279576471948,0.8759060822049072,0.6486489178450027,1.0047029366221123,,,0.6125606311107803,inf,,,0.7873423842495388
345,,0.0,0.0,0.8310924960717108,0.7654975801262008,0.6263128815866104,0.6535279478599132,0.8426558872209894,,,0.6468212168108125,inf,,,0.8715154808306256
346,,0.0,0.0,0.9489190005537063,0.9259868143546823,0.632965681816233,0.8022678541949466,0.6903420005126238,,,0.648888643467878,inf,,,0.9253954071401455
347,,0.0,0.0,0.6980063035900481,0.5462769947302452,0.7218657719707471,0.8332154888384917,0.724874251352661,,,0.5947193981915972,inf,,,0.9420310367924039
348,,0.0,0.0,1.0291218245773175,0.9234679376999361,0.697393795321353,0.32793343306555384,0.33321348453455296,,,0.6153451465759925,inf,,,0.8718043948032247
349,,0.0,0.0,0.37774277082760943,0.3183717190218047,0.3951143080477648,0.30561502029351617,0.22979903180720923,,,0.5947193981915972,inf,,,0.9435959238476522
350,,0.0,0.0,0.10696905971831198,0.08175807714873909,0.2989601642611015,0.5493939959957344,0.5803153103284678,,,0.6207552362147116,inf,,,0.61009670154957
351,0.0,0.0,0.0,0.25536107293752264,0.2223598072078984,0.33082128026541996,0.37767328622801566,0.4266373032181774,,,0.6207552362147116,5.703782474656201,inf,,0.6155427458195354
352,,0.0,0.0,0.4701124778206282,0.41949879220254005,0.4921320143108928,0.4298843363821962,0.237142346279347,,,0.5915533975974677,inf,,,0.9113048604098336
353,,0.0,0.0,1.4845141299037268,1.431374035138376,0.8955413280191697,0.9628489970404741,1.1877821225041842,,,0.5604843169999094,inf,,,0.7945035279910337
354,,0.0,0.0,0.9446883523162973,0.8479628965603511,0.5833547387903015,0.5148017794805333,0.47044910079755464,,,0.6284777104787076,inf,,,0.8432931548041558
355,,0.0,0.0,1.6258539098161005,1.605468390406248,0.9432749923528028,0.3284655173861352,0.5733348800548252,,,0.6097226960127671,inf,,,0.7738000670067443
356,,0.0,0.0,1.300204616564938,1.2416742276137067,0.8493624179986163,1.3722772870931272,0.8584816028870637,,,0.648888643467878,inf,,,0.9294152898605422
357,,0.0,0.0,0.6485202171651276,0.6022299790232077,0.5348612955095028,0.636066310722418,0.4420047970706896,,,0.6468212168108125,inf,,,0.8705511438294509
358,,0.0,0.0,0.6610653042203067,0.5913701538711984,0.5689636128030179,0.2263387884049945,0.2733272195493702,,,0.6038851895711802,inf,,,0.7631068917112844
359,,0.0,0.0,0.7173081221381259,0.6867544379921735,0.7459970989946544,0.17110601803397688,0.2405403600850967,,,0.6207552362147116,inf,,,0.8424681125719743
360,,0.0,0.0,0.8798626512267421,0.7707575121355705,0.5362182423876292,0.242513571181207,0.2729696956058649,,,0.5915533975974677,inf,,,0.8509060873529961
361,,0.0,0.0,1.0193409207700246,0.9533716319413253,0.5267296511974461,0.3037300524370922,0.20296190137973352,,,0.6233814453054027,inf,,,0.8524792232040551
362,,0.0,0.0,1.2781747036056221,1.2762529217808234,0.7481611216684412,0.08694301754789067,0.1421226703254665,,,0.6547956803312163,inf,,,0.7303015041297489
363,,0.0,0.0,0.7046074792437784,0.6420405247033901,0.6690539285029482,0.48712766383164446,0.5258850006703513,,,0.6153451465759925,inf,,,0.8646145495922207
364,,0.0,0.0,0.8357390896608741,0.8116334530219197,0.7134639053615438,0.5368448858386106,0.7966349655538562,,,0.6068309995095971,inf,,,0.7565511268749956
365,,0.0,0.0,0.8245343928294298,0.8389606928820228,0.639829056158853,0.9926657179696342,0.8527902284594944,,,0.6125606311107803,inf,,,0.917843614483335
366,,0.0,0.0,1.596843210124828,1.5900651132929313,0.9169851749028616,0.23873161854205183,0.428439928812507,,,0.5915533975974677,inf,,,0.807533712905308
367,,0.0,0.0,0.8061366448832822,0.784011283453542,0.41095388725252924,0.6368740826631362,0.5429393173245922,,,0.5883313578629602,inf,,,0.9422137226883047
368,,0.0,0.0,0.3425926612355005,0.3027319543403984,0.6300955446811397,0.22508079202366066,0.3237822263910875,,,0.6233814453054027,inf,,,0.8822420346046251
369,,0.0,0.0,0.8426693644738847,0.8159435930235583,0.7408180144215664,0.22053115244317262,0.3077939776139407,,,0.6284777104787076,inf,,,0.8178831072184153
370,,0.0,0.0,0.9596383339221096,0.8987568616249683,0.6322602227283851,0.49039694420151886,0.6219603696942262,,,0.5915533975974677,inf,,,0.8896355756099514
371,,0.0,0.0,0.50340452646551,0.4637938823325186,0.5199176110693632,0.289969131424005,0.26845242107156075,,,0.6333676938231112,inf,,,0.9259688887257215
372,,0.0,0.0,0.8593655820616473,0.8390610767567064,0.6210076177544671,0.08976873406343824,0.14088765751929244,,,0.6309483474627791,inf,,,0.7690735759157877
373,,0.0,0.0,1.1962783298995838,1.1720905387803668,0.8246617726430993,0.13867602756145353,0.2309680878021671,,,0.6180765742263259,inf,,,0.8023433368023152
374,,0.0,0.0,0.9940950267902169,0.9843650445059594,0.7010902306964346,0.12006165137065451,0.1876133944271188,,,0.6233814453054027,inf,,,0.8001056561691492
375,,0.0,0.0,0.18683165482699773,0.14190832624785404,0.33220482147516117,0.15026121313427693,0.1839189913426432,,,0.6153451465759925,inf,,,0.8442257616371106
376,,0.0,0.0,0.7424865044912922,0.6720017064872377,0.6780097783780353,0.5948466452603075,0.7068547106259895,,,0.6357360191111145,inf,,,0.8893021029386786
377,,0.0,0.0,1.392372574554828,1.3322146941633697,0.8853730789656497,0.4948573946444641,0.6811985932349073,,,0.6180765742263259,inf,,,0.8204027256325933
378,,0.0,0.0,1.611127386914199,1.5602877561175974,0.9373560995819227,0.5050283516407357,0.7864405120502083,,,0.6380535849069913,inf,,,0.8047230462004081
379,,0.0,0.0,0.628258379840919,0.5889238915598504,0.4701488268767247,0.3833406179064449,0.5634980799281836,,,0.6097226960127671,inf,,,0.9095863317390691
380,,0.0,0.0,1.4381863048849646,1.390487076709979,0.8161506146399886,0.2179411320606172,0.3480631751354873,,,0.6652988471865258,inf,,,0.7773734036871325
381,,0.0,0.0,1.403536232301635,1.3662658782277515,0.8669129905217611,0.3022797577932981,0.5001166614146049,,,0.6008849035917525,inf,,,0.820617993975586
382,,0.0,0.0,0.6045955616219256,0.517581412575929,0.4636256718186967,0.3661343204907222,0.4807724122756899,,,0.5947193981915972,inf,,,0.9050559636183042
383,,0.0,0.0,1.2579899741427607,1.250597645288964,0.7544686485008205,0.13215386813510083,0.22002747173189502,,,0.6068309995095971,inf,,,0.7214146452459959
384,,0.0,0.0,1.476540444490338,1.4435607189094863,0.8290468579469936,0.1398789732355154,0.2550384473436068,,,0.648888643467878,inf,,,0.7002190703639275
385,,0.0,0.0,0.4576086627220408,0.3014311690937706,0.5108837015514744,0.29167472519628684,0.2812503191102979,,,0.6153451465759925,inf,,,0.9262226174059085
386,,0.0,0.0,0.9374057161227749,0.9020030093278333,0.7460485543457693,0.8338331913672048,1.122713988128016,,,0.6153451465759925,inf,,,0.8736254908140756
387,,0.0,0.0,0.988324426771039,0.8974936407467086,0.6784254624664502,0.6735023268355906,0.8163020228784692,,,0.6403206450210053,inf,,,0.8709577277105847
388,,0.0,0.0,0.4741655984079159,0.4235947798130153,0.6414590938343869,0.381756710560159,0.4973950023658949,,,0.6357360191111145,inf,,,0.824830943224713
389,,0.0,0.0,1.1545742727986152,1.1382826249621227,0.839459472654154,0.5675290465213361,0.70526973926605,,,0.6357360191111145,inf,,,0.8009181849926412
390,,0.0,0.0,1.0006542755921768,0.954858480739576,0.6313483817551764,0.3501579213864066,0.47956129230729494,,,0.6333676938231112,inf,,,0.8032137729549326
391,,0.0,0.0,1.274469061266329,1.218097383401408,0.7931385968852889,0.18186700734768477,0.3054298999700631,,,0.6333676938231112,inf,,,0.7962633073258054
392,,0.0,0.0,1.384105108812568,1.3737967367561799,0.8477513725214262,0.22973316376533745,0.39215005191445607,,,0.6403206450210053,inf,,,0.8119857361936811
393,,0.0,0.0,1.5566365947588825,1.5522231070848305,0.8752157477144816,0.20091690053922506,0.33176919707455665,,,0.6425374456860184,inf,,,0.7910791598504221
394,,0.0,0.0,0.8016472513216102,0.766326209228159,0.576241922632245,0.47331869608217825,0.5622460075996503,,,0.6509067234006624,inf,,,0.8576277475264088
395,,0.0,0.0,1.1963023116967397,1.1623638690038918,0.8032469398866465,0.5266512441642962,0.8198477778207895,,,0.6180765742263259,inf,,,0.7952610673375592
396,,0.0,0.0,1.3731266857733675,1.3558618313080075,0.8668818768990466,0.4260150950140585,0.7297079806278894,,,0.6097226960127671,inf,,,0.7944630647184935
397,,0.0,0.0,1.4854680562026374,1.4572938424914148,0.8763417076723439,0.3155250649017706,0.49197746368556433,,,0.6357360191111145,inf,,,0.7727401576559237
398,,0.0,0.0,1.107023831206869,1.0824148643828446,0.7314354433466813,0.6830306326641321,0.9779163260299054,,,0.6207552362147116,inf,,,0.8431447047391198
399,,0.0,0.0,1.4976007285621271,1.4505614560092226,0.8539164213629855,0.5861243018621294,0.8150184126258525,,,0.6584896970785714,inf,,,0.7989612218483066
400,,0.0,0.0,0.3170462752537733,0.29506369193154347,0.5016996801619019,0.702531380205737,0.901788812131443,,,0.5883313578629602,inf,,,0.8906849750628771
401,,0.0,0.0,1.2146923507831455,1.2022767298073795,0.8125506913934318,0.45446040751646394,0.5861040862130411,,,0.6333676938231112,inf,,,0.8218250260130074
402,,0.0,0.0,0.6046650835655466,0.564387848648646,0.6756035603065975,0.57408478619395,0.769652272398753,,,0.6008849035917525,inf,,,0.8451794758503345
403,,0.0,0.0,0.9655134911080068,0.9048355165064432,0.7216294615455445,0.7969290156587534,1.130964457998728,,,0.6333676938231112,inf,,,0.8554004118064455
404,,0.0,0.0,1.4145741715312132,1.380240083477524,0.8791680066358256,0.9194359130527858,1.279901391978285,,,0.6403206450210053,inf,,,0.7405219039070614
405,,0.0,0.0,1.4283668383922568,1.4238154551628495,0.8039484088843394,0.8527141600325654,1.2200396116939962,,,0.6357360191111145,inf,,,0.7778517950326925
406,,0.0,0.0,0.9628429746904733,0.9392935789470048,0.7170968077537349,0.7568407717232403,0.9090949183624333,,,0.6008849035917525,inf,,,0.8764605638191375
407,,0.0,0.0,1.2827094173861533,1.2663675596199684,0.8379470338909711,0.37571923146723185,0.5070565797265623,,,0.5490601803369085,inf,,,0.806037889799393
408,,0.0,0.0,1.165204647213557,1.1211249180623732,0.7738844470003017,0.31365337695351514,0.4986969200740685,,,0.6284777104787076,inf,,,0.7629750624841898
409,,0.0,0.0,0.7422326170930125,0.7265686793303152,0.5605156554922731,0.4568282854429729,0.5266786828540225,,,0.5978297680564633,inf,,,0.8885092857056286
410,,0.0,0.0,1.267333028671345,1.219744573082521,0.8294866310237943,0.6248900348173304,0.7907494519566466,,,0.6233814453054027,inf,,,0.835880102827834
411,,0.0,0.0,1.342518097546901,1.2969021938772387,0.9074464711876974,0.7256770155546991,0.9625990575055493,,,0.585052858160615,inf,,,0.8681892320921875
412,,0.0,0.0,1.4910566282935607,1.4591193471643733,0.8621442835314017,0.615442668760367,0.9051876456343301,,,0.5978297680564633,inf,,,0.8213693106043096
413,,0.0,0.0,1.445723599217042,1.4208741216648617,0.869096787006561,0.5141496343768425,0.7431306744931884,,,0.6038851895711802,inf,,,0.7665741910782599
414,,0.0,0.0,1.460795918144354,1.416940829446371,0.8649657989396862,0.6554448961446196,1.0847996017015111,,,0.62595550513784,inf,,,0.7890926075860867
415,,0.0,0.0,0.8688942005441896,0.8264715980154254,0.6281067468064812,0.552675125678899,0.7990939497640893,,,0.6619902821573977,inf,,,0.8743263973677696
416,,0.0,0.0,0.8315356302667894,0.7896815428629596,0.6404395958009058,0.4389659140500372,0.5564851991330302,,,0.5915533975974677,inf,,,0.9014673567590511
417,,0.0,0.0,0.9835258798867534,0.9459685140472255,0.7090942922310033,0.5313091544552047,0.6478988482959613,,,0.648888643467878,inf,,,0.9033017619096279
418,,0.0,0.0,1.2318146808154002,1.2128078784866807,0.7545375235742252,0.34280302015139463,0.4968820281293411,,,0.581717464821069,inf,,,0.8024897562702137
419,,0.0,0.0,0.848749558330759,0.7778449673413448,0.6803810029120216,0.3406896676189489,0.48325077734688787,,,0.6233814453054027,inf,,,0.844269479376055
420,,0.0,0.0,1.4338656370076157,1.4103333087066974,0.8718207340835059,0.34718188423526797,0.4997881001117021,,,0.6153451465759925,inf,,,0.8287334208881075
421,,0.0,0.0,1.3160646950357502,1.2816159703215821,0.8468981409556635,0.4109715941179044,0.56277053584913,,,0.5883313578629602,inf,,,0.7870340011735132
422,,0.0,0.0,1.1536252323374303,1.1220511733802274,0.7384498862326097,0.7031162209919612,0.8661292355143454,,,0.6447042257417027,inf,,,0.8539060611778135
423,,0.0,0.0,0.5896612351934939,0.5780380848963527,0.6377743070485541,1.085002544978301,1.0211024459104936,,,0.6333676938231112,inf,,,0.9478556224357846
424,,0.0,0.0,0.9390002684736717,0.8762342157828859,0.6819965382058887,1.2794606873415408,1.0101401517491433,,,0.6153451465759925,inf,,,0.921437494417754
425,,0.0,0.0,1.3076228059849309,1.2638742299683476,0.786348257193208,1.4771543581027218,1.2281045509016217,,,0.6547956803312163,inf,,,0.9003795539264579
426,,0.0,0.0,1.064208786902132,1.0466472896380963,0.7057175137313175,1.534057430666261,1.28124201160358,,,0.648888643467878,inf,,,0.8643359951482573
427,,0.0,0.0,1.3708651856274199,1.3370702099379628,0.8039094363927098,1.6263652799970516,1.7148303096331776,,,0.6207552362147116,inf,,,0.9295255324596717
428,,0.0,0.0,1.0973145399721587,1.0911154660408322,0.7255738088149287,1.5162086564518662,1.4403955995785371,,,0.6380535849069913,inf,,,0.9314443030521048
429,,0.0,0.0,1.1078174404581338,1.011015271019604,0.7920757426426195,1.2500769162591672,0.8543165350450346,,,0.6380535849069913,inf,,,0.9287353192360243
430,,0.0,0.0,0.9762242357112366,0.9453108437058357,0.62985096859377,1.5815641476875804,1.7210635654195594,,,0.6180765742263259,inf,,,0.9452772541525947
431,,0.0,0.0,1.256244226582935,1.2221800510876237,0.8336435107024304,1.256863334911746,1.0634156832271309,,,0.6333676938231112,inf,,,0.9480256007147527
432,,0.0,0.0,1.182387230302171,1.1727481715828538,0.7741477173593253,1.280797811866438,1.130439727370674,,,0.6509067234006624,inf,,,0.9511356869513073
433,,0.0,0.0,1.1070444789722393,1.075640817561969,0.7405628960033253,1.083437594900506,0.840995332336995,,,0.663668482632973,inf,,,0.8401944870866407
434,,0.0,0.0,1.2763838243698336,1.2428386365367359,0.8464165894379982,1.3256923975486181,1.1391232886738076,,,0.6425374456860184,inf,,,0.9324465205304123
435,,0.0,0.0,0.18967299066309576,0.1706003051398567,0.33139698504576154,1.362278131598237,0.9676150178115135,,,0.6566669596287297,inf,,,0.9654204037671414
436,,0.0,0.0,1.2499886965752476,1.230783516455762,0.7972007434226901,1.5720316693445235,1.5211077602891492,,,0.6468212168108125,inf,,,0.8979882097293622
437,,0.0,0.0,1.1100195733511036,1.0352178345345167,0.8057413833866085,1.4135877739924565,1.4688522946867673,,,0.6233814453054027,inf,,,0.889662672577969
438,,0.0,0.0,0.617800832475537,0.5751643848952238,0.7091377878611282,0.6756703651521974,0.7690272272755843,,,0.6125606311107803,inf,,,0.9403936719406756
439,,0.0,0.0,0.9918396533840689,0.92714423041251,0.8031733082298264,1.4161717548533879,1.4440012872488852,,,0.6068309995095971,inf,,,0.9481715828467453
440,,0.0,0.0,0.8795476250179303,0.8426258869329196,0.6402530723440002,0.8534509170509826,0.8508863455586956,,,0.6380535849069913,inf,,,0.9492061063093312
441,,0.0,0.0,1.1974602484137138,1.1060476313682759,0.7067746896958608,1.3610006711179987,0.9876764806786356,,,0.6038851895711802,inf,,,0.950548907202053
442,,0.0,0.0,1.032446761950918,0.9250307374461055,0.6291232950096874,1.0937343895693652,0.8763187871525289,,,0.6684167106117298,inf,,,0.9517730037017968
443,,0.0,0.0,0.5911653130612783,0.5468194698722589,0.5222328957633889,0.94870798759751,0.781198817673685,,,0.6619902821573977,inf,,,0.935195204987653
444,,0.0,0.0,1.3370212468813036,1.2890458281756334,0.7487406946992273,0.670868878464571,0.6020991130110056,,,0.6713451011121618,inf,,,0.902191526004957
445,,0.0,0.0,1.0408766651082386,1.0423107385579458,0.6365285412031998,0.6790898580512007,0.5704458146953917,,,0.6284777104787076,inf,,,0.9282811305763923
446,,0.0,0.0,1.1304692960997818,1.0665874371543318,0.7044155288276962,0.6501741126436382,0.6256423700694668,,,0.6566669596287297,inf,,,0.9298491697818156
447,,0.0,0.0,1.2558548856771372,1.2373589046523428,0.766306878813017,0.6796776537731085,0.6937849733748599,,,0.6125606311107803,inf,,,0.9411061392626424
448,0.0,0.0,0.0,0.3474611413333561,0.2599332127411142,0.25126844229836237,0.7636503000898266,0.46028438849830333,,,0.6233814453054027,5.703782474656201,inf,,0.9522943100925634
449,0.03735578654376886,-0.00012451928847922954,0.0,0.8924079798557862,0.8472397667216985,0.6207141062579555,2.9134743707005066,2.2254031776847514,,,0.6619902821573977,5.7411382611999695,inf,,0.7826635495509445
450,,0.0,0.0,1.4190293877475235,1.401359010968314,0.8945785263696613,2.157561318619681,1.762834289475364,,,0.6153451465759925,inf,,,0.8498903797298603
451,,0.0,0.0,0.6851162926126136,0.6615793338444272,0.5031878463327568,2.12051268682988,2.0373126364386738,,,0.62595550513784,inf,,,0.9487259736669956
452,,0.0,0.0,1.3606734887115357,1.3491718795470033,0.8933519043515652,1.991999883336608,2.027160116234696,,,0.6284777104787076,inf,,,0.9494723308317261
453,,0.0,0.0,1.2838325396202674,1.2472747221440013,0.8261589412448305,1.9152891429546073,2.2649982246196023,,,0.6468212168108125,inf,,,0.9258079367479046
454,,0.0,0.0,1.3396249703132028,1.3302631837668235,0.8631268098535896,1.7504533480653899,1.8095242954302013,,,0.6528756675646988,inf,,,0.9209613601902492
455,,0.0,0.0,1.1932813767717911,1.1806849780840922,0.7278293929220009,2.0468569908006415,2.315532186820041,,,0.5978297680564633,inf,,,0.9517974828342156
456,0.1984690250278749,-0.007938761001114996,0.0,0.9801505018940156,0.7248979076458381,0.6791481201752788,1.9414504375820902,1.1005325805272366,,,0.6038851895711802,3.3413573813061386,inf,,0.9055552073149156
457,0.6633168933750887,-0.01547739417875207,0.0,0.9799169017030533,0.8831085835732544,0.6151831202475403,2.2047216285908897,1.5723683545731912,,,0.6284777104787076,4.063492098739336,inf,,0.8454002071960643
458,1.329630018466389,-0.00886420012310926,0.0,1.211009597775624,1.1426570343095868,0.767336972537008,1.9537833636183388,1.13154060583678,,,0.6668815377411301,5.636123826182386,inf,,0.8913842830879635
459,0.0,0.0,0.0,1.2024526525662955,1.165922352006913,0.7590240539474936,2.7014542098795276,1.7901923774859778,,,0.6403206450210053,5.703782474656201,inf,,0.740705193954497
460,1.0464322810059883,-0.0069762152067065885,0.0,0.8421042028507459,0.7789419948821139,0.5388010228401446,1.7453394151117443,1.0649882306057556,,,0.6447042257417027,5.58748201896004,inf,,0.4791113263177854
461,,0.0,0.0,0.5627488497505092,0.518419029156093,0.445503790522903,1.7053216551724024,1.4071473190090769,,,0.6333676938231112,inf,,,0.7767582207025
462,,0.0,0.0,0.8291601166101065,0.747928818674105,0.6319604688037921,1.236812648668378,0.5985687195932234,,,0.6357360191111145,inf,,,0.9523455061353525
463,,0.0,0.0,1.184655659449285,1.1120445650094801,0.7593559753727387,1.8228464420525754,0.6580270483655544,,,0.6547956803312163,inf,,,0.7901734202918475
464,0.05997022543096657,-0.0037981142772945493,0.0,1.2867983910741367,1.2570706922745756,0.83689492143906,3.789353328976203,4.398009022184818,2.9046544579804694,,0.6602640781246099,2.795789115410217,2.911332260511499,inf,0.7560943877212472
465,0.1099012202179299,-0.002564361805085031,0.0,1.2365397675218455,1.1582145742966792,0.8684636709264075,3.3385522241036893,2.703049664811651,,,0.6038851895711802,3.8376372940697503,inf,,0.6406117659850338
466,0.04212400351508342,-0.0008424800703016685,0.0,1.3644986958421887,1.3613174951128446,0.8291298769909003,3.0434928469264406,2.8296712104443205,,,0.6309483474627791,3.949955659596796,inf,,0.9384373111822404
467,0.0,0.0,0.0,0.8777349544911337,0.8525033019686368,0.6335269844681408,2.2581718909846673,1.4250238995130218,,,0.6509067234006624,4.31748811353631,inf,,0.8067576890578194
468,,0.0,0.0,0.9745417479030297,0.9231031862065552,0.6265529222716721,1.2893934473785398,1.1164887951473241,,,0.676637947632344,inf,,,0.94975458387748
469,,0.0,0.0,0.9084748611071427,0.8863776093667012,0.6746496877534339,1.281026463257731,1.3359360694193922,,,0.6333676938231112,inf,,,0.948388181166534
470,,0.0,0.0,1.2163671606891513,1.1916701256500073,0.8284840731511363,1.1028957242474944,1.0946871241074325,,,0.6509067234006624,inf,,,0.8687021125485064
471,,0.0,0.0,1.0200935619695566,0.9445286426348788,0.6728104888991484,1.2328162960181173,1.3724402239116729,,,0.5947193981915972,inf,,,0.9104544753441977
472,,0.0,0.0,0.992312010107654,0.9850404406950877,0.6530905119628199,0.9831424164421215,1.1459957385009214,,,0.62595550513784,inf,,,0.9425472353655633
473,,0.0,0.0,0.8589300810577503,0.846904851268824,0.5145018986398434,1.4133643440348225,1.4859249025649237,,,0.6357360191111145,inf,,,0.9394574613769462
474,,0.0,0.0,1.0447066292897231,1.0485247313239905,0.7818290139828816,1.6818061572707013,1.574809949628882,,,0.6425374456860184,inf,,,0.9378975758278411
475,,0.0,0.0,1.2016535848990662,1.1949271943206161,0.7359164917603321,2.0622584512908446,2.1617366238874722,,,0.6068309995095971,inf,,,0.9367198070081821
476,0.0,0.0,0.0,0.5513928270604276,0.48621673257279846,0.56567220275431,2.076696185420229,1.6383964159744577,,,0.6309483474627791,5.703782474656201,inf,,0.5947785307300743
477,,0.0,0.0,1.2038930513800412,1.194738497949472,0.7661913566511876,2.373733408088239,2.5823515171403204,,,0.6068309995095971,inf,,,0.8860697708193751
478,,0.0,0.0,1.4170195536333854,1.3867681348024816,0.8635488259681992,2.2790831132198446,2.977629135841427,,,0.6447042257417027,inf,,,0.8940393633361826
479,,0.0,0.0,0.6491950663205809,0.626833097692489,0.5435087313737197,1.3344867877306261,1.5201811360630744,,,0.648888643467878,inf,,,0.9399530108957795
480,,0.0,0.0,0.6035123565544881,0.5889993362503075,0.41877121862746997,0.7399322977831144,0.8638524850583383,,,0.6380535849069913,inf,,,0.9393649466944294
481,,0.0,0.0,0.9353744355778437,0.8539189311893457,0.7438667813282162,1.1891576459292543,1.0491292647025467,,,0.6284777104787076,inf,,,0.9502109242000356
482,,0.0,0.0,1.0003860853108006,0.9251416322805863,0.7203954816193787,1.2923074569771311,0.9250144659172252,,,0.6447042257417027,inf,,,0.9135990223857784
483,,0.0,0.0,1.1189838593196593,1.0865657244817184,0.7096385437042877,1.9503241630814339,1.4601693222263148,,,0.6447042257417027,inf,,,0.9484557402727506
484,,0.0,0.0,0.7593411703893368,0.7103471146731266,0.6449078503799534,1.3174813818074986,2.0086502208298675,,,0.6528756675646988,inf,,,0.9418128664217118
485,,0.0,0.0,0.9922271422111261,0.9818693846673637,0.8361178781859074,1.4034015494187155,2.3351433259026084,,,0.6068309995095971,inf,,,0.9236367414668236
486,,0.0,0.0,0.9656726319381397,0.9368303629621875,0.7854544419097759,1.1177254075515577,1.6623334605805054,,,0.5641709578113449,inf,,,0.9358593297483409
487,,0.0,0.0,0.8602855022548263,0.8542447815369101,0.6804939122813984,0.8638680254214475,1.2060178068596037,,,0.6309483474627791,inf,,,0.9355491015873889
488,,0.0,0.0,0.8189481678990256,0.7579649624357374,0.6394630650949515,1.748116062293192,1.6850029077938995,,,0.6309483474627791,inf,,,0.9499793224728758
489,,0.0,0.0,1.1053757196662435,1.0987973657981924,0.6821742409532865,1.370351344091352,0.758018883366637,,,0.6652988471865258,inf,,,0.9383122194646133
490,,0.0,0.0,1.3194036121993333,1.317879096339485,0.8175378683430553,1.8223844212715665,1.5594451817290658,,,0.5978297680564633,inf,,,0.8910745343237471
491,,0.0,0.0,1.014252626678241,0.9680093209081022,0.6267163187331848,0.8006848076416159,0.7960245112951726,,,0.6207552362147116,inf,,,0.9286692535733628
492,,0.0,0.0,1.1524182397834217,1.143391147473054,0.8282935259188622,1.3589780097220279,1.46268771170453,,,0.648888643467878,inf,,,0.9498172581060549
493,,0.0,0.0,0.8577280295848652,0.7997254728538186,0.6163800474397801,1.2058949077042596,1.0295159425875615,,,0.663668482632973,inf,,,0.9502206111488422
494,,0.0,0.0,1.0707077172604327,1.0616772189002335,0.842583643191793,1.6669259197823698,1.294603149107846,,,0.6528756675646988,inf,,,0.9502498507857691
495,,0.0,0.0,0.8897276830855083,0.8477829777296486,0.7223501280110003,0.8907138127255971,1.0023266478877417,,,0.6233814453054027,inf,,,0.9500477331152404
496,,0.0,0.0,1.1182273813399533,1.0883587424166563,0.7293831155696223,1.2863021304549276,1.3542697361162548,,,0.663668482632973,inf,,,0.9325817186745844
497,,0.0,0.0,0.9019766779449326,0.8940425867917963,0.6271059952930726,1.0495964950783234,1.125285964929772,,,0.6668815377411301,inf,,,0.9128036852067223
498,,0.0,0.0,0.9189987176884543,0.8978232270933065,0.7160869053134374,1.0667299846956675,1.2785422310923358,,,0.6309483474627791,inf,,,0.9385176340490872
499,,0.0,0.0,0.9600894098219932,0.9372074213291975,0.5884802203362184,1.2723749041729435,1.217356165080026,,,0.6333676938231112,inf,,,0.8712420464185557
500,,0.0,0.0,1.0594517071363747,1.0167283157240252,0.7227606559443445,1.3805993136871508,1.1985592307572661,,,0.648888643467878,inf,,,0.8738331971968204
501,,0.0,0.0,0.8443051815675368,0.6849060917563105,0.6442507586351162,0.8996163822602151,0.521989855651366,,,0.6425374456860184,inf,,,0.9175100302042531
502,,0.0,0.0,1.1840544961266233,1.1308177697499031,0.7352776869508447,1.3578747180147588,0.8835990765954083,,,0.663668482632973,inf,,,0.9173214073422867
503,,0.0,0.0,1.2659326103877562,1.267147571222579,0.8086604073075492,1.3895836403120667,0.8871947155741013,,,0.6547956803312163,inf,,,0.9434700882302403
504,,0.0,0.0,1.2859430360529238,1.2577239237235862,0.8386493169608707,1.658725040647241,1.1372039806727408,,,0.6180765742263259,inf,,,0.943395208108802
505,,0.0,0.0,0.99729623591138,0.8853703827655389,0.5915288625914764,0.8075621962037405,0.7021939338993861,,,0.6509067234006624,inf,,,0.916717876013565
506,0.055482735879221486,-0.0005548273587922148,0.0,0.5706704207312443,0.5378187609875148,0.5705254335632706,1.1203296251625365,0.34031106065459427,,,0.6468212168108125,4.6576337555238325,inf,,0.6196406433009146
507,0.5100552071316387,-0.006800736095088515,0.0,0.9100426593043894,0.8615585632183775,0.6019550447910854,2.3280410563259295,1.5775512895959491,,,0.6357360191111145,4.562749470104139,inf,,0.6455909748872306
508,,0.0,0.0,1.4704722515239568,1.4726911128348297,0.8571990406150297,2.6611931287707655,1.9018991523908184,,,0.6233814453054027,inf,,,0.9187789987051027
509,0.01005033585350145,-3.3501119511671504e-05,0.0,1.3244110119289394,1.307940551292745,0.8343772340135466,2.28994114586754,1.3101966337836735,,,0.648888643467878,5.713832810509703,inf,,0.9430499224211151
510,0.0,0.0,0.0,1.1676080460846205,1.1358294092709817,0.8032080724808042,2.2402954566539353,1.59058778360242,,,0.6068309995095971,5.703782474656201,inf,,0.6925420008120056
511,,0.0,0.0,1.1552426725827925,1.0949256421051634,0.7478663498508029,2.141601413289046,2.077533852047129,,,0.6602640781246099,inf,,,0.9395446307119587
512,,0.0,0.0,1.0719444754201946,1.0474536634138112,0.7342196496454185,1.8853404916593632,1.7802409783449122,,,0.6153451465759925,inf,,,0.8853127700322473
513,0.0,0.0,0.0,0.5216473641247608,0.45616587938192243,0.4681648764071428,1.5956678478227384,1.3795913276925509,,,0.6684167106117298,5.703782474656201,inf,,0.6581300515329136
514,,0.0,0.0,1.276141158521292,1.2084672503328235,0.7585108505946836,1.5723380964802363,1.0575839595918226,,,0.6284777104787076,inf,,,0.948241527108495
515,,0.0,0.0,1.1699226478873332,1.1274867667150623,0.710910224975515,1.0021653795243763,1.2398225286824198,,,0.6125606311107803,inf,,,0.9307886758643951
516,,0.0,0.0,0.37184687076460343,0.318620634051329,0.5348803326564102,1.485220820266571,0.7341244283772668,,,0.6425374456860184,inf,,,0.8002067723308014
517,,0.0,0.0,0.8730924134781669,0.8592472183642418,0.7336348776529938,1.1373860430175908,0.7295067098498054,,,0.6509067234006624,inf,,,0.9476052669664724
518,,0.0,0.0,1.3422951947691668,1.3154759248803443,0.8315882045296894,1.3354071364859332,1.3414497792884796,,,0.5748741956352443,inf,,,0.947664499049616
519,,0.0,0.0,1.2751842328855334,1.2531501389016257,0.7249096417269068,1.2193635572168198,1.0824537101078802,,,0.663668482632973,inf,,,0.9169133179827418
520,,0.0,0.0,1.3340169515877678,1.3172113993187462,0.8269962440423206,1.7827334816100207,1.9560831567903234,,,0.6333676938231112,inf,,,0.9451709468591595
521,0.020202707317519466,-6.734235772506488e-05,0.0,0.7546754918736944,0.7193861021679123,0.2469435733646569,1.1586960821882897,0.8680553895373324,,,0.648888643467878,5.72398518197372,inf,,0.6832263275520845
522,,0.0,0.0,0.3194774867977862,0.26315858225755256,0.3605344218281543,1.6204269488925493,1.7319665376330833,,,0.6180765742263259,inf,,,0.9290973272406743
523,,0.0,0.0,0.9513235886114189,0.9203296677810076,0.6772122028843981,0.9466034887662772,0.7826218154980281,,,0.6207552362147116,inf,,,0.9035286954821558
524,,0.0,0.0,0.8550106629354937,0.8356829202295881,0.47560073503572275,0.6433765665268616,0.5205831415995584,,,0.6207552362147116,inf,,,0.9317367949684617
525,,0.0,0.0,0.8726179962372823,0.8493281939228359,0.5237607329908035,1.301655149815369,1.1921257367318934,,,0.6602640781246099,inf,,,0.9516218777911667
526,,0.0,0.0,0.6806827014728652,0.6297314118405866,0.6858876661080876,1.5631716660295338,1.4167635654901025,,,0.62595550513784,inf,,,0.9549128330881461
527,,0.0,0.0,1.0866840902837303,1.0407380997332294,0.6660236244780918,0.4903019252003012,0.3070864375648003,,,0.6309483474627791,inf,,,0.9085790344868784
528,,0.0,0.0,1.1877497546083884,1.1881132633248446,0.7111615679183898,0.8086652821252128,0.7066438805498537,,,0.6008849035917525,inf,,,0.9224399337319453
529,0.0,0.0,0.0,1.0408248406233973,1.008612972445654,0.6430827155952658,1.6132736499999336,0.8741331179192229,,,0.6233814453054027,5.0106352940962555,inf,,0.9440997867480205
530,,0.0,0.0,1.273163173961539,1.226847053873247,0.772702087421966,3.1172601375589917,1.923461355675899,,,0.6284777104787076,inf,,,0.9528589902517087
531,,0.0,0.0,0.9002160859783862,0.8559852091837895,0.5939253152766907,1.259576371234095,0.7991585595249486,,,0.6528756675646988,inf,,,0.9357120107958713
532,,0.0,0.0,0.6440175904682537,0.6012572432381577,0.47795441805825306,1.1852881976337848,0.8202559176593223,,,0.6425374456860184,inf,,,0.9268936834600284
533,,0.0,0.0,0.7605952209434754,0.7401419622507999,0.5278870080722178,1.4072637696743369,0.9800456816363674,,,0.62595550513784,inf,,,0.9441181376395917
534,,0.0,0.0,1.1969310696422448,1.1613227841712195,0.7832657307845563,1.9358529148737722,1.5526056729033044,,,0.6309483474627791,inf,,,0.9422518861176666
535,,0.0,0.0,1.1910859450197364,1.155651448183701,0.7968894156223715,2.0109335963644757,1.4248633874698124,,,0.6333676938231112,inf,,,0.9487030154957605
536,,0.0,0.0,0.7667430827251274,0.7158789052009689,0.6533272880618421,1.1944442056559337,0.7697015882712657,,,0.6068309995095971,inf,,,0.9390627273119994
537,,0.0,0.0,0.9411499886821495,0.8892092773620026,0.6472562223149358,1.5775165369292443,1.2962665113392937,,,0.6447042257417027,inf,,,0.9125485417348201
538,,0.0,0.0,1.0729461328455216,1.033135812287068,0.718154914238244,2.0803704943980823,1.5197235825886706,,,0.6528756675646988,inf,,,0.9364803470289418
539,,0.0,0.0,1.194534649925606,1.1435125749229895,0.7168484178835797,2.553714136392553,3.0505233113587638,,,0.6357360191111145,inf,,,0.9159664680408061
540,,0.0,0.0,1.135335756453462,1.0978883407408526,0.6740567154715184,2.192533734501173,2.4772918761722043,,,0.6602640781246099,inf,,,0.9449321843308143
541,,0.0,0.0,1.066485230087396,1.0280332183113041,0.7213354687024914,2.096163195720747,2.1707139714916464,,,0.6357360191111145,inf,,,0.8945604446980346
542,,0.0,0.0,1.111867708869418,1.1071278097758872,0.7205758821000094,1.8956305169193155,1.6422057987273775,,,0.6008849035917525,inf,,,0.9457638292582172
543,,0.0,0.0,0.8491383743205341,0.8411848610411671,0.7026037240937666,1.1002953242210851,1.6272217323248195,,,0.6713451011121618,inf,,,0.9337463081210942
544,,0.0,0.0,0.9435638565416156,0.8575871627302181,0.6240684679239709,1.4128900798156994,1.4578203196529025,,,0.6309483474627791,inf,,,0.9533294422816937
545,,0.0,0.0,1.3013413711683206,1.2944476597937298,0.8291610853011081,2.418360367587965,2.199901762991348,,,0.6509067234006624,inf,,,0.9481713681351133
546,,0.0,0.0,0.706433221296126,0.6968256254736541,0.7042655961191012,2.6127710694527795,3.3630295276322197,,,0.6547956803312163,inf,,,0.938890372658263
547,,0.0,0.0,0.9603508493436509,0.9308592137662413,0.6983624734281544,2.4551899183821986,2.7058237077409917,,,0.6425374456860184,inf,,,0.9500098076892075
548,,0.0,0.0,1.1451984687111187,1.0748747000710714,0.7805942907310629,2.041290293400301,2.3648861038216547,,,0.6652988471865258,inf,,,0.9219961750358153
549,,0.0,0.0,0.7584748936616902,0.6534405554779577,0.6425382662245969,1.1699938026201795,1.096564931706357,,,0.6619902821573977,inf,,,0.9105970418354923
550,,0.0,0.0,0.7790865017796391,0.6298201707370822,0.6165388481221393,1.0553703101811847,1.020572791945122,,,0.6566669596287297,inf,,,0.9495441202683673
551,2.3025850929940455,-0.007675283643313485,0.0,0.8094301170114125,0.6825443821608462,0.5281670557604085,1.564583675180759,1.3748755437323896,,,0.6153451465759925,8.006367567650246,inf,,0.5578877875689464
552,1.0685824104542785,-0.007123882736361857,0.0,0.6779052986722699,0.6100569550693314,0.6727329870375196,2.1640708129726205,2.558816161462527,,,0.6180765742263259,5.703782474656201,inf,,0.7195446549690555
553,,0.0,0.0,1.0481469337156593,0.9285558065313405,0.6506428081308442,1.5152338589903012,1.5283780511164253,,,0.6125606311107803,inf,,,0.8393080432893911
554,,0.0,0.0,0.6978836512705133,0.6538647762216738,0.5931695438607935,1.6636783111466054,1.871271100429002,,,0.6380535849069913,inf,,,0.9317746673977104
555,0.15610538830865078,-0.0015610538830865077,0.0,1.1183353434768029,1.0480444760034116,0.6624267033325357,2.2467903893723555,1.5970074054782821,,,0.6333676938231112,4.740608156883195,inf,,0.7815658323885031
556,0.9712911794813193,-0.006475274529875462,0.0,0.6274755110826269,0.5806300286971623,0.6129111566180047,2.3060764964280196,2.2500997967908516,,,0.6180765742263259,5.569834502146462,inf,,0.6574597134825574
557,,0.0,0.0,0.9204055144011829,0.8744975579826262,0.5695267768931901,1.3895257346723375,1.3025333212086674,,,0.6125606311107803,inf,,,0.858961221914916
558,0.0,0.0,0.0,1.3434133842364706,1.3306474072771624,0.8156437481937053,3.1777205724283424,3.7755915733224805,,,0.663668482632973,5.0106352940962555,inf,,0.9495413556863106
559,,0.0,0.0,0.8752137530716445,0.8586743559821753,0.7530447033558179,1.2949392670589355,1.2318731238110507,,,0.6153451465759925,inf,,,0.8957684492425175
560,,0.0,0.0,0.8519423319815416,0.8255758511428952,0.749829225357615,1.0063480641289584,0.9620250918712574,,,0.6068309995095971,inf,,,0.8355240709002533
561,0.0,0.0,0.0,1.1499755956821407,1.1050416533359027,0.7942480386066253,2.247101474437428,1.3950567277399486,,,0.6447042257417027,5.703782474656201,inf,,0.9436115721461679
562,,0.0,0.0,0.32743650467680574,0.20167213337305037,0.4422762863351415,0.2021193721466942,0.2491612197159676,,,0.6309483474627791,inf,,,0.9459605895908597
563,,0.0,0.0,0.4166587748622503,0.3091407418382267,0.5258072773199617,0.2809052850826261,0.29073155936330314,,,0.6284777104787076,inf,,,0.9486407454101483
564,,0.0,0.0,0.722381506608286,0.6923979141351728,0.6933568549333914,0.18217043175580824,0.3034451807656736,,,0.6008849035917525,inf,,,0.8509123710212426
565,,0.0,0.0,1.6205926904322212,1.5823687153347819,0.9411357055013699,0.1445231566972462,0.2880938399615584,,,0.6447042257417027,inf,,,0.7630818183729331
566,,0.0,0.0,1.3853349883119592,1.358440805950155,0.8694161280726981,0.246336180756084,0.4501402238795488,,,0.6333676938231112,inf,,,0.837088517249615
567,,0.0,0.0,1.7312191424205834,1.701267746574509,0.949702383524468,0.3059907775962044,0.5807274185934777,,,0.6207552362147116,inf,,,0.8087476291056489
568,,0.0,0.0,1.7036948840783697,1.687875571535512,0.9489673286540004,0.30478800795779815,0.5836167763613088,,,0.585052858160615,inf,,,0.7836742802947638
569,,0.0,0.0,1.5701324074691978,1.5549810272223334,0.9572616822391592,0.33017914182620045,0.6386819925036922,,,0.5677978065141052,inf,,,0.7984984138870638
570,,0.0,0.0,1.6662780618330362,1.662677698997317,0.9624761172876521,0.29210646360756237,0.5276836646005518,,,0.5883313578629602,inf,,,0.7877288520050696
571,,0.0,0.0,1.63571532247847,1.5821006196141165,0.9278059336677699,0.2288031699831184,0.37773479313889263,,,0.6180765742263259,inf,,,0.7766961342580487
572,,0.0,0.0,0.6274456554334958,0.5836054741130396,0.597945155527364,0.2918396146356395,0.3722455582050531,,,0.6380535849069913,inf,,,0.9121426061561779
573,,0.0,0.0,0.7461055711034312,0.7316338612028398,0.4338843948509654,0.06809669699734608,0.07820821781171314,,,0.6425374456860184,inf,,,0.9409431752206918
574,,0.0,0.0,1.4435109440219407,1.4218964644065577,0.8364929993839914,0.0327437688876993,0.06101620240324288,,,0.5978297680564633,inf,,,0.7868024948232111
575,,0.0,0.0,1.4671144789780226,1.4593342307856463,0.8276452102007913,0.0358370547012166,0.06631505872546707,,,0.62595550513784,inf,,,0.8042800785875575
576,,0.0,0.0,0.7415985010292807,0.6851748238545713,0.48481584363696967,0.3811852388374463,0.3102592655584564,,,0.6380535849069913,inf,,,0.9435472733059543
577,,0.0,0.0,0.5099936485496531,0.4370588227373394,0.5370388093514074,0.12032371911998639,0.15663759993936774,,,0.6207552362147116,inf,,,0.8938071774756355
578,,0.0,0.0,1.6221025711959374,1.6017420375338534,0.9270068238708186,0.1631235847337446,0.28189199422379363,,,0.6357360191111145,inf,,,0.7269260490635794
579,,0.0,0.0,1.3776077917556773,1.2298621963171437,0.8663159407857512,0.3129371815756119,0.44513061419551486,,,0.6125606311107803,inf,,,0.7644281938846901
580,,0.0,0.0,0.9900966953971551,0.9526152306605944,0.6735431749148425,0.7255823833369992,0.48680514093743943,,,0.6447042257417027,inf,,,0.8714644127028053
581,,0.0,0.0,0.913956889845885,0.8553847868766692,0.7291933211000738,0.2202217083328191,0.31972291700062117,,,0.6602640781246099,inf,,,0.793830306784796
582,,0.0,0.0,0.9532696928917628,0.853035577051359,0.6517646642961064,0.4731888905768968,0.4727708468814925,,,0.6447042257417027,inf,,,0.8804487985304811
583,,0.0,0.0,1.2837678768887204,1.2638827152465293,0.8035624446721753,0.1923344164208502,0.3406601706756461,,,0.5883313578629602,inf,,,0.7170705616475685
584,,0.0,0.0,1.1228416956983804,1.0100872849690754,0.7943646137894009,0.16990208863019698,0.23677580305900015,,,0.5713653840954815,inf,,,0.7768614916800003
585,,0.0,0.0,1.5813100887250098,1.5465791342640296,0.8932265604337101,0.060282092754536894,0.12494804820509062,,,0.6233814453054027,inf,,,0.7725292556098443
586,,0.0,0.0,1.6267081286897007,1.5789112497827398,0.9388103265584465,0.08496619039873575,0.16346139666971576,,,0.5783247308855777,inf,,,0.7398881043287012
587,,0.0,0.0,1.6905801381468064,1.6496669463859182,0.9508109602613234,0.08094113070422765,0.17933677365283068,,,0.5978297680564633,inf,,,0.7737711809684736
588,,0.0,0.0,1.6171996319455566,1.5681825407510541,0.9279130207320779,0.11931992750106371,0.24476266053576634,,,0.5978297680564633,inf,,,0.8063317569990252
589,,0.0,0.0,1.6450693428452194,1.6233623538866269,0.9538360347505731,0.09705330928274926,0.20448360590686004,,,0.5947193981915972,inf,,,0.7506322501014884
590,,0.0,0.0,1.7005296088551618,1.6907013796585149,0.9483025479482942,0.13547061947535025,0.2883555166360121,,,0.6153451465759925,inf,,,0.7924868883571791
591,,0.0,0.0,1.702631483687635,1.6775978891548178,0.9608057732097758,0.1287328960243066,0.2634865538497916,,,0.5947193981915972,inf,,,0.8102262016041117
592,,0.0,0.0,0.6245324229231165,0.4647667947592856,0.6372797693087294,0.4864283259348792,0.4395118209733989,,,0.6284777104787076,inf,,,0.9334015031968755
593,,0.0,0.0,0.5220770133514161,0.4912772769010774,0.7066423185277543,0.17307955820326162,0.19785307101571326,,,0.6038851895711802,inf,,,0.8820274094036177
594,,0.0,0.0,0.6607850765729064,0.550795166464069,0.4022302014215599,0.573939933294076,0.28314889923249276,,,0.6584896970785714,inf,,,0.8256376462815703
595,,0.0,0.0,0.7202037163159882,0.6679471384601167,0.6113779574155882,1.9026122941547,1.4236586786780299,,,0.6284777104787076,inf,,,0.8759371689294884
596,,0.0,0.0,1.4755399529312874,1.4533357030908443,0.8551144498526336,0.04451066074112264,0.07740119275400276,,,0.648888643467878,inf,,,0.7841418051468056
597,,0.0,0.0,1.4915960961576213,1.4456867187095106,0.8499880202533502,0.03394656320021873,0.06744858813551854,,,0.6425374456860184,inf,,,0.7804833580244178
598,,0.0,0.0,1.4624483438191171,1.4369492386532254,0.875659067021053,0.04181220374121941,0.08381499965874173,,,0.6153451465759925,inf,,,0.8002066933740181
599,,0.0,0.0,1.5589560331303478,1.5552696621348405,0.8728407162961608,0.04289851185613172,0.08685203833638422,,,0.6566669596287297,inf,,,0.8161784579576404
600,,0.0,0.0,1.5868314693893733,1.527837776593801,0.9045383243719117,0.042518107174438304,0.08368233704537295,,,0.6468212168108125,inf,,,0.8106743821501997
601,,0.0,0.0,1.4980942633739267,1.441417169886529,0.8936643120776053,0.04322652239634806,0.08619109814120127,,,0.6008849035917525,inf,,,0.8128990597712203
602,,0.0,0.0,1.630594689203543,1.574504431880444,0.9193529522130117,0.06048663235932576,0.12139324125561526,,,0.6125606311107803,inf,,,0.814723500483708
603,,0.0,0.0,1.6250956098504008,1.6176023793016134,0.9203527328995985,0.08063597198876965,0.1627442292556182,,,0.6068309995095971,inf,,,0.814804554673072
604,,0.0,0.0,1.4261295852548255,1.4116701638175837,0.8617521199290796,0.05611406261501664,0.09704771239455934,,,0.6207552362147116,inf,,,0.7710512679984632
605,,0.0,0.0,1.6678986939399882,1.619743664384218,0.9167072520755917,0.06278726164292302,0.11081782715977506,,,0.6425374456860184,inf,,,0.7976608413623247
606,,0.0,0.0,1.5709261385026985,1.5428177443088116,0.9158323456749609,0.07936170689301175,0.1594503727300881,,,0.6097226960127671,inf,,,0.8164030458004171
607,,0.0,0.0,0.3478684791444273,0.2942529525198432,0.40708935414474345,0.1845109304310408,0.17819261689887553,,,0.6125606311107803,inf,,,0.9192759059287694
608,,0.0,0.0,1.036361546980768,1.0066859591846753,0.8174117330933696,0.5304046801402647,0.4245380493204446,,,0.6584896970785714,inf,,,0.890935960710673
609,,0.0,0.0,1.0560551972689365,1.0124634337288902,0.8193615039534364,0.3189721604082768,0.37262391213888657,,,0.6233814453054027,inf,,,0.8113872997836731
610,,0.0,0.0,0.16280166969132603,0.12769177719939329,0.3869944695941682,0.5151332592784376,0.590008273852801,,,0.6425374456860184,inf,,,0.90040514588465
611,,0.0,0.0,0.7335039408554779,0.6765687828454824,0.6430010017712884,0.5257237192723333,0.7252992251525245,,,0.5783247308855777,inf,,,0.8486317892891458
612,,0.0,0.0,0.7915260978636013,0.7173391639882811,0.7237833556715811,0.7497458235708222,0.9502516434140001,,,0.6068309995095971,inf,,,0.8760861304272948
613,,0.0,0.0,0.8971031096269485,0.8867525708257211,0.6912294649630563,0.36791698670927797,0.4929101678079898,,,0.6619902821573977,inf,,,0.836605981148898
614,,0.0,0.0,0.8865287466917046,0.8603719585435443,0.5796234724545776,0.3688139987099497,0.4848154661716085,,,0.6425374456860184,inf,,,0.8701977113929209
615,,0.0,0.0,1.2082875777123014,1.182607147307862,0.8319338115248828,0.41774685782801974,0.6647799932944314,,,0.6403206450210053,inf,,,0.7706406693930927
616,,0.0,0.0,0.982906290113844,0.960760318502158,0.8629039021515837,0.43753446063841667,0.651580264482443,,,0.6333676938231112,inf,,,0.7108389080641697
617,,0.0,0.0,1.3038581903605764,1.2835773153036307,0.8039148610019313,2.0269843860600645,1.9235287020127148,,,0.6207552362147116,inf,,,0.9130441666526671
618,,0.0,0.0,1.3009130139113845,1.2382662399325837,0.8432443679174129,2.0156317368762595,1.5808824921368974,,,0.6357360191111145,inf,,,0.9271733211981308
619,,0.0,0.0,1.0179762898647673,0.9688508099384519,0.7390250155343118,1.7959714966880758,1.4904041369405483,,,0.6447042257417027,inf,,,0.9236168899530817
620,,0.0,0.0,1.3681291625617205,1.346985624481939,0.8364133038584634,1.5390256678601768,1.5514736046037336,,,0.6566669596287297,inf,,,0.9416536385361131
621,,0.0,0.0,1.150602051439277,1.1029728538698773,0.7351717710620629,1.3016470516945449,1.1050081635108766,,,0.6425374456860184,inf,,,0.9486916328613416
622,,0.0,0.0,0.9733691803052756,0.9311708485809604,0.7116007991362948,0.7395714431981092,0.9355589377010035,,,0.6566669596287297,inf,,,0.8465648185141593
623,,0.0,0.0,0.693077693081942,0.6664925801756286,0.6843425656923946,1.1514554350635964,1.102083159772923,,,0.5677978065141052,inf,,,0.9424311874709672
624,,0.0,0.0,0.8311690939298172,0.7909589823658744,0.6880635250553659,0.8494756654077886,0.9839473429466077,,,0.6309483474627791,inf,,,0.949205549154104
625,,0.0,0.0,0.9364432565816222,0.9125561014725747,0.6978228878665291,0.8621101143779075,1.093070602107555,,,0.6566669596287297,inf,,,0.9257909228491867
626,,0.0,0.0,1.130788514467246,1.087258970125874,0.7392443671515789,1.1159920915756396,1.1950490950888655,,,0.6866242695638369,inf,,,0.9364381496557318
627,,0.0,0.0,1.1042449203665166,1.06441600407084,0.7352157804366998,0.88765268029065,1.1518723136568279,,,0.6403206450210053,inf,,,0.9055637732942455
628,,0.0,0.0,0.8227453928189754,0.7653984477339524,0.5850283990553554,0.8201011193598533,0.866779644288131,,,0.6447042257417027,inf,,,0.90960169677746
629,,0.0,0.0,0.8706954367361988,0.8163439553194703,0.6410830263311971,0.6212559177232354,0.7962323426825305,,,0.6403206450210053,inf,,,0.917152076147677
630,,0.0,0.0,0.9624928285563312,0.9406544079295401,0.6809412214458624,0.8425416919089003,1.0168192658189628,,,0.6509067234006624,inf,,,0.9471825943028055
631,,0.0,0.0,1.12374678641375,1.0984563673649765,0.7622145801780346,0.5268483808142886,0.6472924376982614,,,0.6380535849069913,inf,,,0.944869403389965
632,,0.0,0.0,1.1446938362411334,1.1012334164557893,0.8447551259790945,0.5213247731808794,0.7186769217363265,,,0.62595550513784,inf,,,0.9308275480439858
633,,0.0,0.0,0.8704231453740302,0.7776217279613299,0.6701947051462046,0.738876694762171,0.7148866990870445,,,0.6284777104787076,inf,,,0.9438480639692308
634,,0.0,0.0,0.9603304102466773,0.930561580915648,0.6850844143784492,0.6085621389543087,0.6014851281471885,,,0.6468212168108125,inf,,,0.9481733831022248
635,,0.0,0.0,1.230691622567864,1.220741729817602,0.8365242798425048,0.5248051918949065,0.6739085593569902,,,0.6528756675646988,inf,,,0.9111485415551112
636,,0.0,0.0,0.9794152698506527,0.9447715452781328,0.6577447798050963,0.8769531796167609,0.751016291518335,,,0.6097226960127671,inf,,,0.9497106283847054
637,,0.0,0.0,0.7717979670008518,0.711904235751931,0.6892578289070146,0.6301347799632848,0.7536019047287634,,,0.6309483474627791,inf,,,0.9385856431335032
638,,0.0,0.0,0.7764269247252044,0.7275852015171257,0.5407240248848137,0.4688843362499275,0.5369336394475279,,,0.62595550513784,inf,,,0.7662708962022093
639,,0.0,0.0,1.151006697615422,1.1139003607060858,0.7543985672703865,0.520164689282841,0.6110791449223228,,,0.6125606311107803,inf,,,0.750937944734144
640,,0.0,0.0,0.7983912799239011,0.6441220893174822,0.6070032424717081,0.7902409044805031,0.7983122031492584,,,0.6380535849069913,inf,,,0.8957066925042968
641,,0.0,0.0,1.0948446186745036,1.080220096928205,0.7521810365848377,1.3782599583865112,1.326331777749619,,,0.6602640781246099,inf,,,0.9058523554080979
642,,0.0,0.0,0.106969059718312,0.07360195705366382,0.5072061667441877,1.1631183794031348,0.6105788704234723,,,0.6468212168108125,inf,,,0.6131086454720454
643,0.0,0.0,0.0,0.14054012242578456,0.11825815800625998,0.0924310224784173,1.149529348220349,0.6105210989444534,,,0.6153451465759925,5.703782474656201,inf,,0.6263987794195617
644,,0.0,0.0,0.8008773870910215,0.7761247385335267,0.49023792281541356,0.3379255434197347,0.36870763752606917,,,0.6153451465759925,inf,,,0.9373712855127716
645,,0.0,0.0,0.8422115093525615,0.7781052895091388,0.6776464484447278,0.5522170090054905,0.39579267183662004,,,0.6380535849069913,inf,,,0.941426398328714
646,,0.0,0.0,0.8641952334752905,0.8043622568844222,0.6094649459730352,0.5517389265318069,0.27986147634851166,,,0.6547956803312163,inf,,,0.9477640055421304
647,,0.0,0.0,1.0149160415612404,0.9812578549315405,0.6859337317914297,1.141110373612804,0.8679914831910047,,,0.663668482632973,inf,,,0.8621942854842319
648,,0.0,0.0,1.2430733643482021,1.2220077133357319,0.7964447514332744,1.2004041817346438,0.9452252754294743,,,0.648888643467878,inf,,,0.8626450769640653
649,,0.0,0.0,1.2005816442373554,1.1896572738261948,0.8199679117272237,1.4252350687935293,1.320210796163651,,,0.6309483474627791,inf,,,0.9499640619471634
650,,0.0,0.0,0.7907758135032028,0.7592151342460708,0.6227189995647925,1.2378114014104775,1.2201780639604562,,,0.6038851895711802,inf,,,0.9450238783232533
651,,0.0,0.0,0.6014173662807426,0.574341057287717,0.5715653636948603,1.0157058811572988,1.2362502078398407,,,0.6652988471865258,inf,,,0.5788801749072957
652,,0.0,0.0,0.22733628620625643,0.19751603545825927,0.584205187265415,1.0429552653098844,0.6160633752978608,,,0.6153451465759925,inf,,,0.8122584085943737
653,,0.0,0.0,0.7989673065663055,0.7136957059280855,0.665439825115595,0.7319396652422638,0.44948611037944297,,,0.6284777104787076,inf,,,0.9301298819327508
654,,0.0,0.0,1.2683277159143023,1.220371240102296,0.7588759053343761,1.4207660446502905,1.344442032224739,,,0.6284777104787076,inf,,,0.8482876319190924
655,0.20661424936299916,-0.0006887141645433306,0.0,0.4484082699949383,0.4148419759374776,0.389204399706768,1.3957001771206385,0.791535405013438,,,0.6333676938231112,5.910396724019201,inf,,0.6946865573436882
656,,0.0,0.0,0.39399895841261096,0.24885992198547863,0.24649313685065075,0.6059672942392715,0.4291446564006054,,,0.6425374456860184,inf,,,0.9517568488514379
657,,0.0,0.0,0.5820057037123676,0.5614526676739634,0.6043637629759213,0.24400264362534133,0.2560344172559288,,,0.6233814453054027,inf,,,0.9268260577029674
658,,0.0,0.0,0.2773878899566606,0.14234059168570434,0.3702900113814812,0.7160016309963234,0.44176144238673454,,,0.6566669596287297,inf,,,0.926701021245207
659,0.0,0.0,0.0,0.607954305240628,0.5129793551648612,0.41158149733110266,1.265611941610274,0.8835022042928959,2.0464464308314336,,0.6153451465759925,5.0106352940962555,0.6964860818254599,inf,0.6644113207044949
660,,0.0,0.0,0.9440989973254441,0.8959978904551716,0.7110133577788178,0.7905945343983914,0.7476810546827696,,,0.5915533975974677,inf,,,0.9405266357072988
661,,0.0,0.0,0.7097554571842611,0.6584205087579398,0.6473016607355611,0.5627464350736603,0.5913991563273869,,,0.6180765742263259,inf,,,0.9309272993888613
662,,0.0,0.0,0.5393072237347868,0.40689272438037327,0.36729546673888763,0.43201338369571113,0.36957304920841416,,,0.6125606311107803,inf,,,0.9502885884227122
663,,0.0,0.0,0.46863485616656414,0.4469647933138968,0.572190279657615,0.5805775519169588,0.5205660863641588,,,0.6068309995095971,inf,,,0.9366623040381985
664,,0.0,0.0,0.5571420739429765,0.49209969073621196,0.4451352195147951,1.291350691070229,0.977842495577125,,,0.6699045166045591,inf,,,0.9217760058237349
665,,0.0,0.0,1.0053295812470606,0.9854961664886164,0.7744854123550851,1.146692394119713,0.8724115308554781,,,0.648888643467878,inf,,,0.9448350987768132
666,,0.0,0.0,1.1469446750454204,1.1208228815230896,0.802725726837341,1.7513827130322774,0.8429364728848108,,,0.6509067234006624,inf,,,0.9477246068355514
667,,0.0,0.0,1.1463111889267026,1.126851221564262,0.7895988903653435,2.088787127695833,1.3095053762012125,,,0.648888643467878,inf,,,0.9486167297218683
668,,0.0,0.0,1.0265962692827066,0.981297763393006,0.6724374208700997,1.436162712029186,1.0695347605969099,,,0.6547956803312163,inf,,,0.940097142152799
669,,0.0,0.0,1.0871549335716189,1.0079541116626878,0.7407463210057516,0.7698834362158938,0.5562524204836109,,,0.6403206450210053,inf,,,0.9297392417200492
670,,0.0,0.0,1.0481470613998372,0.9995011569124251,0.6791238157177645,0.601268183340862,0.48940660169100003,,,0.6619902821573977,inf,,,0.9179894460187428
671,,0.0,0.0,1.0037433041316646,0.9544924513761257,0.6518669434778509,1.2818468117654076,1.8517609627533604,,,0.62595550513784,inf,,,0.9423003380206998
672,,0.0,0.0,1.7582372117964606,1.7163988509528219,0.9339670317414227,1.2920459474956563,2.2116189504363115,,,0.585052858160615,inf,,,0.8694578796385793
673,,0.0,0.0,0.8670874867933348,0.8315855697269797,0.6510312575629456,0.8325445897771355,0.9945702682179048,,,0.6309483474627791,inf,,,0.9111091847578815
674,1.3470736479666092,-0.00449024549322203,0.0,0.868440491364127,0.8131955464369007,0.4305907087932471,1.5810675039595097,1.1425036133892004,,,0.6357360191111145,7.05085612262281,inf,,0.6716052729348936
675,0.9739541416625119,-0.009739541416625119,0.0,0.42876768006226834,0.26730357757049283,0.2690447816678174,1.1921304555706966,0.8741950154572389,,,0.6380535849069913,5.054935552992836,inf,,0.5258266347558272
676,,0.0,0.0,0.7527180683577245,0.7174254094978746,0.6830195382583341,1.0148419297369788,0.6162963677263811,,,0.6357360191111145,inf,,,0.9328698542555736
677,0.0,0.0,0.0,0.8739431504611525,0.7734811346231006,0.6196557678624425,1.8233878545043418,0.9503949558442686,,,0.6584896970785714,5.703782474656201,inf,,0.5727739696811986
678,0.7129223359215503,-0.005240778087173948,-0.0018884452720415545,0.8917163181622191,0.8140506142340541,0.5691418908253985,1.9700425196787925,0.6205243224951362,1.1842472864024312,,0.6233814453054027,5.129043525146558,1.1427229871155828,inf,0.6977522595899789
679,,0.0,0.0,0.7125036562390648,0.6081669958777208,0.5450132593730468,1.3860993511385802,0.6999609587804516,,,0.6403206450210053,inf,,,0.9068784798404275
680,,0.0,0.0,0.5614036135604639,0.5438863769735366,0.5478013884955524,1.2094628821178084,0.7336762799068557,,,0.6584896970785714,inf,,,0.6637338017363513
681,0.0,0.0,0.0,0.8853175890625345,0.831415049581496,0.4688081621190928,1.6709080274164012,0.84499113346361,,,0.6602640781246099,5.703782474656201,inf,,0.6378653047792407
682,,0.0,0.0,0.347571611831547,0.3193487261566971,0.39823587006802813,1.3713365243939668,1.3244966209337994,,,0.648888643467878,inf,,,0.7572972661019581
683,,0.0,0.0,1.0315261119323413,0.984989455043617,0.7533956010579225,1.9049120594175901,1.000517865020811,,,0.5978297680564633,inf,,,0.8551234885946116
684,0.0,0.0,0.0,0.6481561275991197,0.4967859288953657,0.40522002686697944,1.8128872851021496,1.4101016670656479,,,0.6509067234006624,5.703782474656201,inf,,0.5594316116169379
685,,0.0,0.0,0.7025358118544908,0.6433991295532573,0.6705119076798607,1.3323426593624548,1.030919702597951,,,0.648888643467878,inf,,,0.9548750809512546
686,0.0,0.0,0.0,0.6451502507135564,0.6186215555282201,0.6611718382101996,2.3654388835258913,1.9598770263096457,,,0.6309483474627791,5.703782474656201,inf,,0.7060728794816482
687,0.08699982072735264,-0.0017399964145470529,0.0,0.4161638637117183,0.3772263781403916,0.4920118235157276,2.3955899278945934,1.8065053927824186,,,0.675384900321601,3.9822070622852506,inf,,0.5805796528679192
688,0.17030062669118579,-0.0022706750225491438,0.0,0.8040572739349215,0.7748995642420087,0.6703734119279273,1.6495226173145097,1.077472879165999,,,0.6425374456860184,4.472194503297292,inf,,0.9433367196854061
689,,0.0,0.0,0.894810008846397,0.8846316778349693,0.7438910285534717,1.9593153014356117,1.4883705525609583,,,0.6357360191111145,inf,,,0.9502308194821742
690,,0.0,0.0,1.2466076116319043,1.2522014767218679,0.7700864785148283,2.3766139583814696,1.5461963004649024,,,0.648888643467878,inf,,,0.9520888653569483
691,,0.0,0.0,1.1638945330534154,1.122892671716742,0.7963040711403899,2.1236746552876,1.4917744386720018,,,0.6380535849069913,inf,,,0.943707874367453
692,0.0,0.0,0.0,1.1495801492816946,1.108244666243136,0.7351387425886023,2.153271624125902,1.6075390608108169,,,0.6180765742263259,5.0106352940962555,inf,,0.9342030324681364
693,0.0,0.0,0.0,1.2297585051495075,1.210764589232242,0.8272263236835449,2.477056010800407,1.2963036501079839,,,0.6468212168108125,5.703782474656201,inf,,0.9324863802328379
694,,0.0,0.0,0.9347371317141754,0.9025834784415219,0.7678444245247225,1.094244232587309,1.0633320338768864,,,0.6284777104787076,inf,,,0.951547517948357
695,,0.0,0.0,0.23961561702026368,0.14334042696913168,0.29225087003131855,0.6857622632561071,0.5554186014943056,,,0.6357360191111145,inf,,,0.6997253087620093
696,,0.0,0.0,0.731419711037339,0.7107587448791756,0.5401142145393606,0.7320827498389951,0.6916878455721124,,,0.6566669596287297,inf,,,0.9242751857961129
697,,0.0,0.0,1.2425258071680323,1.171111187907581,0.7595635813923807,1.853617773450048,1.2648736353767447,,,0.6699045166045591,inf,,,0.9513893634926854
698,0.0,0.0,0.0,0.3507391690211783,0.2849360622830255,0.373387303484396,1.8576190426595338,1.8639301032142124,,,0.6357360191111145,5.703782474656201,inf,,0.6208465378192027
699,,0.0,0.0,0.8005373220409273,0.7365614803033512,0.611314945440708,1.2462038767819346,1.0941863898343802,,,0.6547956803312163,inf,,,0.9133881482325866
700,,0.0,0.0,0.7643142801320456,0.7493840199095593,0.6265824887235367,0.6978014785382977,0.7110372328093034,,,0.581717464821069,inf,,,0.8754419956392598
701,,0.0,0.0,0.7447518004244771,0.6861160357327689,0.4495523589898241,0.7257291257001683,0.5636991253812836,,,0.6284777104787076,inf,,,0.9527802813793054
702,,0.0,0.0,1.0494242774304272,1.0138625545311624,0.683573060090666,1.0866872300411468,0.8030909806966497,,,0.6097226960127671,inf,,,0.9370372506255035
703,,0.0,0.0,0.8008545152300655,0.5759887558076612,0.5564517826000361,0.861859824245503,0.6334210972403708,,,0.6233814453054027,inf,,,0.9062193124258264
704,,0.0,0.0,0.9298840359253192,0.9171973399025113,0.6350233231228923,2.1236108692885116,1.6829433120492965,,,0.6233814453054027,inf,,,0.9390183307475979
705,,0.0,0.0,0.7088504671550834,0.6586100725138775,0.35876192732741735,1.5585052315391514,1.404948589208109,,,0.62595550513784,inf,,,0.5169839298857447
706,,0.0,0.0,1.1318010956231765,1.1031071468303033,0.807193633911966,0.7798748589784015,0.7398637165233395,,,0.6038851895711802,inf,,,0.92970994590601
707,,0.0,0.0,0.9576530586827254,0.8997028411561795,0.6115823168435449,0.9690386409492836,0.8571600276059547,,,0.6528756675646988,inf,,,0.9485598010680076
708,,0.0,0.0,0.8842224413122918,0.814915112446866,0.6658345645019094,1.267468750672624,0.6431688432412328,,,0.6333676938231112,inf,,,0.9488771171582079
709,,0.0,0.0,0.7864926403983696,0.7658328891673541,0.6179844101753335,2.587601607522975,2.360476115620308,,,0.6509067234006624,inf,,,0.5989824535137537
710,,0.0,0.0,0.9224107987909407,0.8588902173240504,0.7635691617187378,2.149784652147126,2.4464023607026353,,,0.6357360191111145,inf,,,0.9343873534968842
711,,0.0,0.0,1.2929984654453466,1.2720720794769704,0.884052860633689,2.3100732413567404,2.2571912361270354,,,0.6309483474627791,inf,,,0.9415772353780697
712,0.33314444652853825,-0.0011104814884284608,0.0,0.8203345385754286,0.7956285592119244,0.5270281370236742,1.8914153933758808,1.4129082567708462,,,0.6566669596287297,6.036926921184739,inf,,0.8009862659366588
713,,0.0,0.0,1.2017756312686318,1.1622157845869032,0.8631993608790419,1.9886880109371945,1.8636368718751055,,,0.6068309995095971,inf,,,0.9466626980650639
714,,0.0,0.0,0.54892251580751,0.5227017812452965,0.6069337732596704,1.965718535894684,1.6269641944485975,,,0.6068309995095971,inf,,,0.642703733415671
715,,0.0,0.0,0.8588432311696461,0.8235910842174037,0.627626360233801,2.3958124106467213,1.699247752934375,,,0.6668815377411301,inf,,,0.8014973251611811
716,,0.0,0.0,1.2751706537826133,1.2403889545365872,0.8346486845912647,2.2822476330158152,1.9132433199390073,,,0.6668815377411301,inf,,,0.9025216506423224
717,,0.0,0.0,1.057321379444801,1.012282228359077,0.7318189121151837,1.6152181997391266,1.0108917474625523,,,0.6357360191111145,inf,,,0.9242351428455958
718,1.3862943611198906,-0.0046209812037329686,0.0,0.6451913324938727,0.6012775839788475,0.594459966634667,1.311755541112872,1.087648031071436,,,0.6447042257417027,7.090076835776092,inf,,0.9459276436516473
719,,0.0,0.0,0.41829817968390687,0.3667587239179189,0.525679456586981,0.6021582019446781,0.7611409160328875,,,0.6125606311107803,inf,,,0.9332374669724013
720,,0.0,0.0,0.9913394658437334,0.9891898516598432,0.6859922198568122,0.606264647442767,0.9052498940109104,,,0.6357360191111145,inf,,,0.8765419011349312
721,,0.0,0.0,0.5889411940245026,0.5284122221137846,0.6711571866188728,0.5440822132785221,0.5647738214419665,,,0.5883313578629602,inf,,,0.924701060196711
722,,0.0,0.0,1.2052393882457735,1.1513011683952536,0.8550061652496049,0.4637590052465504,0.6416899788320323,,,0.581717464821069,inf,,,0.8692330884923409
723,,0.0,0.0,0.8206509024955536,0.7759853495923442,0.6287070357497513,0.49813611585323514,0.7590657372605629,,,0.6357360191111145,inf,,,0.8627836704400721
724,,0.0,0.0,1.5816447519060968,1.5748379332969713,0.9511283909262631,0.5638462209086023,0.8521410600049959,,,0.5713653840954815,inf,,,0.8031385735885407
725,,0.0,0.0,1.581985851833991,1.55374270338799,0.9529340006925079,0.5000436339002035,0.7498854442455118,,,0.6509067234006624,inf,,,0.8313577597890197
726,,0.0,0.0,1.568167434191592,1.5413832193879744,0.9515782426267938,0.5364307114033648,0.8144292354780225,,,0.6125606311107803,inf,,,0.8190392738605857
727,,0.0,0.0,1.6559516283860989,1.6248131205983003,0.9611391020191543,0.6481574561330714,1.062281426704299,,,0.6038851895711802,inf,,,0.8010164795825186
728,,0.0,0.0,1.6554310838720174,1.6389507601519995,0.967823142030524,0.7642165853448311,1.2982136250415506,,,0.6125606311107803,inf,,,0.8220641679195586
729,,0.0,0.0,1.6224536752058623,1.5968069990461895,0.9665661551632,0.7797214753598994,1.378280873810263,,,0.6309483474627791,inf,,,0.7635885977650837
730,,0.0,0.0,0.5342523539436336,0.49982392659317776,0.5423993007114833,0.8871793253497496,1.4833757377017904,,,0.6380535849069913,inf,,,0.8959717735976859
731,,0.0,0.0,1.1849651230837022,1.11509435841805,0.731543229484708,1.071481315842026,1.1489829404109304,,,0.6528756675646988,inf,,,0.8816045781285708
732,,0.0,0.0,1.4047509603260369,1.3798401923322186,0.8890898721867082,0.3192575347862317,0.44911603076132506,,,0.5748741956352443,inf,,,0.7922718233010413
733,,0.0,0.0,1.300024261588413,1.2815160368736016,0.9130484900883655,0.377802612654106,0.464578941028749,,,0.6125606311107803,inf,,,0.7978924649465711
734,,0.0,0.0,1.301262500804254,1.257606370326641,0.8361890568448325,0.46284464664775243,0.6041966382147501,,,0.6333676938231112,inf,,,0.8267644410932451
735,,0.0,0.0,1.5077427385234212,1.5063883549088863,0.9619762601938829,0.44884374893779433,0.6932569063208565,,,0.5713653840954815,inf,,,0.8231602280731133
736,,0.0,0.0,0.9452852899752368,0.9021484067398656,0.7919054717005549,0.7060787708927312,0.8410571727515823,,,0.6097226960127671,inf,,,0.9273402583362885
737,,0.0,0.0,1.4452241768757434,1.4151034947171404,0.8684313704231096,0.5485810659395913,0.8082635472765046,,,0.6207552362147116,inf,,,0.7827708749280453
738,,0.0,0.0,1.652059967303972,1.5575423876916346,0.9540203641027913,0.7980336641068538,1.0917253632787185,,,0.6038851895711802,inf,,,0.7890717540602152
739,,0.0,0.0,1.1547272308311176,1.1259548750718964,0.8186825831528673,0.5439860871983936,0.5124354203912208,,,0.5748741956352443,inf,,,0.8648918848839046
740,,0.0,0.0,1.5857075666225204,1.5530399494571474,0.9381845049799195,0.4125580774699646,0.6908688321299736,,,0.5947193981915972,inf,,,0.8244890969806873
741,,0.0,0.0,1.7285061449791517,1.710707228569801,0.9497198877554451,0.4826754150864737,0.9480684368189343,,,0.5883313578629602,inf,,,0.7928368545464733
742,,0.0,0.0,1.7546417699085048,1.7208759854304827,0.9710743351936956,0.49955180952616784,0.9409310149448414,,,0.5978297680564633,inf,,,0.7807680065620071
743,,0.0,0.0,1.6873797153008816,1.6561880473773007,0.9646060901850149,0.4100679746049625,0.7731940862870268,,,0.585052858160615,inf,,,0.8008116537586192
744,,0.0,0.0,0.5210002576285282,0.4869447218155433,0.535848151017726,0.48735936478395275,0.7130287496082244,,,0.6153451465759925,inf,,,0.9058616807767622
745,,0.0,0.0,1.599520232759148,1.554866559592666,0.889136885573379,0.11298877149728843,0.2070154715893608,,,0.6566669596287297,inf,,,0.7628774932309583
746,,0.0,0.0,1.5428105733302104,1.5052922076033435,0.9249632015754664,0.14617355571607835,0.24101994201018204,,,0.6125606311107803,inf,,,0.7824344647323744
747,,0.0,0.0,0.650738356736619,0.5514302893326456,0.6273591812409494,0.49627263438968455,0.446777301020922,,,0.6008849035917525,inf,,,0.9293728380511975
748,,0.0,0.0,0.9161072228619981,0.8710551589415318,0.6315767674824411,0.2894914565598719,0.38874186076683087,,,0.6284777104787076,inf,,,0.8670835506289417
749,,0.0,0.0,1.4330761997807246,1.3581032388567118,0.889188409829623,0.1697623299713664,0.28375580595041666,,,0.5883313578629602,inf,,,0.8039538915625647
750,,0.0,0.0,0.5095096583859747,0.4526714392309706,0.5829152768734772,0.38924443129534375,0.49957365828930306,,,0.5978297680564633,inf,,,0.9036324353885649
751,,0.0,0.0,1.6823623580847553,1.6200393243707647,0.9416276693068064,0.5565775604138185,0.8662724703609135,,,0.5677978065141052,inf,,,0.8266055407716665
752,,0.0,0.0,0.17118885779824036,0.14732435723811055,0.40409061219536246,0.43417098803880433,0.5753731890420172,,,0.5915533975974677,inf,,,0.9463785800960586
753,,0.0,0.0,1.7007408179946908,1.6426851092548482,0.9621444042349375,0.30061477604569237,0.5913720847280977,,,0.6125606311107803,inf,,,0.7830213033217125
754,,0.0,0.0,1.7060749486963342,1.67981878417312,0.932618694678137,0.28554763457492194,0.5466336822842868,,,0.5567373465730988,inf,,,0.8151042764979708
755,,0.0,0.0,1.652088808525427,1.6436459700403838,0.9433868847029597,0.3710901428104381,0.7225917866984981,,,0.6008849035917525,inf,,,0.8080761947950319
756,,0.0,0.0,1.6735591162334724,1.636210457243271,0.9432723642808939,0.46160953989796627,0.8595753705615936,,,0.5604843169999094,inf,,,0.8001034300906436
757,,0.0,0.0,0.6729232740629085,0.6495686574792887,0.572691892155566,0.6727643968839389,1.053342217499802,,,0.6153451465759925,inf,,,0.9114343164195108
758,,0.0,0.0,0.7009065421036635,0.6725752843671946,0.47553487836879466,0.36556293218244845,0.43567471836385735,,,0.5783247308855777,inf,,,0.9344682387584337
759,,0.0,0.0,0.4663922904771132,0.4321939579377279,0.5223506648037989,0.21614526927474956,0.2334168959423079,,,0.6153451465759925,inf,,,0.8319048937326161
760,,0.0,0.0,0.788044391462206,0.7480368713712937,0.7218089468339866,0.07645080242320508,0.13058802040026385,,,0.62595550513784,inf,,,0.9004029444164502
