,temp+bvp_XAp0,temp+bvp_XAp1,temp+bvp_XAp2,temp+bvp_XCond1,temp+bvp_XCond2,temp+bvp_XDist,temp+bvp_XFuzz1,temp+bvp_XFuzz2,temp+bvp_XK2_1,temp+bvp_XK2_2,temp+bvp_XPermEn,temp+bvp_XSamp0,temp+bvp_XSamp1,temp+bvp_XSamp2,temp+bvp_XSpec
0,,0.0,0.0,0.8221072888067821,0.7567550968087202,0.5453334959028974,1.2809629965142326,1.3824664083371077,,,0.6403206450210053,inf,,,0.9057849633220625
1,,0.0,0.0,1.082323670227571,1.0680289085140608,0.7462398273885575,2.249527757908113,3.0256073650728275,,,0.648888643467878,inf,,,0.9187575502216149
2,,0.0,0.0,0.7366630067745461,0.6793403542848859,0.8037391102640992,2.338605793695223,2.5536882357067294,,,0.6566669596287297,inf,,,0.9112189226671426
3,,0.0,0.0,0.3441494199558571,0.3067968040748132,0.4658569145409132,1.830912810148464,2.2255324843295545,,,0.6207552362147116,inf,,,0.947805740900693
4,0.63986428024598,-0.0063986428024597995,0.0,1.2661560528144296,1.2202941630362318,0.7758634408562087,2.7897455764514625,2.511445919467402,,,0.6357360191111145,4.939866223208049,inf,,0.895283757409922
5,0.0,0.0,0.0,0.9004764894440207,0.8482026467664038,0.6109460413852363,2.441520349369058,2.492547485670927,,,0.663668482632973,4.31748811353631,inf,,0.8513886738006048
6,,0.0,0.0,0.37805483866249,0.3449885872867742,0.5862851880211825,2.5244876493538446,5.784734644501903,,,0.6447042257417027,inf,,,0.7268730492145042
7,,0.0,0.0,0.4678866052523524,0.44452384492975444,0.40121866924348204,2.012579601680029,4.1601128882821214,,,0.6097226960127671,inf,,,0.9167275504734501
8,,0.0,0.0,0.28550353201875855,0.2074072182577184,0.43079386519889384,2.2205387707943336,3.4993678809113584,,,0.6038851895711802,inf,,,0.7873258261924412
9,0.0,0.0,0.0,0.7476271185917834,0.7057755025129606,0.5318993729456514,1.708522390064176,1.7135363007093054,,,0.5915533975974677,5.703782474656201,inf,,0.79132061373388
10,0.17832953552441716,-0.0005944317850813905,0.0,0.46638152025186014,0.41097113566492216,0.46844597814138866,1.8228580283291909,2.314129621938897,,,0.5748741956352443,5.882112010180618,inf,,0.6757140001934983
11,,0.0,0.0,0.7607714307820853,0.7596587555759533,0.7375627449485536,1.8790707647855485,2.0283807743205378,,,0.6333676938231112,inf,,,0.9459593212389118
12,,0.0,0.0,0.2400665695721527,0.16617720995003238,0.3925760537137946,1.2798929839675757,1.6078688507749277,,,0.62595550513784,inf,,,0.7179872857978964
13,,0.0,0.0,1.6551191991233989,1.6408877729267692,0.9695928182633614,0.5073872360092884,0.9859960969820023,,,0.6180765742263259,inf,,,0.8927788568417963
14,,0.0,0.0,1.684149132682251,1.6529635244320318,0.960670244232392,0.26369237594425743,0.49653006701087765,,,0.6097226960127671,inf,,,0.8696651290760894
15,,0.0,0.0,1.5856606446196913,1.55671333253449,0.9271603800777806,0.3003484051911832,0.6102747610644483,,,0.6233814453054027,inf,,,0.8573012045256241
16,,0.0,0.0,1.3618025161274208,1.3413523426389566,0.8126446304287369,0.48556511345875975,0.903988403679745,,,0.6233814453054027,inf,,,0.8169787992370462
17,,0.0,0.0,0.9425710392196327,0.9127361087948775,0.5884850942150562,0.4012434442798751,0.7014018119781923,,,0.6008849035917525,inf,,,0.8594115543092233
18,,0.0,0.0,1.7826083952350287,1.7630707012940654,0.9510193422127291,0.9508354900670155,1.9172358744156583,,,0.6207552362147116,inf,,,0.8868043776174827
19,,0.0,0.0,1.7772070420440254,1.748125830534082,0.9388289764572484,0.963710818700778,1.7790044025714051,,,0.6233814453054027,inf,,,0.9020366741875143
20,,0.0,0.0,1.7712469489903786,1.7507487504396038,0.9600056097804847,1.0525755057262935,1.7420877403529074,,,0.6357360191111145,inf,,,0.8953635641162249
21,,0.0,0.0,1.7848571630632422,1.7550286608994126,0.9558157000452256,1.1670440135600029,2.6139657711023236,,,0.6668815377411301,inf,,,0.8828438153239946
22,,0.0,0.0,1.7811504219383103,1.7560424383122968,0.9362099420929976,1.29006967035123,3.014968987422186,,,0.6509067234006624,inf,,,0.8711614837879835
23,,0.0,0.0,1.7857612274674888,1.7592513147813438,0.9280693389313706,1.5301507877974843,2.253937828748666,,,0.6509067234006624,inf,,,0.8510840504169607
24,,0.0,0.0,0.15530386776307528,0.10786241092824965,0.3202895345114057,1.3352908097251541,1.3118643693431442,,,0.6822068148872973,inf,,,0.658523046977613
25,,0.0,0.0,1.541641785840947,1.5355706962440547,0.8504670122674042,1.2130957332163421,1.0850807580886206,,,0.6468212168108125,inf,,,0.9202733975765194
26,,0.0,0.0,0.3685773936172741,0.2896872124953017,0.30661037731769564,1.6280776329862907,1.19122931566171,,,0.6207552362147116,inf,,,0.6513345537926516
27,,0.0,0.0,1.591347001648388,1.560318241559043,0.8646842294187602,2.109807134980367,2.1069245477318885,,,0.6207552362147116,inf,,,0.9114419152048504
28,,0.0,0.0,1.7586246625449085,1.7386583021424866,0.904174929660911,2.1322081624197886,2.365983655235163,,,0.6207552362147116,inf,,,0.9119722526552075
29,,0.0,0.0,1.7678136582634283,1.727530773579585,0.9221806039805319,2.102101612486699,2.9887711641298718,,,0.6602640781246099,inf,,,0.9261716307996607
30,,0.0,0.0,1.7161364693660954,1.6940057459119702,0.9514979218438506,2.1554341013611835,2.57042540533506,,,0.6668815377411301,inf,,,0.9288824498338627
31,,0.0,0.0,0.5211847214041972,0.49058330073858664,0.4701948096727031,1.3828518609884821,1.189645672591645,,,0.6207552362147116,inf,,,0.9294409839236621
32,,0.0,0.0,1.239138143064194,1.2203718598676305,0.8104371997652969,0.9070693956075001,1.0529456220538669,,,0.585052858160615,inf,,,0.9049456011229482
33,,0.0,0.0,0.5430403416653675,0.4965858408520143,0.37782340754427235,1.0213720286750103,0.9671485698150832,,,0.6233814453054027,inf,,,0.9445727021742638
34,,0.0,0.0,0.4933032317730968,0.4486558014157468,0.4428071801434786,2.424101467211291,1.8034812283933381,,,0.6468212168108125,inf,,,0.9510386596536983
35,0.0,0.0,0.0,0.7085071705831156,0.6893815461926992,0.4496376910269278,1.4822220319900672,2.17488681605837,,,0.5713653840954815,5.703782474656201,inf,,0.9379502568623697
36,,0.0,0.0,1.7426246551440188,1.7117073064190649,0.9691188185647358,1.6488876049523655,2.3286237957069194,,,0.6008849035917525,inf,,,0.8898682882374623
37,,0.0,0.0,1.7625296122538245,1.7436064973303114,0.9741989942172393,1.9231670382229649,2.64178121844676,,,0.6425374456860184,inf,,,0.9065977075306785
38,,0.0,0.0,1.7774393644808368,1.7546619211441774,0.970263664043156,2.095710632267225,2.4603855411021565,,,0.6008849035917525,inf,,,0.8830580832925101
39,0.0,0.0,0.0,0.2828141130530993,0.22752599228552176,0.3032700166209131,0.8082985857925128,0.3513340784253379,,,0.6425374456860184,5.703782474656201,inf,,0.9496396111227948
40,,0.0,0.0,1.6874682684877786,1.6179988749897694,0.9544427943574368,0.2173618241296656,0.39783963766241653,,,0.6207552362147116,inf,,,0.891604460006939
41,,0.0,0.0,1.7607222660476736,1.6636398072326333,0.9215477946863236,0.6835543872431126,0.6634360896384683,,,0.6447042257417027,inf,,,0.8984753319647124
42,,0.0,0.0,1.7900002255238388,1.7806388538462414,0.9242826605572517,0.8193991452794775,1.3142351295507373,,,0.6652988471865258,inf,,,0.8996256351671111
43,,0.0,0.0,1.780740410231783,1.7515408006244426,0.9405557656070445,0.7448930349723523,1.2053304085008136,,,0.6468212168108125,inf,,,0.8840566017261536
44,,0.0,0.0,1.324450932422475,1.3121697237605638,0.8547891749986476,0.40759692111268725,0.5496692129742946,,,0.6068309995095971,inf,,,0.9380560674026922
45,,0.0,0.0,1.7866260334405677,1.7604851508923545,0.9355778636547655,0.4866434914701641,0.7938193922010275,,,0.6468212168108125,inf,,,0.8700203878979256
46,,0.0,0.0,0.23810219477118838,0.19519845255642476,0.12951902015650832,0.39926034214558115,0.46745355246456405,,,0.6207552362147116,inf,,,0.9625599139231414
47,,0.0,0.0,1.6136988977508722,1.5958417414750414,0.8426344326216721,0.37094650208393987,0.422317874550316,,,0.6509067234006624,inf,,,0.8954044483392841
48,,0.0,0.0,0.18508749434778257,0.14714322162926766,0.16947784027721213,0.810692642911626,0.8113025407395674,,,0.6528756675646988,inf,,,0.9369501896215874
49,,0.0,0.0,1.7745182666179762,1.7946775602464964,0.9347807548440803,1.0119507786957636,0.9021315920856479,,,0.6284777104787076,inf,,,0.8617640278653409
50,,0.0,0.0,1.76276961603644,1.7184795527906855,0.9508706752855527,0.6256096876748899,0.9141047958391813,,,0.62595550513784,inf,,,0.9134986470167886
51,,0.0,0.0,0.15530386776307525,0.07669982891149223,0.38761170909351655,0.8507772170919575,1.0394505078469423,,,0.5915533975974677,inf,,,0.9482700929936901
52,,0.0,0.0,1.782753442157656,1.763169282184465,0.8701988946973351,1.4470952882136192,1.6481181685433919,,,0.6778444222523095,inf,,,0.8666393554806693
53,,0.0,0.0,1.786515269726256,1.751191936927697,0.9336434283566262,1.2714152857437713,1.9689214606752141,,,0.6547956803312163,inf,,,0.8959576610752163
54,,0.0,0.0,0.3782133637254023,0.33809421493014385,0.549668530891398,1.3132739761618575,1.1074080585736978,,,0.6509067234006624,inf,,,0.955882745378467
55,,0.0,0.0,1.7756562211847688,1.741726261997665,0.9490913994684617,1.8016145087676867,2.6910472014749054,,,0.6566669596287297,inf,,,0.9152365342831855
56,,0.0,0.0,0.39535130103941407,0.3548663700482432,0.43991273085544563,1.3520438930570624,1.0233970343554908,,,0.6008849035917525,inf,,,0.9484323576785052
57,,0.0,0.0,1.6898573506052708,1.685532116973354,0.9375437409668833,0.1388790433254152,0.2773126737887581,,,0.6357360191111145,inf,,,0.9016522867607294
58,,0.0,0.0,0.7273445384488472,0.7046765195985529,0.5327648257372356,0.11353633323506987,0.21153650231241874,,,0.6068309995095971,inf,,,0.7948807006731294
59,,0.0,0.0,0.18880655353635273,0.1192144975925654,0.19684955952857,0.14926973813535968,0.20934402851264702,,,0.6125606311107803,inf,,,0.9071640055804117
60,,0.0,0.0,1.7629866043765179,1.7186779305194608,0.9558406901009742,0.21803178582680974,0.47780314445015126,,,0.5748741956352443,inf,,,0.8768561012406122
61,,0.0,0.0,1.7639799874420454,1.7295690397050199,0.9458048069578942,0.28417957207887323,0.6358649213187537,,,0.62595550513784,inf,,,0.8663140356664986
62,,0.0,0.0,1.7704490810073157,1.7299865313557437,0.9431432252869063,0.378776616189323,0.8515209220800398,,,0.6207552362147116,inf,,,0.8180764066144143
63,,0.0,0.0,0.5913967943086064,0.5616916859965057,0.30431187797491266,0.3973183249956905,0.6568649407685762,,,0.5947193981915972,inf,,,0.9675031469697059
64,,0.0,0.0,0.5173404436157826,0.4728574335122042,0.6120595338585402,0.46295843016937016,0.624743417504823,,,0.6447042257417027,inf,,,0.9408597461250731
65,,0.0,0.0,1.7417871532045393,1.6936554732079412,0.9789149267240996,0.49540087428991586,0.8169610044942031,,,0.5677978065141052,inf,,,0.8671570270928771
66,,0.0,0.0,0.08467349851939517,0.06533742969971128,0.32768252743012943,0.2563164566372606,0.33017254736023166,,,0.585052858160615,inf,,,0.9598574585436619
67,,0.0,0.0,1.7033646072984912,1.666880677101287,0.9278332595197246,0.08298796580264796,0.18215397510490394,,,0.5748741956352443,inf,,,0.8675358062746303
68,,0.0,0.0,1.5505839781862052,1.549840188214286,0.9185790248393186,0.14424623047054028,0.2929013963765287,,,0.5883313578629602,inf,,,0.8795395050423971
69,,0.0,0.0,1.766622520307703,1.72493220691567,0.9575203216455449,0.2512897808112096,0.5109884313392097,,,0.6068309995095971,inf,,,0.8913019074716954
70,,0.0,0.0,1.771051132645792,1.7400702646383035,0.9314814129992977,0.2739326361548771,0.5802079564475779,,,0.6038851895711802,inf,,,0.8616118626995682
71,,0.0,0.0,1.0322889365010788,1.0022098961635824,0.724868918609008,0.3178309979308693,0.6454717688348675,,,0.6233814453054027,inf,,,0.9055060128956859
72,,0.0,0.0,0.41383175975687725,0.3544019896183278,0.38044125120665623,0.41989517958422656,0.4906136775633176,,,0.6380535849069913,inf,,,0.9543816189728378
73,,0.0,0.0,0.19517169521930086,0.14534859705863853,0.4229211631886701,0.3630268947549177,0.4785210539669383,,,0.552929491858785,inf,,,0.9495333822047479
74,,0.0,0.0,1.6061996776924896,1.5803579420542473,0.899669831817556,0.6658194177009252,1.2062692794580867,,,0.6584896970785714,inf,,,0.8900277641009693
75,,0.0,0.0,0.7548981803481469,0.7223632722100689,0.4167096542547685,0.46101933077779866,0.621315332569405,,,0.6097226960127671,inf,,,0.9519918291981243
76,,0.0,0.0,0.19804851594381867,0.16015507228479448,0.284397290537865,0.28975154984875257,0.34798068751804956,,,0.585052858160615,inf,,,0.9612714329389811
77,,0.0,0.0,1.7148172954348908,1.6607849292308299,0.9504339525677955,0.34902873437411275,0.6030454377772367,,,0.5783247308855777,inf,,,0.8527698059183793
78,,0.0,0.0,1.7654078415678163,1.767255687029859,0.9621228035110659,0.4694837878237533,0.9278902757852148,,,0.6038851895711802,inf,,,0.8367975229666006
79,,0.0,0.0,0.10696905971831198,0.08980987100192968,0.21430480853539,0.25120147531218473,0.29756724236250803,,,0.6425374456860184,inf,,,0.9706892783186688
80,,0.0,0.0,0.12288817977761199,0.10664029809554339,0.12056708873457844,0.11215591153562222,0.11587010295639238,,,0.6284777104787076,inf,,,0.9630163703340309
81,,0.0,0.0,1.6616055763487578,1.6408995103826818,0.9267404500895445,0.14262146401137654,0.29829284564008984,,,0.6357360191111145,inf,,,0.8634667772523367
82,,0.0,0.0,1.710691820407272,1.7060856604376529,0.9506630284484414,0.1870939703942181,0.41680881584826224,,,0.581717464821069,inf,,,0.8592386973683659
83,,0.0,0.0,0.8084123020720124,0.7895793020766523,0.5435627492628751,1.6244660706388907,0.8862826260502783,,,0.5978297680564633,inf,,,0.9538374526629742
84,,0.0,0.0,0.8477699880067269,0.7810609252862103,0.7032590284635128,1.6176857822171065,1.2081711123968755,,,0.6713451011121618,inf,,,0.9535279260317091
85,,0.0,0.0,0.5931320710449873,0.5592895790745112,0.3919377988313845,1.0214958951477477,0.5746920008095064,,,0.6713451011121618,inf,,,0.9529865280296135
86,,0.0,0.0,0.6821651800248362,0.6308831624207909,0.5606995936374298,1.183724777623686,0.9341078682052226,,,0.663668482632973,inf,,,0.9494288057777236
87,,0.0,0.0,0.9997787842403466,0.9540024819408747,0.5774178167903019,1.3647735704659283,1.0780595285749437,,,0.6468212168108125,inf,,,0.9386838232870839
88,,0.0,0.0,0.5788903028000126,0.5179855596880986,0.6220238120588989,1.187378196569288,0.9963734233818013,,,0.62595550513784,inf,,,0.9393054863969347
89,,0.0,0.0,0.5241151066378492,0.4966835987443897,0.4261150001905583,1.1280404628123017,0.8775826728525549,,,0.6528756675646988,inf,,,0.9426910221614033
90,,0.0,0.0,0.9623994202136121,0.9359799152616177,0.6858686259506076,1.5293603835001814,1.1096811884646753,,,0.6619902821573977,inf,,,0.9506916934667031
91,,0.0,0.0,0.7690576516796981,0.7295488449576254,0.5625982833392928,1.9110900526494456,1.328542375212061,,,0.6403206450210053,inf,,,0.910219735184841
92,,0.0,0.0,0.6575999688218978,0.6430699406829832,0.5123020001548452,2.095117225627463,2.005867886961143,,,0.6447042257417027,inf,,,0.722740807663234
93,0.006688988150796652,-2.2296627169322174e-05,0.0,0.773154728349274,0.675187017165853,0.5712171437878676,1.7287347208782191,1.689154249931659,,,0.6233814453054027,5.710471462806998,inf,,0.6225175894593122
94,,0.0,0.0,0.30667374100099976,0.2643925384266151,0.4397480640412541,1.5426212422092043,2.0530118918752587,,,0.6468212168108125,inf,,,0.7643005339450346
95,0.0,0.0,0.0,0.8189014980708503,0.7800756516011091,0.6324287897335295,2.547044409245842,1.9366542964227702,,,0.6180765742263259,5.703782474656201,inf,,0.8634819691257521
96,,0.0,0.0,0.9508634513931394,0.9131234964349412,0.661802266501831,1.9442923859731531,2.2949670905080732,,,0.6425374456860184,inf,,,0.9456900901289418
97,,0.0,0.0,0.9625536842415587,0.9431007337294358,0.7292961540490028,1.3108029227376887,1.0152439754202274,,,0.6097226960127671,inf,,,0.9480465119734205
98,,0.0,0.0,0.5153357100267952,0.4648333486239168,0.37023872127164476,0.9142543476976724,0.4998520009961619,,,0.6425374456860184,inf,,,0.9521651030888635
99,,0.0,0.0,0.7113311402598893,0.6810653941993554,0.5134990804078874,1.1495181594668764,0.7297257851371255,,,0.6180765742263259,inf,,,0.9426419225422135
100,,0.0,0.0,0.9083801432371691,0.8754106434808752,0.6264051015643701,1.5056132314811157,1.2819997730816837,,,0.6619902821573977,inf,,,0.9390790426921231
101,0.0,0.0,0.0,0.6492884376299715,0.6190601295207994,0.4465767372767071,1.4037416347800866,0.9720462239457652,,,0.6684167106117298,5.703782474656201,inf,,0.9485708791946333
102,,0.0,0.0,0.42962396014864823,0.41844137514975227,0.38507098749204327,0.9263702475160468,0.6160854154748854,,,0.6153451465759925,inf,,,0.9510001161882741
103,,0.0,0.0,0.7377741338611103,0.6327671594370677,0.5426096561553247,0.9030206800728057,0.4033728025703426,,,0.6403206450210053,inf,,,0.9537796295825248
104,,0.0,0.0,0.7171758735329533,0.7012068238068584,0.6885773845601149,1.6396841477197097,0.9825444972544353,,,0.6447042257417027,inf,,,0.8892944570326439
105,,0.0,0.0,1.1077347084577034,1.0629855874142229,0.83001229792385,1.9689089343623785,1.413956457298257,,,0.6447042257417027,inf,,,0.904772270238623
106,,0.0,0.0,0.873809368390449,0.8610887419836637,0.7086980008489513,1.8149638921371407,1.239995055719253,,,0.6357360191111145,inf,,,0.9092865336779491
107,,0.0,0.0,0.4362646122119963,0.3728585263555246,0.30907966896007305,0.7207278708911328,0.49958923500359154,,,0.6357360191111145,inf,,,0.9278143336238719
108,,0.0,0.0,0.5993702751994476,0.5562417898390084,0.5210146874752217,0.4209899520034145,0.3009552900373729,,,0.6153451465759925,inf,,,0.9518944876849322
109,,0.0,0.0,0.899269258698869,0.8656133536477604,0.566795833054292,0.8593511225469189,0.39107209020923517,,,0.6652988471865258,inf,,,0.8718844981768347
110,,0.0,0.0,0.6756853736154995,0.6450559432882078,0.5867083362600044,1.4832961598253067,0.9784801194870898,,,0.5978297680564633,inf,,,0.9105066152404516
111,,0.0,0.0,0.6039389328984558,0.47665027787415604,0.5679851282185214,1.3933578003799543,0.5540287171581944,,,0.6125606311107803,inf,,,0.9337874386045428
112,,0.0,0.0,1.1619706684775923,1.0948582777144509,0.6913820724366044,1.7731962724474828,1.4526105334089108,,,0.6309483474627791,inf,,,0.9310855979748175
113,0.0,0.0,0.0,0.21741154249979316,0.1868447557169128,0.3468523091079438,0.8222537971565359,0.443972743329338,,,0.6403206450210053,5.703782474656201,inf,,0.6192281447751512
114,,0.0,0.0,1.125506191144849,1.1097849681938605,0.7555839164763334,0.9574792977378251,1.0146555130133152,,,0.6068309995095971,inf,,,0.9295266538069171
115,,0.0,0.0,0.713776752550465,0.6856690876103066,0.5550776243382097,1.307390601738678,0.886254418399341,,,0.6602640781246099,inf,,,0.9467305098688549
116,,0.0,0.0,0.3589260611032323,0.3612980827270366,0.4404574393657248,0.8402143136371981,0.32109250630390995,,,0.62595550513784,inf,,,0.9547849676863549
117,0.1352340616610159,-0.0009015604110734393,0.0,0.8063903601837183,0.7829747641435564,0.6165275036447305,1.874564197093284,0.6446003685388348,,,0.6425374456860184,5.1384686656061405,inf,,0.6982776795679252
118,,0.0,0.0,0.5762053042157935,0.5224111831401919,0.56625273888449,1.346248809555732,0.4574901878905544,,,0.6180765742263259,inf,,,0.7920790151538
119,0.34436605248830254,-0.006887321049766051,0.0,1.1045468019290317,1.084141369551298,0.8073186696261987,2.485979364914656,1.6987223684062847,,,0.6584896970785714,4.069326799246813,inf,,0.6153303714663659
120,,0.0,0.0,0.6715161538139414,0.5118333792408363,0.4309646371709764,1.13654731529292,0.6284698420707364,,,0.6380535849069913,inf,,,0.9090975797684214
121,0.941608539858445,-0.003138695132861483,0.0,0.8051941709898258,0.7593493077610608,0.4899368837897488,1.229610534547107,0.5449229132406985,,,0.6447042257417027,6.645391014514646,inf,,0.6915276795745942
122,,0.0,0.0,1.0812702509789183,1.0357819276227285,0.7410326889011131,0.711289338577604,0.6227065744040807,,,0.6207552362147116,inf,,,0.9465397931147376
123,,0.0,0.0,0.40920771757934815,0.3688373551137986,0.3421808790495628,0.4440297394991194,0.44412182198860833,,,0.6233814453054027,inf,,,0.9538173591003549
124,,0.0,0.0,0.6302996521147199,0.6064788749856258,0.4433314600168448,0.806998231381825,0.911169930278339,,,0.5783247308855777,inf,,,0.9349052923210005
125,,0.0,0.0,0.5491156319687858,0.5253150008751208,0.48844028235683007,0.9735295163030133,0.8939411656469239,,,0.6403206450210053,inf,,,0.9453980203133715
126,,0.0,0.0,0.462668972966836,0.4185447935673106,0.5482024698419224,1.123806643899301,0.982598969080001,,,0.6153451465759925,inf,,,0.9493837886240621
127,,0.0,0.0,0.122888179777612,0.09738385500531416,0.3507157394325886,1.1152987972117603,1.2437709517876159,,,0.6468212168108125,inf,,,0.9617290561739904
128,5.0106352940962555,-0.016702117646987518,0.0,0.6324164953847959,0.5849723188437667,0.4718866939287244,1.1879458824584526,0.631832292573117,,,0.585052858160615,10.714417768752456,inf,,0.8171876340947419
129,,0.0,0.0,0.2730027592884021,0.24006250015438757,0.34910276677095364,0.3218728019441412,0.281674967213972,,,0.6333676938231112,inf,,,0.9510159641823608
130,,0.0,0.0,0.15818068848759306,0.1354102251251101,0.12136201466534477,0.13718171467043427,0.1604849535649612,,,0.6180765742263259,inf,,,0.9424247609483818
131,,0.0,0.0,1.4642790739041907,1.4642418419597976,0.8791133253416904,0.061358152252950465,0.10181846680598987,,,0.62595550513784,inf,,,0.8739804435379371
132,,0.0,0.0,1.5006570292174601,1.4534988754988087,0.900652584939514,0.05813161346988917,0.10729010238406243,,,0.6528756675646988,inf,,,0.8966723273916667
133,,0.0,0.0,1.1445185680011083,1.1317733343501866,0.7983674772520764,0.06799403978993196,0.1212376096497196,,,0.6097226960127671,inf,,,0.8637458653666987
134,,0.0,0.0,0.4032981570755061,0.3463874707882664,0.5124540391014383,0.9947231361424677,1.016775221179666,,,0.6333676938231112,inf,,,0.8991494432808861
135,,0.0,0.0,0.5216473641247608,0.470422890681511,0.39348979358392683,0.825348002586663,0.9727803072394617,,,0.62595550513784,inf,,,0.9071482705975773
136,,0.0,0.0,0.43351149446569087,0.3894709754164228,0.40886174639307454,0.5941683753891226,0.521955801182691,,,0.5883313578629602,inf,,,0.942940769108326
137,,0.0,0.0,1.0881932950351398,1.0740894234210632,0.7196076385130371,0.06996268881475466,0.09943494198882959,,,0.6180765742263259,inf,,,0.7857654456581074
138,,0.0,0.0,1.363315438599037,1.3317557376388027,0.8420776166479073,0.09410203921746114,0.14220049719616493,,,0.6309483474627791,inf,,,0.8848703091698775
139,,0.0,0.0,1.410059747836314,1.3855302971380201,0.8469926704991003,0.11610850767432135,0.15865134174627704,,,0.6566669596287297,inf,,,0.8802267437251486
140,,0.0,0.0,0.12288817977761199,0.08243916000312178,0.20787215452772734,0.5662350181379632,0.6243222959115855,,,0.5978297680564633,inf,,,0.9429769242240355
141,,0.0,0.0,0.35284147125441817,0.2580213629430819,0.39083650486499066,1.1221648449645845,1.1379763653814094,,,0.6207552362147116,inf,,,0.950906165627975
142,,0.0,0.0,0.4595499637092131,0.4453157271434765,0.32416694380487854,0.5567360430237032,0.30507234959255236,,,0.62595550513784,inf,,,0.9542408894505395
143,,0.0,0.0,1.582844195123244,1.447436969052445,0.8974815580117829,0.6831812164364925,0.8374215870610475,,,0.6097226960127671,inf,,,0.9327471737936699
144,,0.0,0.0,0.7710718280538469,0.7470168797822518,0.5779354631242143,0.18086201107292574,0.19848272805243175,,,0.6153451465759925,inf,,,0.9240381958359347
145,,0.0,0.0,1.6362697672504538,1.624179084629824,0.891592704147844,0.15412331750918867,0.17162450389098263,,,0.6547956803312163,inf,,,0.8972418182298642
146,,0.0,0.0,1.6614872642677598,1.635833346604273,0.8479097150864585,0.12513834320587205,0.16927225864038709,,,0.6547956803312163,inf,,,0.8813896984282866
147,,0.0,0.0,1.4831815116925104,1.4542814578305934,0.8764777514043063,0.11038082410654651,0.16401562460011057,,,0.6125606311107803,inf,,,0.9361192666094125
148,,0.0,0.0,1.5126794596633568,1.4875510067829925,0.9168830143332188,0.10669259590724961,0.19436703233059155,,,0.6125606311107803,inf,,,0.9010045997677844
149,,0.0,0.0,1.615796853840903,1.5814694693220985,0.893536889430548,0.11838013188562584,0.2079162597698708,,,0.6357360191111145,inf,,,0.903904318617071
150,,0.0,0.0,1.5326028839268344,1.3515275508371085,0.8907723499972602,0.3142163853925774,0.340274412265762,,,0.6309483474627791,inf,,,0.9178499863542751
151,,0.0,0.0,1.7287295591873098,1.7021320508072246,0.8936441205761365,0.4310855044679997,0.5766412825978113,,,0.6180765742263259,inf,,,0.8985187942208561
152,,0.0,0.0,0.7914056723672531,0.7638135918567835,0.486131251871635,0.1959493101875565,0.19539576868907851,,,0.6468212168108125,inf,,,0.9438621002071165
153,,0.0,0.0,1.5966889142258152,1.5311604905682714,0.9513310110313243,0.11970309002609551,0.21921224160066932,,,0.6357360191111145,inf,,,0.864809097501
154,,0.0,0.0,0.1824414118534046,0.16601956783069632,0.29297232552280145,0.17699344445206575,0.2670730538341216,,,0.6284777104787076,inf,,,0.9309757804351265
155,,0.0,0.0,1.6473445938975866,1.6569782838652323,0.9433298008982213,0.24523398604085075,0.40504315136877067,,,0.5883313578629602,inf,,,0.9083216681630188
156,,0.0,0.0,1.7622536147444572,1.7377126376127026,0.9586462741114048,0.37618445198888467,0.6952899307017439,,,0.6068309995095971,inf,,,0.8920931767054071
157,,0.0,0.0,1.7595075282734882,1.7094702975210754,0.9499538065357556,0.3590976095326004,0.6927882588179162,,,0.6468212168108125,inf,,,0.8786236679557643
158,,0.0,0.0,1.2387067682919797,1.2032276723766135,0.8999947637459965,0.2909459537516531,0.41101596121793577,,,0.6602640781246099,inf,,,0.9263317982388364
159,,0.0,0.0,0.6903788765193296,0.6725702797620333,0.4366720346280108,0.16161034071292688,0.2247482345830129,,,0.5713653840954815,inf,,,0.9208864798443498
160,,0.0,0.0,1.7621194070094361,1.7211902083351633,0.9360575951083859,0.3734962132137907,0.7034832508822049,,,0.6333676938231112,inf,,,0.8555416624073631
161,,0.0,0.0,0.8097373144988526,0.7963584121570993,0.531134372896183,0.3564814877950922,0.5326193179119938,,,0.5947193981915972,inf,,,0.9495169290743475
162,,0.0,0.0,0.06698765724152846,0.05428011654032609,0.053879826464550515,0.14253294045812503,0.18745099083255048,,,0.6284777104787076,inf,,,0.9682409309981718
163,,0.0,0.0,1.4816257392846566,1.472008372055568,0.8774726954772332,0.09677666896147012,0.1903861218200072,,,0.6153451465759925,inf,,,0.8975514015596443
164,,0.0,0.0,0.3426359977067818,0.2363907155009802,0.41637281355300143,0.2483608993684126,0.25811868884541056,,,0.6357360191111145,inf,,,0.9449030075870226
165,,0.0,0.0,1.5766863414565835,1.5120841550664232,0.9052483098270007,0.2572257477840031,0.41106782870643,,,0.5883313578629602,inf,,,0.8751135130170288
166,,0.0,0.0,1.521027751971943,1.427130130835852,0.9233538487890737,0.5607381203751293,0.9978576829438595,,,0.6153451465759925,inf,,,0.8650502160312555
167,,0.0,0.0,0.8061788982004021,0.700465331263904,0.5542285780496811,0.6912531187484123,0.33719297328255926,,,0.6684167106117298,inf,,,0.9468080928196654
168,,0.0,0.0,0.582914217936777,0.5738518742470599,0.2795143974117861,0.07351058051607223,0.08356442719514941,,,0.6207552362147116,inf,,,0.9240414490639894
169,,0.0,0.0,1.4133884067226987,1.3902196547312982,0.8140587220477072,0.04511111375663924,0.07288841804806578,,,0.6380535849069913,inf,,,0.795688249381339
170,,0.0,0.0,1.3453357549995542,1.3223213054186556,0.8300709472921498,0.04247184394073363,0.06274400438169743,,,0.6509067234006624,inf,,,0.768094150095312
171,,0.0,0.0,1.1841261769066844,1.1668969539646787,0.7797334417598303,0.05668406802926988,0.08825103498127426,,,0.6528756675646988,inf,,,0.7934516108959481
172,,0.0,0.0,0.6955590256145429,0.669172570882254,0.6802546207191841,0.06322927131491313,0.09435481941352165,,,0.6380535849069913,inf,,,0.8216697900531303
173,,0.0,0.0,1.5615738873827079,1.5462596732988765,0.9373131222016376,0.3348284353862093,0.44803888254984753,,,0.6068309995095971,inf,,,0.8638425862017809
174,,0.0,0.0,1.3520622663710378,1.3496565882226665,0.8088477578137255,0.178103964192631,0.31943780108977704,,,0.6207552362147116,inf,,,0.8240758911795548
175,,0.0,0.0,1.5808710106434953,1.5589011928431424,0.9569453251425148,0.15851359814535093,0.2988989611641242,,,0.6180765742263259,inf,,,0.8506965166541495
176,,0.0,0.0,1.6248176509466725,1.5882465109110033,0.9478917309251549,0.11401381735194674,0.21668470514119367,,,0.6068309995095971,inf,,,0.8324803226175462
177,,0.0,0.0,0.3302536418502132,0.2952980639453385,0.38324483995970454,0.2612723499241679,0.2672937122738636,,,0.6008849035917525,inf,,,0.832638792456303
178,,0.0,0.0,0.1804308202057063,0.15032199302999363,0.36700631088357744,0.12492037732096144,0.15379889235752686,,,0.6207552362147116,inf,,,0.7689365424243131
179,,0.0,0.0,0.1914526360307307,0.14214294289517607,0.5662744050885201,0.24942613281505455,0.34510181576879906,,,0.6125606311107803,inf,,,0.9414716386719961
180,,0.0,0.0,0.5069811766912112,0.3706674607815841,0.5945309108034262,0.18370741448351352,0.2264486731421741,,,0.5713653840954815,inf,,,0.8684782705269772
181,,0.0,0.0,1.441793972217575,1.4340794127776575,0.8762870130217084,0.3436557698510521,0.6587746430264325,,,0.5978297680564633,inf,,,0.9073197098529564
182,,0.0,0.0,1.7202580884950622,1.6833259167845194,0.9531119884271724,0.1840713387872479,0.38369958173397767,,,0.6008849035917525,inf,,,0.8498449761131597
183,,0.0,0.0,0.3228811643939279,0.3012773285274747,0.7297767913019398,0.22827424667647883,0.4293891535299682,,,0.6447042257417027,inf,,,0.6746229810861841
184,,0.0,0.0,0.391232717594698,0.3470235116703548,0.34300201641893663,0.33650921698198694,0.3503726900520232,,,0.6207552362147116,inf,,,0.8321091064219698
185,,0.0,0.0,1.1260015019226168,1.0818693226413205,0.7270093368081152,0.34420962070570815,0.5239845605323602,,,0.6068309995095971,inf,,,0.9152559439985607
186,,0.0,0.0,1.3163921948017279,1.2882069036635833,0.8052383234527432,0.45070306221225337,0.6659961995817936,,,0.6333676938231112,inf,,,0.9166168236803943
187,,0.0,0.0,0.5915221615982252,0.5225685786961501,0.4492379749078521,0.5926353561348452,0.25748911165505795,,,0.6309483474627791,inf,,,0.9313138569556424
188,,0.0,0.0,0.9217447000522851,0.8240770700738066,0.620700266241052,0.3314165232125422,0.4882307018955776,,,0.6380535849069913,inf,,,0.8380762797137307
189,,0.0,0.0,0.1824414118534046,0.114847316329005,0.32123446772021436,0.21402411401332946,0.2554087093085855,,,0.6207552362147116,inf,,,0.9470567117402223
190,,0.0,0.0,0.9117832252866555,0.8926167275914361,0.5981910646155516,0.12574625959005348,0.14517833644951225,,,0.648888643467878,inf,,,0.9034748413812805
191,,0.0,0.0,0.9011936611873544,0.8474015006525836,0.7752721108245622,0.0862128919413337,0.12645926900095286,,,0.6547956803312163,inf,,,0.8653495869112996
192,,0.0,0.0,1.185785743830917,1.168293079633863,0.7855407625649878,0.10914607730929989,0.14448727648708976,,,0.6309483474627791,inf,,,0.8754106367076304
193,,0.0,0.0,0.20443785628945746,0.1549570087604526,0.17244800552823691,0.1577728060482327,0.12543195365835638,,,0.6333676938231112,inf,,,0.9634560213733753
194,,0.0,0.0,0.34279426695424653,0.32495990828191734,0.20487260333510804,0.20254133559721865,0.15745252500902954,,,0.6468212168108125,inf,,,0.9494423874465235
195,,0.0,0.0,0.9268969426286024,0.7971211857528119,0.4860698182598802,0.3539272487440731,0.23439232058462234,,,0.6447042257417027,inf,,,0.9477140853368242
196,,0.0,0.0,0.5781665913085003,0.5658376836326411,0.48814709966459474,0.13797957447876633,0.20594784072260536,,,0.6509067234006624,inf,,,0.9446161572901512
197,,0.0,0.0,0.4776303913146993,0.4397301369477266,0.18230876060572,0.18914289849286564,0.16968336833617823,,,0.6509067234006624,inf,,,0.9581832809539592
198,,0.0,0.0,1.2070115906071128,1.14927808765032,0.768138945532877,0.1064274913026179,0.1247088621471352,,,0.6380535849069913,inf,,,0.9300923323173546
199,,0.0,0.0,1.37780932083785,1.3676951765214511,0.8842985299990832,0.050641006724096035,0.08242931309627782,,,0.6566669596287297,inf,,,0.9127916452058813
200,,0.0,0.0,1.379244380836817,1.3188824210348773,0.8904788455944244,0.12739748895802316,0.17844658246802958,,,0.5883313578629602,inf,,,0.8939475377104981
201,,0.0,0.0,0.670396584887326,0.6200749048182461,0.6058938393138676,0.20669094569315594,0.21339194514757256,,,0.62595550513784,inf,,,0.836788374808555
202,,0.0,0.0,1.153273160585912,1.118302228450054,0.7770558330730453,0.4531957645311378,0.524809338135169,,,0.6380535849069913,inf,,,0.8860441431757786
203,,0.0,0.0,0.982950870098267,0.9386399423685658,0.6601561390223547,0.4588707347335695,0.5352179829390643,,,0.6619902821573977,inf,,,0.8800545795652525
204,,0.0,0.0,1.1816456806409574,1.1445801127865731,0.8130476064780019,0.4527766102067142,0.5300399137325913,,,0.6068309995095971,inf,,,0.8499694087077228
205,,0.0,0.0,1.443893202332137,1.3873321928513254,0.8878679956863373,0.45747122443827565,0.6255308935726154,,,0.6684167106117298,inf,,,0.8559509147569799
206,,0.0,0.0,0.8042290071958217,0.7336063990234557,0.3935714256725796,0.4880487677149042,0.6019193430353766,,,0.6180765742263259,inf,,,0.9345589599135009
207,,0.0,0.0,0.2700312213237379,0.25250969540492446,0.2676919119447871,0.18901862285423715,0.26694814877994033,,,0.6125606311107803,inf,,,0.9526943619555632
208,,0.0,0.0,0.9643531397138315,0.9281979763553776,0.7119714145385483,0.03185457705483775,0.05064448991116689,,,0.6380535849069913,inf,,,0.8326916000905039
209,,0.0,0.0,0.37943480340877395,0.29021543613468087,0.32928935223766925,0.14455665809118146,0.10962179999176291,,,0.6380535849069913,inf,,,0.9427404020708235
210,,0.0,0.0,1.3057550456143685,1.2667883105568252,0.7901524076416364,0.07705864129460939,0.12216123682499715,,,0.6038851895711802,inf,,,0.8062987193874334
211,,0.0,0.0,0.9471963897141503,0.9167334293678626,0.6953657811602986,0.09244174409432886,0.11242601640535792,,,0.6207552362147116,inf,,,0.8673722033013012
212,,0.0,0.0,0.08467349851939517,0.07160633254859414,0.516361039067851,0.07479536992353454,0.10506292149884347,,,0.5947193981915972,inf,,,0.9010692480547362
213,,0.0,0.0,0.6121017100252494,0.561508890490522,0.5778381341100592,0.5916546708119268,0.4081180065358685,,,0.5783247308855777,inf,,,0.9235979928649742
214,,0.0,0.0,0.6725695336959928,0.6192538413372766,0.6729133134122124,0.7818827550956294,0.7145055263791718,,,0.6097226960127671,inf,,,0.9137342009670837
215,,0.0,0.0,0.8008742888605002,0.7777478272937974,0.6007399880340727,1.412149105699152,0.6892911734922604,,,0.6403206450210053,inf,,,0.9471555151512707
216,0.0,0.0,0.0,0.9770565360890694,0.8820941056290179,0.6171601803624742,1.5918725671256895,0.7685259488752372,,,0.62595550513784,5.703782474656201,inf,,0.9554944711882952
217,,0.0,0.0,0.5268815724471215,0.5009802443479803,0.5021383297956594,1.9285272936483255,1.134702022843843,,,0.6547956803312163,inf,,,0.932590744017446
218,,0.0,0.0,0.27825589959769326,0.2431112904605105,0.4901291097941819,1.508902805069507,0.8127332735504598,,,0.6509067234006624,inf,,,0.9315457467741408
219,0.0,0.0,0.0,0.578436781130574,0.41870279126825644,0.4684548861290191,1.7879035067280058,1.476910255214547,,,0.648888643467878,5.0106352940962555,inf,,0.8267580686693297
220,,0.0,0.0,1.537222244895359,1.4739999970077218,0.8794821301821979,1.440953889057674,1.7896932411527748,,,0.6068309995095971,inf,,,0.9111997948574648
221,,0.0,0.0,0.7269408053156586,0.6864895526113419,0.5972505377203072,1.1515106855757071,1.4168024627488252,,,0.62595550513784,inf,,,0.8882907817639499
222,,0.0,0.0,1.2337612891705874,1.2177354392925912,0.8606119222455589,0.9349410683049681,1.150096375573105,,,0.6153451465759925,inf,,,0.8827427657652456
223,,0.0,0.0,1.3223102583770345,1.3208495248840904,0.8472625900227836,1.021675977481344,1.1956159642160429,,,0.6528756675646988,inf,,,0.8876997502492661
224,,0.0,0.0,1.1567294636025405,1.1581119227579177,0.7385388485610105,0.9158966920515154,1.0524137657000412,,,0.6207552362147116,inf,,,0.9462203150580547
225,,0.0,0.0,1.2884411405263894,1.3005739028335586,0.8311235680506565,1.1369444430964641,1.0712677525014167,,,0.6233814453054027,inf,,,0.9467333145253463
226,,0.0,0.0,1.180654089461894,1.1246417918178397,0.7742065989464976,0.9765040184483046,0.8132875507509773,,,0.6425374456860184,inf,,,0.9184313389971348
227,,0.0,0.0,0.8716116768394071,0.8579944689208403,0.6515484020114106,0.7034343696794131,0.7745869943163843,,,0.6038851895711802,inf,,,0.9275981796292213
228,0.0,0.0,0.0,0.500922988045584,0.40138915373800865,0.45595232968153193,1.1059928396365635,0.8983579949063145,,,0.6528756675646988,5.703782474656201,inf,,0.9531625866791003
229,,0.0,0.0,0.5354583046174165,0.4899301188875068,0.6475848080542137,1.7239007389553176,1.2109998302359317,,,0.648888643467878,inf,,,0.957620133103472
230,,0.0,0.0,1.1168835978695775,1.0979938516495946,0.7360043161626716,1.4864169953856088,1.1754868666109488,,,0.6380535849069913,inf,,,0.9492496793546017
231,,0.0,0.0,0.5656920339094522,0.5465472039410622,0.3754326015558073,2.072111262215977,2.0208685145180634,,,0.6619902821573977,inf,,,0.8618266335905472
232,,0.0,0.0,1.2399194552957744,1.2133166993990634,0.8996870754643563,2.435863147441634,2.221514225674364,,,0.6233814453054027,inf,,,0.9201857215719599
233,,0.0,0.0,1.1795624975979646,1.155790528370269,0.7846837506213206,2.0189866063403823,0.9752873195696923,,,0.6619902821573977,inf,,,0.9396462010561624
234,,0.0,0.0,1.240635997645967,1.205290663945169,0.8124280635041384,2.328012784220485,2.2767425830199595,,,0.6584896970785714,inf,,,0.9405094179798663
235,,0.0,0.0,0.8258255256229989,0.7880969018214187,0.6059537122916328,1.7921656523337648,1.6071754405706264,,,0.6528756675646988,inf,,,0.9376560353716894
236,,0.0,0.0,0.981667560827213,0.9461177908304798,0.7719984476104265,1.7783515605645233,1.3801979264625435,,,0.6602640781246099,inf,,,0.9407541614838117
237,,0.0,0.0,1.19330664250693,1.1793488186989014,0.7231549273073153,2.096793382272249,1.962810830377912,,,0.6425374456860184,inf,,,0.9471319400313595
238,,0.0,0.0,0.267340685656489,0.24221440678204015,0.29563378786695477,1.6296817122102236,1.4436680985322594,,,0.6284777104787076,inf,,,0.705773006260555
239,,0.0,0.0,1.2658455188202211,1.2058997762370862,0.7661333884540716,1.9587308445969598,1.6272363219156374,,,0.6509067234006624,inf,,,0.8904378156229239
240,,0.0,0.0,0.21731486237733605,0.191186494724911,0.40878722356902847,1.2469244054299606,1.1918225665136482,,,0.663668482632973,inf,,,0.7897393396683207
241,,0.0,0.0,1.487892948906444,1.4772552983696132,0.8490247065741591,0.8040564078454384,0.9799355183365901,,,0.648888643467878,inf,,,0.9243117373026436
242,,0.0,0.0,0.9630201503861638,0.951422453673803,0.4917366603783267,1.2168833322210206,0.8966351161070212,,,0.648888643467878,inf,,,0.6841177447111289
243,,0.0,0.0,0.7434465956455305,0.6379100064024695,0.5777735632084051,1.03894640394752,0.38014783575920363,,,0.6566669596287297,inf,,,0.6624545385491324
244,,0.0,0.0,0.5361170077833227,0.4615125928978669,0.49724562119318644,0.9242214563794662,0.7069748384124069,,,0.648888643467878,inf,,,0.9142024404746135
245,0.0,0.0,0.0,0.7990331282460629,0.755978865014623,0.7088744556242964,2.0099813884524353,0.5940916209623719,,,0.6153451465759925,4.605170185988091,inf,,0.7664629690995236
246,0.0,0.0,0.0,1.1228481272106263,1.0990960155294878,0.726479733077058,2.5461017962947037,2.52887028132622,,,0.6284777104787076,4.31748811353631,inf,,0.9480262049870813
247,1.7276508203276781,-0.011517672135517854,0.0,0.9185393360874068,0.836475990738132,0.6555926053264539,1.4288109629035406,0.8589792114986987,,,0.6547956803312163,6.734736114850496,inf,,0.9225718061717714
248,,0.0,0.0,0.8832302045184773,0.8600987288608007,0.524704598627681,0.7544207170364218,0.628378978931258,,,0.62595550513784,inf,,,0.9523090121989745
249,,0.0,0.0,0.765357186179819,0.6936932879974236,0.5793138827803639,1.4866058954501982,1.154843215173654,,,0.581717464821069,inf,,,0.9497402681218055
250,,0.0,0.0,0.6697835971883295,0.6226535364670897,0.7134651772295789,1.8835180634362048,1.3218160099006184,,,0.6403206450210053,inf,,,0.9363883886945197
251,,0.0,0.0,0.4340987069103599,0.41042540538070066,0.6064639942053779,0.417425146626599,0.44023109775836367,,,0.6468212168108125,inf,,,0.9276755363673355
252,,0.0,0.0,0.9494239563316569,0.8912659004067202,0.5393391334820486,1.3182537078093264,0.8520810030116852,,,0.6468212168108125,inf,,,0.954069168038941
253,,0.0,0.0,0.7039897344169037,0.6840473398357948,0.5948201928888436,2.4587888530232487,2.0004621388706703,,,0.648888643467878,inf,,,0.6895430032478065
254,,0.0,0.0,1.1873424258705985,1.1684315895181014,0.7929054101803851,2.163079362515013,2.1800786987879976,,,0.6180765742263259,inf,,,0.9428026658546674
255,,0.0,0.0,0.9846344089142645,0.961883119000168,0.6516089648528772,1.9113989216083287,2.140879996608388,,,0.6333676938231112,inf,,,0.9222358505601483
256,,0.0,0.0,0.6211640725369194,0.5752504895932314,0.5141262821729382,1.7841840577064594,1.2638484326157546,,,0.6699045166045591,inf,,,0.9471144598142671
257,,0.0,0.0,0.7678396664722205,0.7320889226999319,0.6632108732340747,1.8113241409180265,1.7054534782963784,,,0.62595550513784,inf,,,0.9272399299322757
258,,0.0,0.0,0.6434123881675116,0.6027177975465111,0.6358360028721334,1.200701325663206,1.1436306046121616,,,0.6309483474627791,inf,,,0.9353320061908401
259,,0.0,0.0,0.6139070459730126,0.5822109749642349,0.4800475181561291,0.957893776214936,0.7173375928344252,,,0.6528756675646988,inf,,,0.946830878548187
260,,0.0,0.0,0.4414382209272042,0.3774803478684494,0.5653214569523975,1.4029487921705586,1.5092857169818352,,,0.6180765742263259,inf,,,0.9480982782934538
261,,0.0,0.0,1.0324135895400395,1.0090443297860703,0.7287847328102419,1.5575575807568918,1.0412630467689432,,,0.6207552362147116,inf,,,0.9248318056511093
262,,0.0,0.0,0.8410754211253021,0.7365803178987945,0.6012365093716247,1.053686665042413,0.7730703697394206,,,0.6333676938231112,inf,,,0.9149873883523245
263,,0.0,0.0,0.5027604284893619,0.47772665519647683,0.5619379094684307,0.7659364957399346,0.5613186226433591,,,0.6566669596287297,inf,,,0.9534587611810625
264,,0.0,0.0,0.9056423867660938,0.8501751558752159,0.3204528140276532,0.606590380370708,0.4196104668591726,,,0.6547956803312163,inf,,,0.9521401082202151
265,,0.0,0.0,0.6080355320924218,0.5447869323872867,0.36561753963541643,0.6559075199580956,0.5285380986568152,,,0.6333676938231112,inf,,,0.8802490500090908
266,,0.0,0.0,1.0038836690770903,0.9150015672452219,0.5891746515720737,1.6360218674934635,1.518881124995575,,,0.6727386042041725,inf,,,0.9040671164616313
267,,0.0,0.0,1.02199410799637,0.9513594062421605,0.6131550358739769,0.8940405417792474,0.5155393594136821,,,0.6309483474627791,inf,,,0.9216535114546229
268,,0.0,0.0,1.0550266383629643,1.0025216837199118,0.7088596355802215,0.6008619494029327,0.5329085417811555,,,0.6380535849069913,inf,,,0.9423385709752271
269,,0.0,0.0,0.4625118578531371,0.4187251169136626,0.3674387560462852,0.7076639474991526,0.5212667694343769,,,0.6509067234006624,inf,,,0.9256970648838838
270,,0.0,0.0,0.8357424529006048,0.8101014317697446,0.6902721263874018,0.9734208208973367,0.8309608102993002,,,0.648888643467878,inf,,,0.9321856508087095
271,,0.0,0.0,0.6166757928268218,0.5754618197048716,0.47346483272711204,0.5068085393022198,0.3234580446093245,,,0.6207552362147116,inf,,,0.949359912927835
272,,0.0,0.0,0.5908983721934851,0.4917658169022894,0.5121311600903803,1.2274579325484234,0.5378197666320028,,,0.6547956803312163,inf,,,0.956714920208965
273,,0.0,0.0,0.6296514209678418,0.5866748374793171,0.4987886172818365,1.1030877494944278,0.6441377290531736,,,0.5978297680564633,inf,,,0.9474245467487689
274,,0.0,0.0,0.8473156466356216,0.8041104452301217,0.4719179922441066,0.8875393866860224,0.6022881542135702,,,0.6125606311107803,inf,,,0.94110643643337
275,,0.0,0.0,0.4402756097103302,0.40811834088591703,0.37792179223838446,0.7051525558312027,0.4642991707025167,,,0.6528756675646988,inf,,,0.9534249544583648
276,,0.0,0.0,1.0664986385890751,1.0424008467277344,0.5802288757062135,1.073816909250364,0.529650853684211,,,0.6097226960127671,inf,,,0.9503468681391471
277,,0.0,0.0,0.6892758760767236,0.6274306059010062,0.5551318400809131,0.9716085148663022,0.6168013570759937,,,0.6447042257417027,inf,,,0.9499169336077958
278,,0.0,0.0,0.7167641058875276,0.6841613171769265,0.662275201901259,1.0554784783770959,0.49169799218302623,,,0.6528756675646988,inf,,,0.9474316708775716
279,1.391730822984751,-0.018556410973130013,0.0,1.336141298026881,1.3049488919298897,0.8027446930137652,3.0695570892120796,3.071246254611232,,,0.6403206450210053,4.870873351721097,inf,,0.9520464203035743
280,4.31748811353631,-0.014391627045121034,0.0,1.00715469036343,0.9658784763047074,0.6648935583471145,2.1965701627450933,1.7679330266799642,,,0.6713451011121618,10.021270588192511,inf,,0.952483727563628
281,0.0,0.0,0.0,0.7000132801019895,0.6800762642065599,0.5509841739078029,1.9615113678080744,1.1832110796471227,,,0.6153451465759925,5.703782474656201,inf,,0.6833732317406708
282,,0.0,0.0,0.7558898978564775,0.725011804905545,0.6965223088539282,1.453420720540438,0.9739202167313126,,,0.6468212168108125,inf,,,0.9328045217006772
283,0.0,0.0,0.0,0.7115421304177166,0.64405676268062,0.5341132649532446,1.1501165824209274,0.5286741567114766,,,0.6468212168108125,5.703782474656201,inf,,0.8958387121383276
284,0.0,0.0,0.0,0.5930139706398034,0.5332928537976459,0.4972513184933847,1.4240895331405357,0.7613979788218039,,,0.6528756675646988,5.703782474656201,inf,,0.840190595625225
285,0.44109228575131554,-0.0014703076191710518,0.0,0.9217437240467026,0.8304443217300572,0.6367165353533719,2.3291086226988997,1.4167909209858305,,,0.6403206450210053,6.144874760407516,inf,,0.868076926109818
286,,0.0,0.0,0.08467349851939517,0.06893733044145364,0.18783992501529886,1.0251684023878873,0.6601681132934163,,,0.6547956803312163,inf,,,0.9596663105696983
287,,0.0,0.0,0.7099732203514685,0.648439179823247,0.5579327538427296,0.9950102170428492,0.540083602627506,,,0.6357360191111145,inf,,,0.9296859523163518
288,,0.0,0.0,0.838668621184283,0.8224121151791512,0.6601636279518485,1.3171325340529403,0.6046295402488007,,,0.62595550513784,inf,,,0.95030007554248
289,,0.0,0.0,0.21302129952620005,0.19538315155509683,0.2736107505650902,1.383801842801719,0.8374258035883904,,,0.6284777104787076,inf,,,0.5762089091605265
290,,0.0,0.0,0.8940146637002085,0.8511889594172801,0.6370544490963568,1.5790128344654926,1.1056041292394332,,,0.6509067234006624,inf,,,0.9508143606255298
291,,0.0,0.0,0.3190334136545234,0.2948601737757776,0.3452704621089778,0.9297339069644246,0.5358237354266823,,,0.6566669596287297,inf,,,0.6812169394585056
292,,0.0,0.0,0.2256559932866077,0.20099633816164986,0.3777924790380905,1.083148460903044,0.8298706513451752,,,0.6233814453054027,inf,,,0.9569980189317581
293,,0.0,0.0,0.880627937037216,0.8023189502362968,0.5708440892570135,1.2426554841744963,0.842079907400944,,,0.6528756675646988,inf,,,0.9119848957615727
294,,0.0,0.0,0.7681068991295797,0.6936754333940715,0.6180405753454287,0.9978678267504362,0.5613929506344117,,,0.6233814453054027,inf,,,0.9106764743672654
295,,0.0,0.0,0.7834530416521712,0.6845819550082568,0.5298041827090805,1.3231402098476115,0.8292792156441786,,,0.6547956803312163,inf,,,0.9473870263403897
296,,0.0,0.0,0.7942578614076622,0.7663933960363016,0.5866033354813496,1.5247790172314157,0.6124708678905177,,,0.6699045166045591,inf,,,0.9132876341488089
297,,0.0,0.0,0.7989343947353829,0.7418943399274849,0.5815680254640274,1.2274960137921587,0.5840330399865181,,,0.6509067234006624,inf,,,0.8282915195522407
298,,0.0,0.0,0.9554307034451457,0.9246925908373523,0.4761081654201647,1.1954173171880882,0.6834417831954078,,,0.6547956803312163,inf,,,0.9442099923252517
299,,0.0,0.0,0.8068481873174024,0.7977009330652686,0.5502998574780937,1.0158001416297975,0.7153666645548014,,,0.6790044388599258,inf,,,0.9448574823890014
300,0.0,0.0,0.0,0.4200826565094404,0.38589583985511355,0.3775729499520653,1.4214305132834555,0.7594962222321264,,,0.5978297680564633,5.703782474656201,inf,,0.8397092927886827
301,0.0,0.0,0.0,0.6736351557899876,0.6420631856747959,0.4712085792571482,2.1005951797834093,1.498103323641868,,,0.6584896970785714,5.703782474656201,inf,,0.9425819694432384
302,2.5257286443082556,-0.008419095481027518,0.0,1.1539626057337249,1.1478515755842504,0.7620917431191883,2.592457674688199,1.8115542480200313,,,0.663668482632973,8.229511118964457,inf,,0.944111563931054
303,,0.0,0.0,0.8967982228293795,0.8798787458935821,0.5353669198179586,1.8933659946814496,1.100785363718612,,,0.6284777104787076,inf,,,0.9489558068225676
304,0.01005033585350145,-3.3501119511671504e-05,0.0,0.7343106827090369,0.6818646187933002,0.6335767056334488,1.556551507925182,1.0596100075769048,,,0.6584896970785714,5.713832810509703,inf,,0.80858319901985
305,,0.0,0.0,0.9817303798122894,0.9405346617858447,0.613537930137072,1.2886889433045576,0.6523167904185239,,,0.6619902821573977,inf,,,0.9151032919035225
306,0.0,0.0,0.0,0.8283607904460352,0.7511250672462935,0.6732970924465331,1.875362526697689,1.2908486525278535,,,0.6447042257417027,5.703782474656201,inf,,0.657294125504674
307,,0.0,0.0,0.8143604064947586,0.7983735394497198,0.7040624224958675,2.647394054635785,2.772141723081234,,,0.6357360191111145,inf,,,0.7284520556399751
308,,0.0,0.0,1.0844735475836187,1.0696725279010484,0.8035417913381715,2.238295299701904,1.8956552779851492,,,0.6207552362147116,inf,,,0.9025335325258688
309,,0.0,0.0,1.1423636073622694,1.0977343049301849,0.7352558600453574,1.928136868943345,0.7233542411144516,,,0.6333676938231112,inf,,,0.9486016883553868
310,,0.0,0.0,0.9536254681643043,0.8676163737134103,0.5899349446437826,1.9811285398771623,1.0592323302875892,,,0.6038851895711802,inf,,,0.9517856844928906
311,,0.0,0.0,0.7781514780008968,0.6905870810705056,0.5408250964110738,1.0755127389984456,0.9206802260335589,,,0.6403206450210053,inf,,,0.9519295663712543
312,0.020202707317519466,-6.734235772506488e-05,0.0,0.9912816136051191,0.9221127161135072,0.7013587076832792,2.0989789896714277,1.7450158021612352,,,0.663668482632973,5.72398518197372,inf,,0.9455558476241761
313,,0.0,0.0,1.3126025543003383,1.2553300623480503,0.8241268464771444,2.8122829339581012,2.7796758415125686,,,0.6233814453054027,inf,,,0.9405090518448112
314,,0.0,0.0,1.0906409367422258,1.0508926388555453,0.7396005235896886,2.414681715148889,2.103364296701938,,,0.6309483474627791,inf,,,0.9366491526578311
315,,0.0,0.0,1.149537281652656,1.054143343636447,0.7616254852127522,2.3621132216357927,2.7070615278025607,,,0.6233814453054027,inf,,,0.9414345434992392
316,,0.0,0.0,0.7352106341133661,0.7129573548141256,0.5497504692228863,1.3177489932050577,1.1552798349850213,,,0.6547956803312163,inf,,,0.9459024702648084
317,0.0,0.0,0.0,0.962663469219425,0.88640024205949,0.6579870288837384,2.0280666822323856,1.48020682690191,,,0.6584896970785714,5.703782474656201,inf,,0.7373974351897786
318,3.138833117194664,-0.010462777057315548,0.0,0.4468099415942183,0.4196669779671897,0.4752855200662842,2.022842241870744,2.0704919565138615,,,0.6509067234006624,8.842615591850866,inf,,0.8590259027882359
319,,0.0,0.0,0.759055402793124,0.7392537905267874,0.5907628508762869,1.8252316176482026,1.1181917574978577,,,0.6566669596287297,inf,,,0.595837665621252
320,,0.0,0.0,0.9117966428238514,0.8868776817268664,0.7599506181904239,1.3738343666664699,1.3529534563838719,,,0.6180765742263259,inf,,,0.9509952142300423
321,,0.0,0.0,1.0441479698401306,0.998907516837627,0.6324899474866963,1.6727950905035875,1.8360562739388964,,,0.663668482632973,inf,,,0.9479693082134787
322,0.10330712468149958,-0.0006887141645433306,0.0,1.094820405130521,1.0419850463988758,0.6415495844048386,2.4036027916139036,2.081320977113476,,,0.6153451465759925,5.10861570245646,inf,,0.8585117039164828
323,,0.0,0.0,1.0195939473497155,0.9616416249714692,0.7573443648943136,1.9008279994308672,1.8312114227178111,,,0.6309483474627791,inf,,,0.8961514348196561
324,,0.0,0.0,0.9186558015569055,0.8752389445097852,0.6908168891418305,1.2336716808701893,0.8249478191567918,,,0.6619902821573977,inf,,,0.9439166773494577
325,,0.0,0.0,0.7759686149326845,0.7603307977661902,0.5831242745773613,1.8035851757253665,1.6653374865824575,,,0.648888643467878,inf,,,0.9498618187173513
326,0.3808315054949863,-0.0038083150549498633,0.0,0.44965313119034983,0.40222418454124964,0.45501478774219356,2.0767898676626517,1.8374614722066909,,,0.5947193981915972,4.942976645622441,inf,,0.7454659925380107
327,,0.0,0.0,0.7332622980846307,0.6713509866389941,0.6677202911350064,1.7796104190002808,1.3252134756733314,,,0.62595550513784,inf,,,0.9344249917611044
328,,0.0,0.0,0.5419646349215843,0.49964204596437406,0.6223152723504741,1.3643949383026224,0.7145929249683398,,,0.6447042257417027,inf,,,0.9489095649174037
329,,0.0,0.0,0.7854543160825624,0.7600967044108456,0.7321703998215207,0.8768524621785087,0.6684203286617739,,,0.6233814453054027,inf,,,0.9475259929251433
330,,0.0,0.0,1.0288695240910821,0.9814250039694298,0.6480948487735965,1.1269646836221523,0.8148758284990056,,,0.6425374456860184,inf,,,0.948753075181457
331,,0.0,0.0,1.0400902468249542,1.002005297487401,0.6587269832152063,1.0701359379494857,0.7734502077556034,,,0.6468212168108125,inf,,,0.9451872251861088
332,,0.0,0.0,0.7944787666457811,0.7130061121368952,0.5501239252578638,0.7202190517739157,0.7712390640185762,,,0.6602640781246099,inf,,,0.9530796439426359
333,,0.0,0.0,0.870204809654195,0.8575078848572595,0.4971040857614724,0.9925956483078006,0.9285726921717703,,,0.648888643467878,inf,,,0.9470871621141531
334,,0.0,0.0,0.6005427447812008,0.5214420028993885,0.44300289751071514,1.27670123578939,1.0931574565484186,,,0.648888643467878,inf,,,0.9395067832790801
335,,0.0,0.0,0.6378402413503375,0.5808893176102571,0.6490123113503304,1.5459257337367314,1.3299460544199708,,,0.6528756675646988,inf,,,0.9458033772993096
336,,0.0,0.0,0.8189014980708503,0.7782161689029953,0.6369786975756321,1.6513578867544174,0.8800930894599435,,,0.6528756675646988,inf,,,0.9357311371163071
337,,0.0,0.0,0.542146470086475,0.4589218619062638,0.49010248388436156,1.5270550117633173,1.0174023409123354,,,0.6602640781246099,inf,,,0.9182819552208554
338,,0.0,0.0,1.1497955055600841,1.1221843377899983,0.6984438339964341,2.079713691003689,1.603176402107672,,,0.6447042257417027,inf,,,0.9288087510381403
339,,0.0,0.0,1.0690984930711391,1.041317242875314,0.7567284207564787,2.5411549244358285,2.102145477583384,,,0.6380535849069913,inf,,,0.9140904484360007
340,,0.0,0.0,0.34102260279914126,0.29260649547473616,0.40676405608189775,1.4980138896106676,1.1087064853044066,,,0.6528756675646988,inf,,,0.9214077027313832
341,,0.0,0.0,1.165516512859294,1.106342301695246,0.7349982672779993,1.3359779986052334,0.9835413709506933,,,0.6038851895711802,inf,,,0.9365379490612817
342,,0.0,0.0,0.5136298859710372,0.4051127822097245,0.4529549233144732,1.1491936774373037,0.8595040123151814,,,0.6584896970785714,inf,,,0.9315244630813434
343,,0.0,0.0,0.5788448596389066,0.5209497447884726,0.5191766840711878,1.5894656607380546,1.0638761203131222,,,0.62595550513784,inf,,,0.7848666732462518
344,,0.0,0.0,1.0329124764667488,1.02942104723245,0.5934466143909398,1.8971316213904768,1.2958877240095243,,,0.6668815377411301,inf,,,0.9308135000316208
345,,0.0,0.0,0.9936054242664087,0.9570259257546607,0.6998013661612764,1.7745692448455452,1.499802758432189,,,0.6566669596287297,inf,,,0.9529117447440936
346,,0.0,0.0,0.6790567679564361,0.6181834805841432,0.5858692012791117,1.9569417208901656,1.3191593785188933,,,0.6284777104787076,inf,,,0.9520606144903596
347,,0.0,0.0,0.25251842945491937,0.21080429645597212,0.5024179930221182,1.6851091254122812,1.6195657519534696,,,0.6233814453054027,inf,,,0.6165119870910867
348,,0.0,0.0,1.2088484213324053,1.1868556051903243,0.7519616409000525,1.826770469538532,1.7819272195546716,,,0.6403206450210053,inf,,,0.9064838973569515
349,,0.0,0.0,0.5651413797559585,0.516650361692491,0.5350941560587537,2.41591837565432,1.307947200813243,,,0.6547956803312163,inf,,,0.5874795213754224
350,,0.0,0.0,0.5663884309169291,0.5432532275271054,0.48507690881811316,1.9494358206312716,1.3299531569601881,,,0.6566669596287297,inf,,,0.9447340561526697
351,,0.0,0.0,0.8252705384472195,0.7320909215425513,0.6206000657132671,1.5229142282808432,0.9456811887226058,,,0.6652988471865258,inf,,,0.9454457084893174
352,,0.0,0.0,0.8619470709455159,0.8333479625031938,0.7309476290615904,1.127956405911964,1.0431725693098917,,,0.6447042257417027,inf,,,0.9461004758757179
353,,0.0,0.0,0.35473155617010393,0.3195762006782472,0.37045534756540505,1.2154049178052562,0.910802339219944,,,0.648888643467878,inf,,,0.7823751591911325
354,,0.0,0.0,0.7443360201821471,0.7322454847046229,0.4947309839870679,0.9604841268258466,0.6568780447890701,,,0.6584896970785714,inf,,,0.952905351659985
355,0.0,0.0,0.0,0.8608439289534475,0.7954993590202059,0.5638121769024524,1.8404108678414233,1.4816011647360832,,,0.6584896970785714,5.703782474656201,inf,,0.9448838421576244
356,,0.0,0.0,0.8805655611034812,0.8735577805738814,0.5271646437723998,1.9992207023837925,1.5047293269308681,,,0.6684167106117298,inf,,,0.9422869800984018
357,,0.0,0.0,0.3745531330033298,0.32871416681878896,0.5063467040984436,2.1653097896991556,1.5594222005176723,,,0.6566669596287297,inf,,,0.6760175801916629
358,,0.0,0.0,1.1170177295833479,1.0442541522228144,0.8189457896577358,1.8461859889494545,1.648842036565744,,,0.6357360191111145,inf,,,0.9514945846335844
359,,0.0,0.0,0.6577971704383887,0.6105100101808701,0.38453476594153313,1.5341541710122826,1.0808737214926856,,,0.6566669596287297,inf,,,0.6650517070350682
360,0.0,0.0,0.0,0.8075588483546907,0.740149537008103,0.5840743377309264,2.7994808962573416,2.5535280473647495,,,0.6333676938231112,5.703782474656201,inf,,0.7919591711736506
361,,0.0,0.0,0.8671679011614768,0.8021087252519978,0.610351316350415,1.7264221880533046,1.2608213295362292,,,0.6528756675646988,inf,,,0.9453817810706939
362,,0.0,0.0,0.4435352165094831,0.4063439441995442,0.5178211523724119,1.5084274891102107,1.1018768290821466,,,0.6284777104787076,inf,,,0.9369444122920466
363,,0.0,0.0,0.6852719628721583,0.62650722001725,0.5942190777962414,1.770420889316251,1.3404392904045692,,,0.581717464821069,inf,,,0.9242711261452925
364,,0.0,0.0,0.8197871865723734,0.7995721783920635,0.698120936195338,2.2778769566184605,2.1244688090883357,,,0.6380535849069913,inf,,,0.9442734889857672
365,,0.0,0.0,1.1411526599193964,1.0993352561121237,0.5964599433343292,2.449060426684026,1.3402426216052348,,,0.6602640781246099,inf,,,0.9534763007071296
366,,0.0,0.0,0.9656033772812657,0.9395715041394108,0.7176488378230752,1.8275065177660486,1.2984355919368986,,,0.5915533975974677,inf,,,0.9491119876669164
367,0.0,0.0,0.0,0.4253206825704049,0.4132044997164769,0.4638678335295292,2.030905842414589,1.3779437939693802,,,0.6357360191111145,5.703782474656201,inf,,0.6426990607472933
368,,0.0,0.0,0.7367116028513805,0.7069526668860141,0.31614532096270553,1.6940812676271997,1.4934864468723268,,,0.648888643467878,inf,,,0.8604432228614745
369,,0.0,0.0,0.9393018257008248,0.8851962114387554,0.6345705839442107,2.015099384506637,1.6610505360451917,,,0.6233814453054027,inf,,,0.9411752875229523
370,,0.0,0.0,0.7035314525549716,0.6538823278849708,0.4056391568907959,1.9400173317602465,1.7043544823320458,,,0.6425374456860184,inf,,,0.649818066045385
371,,0.0,0.0,0.7890343160088527,0.7639466209759674,0.5844970791236589,1.3301091197771426,0.9145827229656041,,,0.663668482632973,inf,,,0.9300709589745537
372,,0.0,0.0,0.6078741959779373,0.5580198177703529,0.5340103103242307,1.5567927725286221,1.0545033083804551,,,0.6403206450210053,inf,,,0.9476967923237352
373,,0.0,0.0,1.3965550622137395,1.3692337552115563,0.8260045425066113,2.0692404098639177,1.777777279837939,,,0.6207552362147116,inf,,,0.9454541293052555
374,,0.0,0.0,0.9674785021066683,0.9519838404032862,0.6531484504604139,2.121965987547326,1.809107311926606,,,0.6425374456860184,inf,,,0.9086440174223772
375,,0.0,0.0,0.6638951803975326,0.6575345814153047,0.5124088012298633,1.557044913714695,1.5878632344303778,,,0.6509067234006624,inf,,,0.9511536998401908
376,,0.0,0.0,0.712470652413187,0.6999099270877391,0.582839802166102,1.9072072705356515,1.7687146588662996,,,0.6153451465759925,inf,,,0.9526638745253255
377,,0.0,0.0,0.9089081500055619,0.885720623015711,0.6917708145131356,2.2612124269408085,1.9322939131581531,,,0.6403206450210053,inf,,,0.9135914326056428
378,,0.0,0.0,0.9809746933787489,0.9739175387659266,0.6544672850359678,2.1371048040039264,1.6717559175996306,,,0.6357360191111145,inf,,,0.9066093539239971
379,0.12405264866997888,-0.0004135088288999296,0.0,0.6323896946963673,0.546288445245302,0.5414177849925482,1.9239925576155483,1.0696687348003477,,,0.6684167106117298,5.82783512332618,inf,,0.9123284023167966
380,,0.0,0.0,0.5151867775619526,0.43931914890616314,0.47241945407633584,1.2782767987238528,1.0239178806559994,,,0.62595550513784,inf,,,0.8937924788567214
381,,0.0,0.0,0.845445976982359,0.8028476478210927,0.6194080110288394,2.057173006535706,1.785831566485935,,,0.648888643467878,inf,,,0.8974757181305095
382,0.0,0.0,0.0,0.8164663607252944,0.7126695866287863,0.5520272480513181,2.6544348881742934,2.507705816396263,,,0.6566669596287297,5.703782474656201,inf,,0.6062558803377488
383,0.0,0.0,0.0,0.7939191988754358,0.7299451607936703,0.6990884886297458,2.2941090672573186,1.8601630507635605,,,0.6619902821573977,5.703782474656201,inf,,0.789929656882213
384,,0.0,0.0,0.18508749434778254,0.13270100699637194,0.3392865453429635,2.078819414246874,1.6381151228036326,,,0.6740851607140061,inf,,,0.6543562620363947
385,,0.0,0.0,0.6100950978669211,0.585497608573494,0.621318149463434,1.333529100330371,1.0451440285390805,,,0.5915533975974677,inf,,,0.9378937817010019
386,,0.0,0.0,0.45925652043737636,0.426937866863172,0.593108130722995,2.310695837174692,2.245080937645541,,,0.6528756675646988,inf,,,0.8053771242881935
387,,0.0,0.0,1.058210840600868,1.0215914130219403,0.6697397800921234,1.6362276974639063,1.1155953576404027,,,0.6357360191111145,inf,,,0.9373039560302051
388,,0.0,0.0,0.9650466870406186,0.9441927597790312,0.6186950535306137,2.4744451937932417,2.6213717940580574,,,0.6447042257417027,inf,,,0.947548207008226
389,,0.0,0.0,1.356118977206587,1.316648879102008,0.8858824915298104,2.3164279068574967,1.9850917076448487,,,0.6153451465759925,inf,,,0.9466348646340434
390,,0.0,0.0,0.8710844817739122,0.8217753760881228,0.6379591604205699,2.0082792297639713,1.2819563793521422,,,0.675384900321601,inf,,,0.9436006876138123
391,,0.0,0.0,0.4645533459105574,0.4062021323328217,0.6182075597076918,1.8997260981755912,1.4997365324304168,,,0.6207552362147116,inf,,,0.947645497113369
392,,0.0,0.0,1.0870861501903244,1.0586334628690641,0.8178438274138051,1.6377159838881075,1.7499208499711572,,,0.6727386042041725,inf,,,0.9412536444462493
393,,0.0,0.0,0.8673689546115306,0.8278731575130001,0.7347939513792238,1.7409162201496533,1.9380133141641298,,,0.6668815377411301,inf,,,0.9488692611365785
394,,0.0,0.0,0.709956654798497,0.7125291779832488,0.5361183651141508,1.0695469045696298,0.4134457519516128,,,0.6333676938231112,inf,,,0.9507048957249523
395,0.11683512795656295,-0.001557801706087506,0.0,0.8443445685280393,0.7209200697409687,0.6029202002025041,1.8578820490277397,1.2877275696972024,,,0.6097226960127671,4.415468521896514,inf,,0.9241255171541357
396,0.0,0.0,0.0,1.1330203331889814,1.1024304605381472,0.7091713521985815,1.652433644810371,1.0749504588379388,,,0.648888643467878,4.605170185988091,inf,,0.6899679447238398
397,0.0,0.0,0.0,1.0252129049571097,1.013141547402302,0.7000283261425257,2.7278519012717135,1.8299446628601,,,0.6233814453054027,4.31748811353631,inf,,0.9104466504627113
398,0.706661516753905,-0.004711076778359366,0.0,0.4825881937576758,0.4566935080811756,0.4582956696126202,1.8843320562231798,1.0130587718935287,,,0.6468212168108125,5.485986529668587,inf,,0.8437521578851024
399,0.0,0.0,0.0,1.0335829076980818,0.9438331921870446,0.7160527774276143,1.5820803604817635,0.6677017175643196,,,0.6038851895711802,4.605170185988091,inf,,0.8454324089068548
400,,0.0,0.0,0.5057812180840343,0.34630997715495293,0.3241877060267737,0.634092053153609,0.3171385750059018,,,0.5978297680564633,inf,,,0.8013549366478264
401,,0.0,0.0,0.3458280430384208,0.30484147626550745,0.5086215937803866,0.2162251658856824,0.21843082594531119,,,0.6357360191111145,inf,,,0.9340784525333253
402,,0.0,0.0,0.2026936958102423,0.15547742863229272,0.33350481583404523,0.8196101047188566,0.7266806231066034,,,0.6380535849069913,inf,,,0.96028694395639
403,,0.0,0.0,0.2127778966817606,0.14981821597333903,0.33722850567433466,0.1648405330306948,0.15650485833271333,,,0.6284777104787076,inf,,,0.9499158075316794
404,,0.0,0.0,0.2703566767940242,0.2437341858215502,0.22452155152361336,0.07201618993932636,0.04772225603574788,,,0.6333676938231112,inf,,,0.9432311383129608
405,,0.0,0.0,0.7869245334008617,0.741609250479554,0.671645256570014,0.045831812949709345,0.04750714990576397,,,0.6566669596287297,inf,,,0.8854468581520691
406,,0.0,0.0,1.473088986570825,1.461329296452342,0.8000058540218592,0.014526936605912937,0.01942271806584068,,,0.6008849035917525,inf,,,0.8480514577050652
407,,0.0,0.0,1.42946726103765,1.4324239137645052,0.7955106535384026,0.015569833267582257,0.020045034120193594,,,0.6125606311107803,inf,,,0.8563530843796966
408,,0.0,0.0,1.4004518663381835,1.4019332519791885,0.8045208925349058,0.017204770449356834,0.023702543554000872,,,0.6233814453054027,inf,,,0.8499613439907783
409,,0.0,0.0,1.504196146701078,1.4925573284797293,0.8916839857907762,0.020935986819899954,0.035370926962422104,,,0.5915533975974677,inf,,,0.8496405424066511
410,,0.0,0.0,1.6193087277206981,1.6036792568704712,0.902552026939831,0.018181623748027634,0.032529086487718115,,,0.6357360191111145,inf,,,0.8527637224519842
411,,0.0,0.0,1.5500905160687164,1.5373437299185735,0.907425814019676,0.025273411116613957,0.04353745915645349,,,0.6380535849069913,inf,,,0.8738400897367409
412,,0.0,0.0,0.5089560754005663,0.45710669086046135,0.41768735011642344,0.47143470183419545,0.2660162490960508,,,0.6425374456860184,inf,,,0.9546524185238331
413,,0.0,0.0,1.185843046322847,1.1107129524893515,0.8327905031145406,0.014070693426180609,0.022146160442108168,,,0.6468212168108125,inf,,,0.8297973622725094
414,,0.0,0.0,0.4240750436583659,0.40364558364438446,0.29771576240946873,0.11432219419471475,0.06519947202596918,,,0.5947193981915972,inf,,,0.9529270867909025
415,,0.0,0.0,1.4956037594776153,1.4832433940719036,0.9078953448130972,0.04353305967561321,0.08306769653540555,,,0.6357360191111145,inf,,,0.845073046982857
416,,0.0,0.0,0.1515848085745051,0.11677035405923973,0.1809191316598414,0.14862782054200635,0.17270598843420304,,,0.6038851895711802,inf,,,0.9399409656803505
417,,0.0,0.0,0.3108102892920412,0.2098764985179483,0.44348679069954033,0.19272695559696207,0.22832501240241931,,,0.5883313578629602,inf,,,0.8957762098823321
418,,0.0,0.0,1.6913773731040336,1.6949535973371783,0.9153606017801086,0.3158981882426777,0.5947565495117288,,,0.6309483474627791,inf,,,0.9111407523179393
419,,0.0,0.0,0.791928284246723,0.7671048256551873,0.6426074345542651,0.22869966927559843,0.4078658455329324,,,0.6207552362147116,inf,,,0.90770602430981
420,,0.0,0.0,0.8917307134842992,0.8505667005140337,0.6579824487194692,0.7908704265170295,0.8273924561546446,,,0.6153451465759925,inf,,,0.8865734256440477
421,,0.0,0.0,1.5051638802789715,1.4726021542650998,0.904689680928532,0.915540037534975,0.9543598300005751,,,0.6038851895711802,inf,,,0.866068158905475
422,,0.0,0.0,0.7330222804401697,0.6784658425031307,0.42901630718786354,0.15990345473890366,0.09464124010141928,,,0.6447042257417027,inf,,,0.9127476311055264
423,,0.0,0.0,1.3508256999331087,1.3198052475692863,0.8058564058794395,0.03578587661562257,0.06456215751036717,,,0.6403206450210053,inf,,,0.8711187223631697
424,,0.0,0.0,1.5733633564242855,1.550217026280045,0.9512851486608951,0.048371243008849714,0.10176905429674973,,,0.5947193981915972,inf,,,0.8530081059120805
425,,0.0,0.0,1.6265999147038523,1.5148364909086298,0.9359245495174333,0.16486831742593822,0.2916454063633027,,,0.6038851895711802,inf,,,0.8746958596772778
426,,0.0,0.0,1.6256285570772526,1.5526109377764767,0.8970379796502166,0.05531226100840335,0.11119298375841591,,,0.6153451465759925,inf,,,0.8769035509090664
427,,0.0,0.0,1.3210178693405736,1.2705115980539454,0.9005011326429628,0.053083889250346517,0.09561630596325149,,,0.5978297680564633,inf,,,0.873502866504579
428,,0.0,0.0,1.0508948027137277,1.0165770876750142,0.7426225966328064,0.2156700697770447,0.2549964884005782,,,0.6068309995095971,inf,,,0.8250176122714391
429,,0.0,0.0,1.282159726941839,1.2574335014954503,0.8292291283544945,0.31913480795437704,0.3708203318766518,,,0.6008849035917525,inf,,,0.8517097893156685
430,,0.0,0.0,0.579972604152922,0.48955784043874184,0.3856077614127727,0.16197351835534302,0.13887331062679706,,,0.5783247308855777,inf,,,0.9432242417477468
431,,0.0,0.0,1.6193416993691618,1.5791027679645577,0.9358503811771672,0.024655971738828122,0.05409807671827904,,,0.6038851895711802,inf,,,0.883184032267811
432,,0.0,0.0,1.5725895102963496,1.5410007346405328,0.9056106846532689,0.03211707971461597,0.06241440718650217,,,0.6097226960127671,inf,,,0.8613409217336081
433,,0.0,0.0,1.5469846437310615,1.3980469859299596,0.8702607020467206,0.23617565087727732,0.2757332884154444,,,0.6602640781246099,inf,,,0.9086378297603781
434,,0.0,0.0,1.7251678861083186,1.6987842408989788,0.9734753213069516,0.4145462377497717,0.7586101155569878,,,0.6207552362147116,inf,,,0.8922304210540404
435,,0.0,0.0,0.7730710355543084,0.7195897013829247,0.3973177509061094,0.15675354780446224,0.20663086725905483,,,0.6357360191111145,inf,,,0.9379121015873564
436,,0.0,0.0,0.7373554316759601,0.7294301242790426,0.36633059194521655,0.02986583389261945,0.028831434037241498,,,0.6468212168108125,inf,,,0.9040800758563863
437,,0.0,0.0,0.9628429746904732,0.9452326189750233,0.7979542483543494,0.02490983988436848,0.04228317116489039,,,0.6447042257417027,inf,,,0.8483111652109459
438,,0.0,0.0,0.2602946548662997,0.1650349419376925,0.23784981153345525,0.15390100208749985,0.12985975224972604,,,0.6468212168108125,inf,,,0.8973832828639886
439,,0.0,0.0,1.5157485564873745,1.4897251078211853,0.8739893936017038,0.1261073888890596,0.20952853501273774,,,0.6068309995095971,inf,,,0.9206906004742949
440,,0.0,0.0,1.4925485366776727,1.4393755827016677,0.8857668675148163,0.10104415893561869,0.15401763833570192,,,0.6097226960127671,inf,,,0.9004383590495705
441,,0.0,0.0,1.5584398564214386,1.5357663353439406,0.9076426811237956,0.06905001895206357,0.0981986904451388,,,0.6068309995095971,inf,,,0.875077637913884
442,,0.0,0.0,0.25831975615694475,0.2436991560198273,0.5086096516718009,0.11968040082799457,0.0981386593080732,,,0.6403206450210053,inf,,,0.9446252027429553
443,,0.0,0.0,1.3178199056284556,1.29676663265338,0.8719930019691867,0.07007501209764078,0.0825570201452795,,,0.6357360191111145,inf,,,0.858765517613515
444,,0.0,0.0,0.35248946034816026,0.29516265230405736,0.3804659730145282,0.27111548099575816,0.26876966169798955,,,0.5370774965580548,inf,,,0.9038009943884491
445,,0.0,0.0,1.150377070593072,1.0285899423157263,0.7097283263236315,0.1778577228521269,0.30547641444457485,,,0.6333676938231112,inf,,,0.7297254530572895
446,,0.0,0.0,1.5993574883538555,1.4188926029793358,0.9470047882082647,0.6414587865375723,0.7262795478685878,,,0.6180765742263259,inf,,,0.8463142435132078
447,,0.0,0.0,0.5421173887448081,0.5009141993535121,0.5263787200664023,1.1722860785125235,0.5779811817830387,,,0.6068309995095971,inf,,,0.9452058252770595
448,,0.0,0.0,0.9366141814566293,0.8893212124040906,0.6466898527492968,0.21891781205492306,0.22641935244161776,,,0.6333676938231112,inf,,,0.8808602953687105
449,,0.0,0.0,1.5892185967395238,1.5817714555106384,0.842646971718295,0.3100376452207507,0.34758005512224893,,,0.6619902821573977,inf,,,0.902733933011708
450,,0.0,0.0,1.404145236640979,1.3746717045708559,0.8476185205514412,0.2782863767283507,0.27501745335509276,,,0.6125606311107803,inf,,,0.8675528828889284
451,,0.0,0.0,1.4446385012511285,1.4084231724728753,0.8769168212086413,0.3159236352743747,0.35307598264421997,,,0.6713451011121618,inf,,,0.8493473713246418
452,,0.0,0.0,0.8466789765321407,0.8253578393562594,0.6452745617154153,0.24556032950443007,0.2268183489644872,,,0.6547956803312163,inf,,,0.880049385735111
453,,0.0,0.0,1.5180573120149463,1.5111677977377589,0.8786438011158525,0.30027122511185744,0.3622284271048389,,,0.6509067234006624,inf,,,0.8917341585512609
454,,0.0,0.0,1.5395909077408059,1.5132223202180886,0.8760621423446187,0.2905561883872593,0.3659475173851007,,,0.6380535849069913,inf,,,0.8854978368048811
455,,0.0,0.0,0.6328729354364413,0.5962871509133995,0.18614004400775674,0.37489480668867786,0.43758047550167095,,,0.6468212168108125,inf,,,0.9530206794052963
456,,0.0,0.0,0.8584115148314475,0.7990672978251292,0.5288657039691296,0.5199508479354924,0.6227057767149814,,,0.6125606311107803,inf,,,0.883465579110842
457,,0.0,0.0,0.18880655353635273,0.13517838075445562,0.13004076514831037,0.07349010262431245,0.03363675098143348,,,0.5947193981915972,inf,,,0.9567398359980198
458,,0.0,0.0,1.1073838548473631,1.0988295602418314,0.8180483093574382,0.024928518384190905,0.04291901410449328,,,0.6125606311107803,inf,,,0.8454958426623107
459,,0.0,0.0,0.2205191014544508,0.1735027030958971,0.30803049804978505,0.07066796996742616,0.05238737428475579,,,0.5915533975974677,inf,,,0.9487524825544034
460,,0.0,0.0,0.20466859451959732,0.17441994430004737,0.32026211551275124,0.17659851705319368,0.20384370298585475,,,0.648888643467878,inf,,,0.9052729456815024
461,,0.0,0.0,1.4124795056047037,1.3924457845602138,0.8520804828866982,0.2190931829542376,0.3443070337441217,,,0.5641709578113449,inf,,,0.8038345714421048
462,,0.0,0.0,0.21103373620254542,0.11119836123632336,0.36792691778601705,0.3309711640962927,0.3483805159627121,,,0.6403206450210053,inf,,,0.934949782781147
463,,0.0,0.0,1.2884037479004466,1.2454702815143988,0.7546942412806933,0.19365302219958436,0.2520368942056821,,,0.5947193981915972,inf,,,0.8514828664297622
464,,0.0,0.0,1.3343834008200501,1.3335493009549078,0.8030444705612629,0.21820065216905507,0.23964623629313636,,,0.6333676938231112,inf,,,0.8754627369080739
465,,0.0,0.0,1.2415437294478076,1.1868305585629144,0.8229562578449899,0.1975785839396815,0.2201547704351992,,,0.6153451465759925,inf,,,0.8649722947536321
466,,0.0,0.0,1.4770330481568565,1.469679015490908,0.888619555696876,0.28149109614468704,0.34540720267084263,,,0.6602640781246099,inf,,,0.8929291253830932
467,,0.0,0.0,1.5330210208829826,1.5007380343839605,0.9228212065050052,0.4899003661965804,0.6451606302595277,,,0.62595550513784,inf,,,0.9225893658172698
468,,0.0,0.0,0.32690308098251686,0.2687600894044769,0.34895116486961075,0.3385206282919916,0.2956070656592748,,,0.6380535849069913,inf,,,0.9356466287123192
469,,0.0,0.0,0.99417024256274,0.9098841962297186,0.6761492363395786,0.7074300424119175,0.46692527592077493,,,0.5748741956352443,inf,,,0.8815196394002965
470,,0.0,0.0,1.518395744932509,1.4939763606751828,0.9175146567861969,0.6663149043425703,1.0313258159336076,,,0.6180765742263259,inf,,,0.807361149386372
471,,0.0,0.0,1.6414769066074149,1.5607486468058729,0.9654183665044015,0.7708605891094034,0.9828955541624633,,,0.5978297680564633,inf,,,0.9096294988932275
472,,0.0,0.0,0.2876740664894276,0.19691708241853453,0.34112102299375907,0.18224439065841858,0.15069563232930366,,,0.6468212168108125,inf,,,0.8925545841904363
473,,0.0,0.0,1.1494329383654136,1.1266551928250967,0.7873311825519884,0.08524473776364258,0.12783848830704977,,,0.6284777104787076,inf,,,0.8424832072288367
474,,0.0,0.0,1.4519770228007278,1.4199723640737079,0.8516243016124146,0.08688120075766419,0.162370743025471,,,0.6447042257417027,inf,,,0.8243001125729914
475,,0.0,0.0,0.12932326130896363,0.11698791834694086,0.2744845547127425,0.39883885968893873,0.35840126668797245,,,0.6309483474627791,inf,,,0.5950072122590788
476,,0.0,0.0,0.6882863204235998,0.6525462079053816,0.6807640226760866,0.7475054785784353,0.6296847403461071,,,0.6233814453054027,inf,,,0.854024448747928
477,,0.0,0.0,1.6918521209893331,1.6506270382973829,0.9409848194672512,0.6926724738339404,0.9415023248977105,,,0.6038851895711802,inf,,,0.8796784261950823
478,,0.0,0.0,1.230842580839612,1.1926899067116312,0.7965474204984178,0.7317286934825248,0.8885638799255662,,,0.5883313578629602,inf,,,0.8761331840260186
479,,0.0,0.0,0.8536577571906325,0.8153685295429948,0.5687821034747633,0.3948067761249457,0.5216849738838671,,,0.6425374456860184,inf,,,0.8799756528466169
480,,0.0,0.0,0.10060391803536385,0.07377643758263369,0.09089526355174836,0.3807433868859712,0.3962323155362275,,,0.6403206450210053,inf,,,0.9677351146500848
481,,0.0,0.0,0.5921704697332622,0.5103792621404415,0.45221934844450523,0.8428353524199046,0.6875842083987327,,,0.648888643467878,inf,,,0.9529779810101676
482,,0.0,0.0,0.24617879408116716,0.21838693474653864,0.4880313340325082,1.2950562103802339,1.3181512153194568,,,0.6447042257417027,inf,,,0.5736008574321093
483,,0.0,0.0,0.36964757372504325,0.3375552671468403,0.47135320214962606,1.775861016855579,1.3364639670322942,,,0.6425374456860184,inf,,,0.7013974348499534
484,,0.0,0.0,1.0387835391362898,1.000075179825003,0.692668699658929,1.4745444453433152,1.1271209666329507,,,0.6713451011121618,inf,,,0.9316998780272334
485,,0.0,0.0,0.7885347158784071,0.7548021513393028,0.7735708140243203,2.5417426231178606,3.5249394371190044,,,0.6403206450210053,inf,,,0.646543115199124
486,,0.0,0.0,1.4510925276447797,1.3979641978854516,0.9073240518159116,2.0455122902821885,1.869521763627219,,,0.663668482632973,inf,,,0.9239501152279352
487,,0.0,0.0,1.4146616210029905,1.3728494780438245,0.8478534059461205,1.294357034295533,1.7028876242180684,,,0.581717464821069,inf,,,0.8790437960562072
488,,0.0,0.0,1.350282377229102,1.3012260836948728,0.8299075489370009,0.6285144814282807,0.7636262335039237,,,0.6008849035917525,inf,,,0.823032680739236
489,,0.0,0.0,1.4510442937939927,1.436544291492172,0.8084915361737507,0.5956547000714272,0.6156208085763673,,,0.6566669596287297,inf,,,0.9081966314821655
490,,0.0,0.0,0.9826758049950146,0.946747594051207,0.6169481151241728,0.5424019474175056,0.6221074151581458,,,0.6180765742263259,inf,,,0.9149628596962492
491,,0.0,0.0,0.9789431710079888,0.9502804421989751,0.7107472894994047,1.032822024827103,1.085507619504389,,,0.6403206450210053,inf,,,0.944712166600277
492,,0.0,0.0,0.7191188557436381,0.6784593802976673,0.5864100245974982,0.6629191517382927,0.6090403149153034,,,0.648888643467878,inf,,,0.9419543956156742
493,,0.0,0.0,1.075371223479316,1.0493393041727244,0.8224313333352958,0.41038752901758546,0.5323221395292839,,,0.5883313578629602,inf,,,0.9163795604593143
494,,0.0,0.0,0.8156985265568724,0.8019933296439197,0.4559565016965357,0.48582424700347226,0.452110398997646,,,0.6333676938231112,inf,,,0.9419873336947976
495,,0.0,0.0,0.8823752094801147,0.7444760348016611,0.6323294920451269,1.1470080659295687,0.5791149015426549,,,0.62595550513784,inf,,,0.9503700842584255
496,,0.0,0.0,1.0058392390872475,0.9861585165428424,0.6755498139510505,1.9820356708534639,1.5967132809303382,,,0.6447042257417027,inf,,,0.7596403399545766
497,,0.0,0.0,0.3425926612355005,0.28659294950727704,0.40805433382092193,1.6356787366737782,1.2785956028396348,,,0.663668482632973,inf,,,0.5257695233687382
498,,0.0,0.0,1.1116874561139596,1.1015278642231197,0.7108130332199258,1.8885300524960769,1.5803704795147282,,,0.6380535849069913,inf,,,0.9420005280185273
499,,0.0,0.0,0.7504941604897457,0.679619894938548,0.5958072361728965,1.6550881296284545,1.2192158782076743,,,0.6403206450210053,inf,,,0.942482595236333
500,,0.0,0.0,1.0348605097521162,1.0104091809981366,0.7175655102905734,2.510096705521253,2.1767066690240724,,,0.663668482632973,inf,,,0.9340434546649447
501,0.9852836033611064,-0.0032842786778703548,0.0,1.0135530516566893,0.9877206334906996,0.6970166526283399,2.038732737200027,1.3430187619367717,,,0.6008849035917525,6.689066078017308,inf,,0.945247840312873
502,,0.0,0.0,0.6400303676336208,0.609419761615384,0.6538544981931499,1.661817376530032,1.370449865394901,,,0.6468212168108125,inf,,,0.9445690229474009
503,,0.0,0.0,0.9261629336429326,0.894221129079971,0.64648598506577,2.5309072275256708,1.886265503211869,,,0.5915533975974677,inf,,,0.9441794928874256
504,,0.0,0.0,0.8761874465411669,0.7958786560559681,0.5613534017807043,1.701168780458623,1.4819984810236437,,,0.6284777104787076,inf,,,0.9443606938520358
505,,0.0,0.0,0.4987426503901187,0.48027550492377213,0.35742913852871666,1.884730479485499,1.1922896755013184,,,0.6584896970785714,inf,,,0.6880412142844538
506,,0.0,0.0,1.0455214157004102,0.9864673601464,0.5540080355851035,2.2875438734835742,2.3329637610101126,,,0.6333676938231112,inf,,,0.5837237475324246
507,,0.0,0.0,0.7052254733221265,0.663394277416433,0.5031285316808025,1.8737724901623656,1.5374056031650343,,,0.6180765742263259,inf,,,0.9454989829436806
508,,0.0,0.0,0.9736943672631846,0.9174929398212445,0.682544269334056,2.108570956495211,1.8799685817689333,,,0.6447042257417027,inf,,,0.9497627221822176
509,,0.0,0.0,0.4313961977487184,0.40580790841411724,0.4264310550600906,1.5596999932258857,1.045950648372242,,,0.6509067234006624,inf,,,0.6765256130359328
510,,0.0,0.0,0.6688098371013642,0.6476166767981454,0.6345467420347864,1.0078940049981602,0.8632309403337595,,,0.6357360191111145,inf,,,0.9481074609236293
511,,0.0,0.0,1.2472478361526995,1.2250597583585914,0.7644991313329459,2.030737066896632,2.1218272250802075,,,0.6403206450210053,inf,,,0.895740757727964
512,,0.0,0.0,0.744715876392748,0.7366894015111162,0.676127149638838,1.6532921492798773,1.2755129729181953,,,0.6097226960127671,inf,,,0.8433336686348971
513,0.11001413821944586,-0.0014668551762592782,0.0,0.8170250267935221,0.7151159170288443,0.6702732108701104,2.2144687095017774,1.556322954849402,,,0.6447042257417027,4.420998489905975,inf,,0.7682779249140338
514,,0.0,0.0,0.5400792858211495,0.5263598572440015,0.451308793621513,2.2147101084467673,1.6465747214033004,,,0.6509067234006624,inf,,,0.816638507824631
515,,0.0,0.0,1.147175107073832,1.1081748612524247,0.6649435044265297,1.745420883638605,1.325363347256721,,,0.6284777104787076,inf,,,0.9340158682906651
516,,0.0,0.0,0.6955265764304456,0.631093732534636,0.635456028787601,1.422779215027108,1.0881714989159694,,,0.6668815377411301,inf,,,0.9484042595805817
517,,0.0,0.0,0.822892947560789,0.79424120162552,0.5475327024166817,1.5130419795453014,1.1816648451735825,,,0.663668482632973,inf,,,0.951095672916719
518,,0.0,0.0,0.5813136018550918,0.5401180016666602,0.4590828384887484,1.011472207164231,0.8292309646413194,,,0.6509067234006624,inf,,,0.9484418787140313
519,,0.0,0.0,0.9615621464778321,0.9157555180574669,0.627433097594653,1.6784934395294058,1.0017558050285498,,,0.648888643467878,inf,,,0.8941910319754112
520,,0.0,0.0,0.8543051268950584,0.8302559078117699,0.6242093319650678,2.0755427425723627,1.3163927591992102,,,0.6425374456860184,inf,,,0.8824773793136906
521,,0.0,0.0,1.0151593756367507,1.0021803389175739,0.691544564240875,1.9793940584961058,1.6651704753335823,,,0.6547956803312163,inf,,,0.941717576911849
522,,0.0,0.0,0.8093770919582901,0.7749346946525439,0.6246296941040339,2.4997504421375987,2.2418471498723433,,,0.6097226960127671,inf,,,0.6414491549479795
523,,0.0,0.0,0.31677554363971727,0.2910496413900839,0.32861608697664524,1.1101159636717173,0.8573885613669461,,,0.6425374456860184,inf,,,0.6917705335736031
524,,0.0,0.0,0.9263484820840217,0.9048154067645974,0.544169170125043,1.2301944941288756,0.8165459988153889,,,0.6468212168108125,inf,,,0.953872743926862
525,,0.0,0.0,0.634167207458079,0.5787346864099872,0.615416203159582,1.1009213323590803,0.9612898943166515,,,0.648888643467878,inf,,,0.944991593373946
526,,0.0,0.0,0.9104220207004698,0.8996264318651974,0.659080693981066,1.697116569079774,2.01276497517119,,,0.6309483474627791,inf,,,0.9515072749372591
527,,0.0,0.0,1.340657581129959,1.3023073927419642,0.819462150229374,1.3642380806110461,1.2892959485419206,,,0.6380535849069913,inf,,,0.9477276176031372
528,,0.0,0.0,0.7163950904987126,0.6510896039573795,0.703560676300412,1.1367613572633026,0.8836567437212235,,,0.680118107274185,inf,,,0.9520377902671409
529,,0.0,0.0,1.059044934038182,1.0408563377164655,0.6717237760834835,1.2628814635293446,1.2909357388345184,,,0.6403206450210053,inf,,,0.9534101641790003
530,,0.0,0.0,1.2209023448920446,1.1643498580246212,0.8245366886188558,1.9731540611736837,1.7857027643484924,,,0.6778444222523095,inf,,,0.9225013732157555
531,,0.0,0.0,1.0332249968652683,1.0066597298657496,0.771599459000864,1.7629144619885908,1.0343454860254095,,,0.6380535849069913,inf,,,0.9412853490985654
532,,0.0,0.0,0.9471858748488281,0.8936802499855714,0.6144653910085118,1.3747982614108363,1.1701703516839057,,,0.6699045166045591,inf,,,0.938759015937324
533,,0.0,0.0,0.6066486233165438,0.5340627582923527,0.539983319684096,1.1336048516340689,1.037589935473698,,,0.6309483474627791,inf,,,0.9411448638734644
534,,0.0,0.0,0.9103306560111576,0.8954978007944198,0.6695669970335208,0.860541718252718,0.6148865082216618,,,0.6357360191111145,inf,,,0.8637052970892402
535,,0.0,0.0,0.6076673903087473,0.5381412999090681,0.47490830762625924,0.7870162089048611,0.5705098718533994,,,0.6309483474627791,inf,,,0.8930661251522349
536,,0.0,0.0,1.1096893492101152,1.0865112165808348,0.7271419114411356,1.6925022551737323,1.3286841092824855,,,0.6425374456860184,inf,,,0.9475476343040624
537,,0.0,0.0,0.7773444781746487,0.6294961256226691,0.5149512657197438,0.5591260112394607,0.28241254528975324,,,0.6380535849069913,inf,,,0.9470766565738462
538,,0.0,0.0,1.0190845722774193,0.9753275829359156,0.7597819789423416,1.2845518421390312,0.9117506022472786,,,0.6668815377411301,inf,,,0.8492380721100875
539,,0.0,0.0,0.4064216816961138,0.34358355793592993,0.47633809012734907,0.9601153508493318,0.7402458097181605,,,0.6509067234006624,inf,,,0.9212341780654484
540,,0.0,0.0,0.9639510432673867,0.925167732765928,0.5597415415805566,1.2467668696431158,0.7120395209821049,,,0.62595550513784,inf,,,0.9453396028758838
541,,0.0,0.0,1.0466135947517512,0.9815169961137525,0.6624521990645588,1.1238624073087515,0.7802947542440009,,,0.6509067234006624,inf,,,0.9257727558619304
542,,0.0,0.0,0.9920275330743402,0.9326193552914994,0.6264373687161905,0.9761847001084403,0.6145533025588755,,,0.6425374456860184,inf,,,0.9318088692229418
543,,0.0,0.0,0.7582652204727112,0.6917652772056097,0.58364162751731,0.9252115009485418,0.5072429466079691,,,0.6403206450210053,inf,,,0.9497990281338361
544,,0.0,0.0,0.8119224389581186,0.7876385603490272,0.5804185865102929,0.8754703463207262,0.5373294390191987,,,0.6309483474627791,inf,,,0.9452727437364978
545,,0.0,0.0,0.7793175403966732,0.7072582862200746,0.573738575619276,1.2938982192219448,0.7831598660524317,,,0.62595550513784,inf,,,0.94802843518388
546,,0.0,0.0,0.7709621229969064,0.7536740172406126,0.6090220882207434,1.295126069008085,0.8257167922373998,,,0.6207552362147116,inf,,,0.9525246647466861
547,,0.0,0.0,0.9210202328212928,0.9081367395406101,0.6227165166232952,1.7074937893126587,1.2426352696477914,,,0.6357360191111145,inf,,,0.950665576846581
548,,0.0,0.0,0.8457703648102267,0.8202532010334751,0.5944658745480775,1.8508828612649437,1.2298891094748365,,,0.6207552362147116,inf,,,0.9544236820459472
549,,0.0,0.0,0.9015446072815313,0.8508772474937234,0.616420249060973,1.1755504774147982,0.9892891972051314,,,0.6509067234006624,inf,,,0.9389210768433779
550,,0.0,0.0,1.003127808831655,0.967755031142553,0.6576524895785106,1.734919638242967,1.222336190583205,,,0.6008849035917525,inf,,,0.9467091155945396
551,,0.0,0.0,0.7030959746874121,0.5928443621495404,0.5250982674810387,1.1867487901661287,0.9035637111663093,,,0.6125606311107803,inf,,,0.9230033310301318
552,,0.0,0.0,0.8658413742315566,0.8106911090534896,0.6540161147439351,1.3610122469522914,0.9928805038998163,,,0.6447042257417027,inf,,,0.8888547479677972
553,,0.0,0.0,1.3518736599491687,1.32465576915431,0.8283618205831916,3.4090650699519776,5.348043911107908,,,0.6333676938231112,inf,,,0.9286378637288301
554,,0.0,0.0,1.3796373649150413,1.3537995781418013,0.8577918087735423,2.311739041420521,1.4394686072892733,,,0.6180765742263259,inf,,,0.9396217511057201
555,,0.0,0.0,0.9705683923121566,0.9325747847294096,0.7474374754860864,1.9199103516368499,1.7371331983339608,,,0.6284777104787076,inf,,,0.9418724496149602
556,0.0,0.0,0.0,0.9277201357779592,0.8795705867736062,0.6696239913720684,2.8780621446794683,2.4967026543940474,,,0.6309483474627791,5.0106352940962555,inf,,0.8523746074895053
557,0.0,0.0,0.0,0.6559799020561301,0.6412460791575353,0.5931801413463045,2.1812507762110456,2.6034522148411425,,,0.6547956803312163,5.703782474656201,inf,,0.9381321285118351
558,,0.0,0.0,0.625208079196306,0.5571285374533235,0.5870900019964762,2.1084252381536484,2.1289069587598446,,,0.6207552362147116,inf,,,0.9486760253382722
559,,0.0,0.0,0.9014759152225174,0.8265205711991324,0.6949952362749288,2.2533458676486062,2.240520965683904,,,0.6447042257417027,inf,,,0.9423626948687792
560,0.0,0.0,0.0,0.8923256994809002,0.8594926125982283,0.7460773106895163,2.0128860176735666,1.7457038713541384,,,0.663668482632973,5.703782474656201,inf,,0.9471895852764423
561,,0.0,0.0,0.8389881109112464,0.814392696865231,0.6533731937480388,1.0103384884594104,0.5687812970562909,,,0.6068309995095971,inf,,,0.9299353603412761
562,,0.0,0.0,1.2488848018287921,1.2238181822895893,0.770075265306441,1.2108267833978694,1.3580317212779691,,,0.6357360191111145,inf,,,0.94181830451145
563,,0.0,0.0,0.9971694593618219,0.9842500442334413,0.6554683132784942,0.8703111758052243,1.0484747806613293,,,0.6207552362147116,inf,,,0.8680712202167893
564,,0.0,0.0,0.8110775453531394,0.7868776821003878,0.586268777759422,0.606187362860934,0.559524415058604,,,0.6333676938231112,inf,,,0.8618685144088315
565,,0.0,0.0,0.9435098825323462,0.9289094660366733,0.5158348858041185,0.8422908587945475,0.5619316468359459,,,0.6309483474627791,inf,,,0.952451608268393
566,,0.0,0.0,0.7775638987586514,0.6965352213904201,0.5057925165175452,1.2796063258089845,0.9807046921123603,,,0.6233814453054027,inf,,,0.9538548527143915
567,,0.0,0.0,0.622194867420554,0.46073865790532975,0.3628875049054343,0.8741248954895061,0.5969554219830628,,,0.648888643467878,inf,,,0.9533175684702903
568,0.0,0.0,0.0,0.22976106386191675,0.17974089394524145,0.30925135757027133,0.7447805475850551,0.7184700343874519,,,0.6447042257417027,5.703782474656201,inf,,0.6869904964871126
569,,0.0,0.0,0.22733628620625645,0.20046331555565136,0.3543294669022317,1.6207281415801091,1.2716206806793209,,,0.6684167106117298,inf,,,0.6115803089948566
570,,0.0,0.0,0.606593259863417,0.5311494058932762,0.4655787271417805,0.8617260636959047,0.45851271297881735,,,0.6380535849069913,inf,,,0.9397187728236333
571,,0.0,0.0,0.9742909131512215,0.9293403769483697,0.6415500075900155,1.1067895683277977,0.69768452931999,,,0.648888643467878,inf,,,0.9503469171391143
572,,0.0,0.0,0.5888389226328256,0.5393569696510849,0.483606264467003,0.5864778305966684,0.45957655098397454,,,0.6233814453054027,inf,,,0.9105698616202299
573,,0.0,0.0,0.7296979125872002,0.6393804378677191,0.3475035075360891,1.4153785488898427,1.361915412428374,,,0.6153451465759925,inf,,,0.787842683299867
574,,0.0,0.0,0.884860740482128,0.8290819751165165,0.7299229516986173,1.3657985871887846,1.0510816312303635,,,0.6153451465759925,inf,,,0.8759688378193748
575,,0.0,0.0,0.8724083350992655,0.8331202521900747,0.5038142627121507,0.9504090949053028,0.7094435460259131,,,0.6309483474627791,inf,,,0.9260318914921496
576,,0.0,0.0,0.6235307526596301,0.575593751623807,0.6455937131881514,1.064423816741864,0.4821882501235055,,,0.62595550513784,inf,,,0.9214149388805319
577,,0.0,0.0,1.2645008007921843,1.2612767150539492,0.7442480722798201,1.4396437313934656,0.8454884609995845,,,0.6357360191111145,inf,,,0.9243648413248382
578,,0.0,0.0,1.0758397043851344,1.0180210393261864,0.7240344537599027,1.7072144215881193,1.1745000531804248,,,0.6233814453054027,inf,,,0.9407355582951847
579,,0.0,0.0,1.084908611454149,1.0397580745236517,0.693777206464542,2.1770098188104936,1.3688217375288705,,,0.6509067234006624,inf,,,0.9427736373344762
580,0.6364828379064437,-0.004243218919376291,0.0,0.9964904491189581,0.9781389508326479,0.6370727745389888,2.1290223462385613,1.1534646377520312,,,0.6380535849069913,5.456922396724675,inf,,0.9527460750304869
581,,0.0,0.0,0.8777582909668507,0.8496587307585411,0.6124375297942417,1.3914934114521156,0.6844950757243793,,,0.6566669596287297,inf,,,0.8336802208520866
582,,0.0,0.0,0.7003038241418641,0.6828104050331611,0.4840518871110496,1.9701976918521629,1.4366867399337637,,,0.6447042257417027,inf,,,0.862057160619636
583,,0.0,0.0,0.7775737176850768,0.7314188249931041,0.6226454300287966,1.3654183367698922,1.3206595365109863,,,0.6380535849069913,inf,,,0.935728937229216
584,,0.0,0.0,0.8141538449742102,0.7850812927316589,0.5970673660657458,1.9312753227431838,1.560328230799934,,,0.62595550513784,inf,,,0.6909499143076322
585,,0.0,0.0,1.1033038361461613,1.0496447277137813,0.7511901138731978,1.9325013462709761,1.245003783535044,,,0.6153451465759925,inf,,,0.9292040657880849
586,,0.0,0.0,1.0801296021388114,1.0182205499173846,0.6916661202309313,1.8191172218421663,1.4412491697883747,,,0.6602640781246099,inf,,,0.9062108617982005
587,,0.0,0.0,0.7525168959957611,0.7352086826211954,0.540937966795634,1.7106642668702432,1.7935194905969882,,,0.6447042257417027,inf,,,0.8950745167383621
588,,0.0,0.0,0.865097756688704,0.8091782224002849,0.7279578823976136,2.2333997832500776,2.014598737522057,,,0.6180765742263259,inf,,,0.9493980108955135
589,,0.0,0.0,0.6242025265344481,0.5856805786735853,0.5292974800499736,1.6261720098525971,0.8392399594411575,,,0.6180765742263259,inf,,,0.8491993887677315
590,,0.0,0.0,0.719933723685222,0.6392406500395761,0.5910590312771,1.7728729868023048,1.1547060410304895,,,0.6284777104787076,inf,,,0.7505147641018931
591,,0.0,0.0,0.8128159216303923,0.7333122077041866,0.6323549409554645,1.606294129802509,0.8798868395286015,,,0.648888643467878,inf,,,0.9448174635413632
592,,0.0,0.0,0.8852587267919169,0.8442603316799867,0.663852329382496,1.470505080355989,1.2347216227722597,,,0.6619902821573977,inf,,,0.9398135123636415
593,,0.0,0.0,0.8367713463046854,0.7271187185120161,0.591959719169221,0.7215726996827864,0.38973139745976226,,,0.6425374456860184,inf,,,0.9161745332378627
594,,0.0,0.0,0.7924436141153309,0.7403500389288152,0.5764944804822372,0.7112644645261752,0.439728350315967,,,0.6097226960127671,inf,,,0.844420342037011
595,0.02389533191817422,-0.00015930221278782813,0.0,0.38174366987726327,0.3318623980887242,0.378752826950893,1.4576638030360192,0.9455518296483529,,,0.6566669596287297,5.03424515973539,inf,,0.9283425602379862
596,,0.0,0.0,0.6049164064480911,0.5459873763272852,0.5294937220748044,1.404820246117531,1.255493551806911,,,0.6333676938231112,inf,,,0.7012285323788959
597,,0.0,0.0,0.9167746737031315,0.8837105232584465,0.7818045041368114,2.192209032576893,1.619033924946398,,,0.6284777104787076,inf,,,0.9484084046765624
598,,0.0,0.0,0.83872399322366,0.7946886777502874,0.6997263742704978,2.501134304868804,1.3917301578408687,,,0.6509067234006624,inf,,,0.9499868927243779
599,,0.0,0.0,0.5437863239908558,0.49729927750884856,0.5308610264092313,2.2181079796345093,1.44928812220842,,,0.6357360191111145,inf,,,0.7736209836789224
600,,0.0,0.0,0.7054632982591948,0.698393935747827,0.4752654343154314,1.0337835200282515,0.6484768856155043,,,0.6547956803312163,inf,,,0.6922047024712706
601,,0.0,0.0,0.5469638377651903,0.47297970558779684,0.5100332292239111,1.389036035283098,0.9047659177417027,,,0.6713451011121618,inf,,,0.9491899888222489
602,0.0,0.0,0.0,0.35515268492040003,0.3237798715364364,0.3420088064326314,1.2896417382123015,0.9437979180524192,,,0.6357360191111145,5.0106352940962555,inf,,0.6806990018046638
603,,0.0,0.0,0.8865786024531852,0.8262926344617745,0.653009384739923,0.9958436905877035,0.8092785887094399,,,0.6425374456860184,inf,,,0.8989598190289598
604,,0.0,0.0,0.9930405445772478,0.941062387752436,0.7238990047915406,1.0746375940819461,0.8064118177108763,,,0.6153451465759925,inf,,,0.9532351964598789
605,,0.0,0.0,1.0777531157940654,1.0336177897181245,0.7164741738113575,1.717011160961694,1.1920881562512249,,,0.6097226960127671,inf,,,0.9482494915122552
606,,0.0,0.0,0.7955301443872409,0.7152438424458548,0.6779313236895959,1.1063471914232472,0.8249479929350947,,,0.62595550513784,inf,,,0.9328077267189889
607,,0.0,0.0,0.9599741321760705,0.8615794521910954,0.6435879721612167,0.9291363114670987,0.6550959384995897,,,0.6468212168108125,inf,,,0.9020633567539187
608,,0.0,0.0,1.1842340503500068,1.1649376582190933,0.7264533295369515,1.3164817434273541,1.07373558676185,,,0.6403206450210053,inf,,,0.9245138048419099
609,,0.0,0.0,0.9409088277861046,0.9038946393529455,0.6131024711353827,1.3624428790028742,0.7983114840193948,,,0.5883313578629602,inf,,,0.9439683940156648
610,,0.0,0.0,0.8891236160436351,0.8670904172692927,0.6407408438618234,1.874859582793392,1.1813450815738038,,,0.6740851607140061,inf,,,0.9304686351643997
611,,0.0,0.0,0.5535098198287273,0.514341745126489,0.5717791567874939,1.417685642072667,0.967796031210953,,,0.62595550513784,inf,,,0.9064500728938263
612,,0.0,0.0,0.9197627525316145,0.8816161040058541,0.6999944510740173,1.1119212830206873,0.8304007629253398,,,0.6309483474627791,inf,,,0.92958723423726
613,,0.0,0.0,0.4326405966788749,0.3505575040583896,0.47901152188917107,1.1279260341255923,0.8381339675630761,,,0.6668815377411301,inf,,,0.9474134086168341
614,,0.0,0.0,0.7366002412892805,0.6981920520665806,0.5803537725321325,1.8583626091482888,1.0460299808872242,,,0.6468212168108125,inf,,,0.931607240720132
615,,0.0,0.0,1.1818142081712688,1.1231852788635035,0.7813633898683849,1.8623022979242758,0.9555782656619685,,,0.6447042257417027,inf,,,0.93050332786313
616,,0.0,0.0,0.9393704251519115,0.9061592214473375,0.6757852685529282,1.4770946542766792,1.3241292069882153,,,0.6790044388599258,inf,,,0.9443258662571886
617,,0.0,0.0,0.5739527309312391,0.5467768130479924,0.17344705713182904,0.9938748338088772,0.8696726707400793,,,0.6403206450210053,inf,,,0.7110611240214421
618,,0.0,0.0,0.37678872091439597,0.3121615023748724,0.5281033154716557,1.4221893254172475,0.9644675792436777,,,0.6468212168108125,inf,,,0.8468306159095721
619,,0.0,0.0,0.6088920438420867,0.5625915458057605,0.5928801272372125,1.753442969404067,1.0587721528202887,,,0.6357360191111145,inf,,,0.9510232636669743
620,,0.0,0.0,0.9014526115732528,0.8853305665296202,0.5659512798069595,2.1826858207474356,1.4587582417690048,,,0.6357360191111145,inf,,,0.9471199501854859
621,,0.0,0.0,0.9809927894990411,0.8954251573863004,0.6240546601761793,1.627743823000746,1.4901033880888999,,,0.6284777104787076,inf,,,0.939791894405247
622,,0.0,0.0,0.7094939677042162,0.676473396679843,0.6904840704869654,2.103591559382933,1.3879561337223514,,,0.6509067234006624,inf,,,0.9535561905342912
623,,0.0,0.0,1.2073545378682649,1.199999548380655,0.8611130238758744,2.2847190449766153,1.9118663457872604,,,0.6619902821573977,inf,,,0.9412265639079
624,,0.0,0.0,0.8990335915667595,0.8772979033806362,0.5761004963141022,1.845884419046066,1.3956688861489157,,,0.6153451465759925,inf,,,0.9361489679960999
625,,0.0,0.0,1.2300317871080664,1.212664207757622,0.8330806805414083,2.125901077538202,1.7123192719595561,,,0.6447042257417027,inf,,,0.9459076784410421
626,,0.0,0.0,1.0022176423520286,0.9471094355401913,0.7137156161772903,2.2322950430502355,2.5770166054050887,,,0.6468212168108125,inf,,,0.9490660928520929
627,,0.0,0.0,1.0613278924509821,1.0496038941742276,0.6141988013009679,2.102531976609735,1.8257734367025815,,,0.6207552362147116,inf,,,0.9232269263548367
628,,0.0,0.0,0.6246773687472468,0.5379047243427744,0.6441521100900488,1.4795788137488326,1.0380391838290335,,,0.6584896970785714,inf,,,0.9035293801620683
629,,0.0,0.0,0.4820738115309481,0.45478903597985443,0.5889018432626442,1.121659096253691,0.9768410326328947,,,0.6566669596287297,inf,,,0.9569872318307497
630,,0.0,0.0,0.9080429782563653,0.8062176236438108,0.7693483787645126,2.3077052894414907,1.437506867972897,,,0.6068309995095971,inf,,,0.9497816019197736
631,,0.0,0.0,0.7575047626823728,0.7075767531714411,0.7085693760005524,1.9971122535447579,1.7973819457278348,,,0.648888643467878,inf,,,0.9513507403471545
632,,0.0,0.0,0.7186873041622042,0.7011399416563362,0.5555085736832892,1.934854367009695,1.1674470119852807,,,0.6447042257417027,inf,,,0.6743593841125439
633,,0.0,0.0,0.5729764294760008,0.5444472380015698,0.6482225473082264,2.4289765302206465,3.3271226307718043,,,0.6547956803312163,inf,,,0.9423428495478711
634,,0.0,0.0,1.2311815986699721,1.1898440659841967,0.8114534285297977,2.1283412084288056,2.3139135640247614,,,0.6309483474627791,inf,,,0.9467600592040104
635,,0.0,0.0,0.7121304770093138,0.6467046576872704,0.5025453995051449,0.914067448255632,0.7201755288757952,,,0.6699045166045591,inf,,,0.9306448321467228
636,3.506557897319982,-0.011688526324399939,0.0,0.2730027592884021,0.2542699217946514,0.32718247976506454,0.6131977320679327,0.33271166871470625,,,0.5915533975974677,9.210340371976182,inf,,0.6632835744041728
637,,0.0,0.0,0.5833646960315261,0.5425731729614375,0.7658839240143701,2.501184749249387,2.228299865378258,,,0.6425374456860184,inf,,,0.6114795837784142
638,,0.0,0.0,0.7934066415934083,0.7292902057442869,0.6963186749142876,1.8626128249045746,1.0678000890552142,,,0.6425374456860184,inf,,,0.948719714598066
639,,0.0,0.0,0.8612532489380093,0.8241515410012831,0.5368069826719252,0.7356457173148586,0.4578332879045931,,,0.6509067234006624,inf,,,0.9429802158367516
640,,0.0,0.0,0.7798948362090832,0.7414177360003364,0.6162521043162098,1.6973242327688993,1.5502324894193813,,,0.6309483474627791,inf,,,0.8384844148417022
641,,0.0,0.0,0.7542708275000579,0.7191571568233104,0.6477267640186471,1.9638113198344203,1.5844484648645323,,,0.6584896970785714,inf,,,0.8782592582878066
642,0.0,0.0,0.0,0.4347634767166876,0.41843240719783525,0.5324425447317427,2.181126789899317,1.8048494985843053,,,0.6447042257417027,5.703782474656201,inf,,0.6830275604921104
643,,0.0,0.0,1.0244611408953497,0.9791152594421895,0.651957541184323,1.099972164790512,0.4431473513700126,,,0.6468212168108125,inf,,,0.9323742338436332
644,,0.0,0.0,1.0409287055773833,0.9969961814224492,0.6103864559123704,1.2938464017598093,0.5226499655870627,,,0.62595550513784,inf,,,0.9521540979323606
645,,0.0,0.0,0.47341762344005384,0.40608817743001613,0.4108999794400005,0.434458777324548,0.203243447903516,,,0.6447042257417027,inf,,,0.9517682180060687
646,0.22731892272469043,-0.0007577297424156348,0.0,0.9163636736382358,0.7490246116767126,0.6158111072712917,1.0867595814479314,0.34580140038841267,,,0.6284777104787076,5.931101397380892,inf,,0.9413516699598591
647,,0.0,0.0,0.9623464775225026,0.9486813949276269,0.6211130046042471,2.4379490253262053,2.5262419716607716,,,0.648888643467878,inf,,,0.7158972139549044
648,,0.0,0.0,1.0477655717656142,1.0304653682552314,0.6523225292201249,2.034946919566193,0.9034963127740641,,,0.648888643467878,inf,,,0.9333750111770811
649,,0.0,0.0,0.8638981379570667,0.8253587633782592,0.6677873230789599,2.0291757187637205,1.046234297722214,,,0.6602640781246099,inf,,,0.9087095716449411
650,,0.0,0.0,0.9769681451772717,0.9528932796679896,0.7760260026949016,2.0691917414705614,1.1825362316349617,,,0.585052858160615,inf,,,0.9070516708010623
651,5.0106352940962555,-0.016702117646987518,0.0,1.0921425680288868,1.0221147469772247,0.7141361975588211,2.553187584114797,1.774623557883741,,,0.6652988471865258,10.714417768752456,inf,,0.9462266431756879
652,,0.0,0.0,1.3900776333732827,1.3458760199707749,0.8667049061928861,0.3436159576363651,0.6109015604890224,,,0.5287703885177266,inf,,,0.9138559552685834
653,,0.0,0.0,0.3003896726702448,0.2702052436874912,0.4405311755590118,0.24275353035435385,0.39276915731251294,,,0.6008849035917525,inf,,,0.9173309557549556
654,,0.0,0.0,0.2624754478523473,0.16302582847604719,0.3172612378865219,0.21463675838788426,0.30028368155864826,,,0.6447042257417027,inf,,,0.9556980485618147
655,,0.0,0.0,1.5380211062347902,1.5077340168748217,0.9085048012108418,0.1140884662466205,0.20840171788476292,,,0.6547956803312163,inf,,,0.8473149267669221
656,,0.0,0.0,1.4845114737974956,1.4523738337917647,0.8819196808848303,0.18798316261612963,0.28783515790385816,,,0.6097226960127671,inf,,,0.8965286809778034
657,,0.0,0.0,0.7890281101878377,0.7713124523282093,0.7702858010096808,0.1256746121984289,0.18665605508459132,,,0.6284777104787076,inf,,,0.8861441024109248
658,,0.0,0.0,0.9784720125616775,0.9641632518619737,0.6605564150242738,0.17998894046525535,0.2878260264349751,,,0.6068309995095971,inf,,,0.9063947623842115
659,,0.0,0.0,1.2992388022010097,1.2943312107752643,0.8406582865379516,0.22158380782829504,0.2965167623578425,,,0.6284777104787076,inf,,,0.8884823231065784
660,2.4079456086518722,-0.008026485362172908,0.0,0.6521188360077138,0.5812231901926875,0.45817687930883677,1.0581516976880456,0.4996481596817812,,,0.6180765742263259,8.111728083308073,inf,,0.9501771097997623
661,,0.0,0.0,0.30115508928204365,0.25800944527239256,0.4636054288002185,0.29109907883069974,0.3327773398999714,,,0.6333676938231112,inf,,,0.9061439933844949
662,,0.0,0.0,1.160351333425135,1.1226618141837175,0.7379450208584327,0.06558684746302788,0.07337793944320611,,,0.62595550513784,inf,,,0.8049027444192056
663,,0.0,0.0,1.2397769619843835,1.2224662294258761,0.7262707498642829,0.023948124306723037,0.02857284133340785,,,0.6528756675646988,inf,,,0.8239811763481133
664,,0.0,0.0,1.555891602964314,1.5450104548799564,0.8733991157455847,0.017908506055094822,0.023489859094380373,,,0.6180765742263259,inf,,,0.8139425992454168
665,,0.0,0.0,1.0581874337991366,1.0307148416125334,0.805976550691476,0.037917878199239384,0.05123554155477986,,,0.6509067234006624,inf,,,0.877705383014127
666,,0.0,0.0,1.4567633214618243,1.4481331664045862,0.8425737153162742,0.13326239500198933,0.16699257458731423,,,0.6207552362147116,inf,,,0.8626797669667494
667,,0.0,0.0,1.4920159637173263,1.4401536794610912,0.8377978361051996,0.107609258494552,0.15366890613997392,,,0.6008849035917525,inf,,,0.835524490796903
668,,0.0,0.0,0.5345171297210175,0.5090438877416862,0.2414418524406831,0.16884335787457838,0.09259249044016465,,,0.6584896970785714,inf,,,0.9466147229765978
669,,0.0,0.0,1.273107219388734,1.2223358074453679,0.8848129796249103,0.15626969321776807,0.21741700735472963,,,0.6602640781246099,inf,,,0.8866127682760384
670,,0.0,0.0,1.0450597150394676,1.0016359995476152,0.7596454385145222,0.1198297158479181,0.12436259870718828,,,0.6357360191111145,inf,,,0.8594069711954965
671,,0.0,0.0,0.2876284545017464,0.22163395430788418,0.4674363904456064,0.0895458214011855,0.08530858034596178,,,0.5883313578629602,inf,,,0.9081581348241227
672,,0.0,0.0,0.19804851594381867,0.152514010084213,0.30374695882802105,0.166123788644156,0.18652368516229534,,,0.6153451465759925,inf,,,0.9622926379552595
673,,0.0,0.0,0.12463234025682715,0.09175069450005556,0.4006494650554667,0.1521821950013625,0.18040604952297024,,,0.581717464821069,inf,,,0.9352164324427646
674,,0.0,0.0,0.3318267476503989,0.2703398924977587,0.47447033451292264,0.2984433003216165,0.20999811797717027,,,0.6008849035917525,inf,,,0.9383129891285925
675,,0.0,0.0,1.426316031175216,1.4218728789839061,0.8062953188726415,0.17273054865811757,0.22332975910187447,,,0.6068309995095971,inf,,,0.8602077825635689
676,,0.0,0.0,1.386262938522482,1.341624426015568,0.8303233593054854,0.2216376178661537,0.2742811253508761,,,0.6425374456860184,inf,,,0.8727574868482498
677,,0.0,0.0,0.33554641996253404,0.27696481175432236,0.12205312744403708,0.26087773460237884,0.22749846172014332,,,0.6284777104787076,inf,,,0.9674555692462329
678,,0.0,0.0,1.4576726517108138,1.4336560668925389,0.820844076819532,0.09641301456928869,0.11912554796527845,,,0.5915533975974677,inf,,,0.8216037434545435
679,,0.0,0.0,0.2662476963723145,0.21133209956033985,0.28106663600994064,0.34152391793880504,0.18730943696631952,,,0.6357360191111145,inf,,,0.960391162029955
680,,0.0,0.0,0.18592973281183492,0.15853991334014916,0.23195867512639287,0.3023183133702207,0.3657247087285107,,,0.6068309995095971,inf,,,0.8177714603963059
681,,0.0,0.0,0.2286284036166141,0.12327289245492193,0.2593896044193025,0.18383176053490313,0.1795241189014687,,,0.6068309995095971,inf,,,0.6831720479440436
682,,0.0,0.0,1.4041299511634628,1.3580418984192284,0.8281494411451934,0.07417227543432504,0.10817579156726832,,,0.6468212168108125,inf,,,0.8093981712984486
683,,0.0,0.0,1.2915844640363028,1.2579729125708516,0.8317094064234714,0.09336324885881526,0.13102444882376285,,,0.6684167106117298,inf,,,0.8183716521774214
684,,0.0,0.0,0.8255088192837646,0.7962831568460594,0.7734996461342454,0.10206068428382532,0.1475076634249597,,,0.6233814453054027,inf,,,0.8485230640033754
685,,0.0,0.0,1.3117454892505371,1.2777367420519001,0.832289696190413,0.11341836620769463,0.17451834938732966,,,0.6584896970785714,inf,,,0.8374547178846174
686,,0.0,0.0,1.3955201530186199,1.349989893758242,0.852598268380041,0.17761689372300937,0.25847028438260344,,,0.6468212168108125,inf,,,0.8673370791351704
687,,0.0,0.0,1.6833680662815835,1.6499523459808443,0.9296021799657816,0.40281824809583494,0.7031317038147673,,,0.6333676938231112,inf,,,0.9050398918675026
688,,0.0,0.0,1.643454154182038,1.588104728265165,0.937265316209164,0.2723081343580834,0.5059550383023037,,,0.6207552362147116,inf,,,0.8914683876405861
689,,0.0,0.0,0.4584321161726652,0.34394452702007056,0.5399055374689694,0.2567040284361901,0.2545215956259967,,,0.62595550513784,inf,,,0.924697020182062
690,,0.0,0.0,1.4431373857202905,1.428702390298725,0.869093540751098,0.2413625464263126,0.3592333958076005,,,0.6468212168108125,inf,,,0.8817575777576141
691,,0.0,0.0,0.22490934442804392,0.1341526690598646,0.29451200385737886,0.13304649823677214,0.11780968415511794,,,0.6038851895711802,inf,,,0.9415654970805044
692,,0.0,0.0,0.06698765724152844,0.058992696056470326,0.2079519889466735,0.3245371829105827,0.34219447607670517,,,0.6125606311107803,inf,,,0.9666413178352269
693,,0.0,0.0,1.5730825761221168,1.5517109001255363,0.9183262705496851,0.4415077969573864,0.6698568077631927,,,0.6528756675646988,inf,,,0.8894975549315232
694,,0.0,0.0,1.3537485000550467,1.3247958917581157,0.9172474140253402,0.48357819488762693,0.738253602756682,,,0.6097226960127671,inf,,,0.9153845560618025
695,,0.0,0.0,1.5770292792054208,1.5811472398838438,0.9238146198374604,0.44504804303800766,0.5715762430782759,,,0.6425374456860184,inf,,,0.9034180624556452
696,,0.0,0.0,1.6133127191355945,1.5826919323035054,0.9475541787398549,0.5028728649681627,0.6869510315999491,,,0.6468212168108125,inf,,,0.906939762159486
697,0.0,0.0,0.0,0.6443065871671804,0.6041025121040883,0.6143311492726424,1.3695037258129026,1.0135644446006047,,,0.62595550513784,5.703782474656201,inf,,0.7361570341968764
698,,0.0,0.0,1.1504929299067654,1.1220466624899847,0.8287191570537777,2.254718555789193,3.2759958761808674,,,0.6447042257417027,inf,,,0.9430285175241797
699,,0.0,0.0,0.9132451029710159,0.8965572084928476,0.7135680759633765,1.7476925082784145,2.506971768619655,,,0.6038851895711802,inf,,,0.9086046631805442
700,,0.0,0.0,0.5908911537949354,0.5846783247253012,0.2922542777012494,0.44936300287344055,0.49057689910497804,,,0.62595550513784,inf,,,0.6173848304587718
701,0.6733445532637656,-0.0022444818442125523,0.0,0.3126285286042901,0.2957814663736327,0.39230156188202525,0.6572178047648463,0.45678050526288694,,,0.648888643467878,6.3771270279199666,inf,,0.8453210613699429
702,,0.0,0.0,0.8585772655649464,0.7671406157364717,0.7340284052335346,1.1973749267240459,1.053255515510565,,,0.62595550513784,inf,,,0.9479410561623955
703,,0.0,0.0,0.9184633396894966,0.9042263726141303,0.6787415818764517,2.1467411594295873,2.396354112851298,,,0.6528756675646988,inf,,,0.9359904640303214
704,0.0,0.0,0.0,0.5051998275799943,0.4900770025161145,0.4437549721607779,1.7433780208865257,2.1312984991131207,,,0.6097226960127671,5.703782474656201,inf,,0.949146357940462
705,,0.0,0.0,0.9564809915055689,0.9260010466745637,0.6412403328191253,1.2324045119960525,0.7003762074815454,,,0.6425374456860184,inf,,,0.9362642247378721
706,,0.0,0.0,0.9945602272388062,0.8753968883466698,0.6573873201469296,0.8774168642353584,0.44851372238836884,,,0.6403206450210053,inf,,,0.9495997865983967
707,,0.0,0.0,0.8853055656956516,0.8503737226779484,0.5508941759308306,0.4558838898806401,0.38937100844078565,,,0.6380535849069913,inf,,,0.9403801308112679
708,,0.0,0.0,0.6835314616267181,0.6623298633760242,0.6011938754377125,1.1949694960267925,0.8300648429916833,,,0.62595550513784,inf,,,0.9374118295301418
709,,0.0,0.0,0.7201268207795889,0.7020823143713475,0.7101124951610958,1.2727749100345165,0.7060270524049423,,,0.6509067234006624,inf,,,0.9326194008535456
710,,0.0,0.0,0.386099784800495,0.33758350235541756,0.45316541019685935,1.1382539156838383,0.8569746083084431,,,0.6233814453054027,inf,,,0.9393513732338209
711,,0.0,0.0,0.767683073327905,0.728233258520953,0.5506873308177445,0.6657055757101348,0.5001821610179487,,,0.6425374456860184,inf,,,0.9428965285873434
712,0.0,0.0,0.0,0.6878881697561332,0.6362311990428153,0.6758015096930284,1.1750527884966473,0.6322972522548653,,,0.6447042257417027,5.703782474656201,inf,,0.9493059797939758
713,,0.0,0.0,0.5490052732415311,0.5141384929295032,0.47594524544320016,0.542784540604695,0.3837042291604402,,,0.6008849035917525,inf,,,0.9328855446465935
714,,0.0,0.0,0.8507882860627182,0.8237653749621591,0.7196816903900284,1.2492425978542565,0.5313985690071206,,,0.6233814453054027,inf,,,0.9403355053295821
715,,0.0,0.0,0.894871152655134,0.8534273507850371,0.6243104247542808,1.9107379845328523,1.8796010044934681,,,0.6403206450210053,inf,,,0.924597808490588
716,,0.0,0.0,0.6365431802940682,0.6311926504333504,0.5965406452082604,1.5332563682873073,1.1399338158004257,,,0.6309483474627791,inf,,,0.9412308862016108
717,,0.0,0.0,0.7677513068347375,0.7482949569572923,0.6111694428810215,1.5995986978141836,1.6471210383650772,,,0.6547956803312163,inf,,,0.9507597550975583
718,,0.0,0.0,0.43802945564703205,0.40949401246198036,0.43991598647236635,1.1443835117781636,0.9825228696712989,,,0.6153451465759925,inf,,,0.9038823131790601
719,,0.0,0.0,0.8310913466967208,0.7925106983627057,0.6333844247087703,1.886689566741319,1.8944876967879747,,,0.6619902821573977,inf,,,0.9259572082063285
720,,0.0,0.0,1.0703880797646301,1.0364159513276388,0.8031234350951076,2.2086172682077696,2.0439859198634602,,,0.62595550513784,inf,,,0.9488342238209043
721,,0.0,0.0,0.7321932876843659,0.6846798574868377,0.6699973272123153,1.5555235687493174,1.4559417398223018,,,0.6468212168108125,inf,,,0.9497032415271519
722,,0.0,0.0,0.5338302673221924,0.4320653561836497,0.2871771169207795,0.49245454331300065,0.3975515882480707,,,0.6425374456860184,inf,,,0.9362691769359627
723,,0.0,0.0,0.6025034575516518,0.552026630435914,0.6647549610644852,1.0658828418742414,1.200180343281213,,,0.6403206450210053,inf,,,0.9140515368418959
724,,0.0,0.0,0.5139044749568962,0.4832757018519723,0.5106756726589761,0.5535494620868763,0.6696349339494446,,,0.6309483474627791,inf,,,0.9455829573118985
725,0.0,0.0,0.0,0.6943180455140143,0.6634803473381504,0.5105839389857925,2.4998635989499927,2.246630659505444,,,0.6403206450210053,5.0106352940962555,inf,,0.7424139403753196
726,0.0,0.0,0.0,1.0538828060159828,1.006831527190308,0.6749825098436354,3.118527964514865,3.3767412331306903,,,0.6207552362147116,4.605170185988091,inf,,0.8888778277854748
727,,0.0,0.0,1.0630531983399238,0.9810626747027891,0.7589322443760178,2.4308575028685486,1.6946446943459121,,,0.6425374456860184,inf,,,0.941338544457897
728,,0.0,0.0,0.7016878273375602,0.6090534801265367,0.4429519046812573,1.3258501140215149,0.7868380020223191,,,0.6038851895711802,inf,,,0.953212303281831
729,0.15735537241985012,-0.001049035816132334,0.0,0.6589947752375498,0.43983077718913716,0.4497468135420294,1.250056105054954,0.74180621782586,,,0.6509067234006624,5.155661066146513,inf,,0.7199648456486292
730,,0.0,0.0,0.9209204065867366,0.7612169548266966,0.6620318942724525,1.2627950981960925,1.2015905204925423,,,0.6207552362147116,inf,,,0.9327242114600294
731,0.0,0.0,0.0,0.8629391924847126,0.8370877601927585,0.6754280769863656,2.2965772503546886,1.6015892636785911,,,0.6425374456860184,5.703782474656201,inf,,0.73439990202674
732,,0.0,0.0,0.7071144995045952,0.6878037351568347,0.68929931492709,1.8496460826037056,1.6737968283614066,,,0.6619902821573977,inf,,,0.9414253109927606
733,0.0,0.0,0.0,1.1795799662067843,1.150452183775308,0.7389707940297585,2.982920642137237,1.9692229394927172,,,0.6380535849069913,3.624340932976365,inf,,0.7396680038837603
734,0.34030217008590935,-0.009074724535624249,0.0,1.0746998947198527,1.045497402360003,0.7243786928384816,2.8015952796726706,1.756915074496869,,,0.6468212168108125,3.808163615896587,inf,,0.7643058635476977
735,,0.0,0.0,1.007498208264596,0.9635998681957347,0.655505362848614,2.579089335157517,1.7853370089664837,,,0.6425374456860184,inf,,,0.9286809101873049
736,0.7078095319488217,-0.016515555745472504,0.0,1.0512298948986536,1.0349914501090476,0.675426693585592,2.5494058187697153,1.7434140682948782,,,0.6284777104787076,4.027932796702849,inf,,0.7687830446014318
737,,0.0,0.0,1.1071541449041906,1.0717865064233107,0.721675763057358,2.868350641221384,2.695976574629074,,,0.6528756675646988,inf,,,0.747049715125617
738,,0.0,0.0,1.0364672158086234,0.9996618300603559,0.6952806425312305,2.0575406788648714,1.1216758880432907,,,0.6207552362147116,inf,,,0.9485495028407755
739,,0.0,0.0,0.7543314694912056,0.6784644322398802,0.5176058555974543,2.259791591986296,2.802174338705274,,,0.6309483474627791,inf,,,0.6928243490104822
740,0.16644820763766446,-0.0005548273587922148,0.0,0.6649368630732582,0.5909941816814438,0.6179760847171664,1.7421206709013672,1.1398893110761124,,,0.6528756675646988,5.870230682293865,inf,,0.9495805872035815
741,0.0,0.0,0.0,1.1931516913636722,1.1561281171878437,0.7485289679968876,2.946335947248893,4.073161237668161,,,0.6566669596287297,5.0106352940962555,inf,,0.9450628116333055
742,,0.0,0.0,0.9570226296043829,0.9090788889516423,0.6538104314507074,1.796307343326683,1.6297626034495556,,,0.6097226960127671,inf,,,0.8809890366429155
743,0.0,0.0,0.0,0.6963637227095995,0.6249332723234997,0.5607271839837249,2.544167442473115,1.689668342030414,,,0.6357360191111145,5.0106352940962555,inf,,0.8874658498842095
744,0.0,0.0,0.0,1.0525241254218618,0.9912571946570351,0.7263689792848312,3.617707376238808,3.6194655076868743,,,0.6425374456860184,4.31748811353631,inf,,0.7872181778884779
745,0.10111640194377022,-0.001348218692583603,0.0,0.8536772871230094,0.822147345562492,0.5723248857962622,2.8421149845293923,2.0040055681269884,,,0.6652988471865258,4.4081424818044415,inf,,0.8886514727178718
746,,0.0,0.0,0.8781661393573829,0.7887885420158492,0.7042730748445475,2.075798190909261,1.317981743308887,,,0.6509067234006624,inf,,,0.8931259847012577
747,2.0661963149298153,-0.006887321049766051,0.0,1.0458297323328731,1.0377388628746282,0.665132164307547,2.1788474373908695,1.8246303244401392,,,0.6468212168108125,7.769978789586016,inf,,0.9510187797619342
748,0.008403559158190644,-5.602372772127096e-05,0.0,0.9419444268575705,0.8563324766394581,0.6418023847780953,1.7664230889130743,0.9993562660186708,,,0.6602640781246099,5.019003543766773,inf,,0.9298354242255521
749,0.0,0.0,0.0,0.7160432995502372,0.6671089287746937,0.5770469282108062,2.5141693036460975,1.994312877432773,,,0.6713451011121618,5.703782474656201,inf,,0.6097878311085747
750,,0.0,0.0,1.2405031989368318,1.1737366341293727,0.7383877671068069,2.38755959654053,0.7443047836353176,,,0.6547956803312163,inf,,,0.9233580842570973
751,,0.0,0.0,1.007629372195988,0.9663646258217012,0.6510534009118594,1.7811399506233128,0.7597786895836398,,,0.6602640781246099,inf,,,0.9511268204535926
752,0.0,0.0,0.0,0.8077195799468418,0.6636109703682695,0.6860016140259401,1.7704576463299386,1.3022741798211006,,,0.6357360191111145,5.703782474656201,inf,,0.9160054004606929
753,0.0,0.0,0.0,0.3954715276748812,0.36590743206959425,0.47480956735466023,1.4284585308904698,0.8858557705589558,,,0.6602640781246099,5.703782474656201,inf,,0.8922590495278931
754,,0.0,0.0,1.0459947552039865,1.0265978048109161,0.6800479966210495,1.5647865146371365,0.9575267848116387,,,0.648888643467878,inf,,,0.9112378481400212
755,,0.0,0.0,0.8582697342897505,0.8212700013753433,0.5901650090361498,1.1157050651635962,0.800947897693246,,,0.6584896970785714,inf,,,0.8884781469937261
