,temp+bvp_XAp0,temp+bvp_XAp1,temp+bvp_XAp2,temp+bvp_XCond1,temp+bvp_XCond2,temp+bvp_XDist,temp+bvp_XFuzz1,temp+bvp_XFuzz2,temp+bvp_XK2_1,temp+bvp_XK2_2,temp+bvp_XPermEn,temp+bvp_XSamp0,temp+bvp_XSamp1,temp+bvp_XSamp2,temp+bvp_XSpec
0,0.0,0.0,0.0,1.380786351504725,1.3293882118948985,0.8962659226201183,3.86204891694852,2.1112914663020095,,,0.648888643467878,3.4011973816621555,inf,,0.6616141991266524
1,0.6032409465849777,-0.02010803155283259,0.0,1.2279759365726448,1.2350584704223515,0.8160305405729652,3.6865235319568948,2.894985670454028,,,0.62595550513784,3.6809112844647593,inf,,0.8816536273703641
2,0.27485323233789916,-0.0073294195290106445,0.0,1.255281960822084,1.2476389976575308,0.8279710010909122,3.8145771976877287,20.25285917159407,,,0.6509067234006624,3.8066624897703196,inf,,0.7288648451498437
3,0.20278993876773432,-0.00608369816303203,0.0,1.2881892493772633,1.2512904636575362,0.764808965612448,3.3984438567564386,2.176415806644348,2.0889365983944077,,0.6668815377411301,3.6115069749962787,2.0956144009254367,inf,0.8159081858445784
4,0.0,0.0,0.0,1.0475244221619793,1.0121136488623106,0.7983743831845292,4.727276593855716,20.506878650111332,,,0.6403206450210053,5.0106352940962555,inf,,0.6351129632515078
5,0.0,0.0,0.0,1.1095154757779495,1.104834084707521,0.728431006661212,3.6913866828492385,2.72824250636963,,,0.6652988471865258,4.31748811353631,inf,,0.8982995848400277
6,0.5981750823316274,-0.013957418587737974,0.0,1.095555337343582,1.068920704594478,0.7859732872914326,3.4141979466018815,2.0888353359675897,,,0.6153451465759925,4.073235599011865,inf,,0.7786226680809748
7,0.26395156746392934,-0.004399192791065489,0.0,1.285238619173736,1.276865551160721,0.7876806426306522,3.939855132780526,10.011838021060184,,,0.62595550513784,4.30836320575931,inf,,0.8330445220327605
8,0.0,0.0,0.0,1.070718441382539,1.025066212393714,0.8344353193569369,3.422241292994759,1.81152061025377,,,0.6380535849069913,4.605170185988091,inf,,0.8561224229423017
9,,0.0,0.0,1.2439892122905298,1.2416352472141625,0.7674905224630078,3.7059402821197382,2.643157178078227,,,0.6468212168108125,inf,,,0.8495652382913996
10,0.0,0.0,0.0,1.1051168907798514,1.0906135022206491,0.7848625174235134,3.299529412271607,8.402137459834373,,,0.6602640781246099,5.703782474656201,inf,,0.5929604469039531
11,0.0,0.0,0.0,1.1773043482143286,1.1370564548605218,0.7892644495357957,4.353981736437644,6.328253257831722,,,0.6602640781246099,4.0943445622221,inf,,0.6760540943823694
12,0.1370712962461455,-0.005025947529025335,0.0,1.3438843059388303,1.328532454707448,0.8698675515079575,4.101367649784643,4.7229497097711395,,,0.6380535849069913,3.3928985788474604,inf,,0.739490192620349
13,0.0,0.0,0.0,0.9475815537803398,0.9215631958648556,0.6419626937125393,3.468494728027118,5.676074832143808,,,0.6468212168108125,4.605170185988091,inf,,0.6906070286738104
14,0.3356861567842104,-0.00559476927973684,0.0,1.0043791091175718,0.9743732736936129,0.7817293874218257,4.072943929945632,14.26266811783215,,,0.5677978065141052,4.325856363206827,inf,,0.6961839096067821
15,0.03487067742895556,-0.0005811779571492594,0.0,1.239025316154075,1.2241674294191953,0.8097196804278775,3.1967001457156465,3.6928939317259943,,,0.6309483474627791,4.126867753927661,inf,,0.8302908968981761
16,0.8627594323730556,-0.027378237479905507,-0.010008004589593566,1.3472490662929044,1.2972198460107316,0.8209283258074421,3.3993044447157352,0.9703112315096458,7.998021708018521,,0.6357360191111145,3.402865438762852,5.296649309447339,inf,0.8108757477785801
17,1.4810140361591417,-0.039493707630910445,0.0,1.2531933338248347,1.1898393742184166,0.7714595952380636,3.8702373560264767,2.3119174869811836,,,0.6403206450210053,4.569159748465058,inf,,0.7552043122600741
18,0.0,0.0,0.0,1.1478775170876032,1.1275176985994488,0.8423081124376888,3.5324881522956737,2.604694131670923,,,0.6380535849069913,3.624340932976365,inf,,0.7898214950502788
19,0.19911357631036122,-0.005309695368276299,0.0,1.2155711901417536,1.1905529043142504,0.7998940858429726,4.761334240363541,3.919868168422825,,,0.6333676938231112,3.7292385928055163,inf,,0.7268053237758981
20,0.18614794423636857,-0.011789369801636676,0.0,1.14236484727937,1.0912204016680604,0.783386049868769,4.152384919007484,10.954857339298073,2.843506591580759,,0.6068309995095971,2.8569369818099273,2.850184394111788,inf,0.6113913011021231
21,1.4655968762082099,-0.009770645841388067,0.0,1.0006337750577894,0.9826841271842741,0.620686043824769,3.5632412904378135,2.9776257329897686,,,0.648888643467878,5.65182273572549,inf,,0.5989025180426549
22,0.25704510298989114,-0.0008568170099663038,0.0,0.9168964737259404,0.8895865091399664,0.7010428389351642,2.9162980293249885,1.897229305406706,,,0.6668815377411301,5.960827577646092,inf,,0.7886299284148555
23,0.5626821433520073,-0.009378035722533455,0.0,1.0916244305256961,1.0462161653050661,0.7953477977604416,3.5825069350164758,4.286830214571539,,,0.6468212168108125,4.30259950104256,inf,,0.8282171317780909
24,0.20120574247350526,-0.006036172274205157,0.0,1.150001135006402,1.127954503891894,0.774718178994552,3.4229094184788287,5.291325488731762,2.047788896099714,,0.6778444222523095,3.6526546772909723,2.0544666986307436,inf,0.8889641129958132
25,0.0,0.0,0.0,1.0036039259711707,0.9563133192644182,0.5053263542230229,3.4985496738746207,6.9616163632440635,,,0.6309483474627791,5.0106352940962555,inf,,0.8009632023998474
26,0.0,0.0,0.0,1.0748532446898182,1.0231466751659497,0.5715864807674582,2.5616543465710313,1.7564068379639912,,,0.6403206450210053,5.703782474656201,inf,,0.9052673337790514
27,0.40833331108806864,-0.01088888829568183,0.0,1.2615224032548655,1.2265485891599794,0.7645375902907103,3.6183847709259904,4.543160973456567,,,0.6333676938231112,3.817723437129745,inf,,0.6657486526939799
28,0.2547757063168168,-0.0076432711895045025,0.0,0.8076950901818144,0.6788051654729642,0.5676132069001183,3.7542254639668275,7.70370811124982,2.0217344479308275,,0.6233814453054027,3.678709125459859,2.028412250461857,inf,0.7722917984745474
29,0.0,0.0,0.0,0.9228689135804117,0.8950038733630006,0.5273076389209674,3.802404865516402,4.13688660372153,,,0.680118107274185,5.0106352940962555,inf,,0.8010425898339653
30,0.0,0.0,0.0,0.906076801171693,0.898060291054009,0.614024895865576,3.525397527266467,12.501908084847948,2.2595396462921418,,0.6425374456860184,3.506557897319982,2.200563478601734,inf,0.748774312397004
31,0.5255493632037032,-0.005255493632037031,0.0,0.7438060773635223,0.5404381044935022,0.5786228450803961,2.435858642161349,1.2748932674987188,,,0.5947193981915972,4.912299393375394,inf,,0.5600777384996181
32,,0.0,0.0,0.6081991701319318,0.4841414117655312,0.5424894848837384,2.7744903405964343,2.9970564899993444,,,0.6403206450210053,inf,,,0.7949290868393255
33,1.6702117646987518,-0.016702117646987518,0.0,0.9351108486095147,0.8883332350766342,0.6462839669348276,3.4120909511655544,2.934242320008424,,,0.6447042257417027,5.007307504003581,inf,,0.6616654679498222
34,0.0,0.0,0.0,0.9842232608846749,0.9711599430649722,0.5714942335278087,2.953803640547104,2.530301270611412,,,0.6447042257417027,5.0106352940962555,inf,,0.636922904827063
35,0.0,0.0,0.0,1.2365895496872519,1.1989681396231444,0.7523401685883481,4.042309868186123,6.184553166729921,,,0.6180765742263259,4.31748811353631,inf,,0.8703248067329477
36,0.8941018934859092,-0.020862377514671213,0.0,1.1782043686438082,1.1365447905611,0.8219737971344008,3.1979361933338013,2.815304612180912,,,0.6153451465759925,3.9990343824177756,inf,,0.652174122327459
37,0.9897780534735355,-0.009897780534735355,0.0,0.9943438690386791,0.9426610194076682,0.6479544404595781,3.432033674375141,3.69531842717755,,,0.6153451465759925,5.42867918441128,inf,,0.802522962227265
38,1.3647815207407001,-0.013647815207407002,0.0,0.8602536371037206,0.8349266427250297,0.5212672137739157,2.4212141708793395,1.7836549557253085,,,0.6509067234006624,5.002336491281561,inf,,0.8907991883665457
39,0.4258761053682919,-0.002839174035788613,0.0,0.7596632029262712,0.683459925868893,0.5751084191465137,2.6681502093875378,1.695546953083202,,,0.6468212168108125,5.348441753730605,inf,,0.8029625927050815
40,0.43479455331286804,-0.01884109731022428,0.0,0.9853208229695387,0.9088032696931881,0.6396182957207865,3.532236357368113,4.525433514545014,,,0.648888643467878,3.3549501304968357,inf,,0.6428109097419167
41,1.8115043750178985,-0.0422684354170843,0.0,1.09203895671496,1.0501437820791066,0.710561714522623,3.4523147592738552,2.4213004667246047,,,0.5915533975974677,4.305065593537753,inf,,0.686445617574945
42,0.20325904923577923,-0.0033876508205963204,0.0,1.266117915284386,1.2534563054235637,0.814325802131807,3.471352130168466,2.9232240637239277,,,0.6509067234006624,4.245942946373215,inf,,0.7972288085296323
43,0.13068238206720376,-0.0008712158804480251,0.0,0.9634604481950737,0.9268902496577586,0.6606939055572929,3.3828476369571883,3.216238855539111,,,0.6207552362147116,5.132802928070463,inf,,0.7362370154750391
44,0.1336069063689947,-0.004898919900196472,0.0,1.0925358322836156,1.0563767901448307,0.7671298400020401,3.2334047969143467,1.6353236399835631,,,0.6425374456860184,3.3784578946926658,inf,,0.7036506757394404
45,0.009722596168827235,-0.00019445192337654469,0.0,1.199713449627426,1.1788313686269574,0.8528220404715057,4.116416195878799,2.897515795338707,,,0.6566669596287297,3.9215123314492617,inf,,0.617626742357692
46,0.6521891223801394,-0.013043782447602788,0.0,1.3099756435753975,1.237495501413964,0.7988174410012071,4.385128402238356,16.998921165599867,,,0.663668482632973,4.245942946373215,inf,,0.8664444094050182
47,0.21901746942468694,-0.015331222859728086,0.0,1.295736303503516,1.280704268111657,0.8396236067565985,4.112134933401526,78.55552693333658,,,0.6684167106117298,2.808054715406951,inf,,0.862584206897009
48,0.0,0.0,0.0,1.0300326711255108,1.0173712789041933,0.7276093721292838,3.996423941486749,29.376776005315094,,,0.5883313578629602,3.757872325600888,inf,,0.6090754525233658
49,0.21543439426264127,-0.013644178303300614,0.0,1.3276354940666757,1.3145236079568552,0.7958490629241751,4.72590062792214,16.632607834165015,2.800829234127589,,0.6447042257417027,2.8996143392630973,2.8075070366586186,inf,0.7801076256338317
50,0.4861206458937712,-0.016204021529792372,0.0,0.9245792741505668,0.883780736664438,0.6778258903383159,4.401733390863443,28.612613477191825,2.0088938907208713,,0.6602640781246099,3.691549682669815,2.0155716932519003,inf,0.7787328503480927
51,0.011888635701627811,-0.0005944317850813905,0.0,1.2990719279847722,1.2825967502941493,0.8447095672290059,3.9758067825648307,8.964574426511232,8.394206266484826,,0.6309483474627791,3.006680880296548,2.700440495625168,inf,0.7252853851159948
52,,0.0,0.0,0.7548751599196819,0.7131025606061249,0.6519860441824019,3.5653981299063613,4.503947863649195,,,0.648888643467878,inf,,,0.8931738251225848
53,0.0,0.0,0.0,0.7486336950879154,0.7354696188927007,0.6725518631291123,3.8430097111670127,3.063064872761592,,,0.6180765742263259,5.703782474656201,inf,,0.7695022964614155
54,0.0,0.0,0.0,0.9157204108004917,0.8771492813758899,0.6244995520882557,3.568170311928476,4.270984354284025,,,0.6425374456860184,5.703782474656201,inf,,0.8036268279949368
55,,0.0,0.0,1.09528522132044,1.0919159006865966,0.714226857953477,3.4892229062867206,3.7849581138704544,,,0.6547956803312163,inf,,,0.7781916466950516
56,,0.0,0.0,1.0031285441536189,1.0000567436670023,0.7349397203721151,2.8452549873073356,2.35861886576636,,,0.6547956803312163,inf,,,0.9004238797705315
57,,0.0,0.0,1.160830057626481,1.1213794942859774,0.8512378835304724,2.939864709945128,3.6953189941382623,,,0.6207552362147116,inf,,,0.9368026732198026
58,0.0,0.0,0.0,0.8593575423243549,0.8056270253826262,0.6670769270405597,3.9403264125663715,27.701694266207582,,,0.6566669596287297,5.0106352940962555,inf,,0.9071527699359634
59,0.0,0.0,0.0,1.209759415378899,1.1849775449712572,0.7400401021768698,4.42781414278641,13.238873486238255,,,0.6509067234006624,3.624340932976365,inf,,0.7963107969095281
60,0.0,0.0,0.0,1.0333571577876637,0.9850507486351003,0.7752318644060087,3.435842093026726,4.211406865739135,,,0.6778444222523095,4.31748811353631,inf,,0.7552316864175598
61,0.0,0.0,0.0,1.1638433152892325,1.1479975194117413,0.7334124544038123,3.452482377114795,7.327007263574463,,,0.6584896970785714,5.0106352940962555,inf,,0.9395962919386524
62,,0.0,0.0,0.7366444340359295,0.6903489045571349,0.505306780901766,3.5655738377371597,2.438695726723764,,,0.6566669596287297,inf,,,0.5650492460687226
63,0.5220028730907258,-0.006960038307876344,0.0,1.2057597373175908,1.1924791164712316,0.7392641598562991,4.154102481513829,5.609830389866608,,,0.6380535849069913,4.680133224461547,inf,,0.9161347348319756
64,0.0,0.0,0.0,1.0387262082706472,0.9875991516768696,0.7113257564340253,3.6477961843647964,1.255106523630145,,,0.6684167106117298,4.605170185988091,inf,,0.8104731149485527
65,0.2799434762904062,-0.004665724604840104,0.0,0.5418108185981025,0.5007627742156319,0.5102264234728485,3.563589421540689,4.065712280777145,,,0.6602640781246099,4.257648113180293,inf,,0.7299105177122985
66,0.3236813525554868,-0.010789378418516226,0.0,0.8765680546154017,0.8526374454575368,0.6723825599821763,3.4524413544636445,3.8521188145137777,,,0.6447042257417027,3.512128942369437,inf,,0.7599982001729404
67,0.0,0.0,0.0,1.192570487803697,1.1631197965316094,0.7557470486219483,5.570668941340366,11.034377103703386,,,0.6684167106117298,4.31748811353631,inf,,0.6770403142364452
68,0.0,0.0,0.0,1.2136799328352528,1.1667569260607293,0.8720021620628141,4.061149444103818,2.4190715563205645,,,0.6528756675646988,3.912023005428146,inf,,0.7272063558427472
69,0.1416237376919576,-0.0009441582512797174,0.0,1.3309135658237299,1.3311204568814023,0.8269500924661345,2.9905690392441935,3.0900105911532707,,,0.6097226960127671,5.142263736574693,inf,,0.9203198918755144
70,0.7575604732044036,-0.004396905371771396,-0.010754304092316676,1.1084265623948666,1.0682135414828078,0.7085298798321344,4.031079743307377,5.258153040099884,,,0.6468212168108125,4.280674140413594,4.641984159110808,inf,0.8359040715582574
71,0.0,0.0,0.0,1.200739758122081,1.168782266539688,0.7876410442411331,3.100552404375741,9.497781019649604,,,0.581717464821069,5.703782474656201,inf,,0.9178703224020123
72,,0.0,0.0,0.9792384319403694,0.9399166587418517,0.7816062023440628,3.176475526788436,2.412272430644428,,,0.6068309995095971,inf,,,0.7383169120619146
73,0.0,0.0,0.0,1.1186113061337402,1.046045291728542,0.7454298527890061,3.4744960058284198,6.867711803720539,,,0.6125606311107803,4.31748811353631,inf,,0.7840875729019304
74,0.07702326742797712,-0.0020539537980793898,0.0,0.944922725412312,0.9175944223877613,0.6243309224358339,3.911509222459935,4.491390404260404,2.01688328075435,,0.6097226960127671,3.6835602926363364,2.0235610832853794,inf,0.8716924694656627
75,0.0,0.0,0.0,1.0718191799994659,0.9992595732015609,0.7277502655559407,2.8278292199638897,4.85273732744721,,,0.6357360191111145,5.703782474656201,inf,,0.8134625725013669
76,,0.0,0.0,0.9218440594086721,0.8873004846371952,0.7972058811710356,3.5479256949992855,5.555477838739435,,,0.5883313578629602,inf,,,0.6987706504364704
77,0.0016694506327572993,-1.1129670885048663e-05,0.0,0.811706708881157,0.7547799684590543,0.7240857123653605,3.7210829553014433,11.285595899443315,,,0.6333676938231112,5.012303351196953,inf,,0.5174363642968621
78,,0.0,0.0,1.7195540247307735,1.6966717000111362,0.9480813251453021,3.976752909111634,28.453902857024016,,,0.6403206450210053,inf,,,0.8968790229302656
79,,0.0,0.0,1.782888960151263,1.7224290028263138,0.9673689259548499,3.840667858462006,81.06860838667716,,,0.6153451465759925,inf,,,0.8729798975859424
80,,0.0,0.0,1.3546799060257984,1.3198398023352769,0.8460957603001191,4.3488298367134295,42.71567493088791,,,0.6425374456860184,inf,,,0.9180842387507567
81,0.0,0.0,0.0,1.3539832899204067,1.316499431918328,0.7923495590300289,3.731140603449912,12.459575878261958,,,0.6153451465759925,3.757872325600888,inf,,0.7232892652089148
82,0.0,0.0,0.0,1.0896154016613442,1.0470165124799076,0.750674548521468,3.8772304455357256,1.8871197083936653,,,0.6038851895711802,5.703782474656201,inf,,0.9124385628264154
83,0.0,0.0,0.0,0.9073853095310416,0.7948112884585886,0.583113850642118,3.0730313104515314,5.493608602985503,,,0.6584896970785714,5.703782474656201,inf,,0.7369814365485063
84,,0.0,0.0,1.7597378025043853,1.727764946898144,0.9676377491827722,3.1241310582009207,9.695996119625512,,,0.6038851895711802,inf,,,0.8820815754695237
85,,0.0,0.0,1.775587897508887,1.7444852093151146,0.952641130537315,3.483249768420974,43.05608855272882,,,0.6468212168108125,inf,,,0.865700906215633
86,,0.0,0.0,1.7727149131709565,1.720841901546677,0.9511147356512738,3.395151709963186,35.871958154949816,,,0.6038851895711802,inf,,,0.8690157998710897
87,,0.0,0.0,1.7756933698075417,1.74278057186159,0.9409586370656434,3.528808639811689,54.12352896060524,,,0.5883313578629602,inf,,,0.8495625775329934
88,,0.0,0.0,1.774230426999253,1.7538777020094178,0.9445819528139646,3.7405726596451974,60.654240278362025,,,0.6153451465759925,inf,,,0.8539941177172112
89,,0.0,0.0,1.763773025580249,1.724136254300193,0.9461942140097097,3.7920189829034467,93.23265651509818,,,0.6584896970785714,inf,,,0.8485008650006991
90,,0.0,0.0,1.764552810817348,1.735339789264104,0.9407698190460424,3.8686308145037995,153.8934062684751,,,0.6153451465759925,inf,,,0.8496497543626432
91,,0.0,0.0,1.7623254893277451,1.7301289380174798,0.9380470300374857,4.118733413844566,160.9541137778457,,,0.6652988471865258,inf,,,0.8290892003427734
92,,0.0,0.0,1.7510544402991493,1.7188425487261287,0.9321866216196328,4.019628309732265,149.25275540295692,,,0.6619902821573977,inf,,,0.829271933399326
93,,0.0,0.0,1.7512488398641943,1.7252860475083833,0.9309408047084184,3.9126611869752406,175.6735028517845,,,0.6528756675646988,inf,,,0.8241153118315018
94,,0.0,0.0,1.696393681943307,1.6696301731899466,0.9096786785003833,3.176469108480183,37.367973209737045,,,0.6357360191111145,inf,,,0.9176067817300354
95,,0.0,0.0,1.2055447874358225,1.1983541061928378,0.7406482453374622,4.228556703355603,10.264487832850008,,,0.6333676938231112,inf,,,0.9268168559377304
96,,0.0,0.0,1.7758397490245028,1.73737270868584,0.9316502309014155,4.114092748092867,27.33308504125588,,,0.6619902821573977,inf,,,0.875597681771181
97,,0.0,0.0,1.261657742978094,1.234934170223203,0.8850303294453435,4.197734709607194,8.925861100555904,,,0.62595550513784,inf,,,0.777100930731075
98,0.0,0.0,0.0,1.2114234940823623,1.1230608384426812,0.826963287816328,4.219853545825052,124.06698604872741,,,0.6468212168108125,3.3058872018578307,inf,,0.8256311144037126
99,0.03965125754415963,-0.0005286834339221284,0.0,1.6515047749718041,1.6003062948483626,0.9429387484878673,3.868574746084633,59.50535167661236,,,0.6284777104787076,4.35484390008008,inf,,0.8452854405333252
100,,0.0,0.0,1.562903535426857,1.5219995480817103,0.8968061363031355,4.551151882806617,108.60750762493764,,,0.6153451465759925,inf,,,0.8855852937054104
101,,0.0,0.0,1.2892395393351612,1.2758636486680741,0.7655725545747606,3.5038841195464054,3.0811648723965335,,,0.6233814453054027,inf,,,0.7897172050712735
102,0.6475274529875462,-0.006475274529875462,0.0,0.9534957220740214,0.9026708985005929,0.5684778511201961,3.8531115915739487,10.492930495710056,,,0.6008849035917525,4.941420225074783,inf,,0.7314542761909052
103,0.0,0.0,0.0,1.280804976336673,1.2591070778205673,0.8235833238687703,4.281709650911764,64.25917550065141,,,0.6668815377411301,5.703782474656201,inf,,0.9335509388374176
104,,0.0,0.0,1.784061417702643,1.7656448326007432,0.9559818717002173,4.2274517712612,34.248260494768786,,,0.6713451011121618,inf,,,0.9070842085091801
105,,0.0,0.0,0.7253032838138614,0.610903502679136,0.6086579825007431,3.50040312317428,5.801417970863524,,,0.6403206450210053,inf,,,0.7144632276457479
106,,0.0,0.0,1.78788262144508,1.7750874755174608,0.9395967233368965,4.344202940804252,27.040569195961393,,,0.6008849035917525,inf,,,0.8862937396454931
107,,0.0,0.0,1.7858127620081727,1.7248818117261995,0.9244829874025224,3.3743337094521277,86.54539778733327,,,0.6509067234006624,inf,,,0.8138854616682669
108,0.0,0.0,0.0,0.8974025951013428,0.8752598438145521,0.579743111154887,3.616278518911211,40.01161363388274,,,0.6468212168108125,5.703782474656201,inf,,0.8067177598828554
109,,0.0,0.0,1.1588351756128743,1.124405265415027,0.7053505437356486,3.7924613226643107,12.297042808388992,,,0.6125606311107803,inf,,,0.9192643722494379
110,0.0,0.0,0.0,1.0526125029794713,0.9851404834273784,0.7260324962989432,3.737388174147255,56.37903720801618,,,0.6153451465759925,5.703782474656201,inf,,0.7556376389265108
111,,0.0,0.0,1.7862624266664722,1.7518907444742107,0.9569231092011908,4.426079374629625,393.34545282912836,,,0.6699045166045591,inf,,,0.8432196097105777
112,0.12229944089176434,-0.008560960862423504,0.0,1.5522668227282548,1.5250666485726212,0.9166839520123159,4.276674481623409,207.30328797004964,,,0.6652988471865258,2.7042241962686813,inf,,0.8468219619860585
113,0.018651984343603264,-0.0013678121851975725,0.0,1.772167256621123,1.69989809110123,0.9427301579948539,4.728182238324764,152.7517293406275,,,0.6180765742263259,2.629701234691234,inf,,0.8626742162033507
114,0.0165746869812686,-0.0006077385226465153,0.0,1.5954358451238577,1.4315959505526494,0.8861741629554046,4.980951593050457,5.631407956254644,,,0.6528756675646988,3.321154673988619,inf,,0.8451006010662651
115,0.0,0.0,0.0,1.024120841885096,1.010412421964106,0.6267568987129053,3.864936033368972,39.06236192510507,,,0.6233814453054027,5.0106352940962555,inf,,0.9271387325866822
116,0.08937891077136892,-0.0036110080339426544,-0.0020496563149107103,1.3240781960951118,1.2434241305733051,0.8059637308517688,4.603987531668198,27.72425881855404,3.483072976472571,,0.6468212168108125,2.8302178350764176,3.4897507790036,inf,0.8014617583250347
117,,0.0,0.0,1.5397086747176028,1.5051896081525267,0.8430191716363353,3.828239602050776,28.475961756161304,,,0.5915533975974677,inf,,,0.9293205934583018
118,0.0,0.0,0.0,0.8650031635810163,0.8038284173180339,0.4789227852038286,3.4653020288177703,8.779765306442293,,,0.6284777104787076,5.703782474656201,inf,,0.6480441506004058
119,,0.0,0.0,1.1046036002825685,1.0319501420653312,0.6139443674549956,3.0959155280213184,3.0437731390800438,,,0.648888643467878,inf,,,0.8382685766695084
120,,0.0,0.0,1.6397907769035314,1.6061935109563805,0.9202200725135559,3.9404168226053966,16.60638390754305,,,0.6468212168108125,inf,,,0.8779197405354812
121,,0.0,0.0,0.7965823900619641,0.7884377912306908,0.6044312113761885,4.225571917746017,2.9118424923885327,,,0.6528756675646988,inf,,,0.9456269790416494
122,0.0,0.0,0.0,0.7103929611832503,0.5385344779008809,0.6070060835194083,3.2336877137437434,4.623352149431618,,,0.6566669596287297,5.703782474656201,inf,,0.8133555313762807
123,0.0,0.0,0.0,1.0237941166414242,0.9263306700432279,0.7059445839748684,3.6741081198705547,58.14639779904941,,,0.6357360191111145,5.703782474656201,inf,,0.6959803057047662
124,,0.0,0.0,0.5620863146557517,0.5241333402137182,0.5291001677299613,4.732535091743454,87.06368937299791,,,0.6699045166045591,inf,,,0.6529622720907111
125,,0.0,0.0,1.781292782915408,1.7482032237444343,0.9341825584406438,3.7642557516529522,322.0782031450151,,,0.675384900321601,inf,,,0.8987011584786504
126,,0.0,0.0,1.7816017173148395,1.741873208940469,0.9418673414798991,4.176068755838586,394.43943497267435,,,0.6068309995095971,inf,,,0.860093722127867
127,0.0,0.0,0.0,1.1817627523856975,1.1372059466885531,0.7562588152246139,4.141742391001007,79.0454135072602,,,0.6153451465759925,5.703782474656201,inf,,0.7533375154886868
128,0.8754687373538999,-0.0029182291245129994,0.0,0.9179200471464253,0.8848883405841493,0.5782189785492869,3.9094674386785506,80.55985431823999,,,0.6425374456860184,6.579251212010101,inf,,0.8483084928591756
129,0.0,0.0,0.0,1.4283113988843616,1.4111856690443025,0.8187991911192952,3.9375148886800644,1.9252333346987487,,,0.6403206450210053,5.703782474656201,inf,,0.912631486651601
130,,0.0,0.0,1.1066327853467797,1.0896322011426656,0.6836661818290504,3.736630109658233,22.808730345398445,,,0.6008849035917525,inf,,,0.9062365453169993
131,,0.0,0.0,0.6696196226846962,0.6042783560737024,0.5856868356521668,2.5851316544672724,2.727228412489346,,,0.6584896970785714,inf,,,0.8293393032904092
132,0.0,0.0,0.0,0.8844045136153122,0.8660311129945089,0.44856806621295836,3.0962423942643946,2.904364456372102,,,0.6125606311107803,5.703782474656201,inf,,0.8314751220690757
133,0.0,0.0,0.0,0.8039958968689079,0.7547024869120659,0.5912150967730843,3.441255467121216,8.861503049994154,,,0.6380535849069913,3.757872325600888,inf,,0.806667339339482
134,0.0,0.0,0.0,0.9012432017801484,0.8627445206392986,0.5760479733213049,3.7399923293330954,2.6939004618870155,,,0.6619902821573977,5.0106352940962555,inf,,0.6001174998619095
135,0.11019254744900149,-0.003305776423470045,0.0,0.9905901385455826,0.9558949650077623,0.7559333355685013,3.4336871825755346,3.213250977894439,,,0.6309483474627791,3.5955915196903794,inf,,0.7648225759644692
136,0.0,0.0,0.0,0.8127240774426452,0.7873550742284541,0.6792569510711988,3.1320628905871755,3.9192346984828124,,,0.6528756675646988,5.703782474656201,inf,,0.7987098644095898
137,1.6151151040897245,-0.056051403941375436,-0.019320634249478375,1.2222446023341589,1.1908088891917563,0.7732472271170497,1.8346416387638276,0.2739508263728714,7.904646216432323,,0.62595550513784,3.4962409303490496,2.283702905272716,inf,0.6894543415464788
138,,0.0,0.0,0.34474166198771145,0.32718420475922916,0.20151780597246308,0.3233482573898839,0.21308429263700007,,,0.6528756675646988,inf,,,0.9553932594419506
139,,0.0,0.0,1.3267229635329882,1.3271321970014291,0.6157043015157335,0.26113748511232715,0.2827680017699148,,,0.6180765742263259,inf,,,0.9485471858048761
140,1.102440008609196,-0.03290106201336123,-0.00017213824491465,0.7159488435921157,0.4776387240023656,0.46143180025160335,0.7074367399620748,0.29742221381531175,1.7243066123868884,,0.62595550513784,4.052563028207146,1.7060276829440504,inf,0.6420901939882872
141,0.41730859932465797,-0.04451291726129685,0.0,1.2582909555139294,1.2289257175734476,0.8189272124158237,4.956920862462438,4.713667002787809,3.365228782210061,,0.6008849035917525,2.3623350973998196,3.344786278521896,inf,0.7580259449789021
142,0.10415898037583657,-0.004675574342429755,-0.0005323746763620746,1.289069691566308,1.255737299401911,0.8642003142560245,3.6843853680348477,4.939009019818775,3.213402116401976,,0.6038851895711802,3.0754972420228537,2.7908041621311224,inf,0.5139467745886693
143,0.24567542916827664,-0.016378361944551778,0.0,1.437914530948274,1.4155218902449778,0.8657888909639297,3.928886062272987,36.91697778078437,,,0.6380535849069913,2.834937051008064,inf,,0.5715751799847653
144,0.2792772040730564,-0.013032936190075966,0.0,1.2876533783795152,1.2748359935549238,0.8510261750310967,3.9085525238731282,28.79787171563391,2.4759967034730304,,0.6309483474627791,3.224446869917656,2.48267450600406,inf,0.6701264584541673
145,0.4489952331013461,-0.0344229678711032,0.0,1.302537877953308,1.2646314063153064,0.824807637423738,5.130318567267232,37.756221115626765,,,0.6509067234006624,2.700578186263509,inf,,0.5482314603174724
146,0.16221585486320153,-0.010814390324213436,0.0,1.2616782676675597,1.2455722352997172,0.8122239263609209,4.070237806986761,13.029621866946615,,,0.6619902821573977,2.8067661740413676,inf,,0.7225139867825666
147,0.0,0.0,0.0,1.0607351273306351,1.0152090835658008,0.831460973833871,4.513696824099558,10.258474858563922,,,0.6233814453054027,3.757872325600888,inf,,0.7335381097408817
148,0.7521036072399678,-0.028568199784983848,-0.019065028673547448,1.261936133509709,1.2636613962464467,0.8325613258787385,4.819466313742413,9.094138626993926,3.6019328201541065,,0.6509067234006624,2.939141922265594,2.764640552390607,inf,0.5221837886653569
149,0.0,0.0,0.0,0.8442180082376477,0.7094977732949875,0.6122555752400288,2.5920121066548942,2.840882322526843,,,0.6333676938231112,5.703782474656201,inf,,0.5936052562231546
150,0.5364793041447001,-0.010729586082894002,0.0,0.6967748378919638,0.6148308694720964,0.5907319889686697,3.2156927363738013,4.25428096121587,,,0.6097226960127671,4.086376392572924,inf,,0.5591786663915488
151,0.0,0.0,0.0,0.916976606185945,0.8303704288711903,0.5999312841527152,2.8748272157192445,3.2780871972600476,,,0.6333676938231112,4.605170185988091,inf,,0.806095446913492
152,,0.0,0.0,0.30776431946239113,0.2901922348637057,0.382854129337753,2.9356751231500517,2.8348830343318774,,,0.6584896970785714,inf,,,0.7193869200100463
153,0.24161610575237263,-0.006443096153396603,0.0,1.0261632375791967,0.9986290986098669,0.7409701747142329,3.08636379389432,6.999060971647722,,,0.6468212168108125,3.78539035449478,inf,,0.7220148180431559
154,0.0,0.0,0.0,0.9904172456201416,0.9659100914555053,0.5541711862170557,2.931140927490288,16.022955659618372,1.382955459854376,,0.6333676938231112,4.31748811353631,1.3896332623854053,inf,0.6317196658919957
155,0.0,0.0,0.0,0.6989508327486179,0.6466563684450385,0.5114103058542259,3.107763629904233,2.329564970841665,,,0.6425374456860184,4.605170185988091,inf,,0.5742334068298347
156,0.16793116366343944,-0.010075869819806366,0.0,1.094742266369007,1.073763495573602,0.7848934373360549,4.873427138694673,12.562182682425963,,,0.6403206450210053,2.8691975226647584,inf,,0.6163840005884741
157,0.21718571177178883,-0.019546714059460995,0.0,1.3425788321507044,1.3275602096806036,0.8160362775544077,4.125356679727599,12.14645657705359,,,0.6566669596287297,2.4953611076918594,inf,,0.5797029317071318
158,0.0785282791185219,-0.00706754512066697,0.0,0.9996942316249324,0.9843363336770278,0.7715077060039002,4.748181196059008,23.750436176961877,,,0.6468212168108125,2.441081170247971,inf,,0.6481980273529714
159,0.0,0.0,0.0,1.1392010202268894,1.1192625792363324,0.8491808554147143,3.8267823102557066,3.945540585367509,,,0.6357360191111145,2.870569130599985,inf,,0.7590927914632916
160,0.28769166175596517,-0.022056360734623994,0.0,1.2940919574928822,1.268844309461708,0.8100836107758339,3.889995171923199,5.743509777025103,3.0174111352637643,,0.6207552362147116,2.683032438126922,3.0240889377947933,inf,0.7828379016408895
161,0.11763662606438642,0.00016700774652189838,-0.010754304092316676,1.2007975412022336,1.1921057320938082,0.8139142855158299,4.157812517387143,4.2779619022668,3.2550140141448862,,0.6357360191111145,2.4454295592458,3.2223424778873677,inf,0.7682988560125533
162,0.1316228820547854,-0.007897372923287124,0.0,1.2313687620747416,1.2225806787868183,0.870422523516617,4.026869994471153,53.61528358377442,2.0938606953360246,,0.6425374456860184,2.9134356974947164,2.100538497867054,inf,0.7031246102124282
163,0.11389973648220447,-0.009111978918576357,0.0,1.3595987354323806,1.3410719653106118,0.8193094172272777,4.833464484388048,19.51742362396528,,,0.6509067234006624,2.6023397466800957,3.1047816292416197,inf,0.5912912202270617
164,0.1500422962363246,-0.0025007049372720767,0.0,0.89422321916303,0.8499366244755171,0.7182939792453781,3.3275752112178565,2.551320563507803,,,0.6380535849069913,4.218397210892079,inf,,0.5469721585734887
165,0.06838842821727513,-0.0052431128299910935,0.0,0.9906589266952105,0.964085104902744,0.6915541037196313,3.3005109592786965,3.1371365449713813,2.384352978359089,,0.6357360191111145,2.622943414471652,2.3910307808901186,inf,0.7452163303888452
166,0.1856146965268417,-0.013611744411968392,0.0,1.270401740212201,1.2661999416362617,0.8055293658910174,3.9050746021560063,3.284505061045327,6.506387441510902,,0.6309483474627791,2.6972751279342515,2.316699067427519,inf,0.5458686275750343
167,0.41519127138014866,-0.01522367995060545,0.0,0.8824186262761436,0.8594053484490105,0.7369133916897094,3.6783556549418717,8.86609448397707,,,0.663668482632973,3.4493377569900905,inf,,0.5787289206393242
168,0.006328608413797136,-0.0001476675296552665,0.0,1.1511279594985233,1.1264951339963751,0.7465659594568419,3.227636638857402,5.042199013097604,1.936361531155485,,0.6038851895711802,3.7640820422352013,1.9430393336865144,inf,0.754272249188685
169,0.3850585254956425,-0.037222324131245446,0.0,1.1785942098181117,1.1447854877096748,0.781192819187586,4.847124113312777,12.066110093060368,3.1734781938212437,,0.6403206450210053,2.5336768141574297,3.173444561764286,inf,0.6567262044183969
170,0.2327923385702911,-0.017847412623722317,0.0,1.2269519835579654,1.1830684552572839,0.8159484964220762,3.7733073510282193,12.321794342059516,2.759806801110098,,0.6547956803312163,2.7009090929508437,2.3130651024109268,inf,0.5600664418070042
171,0.10033106702716134,-0.004013242681086454,0.0,1.2133792496976064,1.1590820461608116,0.7830217837687405,3.531364689924383,3.4113751764243285,2.4214638244527804,,0.5947193981915972,3.278979748937906,2.4281416269838094,inf,0.7563951561626147
172,0.2309085897506051,-0.013084820085867623,0.0,1.3392646875099394,1.3161051869294131,0.8067745219868887,3.8701449712926013,1.7623337053172365,2.0765192202995375,,0.6403206450210053,2.9307771725312035,2.083197022830567,inf,0.5147911689376903
173,0.0,0.0,0.0,1.1998121553397882,1.1809837480384753,0.8541613656403498,4.313901375680572,11.39313737798309,3.087703552092801,,0.6380535849069913,2.6127400212978853,3.0943813546238306,inf,0.7615955311280662
174,0.1457197457509837,-0.01457197457509837,0.0,1.1677766168342198,1.1582685660738192,0.7677213929132097,4.6489383569299525,19.561981689291947,3.3299364639111824,,0.6619902821573977,2.370507109479504,3.336614266442212,inf,0.7261747812946947
175,0.028990924762647103,-0.0019327283175098067,0.0,1.2323146858727134,1.2057811182975224,0.8158347406583499,4.63815852980095,32.65392139732137,2.9701477633411564,,0.6528756675646988,2.73029581004953,2.976825565872186,inf,0.7814015570334674
176,0.39204550654775194,-0.014375001906750905,0.0,0.9864685738666491,0.9544953895327972,0.7182289942817103,3.1631243410583525,3.4772753595473485,,,0.62595550513784,3.4326880487535263,inf,,0.5321124375140491
177,0.4409301385295507,-0.010821987950135621,-0.0009361490773190652,1.0421049786217562,0.9824573699149127,0.713772054683051,3.2920350443759308,5.101893223810665,,,0.6333676938231112,3.8873303928377747,2.099699557202342,inf,0.5752800391842872
178,0.0,0.0,0.0,1.2660449632686355,1.237870754561212,0.813531217689272,4.283394997708932,9.66497820927837,,,0.6447042257417027,2.8134107167600364,inf,,0.7511167332616023
179,0.5254896770694143,-0.017224297595727578,-0.0002920249732528972,1.2037437103087352,1.1951276056037,0.8300201848180151,3.673020461797105,3.7125087765380997,2.6323795270842294,,0.6309483474627791,3.6445436402938847,2.149893202630447,inf,0.8405742922673293
180,0.7014356297631146,-0.008872991892817426,-0.005155720702444865,1.0969708189235738,1.0364136626554248,0.6865130033735138,3.555378034071859,1.9255675970369963,2.908875141995295,,0.6403206450210053,4.381138140612767,2.8675437253399636,inf,0.6636988046995913
181,0.00918465080979146,-0.0004898480431888779,0.0,1.1435526515368637,1.0961200640157014,0.7027302601109426,2.875112639145383,1.9516501542812614,2.760671465199395,,0.6153451465759925,2.9397721081912915,2.767349267730424,inf,0.7025592841576869
182,0.3487342136708479,-0.01859915806244522,0.0,1.0985118084537044,1.05442403544284,0.7505006279613864,4.644274765457857,1.4148024982039251,,,0.6380535849069913,3.0866299804289925,inf,,0.8256109183533494
183,0.022731892272469044,-0.0007577297424156348,0.0,1.0571531983195912,1.0147248787056544,0.7714892584893841,3.570827674464104,4.579036211771807,2.3058235967163956,,0.648888643467878,3.421740282893485,2.285381093028231,inf,0.6125043136906909
184,0.17544297921433538,-0.006432909237858964,0.0,0.789772716663192,0.7592486315675336,0.6306248378230966,3.0976343413465046,2.4054478433673476,2.2878481467761618,,0.6668815377411301,3.4125954266145246,2.294525949307191,inf,0.5451683901788902
185,0.018588830478319888,-0.0009294415239159944,0.0,1.139481009759426,1.0653155173430888,0.8260975432540474,4.221891060107977,1.9716102307520789,,,0.6284777104787076,3.012087516580261,inf,,0.7481496909552505
186,0.0,0.0,0.0,0.8844371492769784,0.8162413936411116,0.6011381557467096,2.5134557656772243,2.086004153065286,,,0.648888643467878,4.605170185988091,inf,,0.8367075541053309
187,0.2213409353537749,-0.010329243649842827,0.0,1.2347178795938987,1.17475818786964,0.7750948589725661,3.5414950551037596,7.733740579565376,,,0.6447042257417027,3.1906663683987895,inf,,0.7915191737449512
188,0.01102437147546316,-0.0007717060032824213,0.0,1.1289490079916702,1.0936539915352947,0.8508349325610259,3.6901851196155704,6.99580837172409,,,0.6584896970785714,2.6691500521446536,inf,,0.6253411303849429
189,0.0,0.0,0.0,1.0634744256666737,1.0292735054359523,0.7730461746674016,3.9794609086827775,3.4681031980562813,,,0.6357360191111145,3.757872325600888,inf,,0.5911860163283827
190,0.3015981829618945,-0.01709056370117402,0.0,1.3650742777506748,1.3590864013148352,0.8369084919550367,4.212673556323107,3.0855773004750287,,,0.6309483474627791,2.9562979080123317,inf,,0.6375109184869244
191,0.03473264535290287,-0.0025470606592128773,0.0,1.1462383055978598,1.1361048258470594,0.7765217236201845,3.622053619872687,4.496484370871292,2.366593265188141,,0.6357360191111145,2.6407031276426,2.3732710677191706,inf,0.7176058051853277
192,0.05332820416473961,-0.004088495652630037,0.0,1.3428246032252067,1.310561821364316,0.8438146301788324,4.458382785850662,7.569047779838094,2.393191804571059,,0.6468212168108125,2.614104588259682,2.399869607102088,inf,0.5505470367549254
193,0.19428681879294274,-0.008419095481027518,0.0,0.901072611808627,0.8883795234512146,0.7789620450725976,3.867166040472925,3.2806283551510274,,,0.6180765742263259,3.2122312821495322,inf,,0.7221381131219846
194,0.09650197170659713,-0.004181752107285876,0.0,0.9996379243594561,0.9324716865354602,0.7127156562020784,3.308698559194753,5.486908286802648,,,0.6727386042041725,3.2116795579976056,inf,,0.8112993336268329
195,0.421297728118871,-0.026682189447528495,0.0,1.2543282756182528,1.2237382712484361,0.7996632853299783,4.35398855698158,21.304068120794213,,,0.648888643467878,2.969847959397961,inf,,0.7287985241795972
196,0.5302258455781298,-0.016693352705679353,-0.0009808421469249757,0.9434908779899047,0.9032685121060935,0.6873408855343535,3.3301369985574363,2.2374820661091923,4.139230850743228,,0.5947193981915972,3.572776841924208,2.4276163359280756,inf,0.6527213185021373
197,0.0008361235188495815,-2.2296627169322174e-05,0.0,1.2195206451410838,1.1468511275470017,0.7904178733249951,3.3520541250193103,4.2420295945102495,,,0.6727386042041725,3.6251746137249428,inf,,0.7325583613169172
198,0.1714189285199392,-0.015999099995194326,0.0,1.4541424072600846,1.4359508184774832,0.867693538982042,4.553390010034442,62.295952347805795,2.5320760126321615,5.693743399620122,0.6468212168108125,2.4752203801985795,2.538753815163191,0.6964972674452273,0.6320982573916666
199,0.0,0.0,0.0,1.053858451776381,0.9713616318341545,0.8273830366382509,3.732306659146435,5.188317558718806,,,0.6509067234006624,2.8134107167600364,inf,,0.41613401948123707
200,0.16885700768235207,-0.009568563768666617,0.0,0.9907584423831626,0.9631978425868474,0.7015111693188129,4.135850331225888,9.08636379083068,2.772785230708505,,0.62595550513784,2.9276583426821814,2.7794630332395345,inf,0.7997393057607209
201,0.0011883945480893803,-6.734235772506488e-05,0.0,1.1738572296968504,1.1378248404706603,0.8081805478282418,3.6625939086912505,2.676101958574716,2.1355500990577414,,0.6333676938231112,2.871746293773,2.1422279015887704,inf,0.5316001749841346
202,0.00016694506327572992,-1.1129670885048663e-05,0.0,1.3221438547303326,1.3097950337281896,0.8470995995169108,3.9451364907602615,3.3167544480953857,2.322769282293837,,0.6447042257417027,2.7082168816593093,2.305757313702461,inf,0.7808409787155485
203,0.03099779518097268,2.287038811369258e-05,-0.002709345970464658,1.1727142424122623,1.1625451898780585,0.7867255511940113,4.233189048579826,5.895102711942077,7.8350771421060355,,0.6566669596287297,2.4671977160072274,4.050018105083422,inf,0.8172073379441621
204,0.25500551643678276,-0.017850386150574795,0.0,1.1022073524538243,1.034518983803096,0.7452929175681229,4.943845494271227,6.266315930092608,2.916411851265848,,0.6097226960127671,2.7840317221248383,2.9230896537968776,inf,0.6371625555661702
205,0.06767486831851531,-0.0038349092047158676,0.0,1.2917697428913784,1.2718541139387942,0.8549095058564891,3.857915212201116,5.050296568476783,,,0.6684167106117298,2.9231015825190836,inf,,0.8291418628324843
206,0.16563934176299852,-0.016011803037089857,0.0,1.3742089703488725,1.3597088148284868,0.8820045081724963,4.788809431311249,48.647211826645645,3.388070255451219,,0.6447042257417027,2.3780272881609044,3.3290940877608115,inf,0.5759070893087626
207,0.08720269008383236,-0.0069762152067065885,0.0,1.055222105025786,1.0299037572275076,0.7942277677506304,3.2031481867396043,3.862801747708345,,,0.6357360191111145,2.562940265927101,inf,,0.5607776220611818
208,0.03518149441861456,-0.002579976257365068,0.0,1.448860551565238,1.4229382980870504,0.8678962261134765,3.7694651386195117,21.85666652667657,2.365813902667202,,0.6652988471865258,2.641482490163539,2.372491705198231,inf,0.6409477470556821
209,0.08972765802977559,-0.0074773048358146325,0.0,1.0856824850045697,1.060984875684411,0.7167944732010297,4.073587061555053,2.582392084591249,,,0.6357360191111145,2.547917449597404,inf,,0.661512041587015
210,0.3190055435176576,-0.02233038804623603,0.0,1.1381144050740717,1.139205320451364,0.787363584454672,3.8421922461898625,5.7688537911007725,,,0.6357360191111145,2.8258957387117998,inf,,0.783711103456861
211,0.1512407168270462,-0.00040192255318968403,-0.008168384733676268,1.1251162780847093,1.0933875918850686,0.7729424787347289,3.281207877917906,7.072565299543982,,,0.6153451465759925,2.9353691238269004,5.21409928746402,inf,0.6988621423277026
212,0.32511450854369867,-0.02167430056957991,0.0,1.2776846545801825,1.2386561689153563,0.8091258869643658,3.651678151573633,4.638445616444297,,,0.6619902821573977,2.8089761196921708,inf,,0.6213510128476587
213,0.1591435802681303,-0.0068962218116189805,0.0,1.1300201411069957,1.0855636989665316,0.7142773496520899,3.8081697538122503,2.7083261384791077,,,0.6125606311107803,3.251054723232436,inf,,0.739011969943351
214,0.3531097113376638,-0.020009550309134278,0.0,1.121058767567839,1.0667462964318661,0.761008936156276,4.697562285951868,3.450538035713137,,,0.6180765742263259,3.0786309073568727,inf,,0.6440270298933357
215,0.43133172311791157,-0.007188862051965192,0.0,1.0493353250518243,1.0025296619091753,0.6999944640850746,3.5830900980763594,15.796202582299218,,,0.6180765742263259,4.321663484946791,inf,,0.6171044603932695
216,1.1359848074569463,-0.04922600832313434,0.0,1.2944070334426856,1.258719361276273,0.8038991324846243,4.317754641062955,5.133410361654199,,,0.6233814453054027,3.7479219947477196,inf,,0.7360196073474101
217,0.024696847914942976,-0.0017287793540460084,0.0,1.2214820642038244,1.2227665603108542,0.784967972444514,3.5115617617773496,3.3565699319159408,2.3275096570013902,,0.6403206450210053,2.679786735829351,2.3341874595324197,inf,0.7356473772004674
218,0.0,0.0,0.0,0.8640893722161157,0.8193057209712814,0.6396976158776908,4.267210061409679,4.076651717017534,,,0.6652988471865258,3.2188758248682006,inf,,0.8264971717333629
219,0.00855248895541302,-0.0001671913381278414,-0.0005455160748232436,1.2772053173864615,1.2755719800720349,0.7810600859166128,4.258689500684089,2.6229774170875215,6.074734981239892,,0.6528756675646988,2.4929388214852644,2.599268126304803,inf,0.7792264845271039
220,0.2710194793811425,-0.018067965292076167,0.0,1.1098064824033047,1.0365517012256464,0.711382636731877,4.182831142273578,1.537876569590611,,,0.6233814453054027,2.839298487712164,inf,,0.7713367728268249
221,0.39261840123998293,-0.020939648066132424,0.0,1.0274836527591247,0.9950151826981045,0.7048496833174411,3.782446145773972,2.688342906340934,,,0.6699045166045591,3.0721334714316053,inf,,0.6492204817797291
222,0.0,0.0,0.0,1.3009233228969543,1.2849086826050464,0.848305013303893,4.376480858721743,2.075423557883923,,,0.62595550513784,3.506557897319982,inf,,0.753998295864234
223,0.0008375279877917875,-3.3501119511671504e-05,0.0,1.126673765555916,1.1321586846736171,0.7381774213663438,4.16949559813829,21.48435403204366,,,0.6284777104787076,3.219709505616778,inf,,0.6284028416130482
224,0.11603031427097255,-0.008122121998968078,0.0,1.2886131367120413,1.2172751809868483,0.7953892078091038,3.7268255377561093,2.994827894260389,,,0.6528756675646988,2.7447141854738013,inf,,0.7572061198874409
225,0.0,0.0,0.0,1.107863070818461,1.0376380040014903,0.7498821884134825,3.807462852397651,14.045214246046514,,,0.6713451011121618,3.624340932976365,inf,,0.8699899681102822
226,0.0,0.0,0.0,0.9402485830949918,0.9289681353476734,0.6194258353194776,4.516778711477203,43.13420578176843,,,0.6180765742263259,3.3058872018578307,inf,,0.7046869239393077
227,0.10361723946427859,-0.004144689578571143,0.0,1.0932016518181784,1.0702767421147827,0.826513849417005,3.8079686931123806,5.888962651441418,,,0.6207552362147116,3.2893578999066198,inf,,0.6343082569447082
228,0.0,0.0,0.0,0.4116299703287301,0.34081225405386584,0.49101437891750743,3.7578864466876376,12.835242846219206,,,0.6447042257417027,4.605170185988091,inf,,0.6768362870291299
229,0.0,0.0,0.0,1.2626659891018854,1.2083484414597891,0.8483752856876717,3.160438233291206,2.9007427917457567,,,0.6380535849069913,5.0106352940962555,inf,,0.9245595710575519
230,0.25180039318757674,-0.006714677151668713,0.0,0.8827779780213908,0.8027978315107832,0.7103447671356911,2.5337819027832125,1.3100747016941958,,,0.6284777104787076,3.754544535508213,inf,,0.6334998974885682
231,,0.0,0.0,0.41231833750780195,0.3785436242554314,0.5483190172627935,2.1912922451824537,2.2089772292458343,,,0.648888643467878,inf,,,0.7917801503724274
232,,0.0,0.0,0.61199855832373,0.5466951431559217,0.46499713323805913,1.4096745142599383,1.0919537646978683,,,0.581717464821069,inf,,,0.9261473667700543
233,,0.0,0.0,0.6616548761309371,0.6443763755735614,0.5947973128912145,1.0058607443267475,1.0444724106085557,,,0.6097226960127671,inf,,,0.93456185473986
234,,0.0,0.0,0.32511558403202034,0.29439639750032104,0.3964233052718877,1.138052378209206,0.9866414151407386,,,0.6153451465759925,inf,,,0.7269212761863588
235,0.0,0.0,0.0,0.43536355997535636,0.38885973490316716,0.3882407703390929,1.3553871396304045,1.3189944313349466,,,0.5883313578629602,5.0106352940962555,inf,,0.8740654582244778
236,,0.0,0.0,0.33204187911027483,0.250081488952799,0.41656670979930555,1.0966979932497496,1.2395561146027172,,,0.6284777104787076,inf,,,0.5717502802232937
237,,0.0,0.0,1.2606296955083198,1.2277270907308275,0.779885438455367,0.7876271892050993,1.0489097194475194,,,0.6447042257417027,inf,,,0.830686644892246
238,,0.0,0.0,1.3881862357362482,1.3714474121640627,0.9033038189407354,0.7518384463119628,0.9778566512291069,,,0.6447042257417027,inf,,,0.7909458894743002
239,,0.0,0.0,1.6177869076988645,1.5660620048341032,0.9351240621237911,0.8835360973274005,1.2478705774265326,,,0.5490601803369085,inf,,,0.7952487347560068
240,,0.0,0.0,1.638410081781967,1.6083122159741514,0.9427786266255599,1.4979234274692181,2.152659017810088,,,0.6038851895711802,inf,,,0.8590133289621457
241,,0.0,0.0,1.7254878401723115,1.7050077984483645,0.9626054410018434,1.6337187873248855,2.7586606400863007,,,0.5713653840954815,inf,,,0.8321102932485406
242,,0.0,0.0,1.7779802655743229,1.742297576033914,0.9570630259459443,2.178828322970253,3.0839148205623452,,,0.6153451465759925,inf,,,0.8424196889499347
243,,0.0,0.0,1.775104928514156,1.7355852904883813,0.9741210780567379,2.095280015379193,3.696672323455535,,,0.5748741956352443,inf,,,0.8551760210828443
244,,0.0,0.0,1.769364094875142,1.7393695115513492,0.9499065642404423,2.458937030750385,5.049909816703886,,,0.6309483474627791,inf,,,0.8596550528500585
245,,0.0,0.0,1.5194202156356111,1.501115856319998,0.8907250840158409,1.995581718199939,3.1393541653605106,,,0.6284777104787076,inf,,,0.8818418597591958
246,0.0,0.0,0.0,0.840565092917521,0.8177042410823164,0.47251966940764667,2.769310172523669,3.5986035580200104,,,0.6509067234006624,4.605170185988091,inf,,0.6111353688345403
247,0.0,0.0,0.0,0.7749357410433971,0.7711394493227582,0.6220995880365863,2.7182158523889557,6.979585976914224,,,0.5947193981915972,5.703782474656201,inf,,0.887037638271387
248,,0.0,0.0,0.5748597356324998,0.5107213481346922,0.5614942912673828,2.7209290261524415,3.7739708163705434,,,0.6207552362147116,inf,,,0.5650025574430838
249,,0.0,0.0,1.6317390155660123,1.5748616601340992,0.9481564559704441,3.1270074761182163,2.4306680050595566,,,0.5713653840954815,inf,,,0.8860055819730245
250,0.0,0.0,0.0,0.6411515071313701,0.5918855287726755,0.547380678132635,2.339244199761462,2.09368571722133,,,0.648888643467878,5.703782474656201,inf,,0.9119647727679826
251,0.30378652623101526,-0.0040504870164135365,0.0,0.8607491363138897,0.8044008917593521,0.5430151845926321,2.461630185050285,2.906751975825004,,,0.6509067234006624,4.51087061768969,inf,,0.6960144137460358
252,,0.0,0.0,1.5201551235777715,1.4949316188797048,0.9486334520391899,2.5406047927343938,2.9390287803068165,,,0.6333676938231112,inf,,,0.8966324242877104
253,,0.0,0.0,0.8534596863530034,0.8058246970596222,0.7443094734021138,2.9125358935536587,3.5975668581695195,,,0.6038851895711802,inf,,,0.6339605069198521
254,,0.0,0.0,1.7354617512195092,1.6886527460766545,0.9363684773104824,2.89559258507695,3.046334829831353,,,0.6038851895711802,inf,,,0.9087513670465796
255,0.0,0.0,0.0,0.9729275637560233,0.9332184665959101,0.6687552933897204,3.6507421607175696,5.052747902262656,,,0.6468212168108125,3.3058872018578307,inf,,0.6866864442727775
256,0.435988985126812,-0.03290251525366801,-0.0002659491515075243,1.2062114610726782,1.198073348697009,0.7901212983069972,3.8263665330621164,5.909410526630661,2.3367292849832713,,0.6468212168108125,2.750609815521006,1.9093686069620803,1.1271856611121658,0.595392474404584
257,0.2028998534605172,-0.005410662758947125,0.0,1.090495095024981,1.0772315269438908,0.6720680519786505,3.7059419308011066,8.9692091386903,,,0.6233814453054027,3.7413430236496774,inf,,0.6681464158806243
258,0.009431067947124129,-0.0003143689315708043,0.0,1.1900774351422736,1.1758332795047581,0.763273109728838,3.6637611107965733,6.588241943401395,,,0.62595550513784,3.4102381263143045,inf,,0.7037615220685716
259,0.40621009120644486,-0.014894370010902979,0.0,1.0865645524056844,1.0624619500225512,0.7723639144270358,4.346071605168056,2.4099653332788895,,,0.6125606311107803,3.413944954484658,inf,,0.5347980517223017
260,0.15660714796872582,-0.014094643317185325,0.0,1.1583306039285157,1.1296714338165157,0.8285187121047273,4.413548228448192,25.97252351456359,,,0.6425374456860184,2.5107032048320104,inf,,0.584082570215575
261,0.0,0.0,0.0,1.0294718839351191,0.9702744232445082,0.6981320289340742,3.831544171938632,3.23595040533971,,,0.6153451465759925,3.506557897319982,inf,,0.646777702327792
262,0.2317939321728578,-0.01535622363063856,-0.001641998062037677,1.2481146207347296,1.2174837583572824,0.7664078187856272,4.434046064617261,4.2344144168805,4.4193010575098155,,0.6509067234006624,2.677520996067387,3.520557800403594,inf,0.7339165107982164
263,0.6834103051760453,-0.02733641220704181,0.0,1.1624935536018124,1.1408660088014348,0.7745868097060088,3.835083062528287,15.717838553003666,,,0.6153451465759925,3.5013861089175875,inf,,0.7162174938602246
264,0.004672238547152701,-0.0003582049552817071,0.0,1.0938992887959362,1.0726177665130496,0.7806417868573892,3.931437635721788,19.501848997413497,,,0.6403206450210053,2.5727911350985204,inf,,0.8446982977146857
265,0.9758944641947096,-0.02602385237852559,0.0,1.1527618209851647,1.1177144920924469,0.7503007963821721,4.009302077900314,4.1609279391693335,,,0.6727386042041725,4.2086337086242285,inf,,0.5862660781577801
266,0.14429469651420568,-0.010581611077708417,0.0,1.1587975543831364,1.1336536993459696,0.8275627576746535,3.8030073641585287,40.92470465904912,,,0.6357360191111145,2.6879208298070445,inf,,0.6465164138398778
267,0.1638098865768626,-0.009282560239355548,0.0,1.0659681187881433,1.0582551922151229,0.7417091364137893,3.9456818998611656,16.560707136331843,,,0.6207552362147116,2.9513964597339393,2.7557249161877766,inf,0.6483960063595092
268,0.0014739805076383191,-0.00011300517225227113,0.0,1.260529788180816,1.2100185031529005,0.7876231417106307,3.8895397780028524,12.731663175771692,2.4375578075260433,,0.6584896970785714,2.5697385853046977,2.038770501948908,inf,0.5511139396619736
269,0.0,0.0,0.0,0.9502335913178944,0.9222508323173263,0.7244736666173293,3.8253440499822524,6.1832853875915355,2.299246191728531,,0.6699045166045591,3.4011973816621555,2.3059239942595604,inf,0.7906693836572534
270,0.5104137582662053,-0.018715171136427528,0.0,1.1367968050284953,1.1445714072554534,0.7742316750443303,3.5195689143625524,3.8029317340950204,,,0.6038851895711802,3.4885724611471565,inf,,0.623783793997227
271,0.15408014015164676,-0.010785609810615273,0.0,1.3413914190039893,1.2815887336151697,0.8477581326001693,4.7672723689741465,31.669926190667532,2.9841931757231364,,0.6699045166045591,2.71625039766755,2.990870978254166,inf,0.5453395859227708
272,0.049986249716780735,-0.004998624971678073,0.0,1.18185779009355,1.1669350546014112,0.7824450387713885,4.443592559294968,11.181729253234895,,,0.6125606311107803,2.3299562897901778,inf,,0.8085875621100151
273,0.3529119297613552,-0.014535672043479338,-0.004286297543792938,1.3502874164694678,1.3268971764015036,0.8402171691886133,3.646423516380731,9.117750433069048,,,0.6602640781246099,3.101092789211817,3.887631552303987,inf,0.7105038294476341
274,0.23526871687813602,-0.011763435843906801,0.0,1.3685917073723075,1.3302044360568375,0.8351363175182221,5.083068594528413,8.519541700401684,,,0.6284777104787076,3.105051230798245,inf,,0.6699769063287199
275,0.03963054932652582,-0.0023778329595915493,0.0,1.2688822546078358,1.2185876685967423,0.8049533061770332,3.65155849095286,2.3315521027368176,,,0.6740851607140061,2.8421531856256905,inf,,0.8806293183637124
276,0.18524460897026634,-0.006792302328909766,0.0,1.2493454404530244,1.2583750731506522,0.8221313675650745,4.377669687839666,9.953541953329893,,,0.6284777104787076,3.4309695399958255,inf,,0.7776416966633617
277,0.36789002464974757,-0.008584100575160776,0.0,1.2463301352499252,1.215883347993595,0.8037772561739929,4.235053660951587,16.003708935081864,,,0.6425374456860184,3.9436283448434772,inf,,0.7103169128449386
278,0.18245494595779696,-0.015204578829816413,0.0,1.0548974330164864,1.0292762640017206,0.7004554181822865,6.005965838034682,43.94730885383964,3.125903931362649,,0.5883313578629602,2.5745396420280375,3.132581733893678,inf,0.4897284592826277
279,0.05886696993708118,-0.0021584555643596433,0.0,1.2564994111782992,1.2268843256922595,0.7842389642685265,3.872479355770969,9.051509745360379,1.6571089320763306,,0.6403206450210053,3.3501874607544107,1.6637867346073598,inf,0.5678419067634752
280,2.244912038283499,-0.022449120382834985,0.0,0.9755425972305658,0.9105084284417058,0.7681804444092253,3.8933880211309364,2.6743230604398955,,,0.6284777104787076,5.39629777490824,inf,,0.5718700243652275
281,0.0,0.0,0.0,0.9527841572828065,0.9235521334154841,0.613125916330864,3.265432365412177,2.787245880528696,,,0.6584896970785714,5.703782474656201,inf,,0.7095371607431383
282,,0.0,0.0,1.3589447543342974,1.2956761283131322,0.8059187624844791,3.02828096666942,3.4460091705426,,,0.6068309995095971,inf,,,0.9224633246310103
283,0.0,0.0,0.0,0.8808291265614964,0.8245336471992791,0.5121297196741592,3.146288062371996,3.7194509508307685,,,0.6403206450210053,4.605170185988091,inf,,0.624204184559858
284,0.6417237210625232,-0.03208618605312616,0.0,1.1156987941461864,1.0230945107430591,0.7431382287418539,3.2664517930778385,2.794203300764592,2.586325342733672,,0.6468212168108125,3.137808001779419,2.5693133741422964,inf,0.5417868999478349
285,0.3309166804535471,-0.02509909644153319,-0.005786460400797875,1.4611505802540676,1.4412346346551645,0.8924745506033802,3.580668750382469,6.452124389343846,,,0.6619902821573977,2.531579057986431,3.012354715727874,inf,0.7098870407106567
286,0.01952882478072069,-0.001301921652048046,0.0,1.2563655793080593,1.2210560690682248,0.7898367824821882,4.2260583221268915,3.659512387157976,2.976094599318974,,0.6403206450210053,2.7243489740717126,2.982772401850003,inf,0.4990291273897508
287,1.302555888624468,-0.06946964739330495,0.0,1.0946914370686085,1.0836819031344602,0.7753057716027031,4.510846401482368,8.871408633709397,,,0.6357360191111145,3.4448010191442875,inf,,0.459069170099116
288,0.13599491474510425,-0.0049864802073204895,0.0,0.8885737811690142,0.8409069495195977,0.7481258423656137,3.9961896388278504,6.4286435990623145,,,0.6333676938231112,3.384996002324147,inf,,0.559935818153733
289,0.07783420266231772,-0.002594473422077257,0.0,1.0329611993617889,0.9746885999359488,0.8033281051006199,3.986627102303712,3.0601686924915956,,,0.6566669596287297,3.459532958675119,inf,,0.8129220120803863
290,0.2016542769001557,-0.008738351999006747,0.0,1.0866222820464457,1.0148041660556864,0.7290347353427846,3.6985139881047084,10.232296239504471,2.419396792858993,,0.6309483474627791,3.281046780531694,2.426074595390022,inf,0.829811340782543
291,0.12291701244088059,-0.0049166804976352235,0.0,0.9739156314605837,0.965445227296984,0.7446221162272431,3.9067458368415466,6.383031214131337,,,0.62595550513784,3.2875711215872965,inf,,0.5661876290528711
292,0.03242499490352113,-0.0011889164797957749,0.0,1.110736687811289,1.0959862208516884,0.7786096194575316,3.4239657433074084,2.4794376092210872,,,0.6357360191111145,3.3335387331883406,inf,,0.6395037028970321
293,0.0,0.0,0.0,0.8597753529764195,0.7999244467836615,0.6924798496162022,3.1516154843804465,2.7604061206217225,,,0.6309483474627791,4.31748811353631,inf,,0.5952485885975847
294,0.0,0.0,0.0,1.112574104079763,1.0931657160863757,0.6838510157790947,3.096376817248789,5.088813546489488,,,0.6380535849069913,5.0106352940962555,inf,,0.6414797645368422
295,0.0,0.0,0.0,0.6337724925522882,0.6117135721202077,0.5936391827569975,3.2710492591856832,2.5333541840391143,,,0.663668482632973,3.4011973816621555,inf,,0.7044383221403799
296,0.21187831510296568,-0.003531305251716095,0.0,0.759170159697775,0.6378061817029574,0.6885654264703123,3.724337063453332,3.987902443999778,,,0.6447042257417027,4.234373206825804,inf,,0.4523423798847607
297,0.9679576851585803,-0.02581220493756214,0.0,0.9943270416907039,0.9622077510901642,0.683575034233907,4.288622477177458,9.277720817462615,,,0.62595550513784,3.9059304914289887,inf,,0.4956991467430658
298,0.0,0.0,0.0,1.207338199378957,1.1765234596347443,0.8218509594898437,3.438816707394763,2.494982064938592,,,0.6447042257417027,4.31748811353631,inf,,0.5112478841355251
299,0.0,0.0,0.0,1.1785164530425425,1.129213753719935,0.7892471525055437,3.9319471146471887,3.3102671678225986,,,0.648888643467878,3.506557897319982,inf,,0.6865852541375235
300,0.1484759834340726,-0.003959359558241935,0.0,1.0137701802381391,0.9969744104763525,0.6800205056928855,3.347271255477935,5.272195064441409,,,0.6447042257417027,3.7550192566184815,inf,,0.7291021635188372
301,0.17818046217262173,-0.007721153360813609,0.0,1.0702034651455639,1.0690122452947879,0.7370882266320654,3.906067712973741,8.610202307504295,,,0.6284777104787076,3.218320423576501,inf,,0.5404563792120062
302,0.0556287997842748,-0.0018542933261424931,0.0,1.291290694893685,1.2921247361995398,0.83876389779844,4.041756462317791,22.812682687785532,,,0.6357360191111145,3.4448010191442875,inf,,0.8714439145814471
303,,0.0,0.0,0.8867491063278925,0.8767594358339952,0.6249966980264207,3.098194855842527,2.926602524265457,,,0.6309483474627791,inf,,,0.9346633015917128
304,,0.0,0.0,1.0264227294024089,1.018075863182738,0.7231994161214776,2.4941391991546356,3.197277359530276,,,0.6468212168108125,inf,,,0.9188226217612386
305,,0.0,0.0,1.280751526502082,1.2677281579441944,0.789632365299196,2.2876757119340363,2.391130984246913,,,0.6180765742263259,inf,,,0.9254816211163376
306,,0.0,0.0,0.8777697693324411,0.8474081663938564,0.8116114335433268,2.476325709327861,3.90458729521302,,,0.6547956803312163,inf,,,0.9448507156779317
307,,0.0,0.0,1.4001758416312995,1.4005072326638466,0.8777319333070164,2.4170417465720915,2.4850961815884807,,,0.6284777104787076,inf,,,0.9432529219332292
308,,0.0,0.0,1.1234570579318337,1.0997378670402287,0.6981888538096799,2.6005975608370484,3.025564535031104,,,0.5883313578629602,inf,,,0.9390229510362335
309,,0.0,0.0,1.1306043637516736,1.099553651829619,0.7323795151033476,2.7715333241291904,3.835450456827208,,,0.6447042257417027,inf,,,0.9170827723104618
310,,0.0,0.0,1.3909058877681344,1.3755148032876947,0.785050013069924,3.3419088490735516,8.541377371189515,,,0.6547956803312163,inf,,,0.9263303808799618
311,,0.0,0.0,0.3818940750647751,0.35133560122771706,0.5993559444577511,3.1330908441489944,2.810178742287618,,,0.62595550513784,inf,,,0.8465663105757781
312,,0.0,0.0,1.409266816358027,1.3775381191632594,0.8270938751868758,3.0106787658336898,4.916030294650499,,,0.663668482632973,inf,,,0.925107230629152
313,0.0,0.0,0.0,1.0210159087138067,0.9896537996244522,0.6139984434462091,3.170188301055624,3.4512840057271874,1.095273387402595,,0.6309483474627791,4.605170185988091,1.1019511899336245,inf,0.6912780500209529
314,0.49928871225899846,-0.00998577424517997,0.0,0.9828307906709186,0.9510695374526866,0.6385492184362734,3.9725305393223453,7.922021363349837,,,0.6584896970785714,4.0843942313689325,inf,,0.5909597339000026
315,0.0,0.0,0.0,0.9839446229134952,0.9484014908514381,0.7808856881420997,3.088149863458421,3.19489026786401,,,0.6811855325194978,4.605170185988091,inf,,0.7866578843827134
316,0.0,0.0,0.0,0.9830784543991494,0.9669898187857789,0.6138369014539624,3.2779911831250574,2.8997095277761216,,,0.6403206450210053,4.31748811353631,inf,,0.8173684613088684
317,0.0,0.0,0.0,1.0379981992355538,1.032436422237899,0.7241468523589943,2.572779932472153,2.4474640865561628,,,0.6207552362147116,5.703782474656201,inf,,0.8572546222822575
318,0.0,0.0,0.0,1.0863572169857112,1.02699189489211,0.6914602872369565,3.7532800366013492,4.221903580970966,,,0.62595550513784,3.912023005428146,inf,,0.791374144981082
319,0.0,0.0,0.0,0.9649049169375007,0.8936995968871919,0.7017562741373345,3.2443525535036026,3.6127878118055317,,,0.62595550513784,5.0106352940962555,inf,,0.8409155944194593
320,0.0,0.0,0.0,1.5043739321574634,1.483799699162493,0.8875425047975599,4.278966697233249,18.36516823589517,,,0.6309483474627791,4.0943445622221,inf,,0.8700794805484005
321,0.0,0.0,0.0,1.094324815964147,1.0552607168835326,0.7076185273177048,3.887338792551001,2.006814818555207,,,0.62595550513784,3.624340932976365,inf,,0.7333745490578996
322,0.0,0.0,0.0,0.8843893083947387,0.8645822924639882,0.6129661106292581,2.9673725391655776,2.9407348163712124,,,0.6468212168108125,4.605170185988091,inf,,0.6205280308919054
323,0.04888467170472155,-0.0016294890568240516,0.0,1.244152907522801,1.215366952929508,0.7632451569547398,2.9874226400955965,2.8759111116231266,,,0.6509067234006624,3.4406314509075626,inf,,0.9217587805946909
324,,0.0,0.0,1.1428854166530842,1.0975404965192803,0.6826160518633371,3.5572066308087953,7.004782733552565,,,0.5978297680564633,inf,,,0.9056749369883196
325,0.9712911794813193,-0.006475274529875462,0.0,0.9191917345062923,0.8833706793616011,0.7252465315452592,4.395619158273919,13.247604003189306,,,0.6584896970785714,5.569834502146462,inf,,0.8976086659468252
326,0.0,0.0,0.0,1.0262340785082371,1.0037162500189643,0.7716186571596666,4.09411944725366,4.010663541432141,,,0.6333676938231112,5.703782474656201,inf,,0.7755521450954281
327,,0.0,0.0,1.0631457479254622,1.0346904880156746,0.749495907599634,3.4475046708959742,8.690940932878892,,,0.6619902821573977,inf,,,0.8046393423941962
328,,0.0,0.0,1.1284034441999513,1.113079986816373,0.8411031896044824,4.541160272617234,23.715061744293287,,,0.6468212168108125,inf,,,0.9012207414025644
329,0.0,0.0,0.0,1.3133386409409675,1.2990276478317924,0.8208862794383777,3.950652699464701,1.7488995373512766,,,0.6668815377411301,4.0943445622221,inf,,0.8930868339903408
330,0.0,0.0,0.0,0.7604297189858547,0.7061463749741833,0.7577154802253121,3.479413212704633,9.541070932732216,,,0.6468212168108125,4.31748811353631,inf,,0.6941541934149693
331,,0.0,0.0,0.8565738778586196,0.832252491683914,0.6104721077972155,3.991104749843976,7.980254102003649,,,0.6684167106117298,inf,,,0.9127241819360323
332,0.0,0.0,0.0,1.2611180953914078,1.2350160939533081,0.8309293069209084,3.5620902559146894,5.7724548462289205,,,0.6528756675646988,5.703782474656201,inf,,0.9280008579160601
333,,0.0,0.0,0.7587063290335707,0.7279053470794087,0.6132207901796738,2.558841516446315,2.708415124124695,,,0.6357360191111145,inf,,,0.9316717820845855
334,0.0,0.0,0.0,0.9385680890769751,0.9148705618949917,0.6696184772494063,3.1927592575659025,3.6661270245227393,,,0.6309483474627791,5.703782474656201,inf,,0.8600167524533874
335,0.11222409221062761,1.827083988246471e-05,-0.002262752684095017,1.2196879529128206,1.177990453637495,0.771585511465026,3.2192310258979733,1.9412257098639407,,,0.6309483474627791,3.997217851491378,2.386466576974748,inf,0.6811672777374421
336,0.0,0.0,0.0,1.339682421238853,1.2997935413940591,0.7752871278483807,3.446649437457601,11.458893373390298,2.1938856760707046,,0.6584896970785714,3.506557897319982,2.200563478601734,inf,0.7717709740435124
337,0.0,0.0,0.0,0.9758367526070618,0.9507276461465728,0.6543253743772135,3.3305726763053918,7.847052597641459,,,0.6233814453054027,4.605170185988091,inf,,0.8358913825735654
338,0.21747415259944622,-0.016673018365957543,0.0,1.133579397163841,1.1178262846002502,0.7702691656535148,3.838310704335351,38.88666623724194,,,0.6528756675646988,2.6280074934286737,inf,,0.7332155898059128
339,1.4259456186640502,-0.019012608248854004,0.0,1.133340743911267,1.0887588372708812,0.7474934797817656,3.9703855598081543,8.698117183759727,,,0.6207552362147116,4.604059691704064,inf,,0.8071202009411221
340,0.0,0.0,0.0,0.8187014873964683,0.7376393068783795,0.5951827183649163,3.4634787310538737,2.511073124285745,,,0.6380535849069913,4.31748811353631,inf,,0.8435549089725776
341,0.0,0.0,0.0,1.1611100437244581,1.1443241396643964,0.7861220766006499,3.349920761193687,2.9133368767077705,,,0.6357360191111145,5.703782474656201,inf,,0.9387886154448871
342,0.0,0.0,0.0,0.6861887179678554,0.5991545686851031,0.5335059085047245,3.5426569520517046,6.117319804876921,,,0.6528756675646988,5.703782474656201,inf,,0.7694998242964994
343,,0.0,0.0,1.193465756482628,1.1854010027235202,0.8186841427965558,2.923351828828372,2.579328701593751,,,0.6403206450210053,inf,,,0.9059182238421625
344,0.0,0.0,0.0,0.9254873367184904,0.8836988943311594,0.7942148931077004,3.9080147623380705,12.776162801729182,,,0.6425374456860184,4.31748811353631,inf,,0.7806738654578251
345,1.1873728269352095,-0.019789547115586822,0.0,0.8798787402294946,0.8428418901075666,0.5989275766339353,3.156211082347786,3.065311512819592,,,0.6668815377411301,4.497811667667592,inf,,0.8852424969669227
346,1.1976116500054825,-0.02395223300010965,0.0,1.1632674608127602,1.1180504025025764,0.8187551127381822,4.26704438625729,32.748270236797055,,,0.62595550513784,4.278267400383029,inf,,0.69890453530567
347,0.0,0.0,0.0,0.9866664436474137,0.9469186584661436,0.691779320258143,4.943946736434397,113.01718359862201,,,0.6509067234006624,5.703782474656201,inf,,0.6912540187790692
348,,0.0,0.0,0.8647484257672975,0.8104031093041882,0.6617078898396036,3.3575909397918,2.53716481751639,,,0.6068309995095971,inf,,,0.9142034807928506
349,0.0,0.0,0.0,0.742277122515021,0.589467351609906,0.6021169316485587,3.81760537914818,12.357207098590688,,,0.6309483474627791,5.0106352940962555,inf,,0.9485398224085846
350,0.0,0.0,0.0,0.5504784600425079,0.45683480635928253,0.6315987345935501,3.4157284849708596,25.606327278619894,,,0.676637947632344,5.703782474656201,inf,,0.8182734178048715
351,,0.0,0.0,1.7671266613947116,1.7463929470189095,0.9275312998765558,3.3284413243962567,21.563671353075993,,,0.648888643467878,inf,,,0.8694896995174074
352,,0.0,0.0,0.8888229946499202,0.8271210681696582,0.6116932993505506,3.207443415551493,18.25675045472952,,,0.6233814453054027,inf,,,0.8437535499390028
353,0.4742799962214703,-0.006323733282952938,0.0,1.306715690202673,1.3130458706864205,0.834382170443978,4.09200600552631,9.11823000464715,,,0.6309483474627791,4.55638002181866,inf,,0.8215332369926567
354,0.0,0.0,0.0,1.2295528647615264,1.142066968377528,0.8713145850635567,3.007497678173749,2.2087826673331192,,,0.5883313578629602,5.703782474656201,inf,,0.9190499351492993
355,0.0,0.0,0.0,1.0092354741924918,0.9893121885903184,0.7664062343752459,4.476590108961792,12.448882990098893,,,0.6713451011121618,4.605170185988091,inf,,0.9255486156112904
356,,0.0,0.0,1.1761916063949895,1.1574130801929097,0.8436192095923872,3.210709715984991,3.0204715143441914,,,0.6309483474627791,inf,,,0.7534356655487264
357,,0.0,0.0,1.7810112914711895,1.754239428453654,0.9615446792699517,4.710843422179613,29.54527878873634,,,0.6425374456860184,inf,,,0.8415393838116995
358,,0.0,0.0,1.5509619445858607,1.4990138157785056,0.9317519654337083,4.362435187506134,9.294708975910883,,,0.6097226960127671,inf,,,0.8649781399282338
359,,0.0,0.0,1.7889511408782985,1.7638522466301771,0.9526666583353275,5.249829439570177,326.3374755822661,,,0.6180765742263259,inf,,,0.8809082838348052
360,,0.0,0.0,1.7618271967295618,1.7324336662323234,0.9257148202752822,5.048462925052298,701.7692820605043,,,0.6038851895711802,inf,,,0.8485521156513474
361,0.0,0.0,0.0,1.768702457113403,1.7567819670615719,0.9330292110563897,4.726939263854608,399.4910124935821,,,0.6684167106117298,5.0106352940962555,inf,,0.8881488980908433
362,0.0,0.0,0.0,1.2600380457650033,1.2281916379436113,0.7381292190210735,4.790182293572871,5.691603209481925,,,0.6547956803312163,5.703782474656201,inf,,0.8944965210459902
363,,0.0,0.0,1.3988450086446442,1.3882301718949315,0.775288641722055,3.15044142923861,11.362317146885857,,,0.6602640781246099,inf,,,0.8997895876281315
364,0.0,0.0,0.0,1.268981263964149,1.2075540613071891,0.8924350377778676,3.463806578301588,5.3155350453521155,,,0.6713451011121618,4.605170185988091,inf,,0.7595984622366484
365,0.0003709890295016221,-1.1129670885048663e-05,0.0,1.7708966314214991,1.7485492803706928,0.9015923215346149,4.570745708156574,4.060178147362945,,,0.6284777104787076,3.5069283362943975,inf,,0.8998106966271808
366,0.0,0.0,0.0,1.2318720468439546,1.1923071499276314,0.777517672804924,4.736509218505791,54.65076871176103,,,0.648888643467878,2.870569130599985,inf,,0.7758095712973982
367,,0.0,0.0,1.7819176544569026,1.7363936763647814,0.9147312912176458,5.030108866021879,259.50697645380177,,,0.6602640781246099,inf,,,0.8877605323997165
368,,0.0,0.0,1.7674570270532075,1.720785230301571,0.927120259040315,4.276185495567278,387.7255820118913,,,0.6652988471865258,inf,,,0.8481722311829346
369,,0.0,0.0,1.7797756754216472,1.761438867631855,0.9443547420816788,4.4482621690681965,219.7401703963183,,,0.6380535849069913,inf,,,0.8659425205829387
370,,0.0,0.0,1.7713568131389947,1.7489950244700287,0.9428065616975431,4.066923754987378,143.82002919906137,,,0.6284777104787076,inf,,,0.8795390470287161
371,0.0,0.0,0.0,1.442912260236964,1.4275708188724243,0.7808188912245062,4.799673791788449,86.23288580008659,1.382955459854376,,0.6357360191111145,4.31748811353631,1.3896332623854053,inf,0.853073029933209
372,,0.0,0.0,1.7892393087547303,1.766490913561155,0.9342508140250365,5.894207159702891,415.0296350962928,,,0.6038851895711802,inf,,,0.8537158193633572
373,,0.0,0.0,1.7719045459712732,1.7364072044329404,0.9485878775519074,4.591584344349332,221.82979793618918,,,0.6008849035917525,inf,,,0.8242677895450843
374,,0.0,0.0,1.3785221279074844,1.3576093808615097,0.9180639072020863,3.6370375996810527,33.97882510458977,,,0.6333676938231112,inf,,,0.8697829860419442
375,,0.0,0.0,1.7381973988444543,1.7266955426076473,0.9482586803849649,3.6015416763884107,11.478442036723013,,,0.6333676938231112,inf,,,0.8858397909063883
376,,0.0,0.0,1.7849179395375525,1.7659861756094846,0.9822151853786432,4.434431286202691,20.803443004750363,,,0.5915533975974677,inf,,,0.8526240744731497
377,,0.0,0.0,1.7493924952198534,1.7187342817913238,0.9745776792255556,3.7772442595668747,9.91299623548315,,,0.585052858160615,inf,,,0.8847656780474301
378,,0.0,0.0,1.2157110552177763,1.1920470585624698,0.8044911478065908,2.89828587991222,2.1059669645599883,,,0.6068309995095971,inf,,,0.8921760771617372
379,,0.0,0.0,1.6894811186888847,1.66623426030114,0.9614532771969274,2.7959852166598798,5.607304254715029,,,0.585052858160615,inf,,,0.8307258316257694
380,,0.0,0.0,1.7409599266610276,1.7088660246961187,0.9662287241479317,2.656980399668752,3.3969683118995597,,,0.5883313578629602,inf,,,0.8306183794195743
381,,0.0,0.0,1.7038868310850828,1.6885370231062304,0.9605074733024219,2.6219389027730196,2.3410788545728383,,,0.6097226960127671,inf,,,0.8463413848310651
382,,0.0,0.0,0.8313965574150286,0.7563699740460034,0.7619282916075453,2.6323262742849574,2.5013211601299576,,,0.5947193981915972,inf,,,0.7976132954855909
383,,0.0,0.0,1.325243470768734,1.2879891305279731,0.8554521147731055,2.2397688134612768,1.6488051350594022,,,0.5287703885177266,inf,,,0.9204012427770953
384,,0.0,0.0,1.5759584464332752,1.5735726519945121,0.9535800197839783,2.682370364482875,2.5002701116449018,,,0.6233814453054027,inf,,,0.8862092030733715
385,,0.0,0.0,0.579972604152922,0.5594742667717941,0.534423787260935,3.1637037416091904,5.069843049017761,,,0.6403206450210053,inf,,,0.7006424795515082
386,,0.0,0.0,0.8857469332505404,0.8627258361226275,0.7283320819528231,2.0132729851866515,1.7811194835980064,,,0.6180765742263259,inf,,,0.9010625717374721
387,,0.0,0.0,1.437256424980016,1.4247274186818026,0.8913701945933555,2.2222497484058703,2.5671056706398057,,,0.5783247308855777,inf,,,0.8274669258934602
388,,0.0,0.0,1.1641105178742406,1.1235707742632768,0.8442913094294777,1.8588454639979957,1.814683898521211,,,0.6333676938231112,inf,,,0.824449313977435
389,0.44109228575131554,-0.0014703076191710518,0.0,0.5402695212277719,0.43262478565023116,0.548137989240625,1.4172252720601706,1.8098855907578058,,,0.6207552362147116,6.144874760407516,inf,,0.640898375036693
390,,0.0,0.0,0.8787474917782687,0.8420330200985667,0.7294463261208533,1.743561315699324,1.8406092023405485,,,0.6284777104787076,inf,,,0.6849682104644071
391,,0.0,0.0,0.9317607328632095,0.8483282161982584,0.7050805268354342,2.2766634620287953,2.5217736126745813,,,0.5677978065141052,inf,,,0.8822408017835718
392,,0.0,0.0,1.6471981799217172,1.6327705189976773,0.944292101189394,1.4535487961733609,1.7359145710984147,,,0.6068309995095971,inf,,,0.7931910328066527
393,,0.0,0.0,1.7320272663538467,1.7018042104061382,0.9865314767782919,1.6388223934043558,1.6289615613953095,,,0.5567373465730988,inf,,,0.8271430652450064
394,,0.0,0.0,0.5345946023014435,0.4844962409085823,0.6316477849540216,1.857513338081876,1.5132987666190887,,,0.5641709578113449,inf,,,0.8067558032999218
395,0.0,0.0,0.0,0.9468116621806308,0.8775002814512812,0.5148454673284888,1.5716249033094076,1.7184460095444398,,,0.5915533975974677,5.0106352940962555,inf,,0.6929220524915393
396,,0.0,0.0,1.528763179285004,1.5339442030136157,0.9208548801960824,1.4915517118466481,2.2345462972138073,,,0.581717464821069,inf,,,0.8216840813775631
397,,0.0,0.0,0.751176168244778,0.7381843168839615,0.6211252328772808,2.0445673037818692,2.1941731854933813,,,0.6153451465759925,inf,,,0.9063258004640556
398,,0.0,0.0,0.5958159979032343,0.5376145505952408,0.5591099803915703,2.1131060597902396,2.944940778933184,,,0.6153451465759925,inf,,,0.7635888269818121
399,,0.0,0.0,0.4999769164997472,0.44440452413707876,0.6826531390136886,1.721129428051003,2.0739391060699477,,,0.6068309995095971,inf,,,0.8655370588696036
400,,0.0,0.0,0.6899131251594858,0.640903821779819,0.6651793384326898,1.8281084798714244,2.2846082074762046,,,0.6284777104787076,inf,,,0.6267628126220474
401,,0.0,0.0,1.1636252291207605,1.0682923357946772,0.8438556324425859,2.002660500165045,2.2362498143073792,,,0.6284777104787076,inf,,,0.8832489804860499
402,,0.0,0.0,0.38352603174820593,0.3478826495945586,0.3812971394883639,1.5145501908048025,1.6335500439009176,,,0.6153451465759925,inf,,,0.6284887306205326
403,,0.0,0.0,1.1570127700597854,1.102205253306497,0.7911452856481748,1.380921202992639,1.4893440514274288,,,0.648888643467878,inf,,,0.8448836937914043
404,,0.0,0.0,0.5139426457520241,0.43996353965074425,0.5002098687543058,1.5430832731361521,1.8882972319513642,,,0.6284777104787076,inf,,,0.720559015824137
405,0.0,0.0,0.0,0.8383206377063688,0.8278865033142114,0.4850912438252214,2.6133284806667145,3.2414714962000506,,,0.648888643467878,5.703782474656201,inf,,0.838057320672621
406,,0.0,0.0,0.9972464576168458,0.9731462587932457,0.7531587838119229,1.8151520520759952,1.7285594707847167,,,0.648888643467878,inf,,,0.8173541470356904
407,,0.0,0.0,0.2933224123996716,0.2526827913283727,0.4156088702164907,1.5782636575914986,1.955048695271749,,,0.5978297680564633,inf,,,0.8759865371306432
408,,0.0,0.0,0.5165637402004642,0.4938946186245071,0.5095380309454695,1.3582767237549507,1.7601282105968517,,,0.6233814453054027,inf,,,0.8459394306423547
409,,0.0,0.0,0.7017375132803364,0.6935166326481931,0.5415837119537751,1.5095944024974717,2.4720045896392002,,,0.6403206450210053,inf,,,0.8665785661108922
410,,0.0,0.0,1.2715502320219376,1.259373932189738,0.9677163444065963,1.7027749830915961,2.37063156741828,,,0.6233814453054027,inf,,,0.7995316379378936
411,,0.0,0.0,0.7483103501907462,0.7246461319455467,0.6271818637250632,1.7971028061151806,2.13338324478942,,,0.6425374456860184,inf,,,0.9154168548679981
412,0.0,0.0,0.0,0.9780418887433644,0.927480671266161,0.7458169026088765,2.55533537966307,1.8926075064035293,,,0.5883313578629602,5.703782474656201,inf,,0.91160640350229
413,,0.0,0.0,0.9048697114992917,0.882062826594926,0.5625692750219714,2.175514648667111,2.6965420100585895,,,0.6097226960127671,inf,,,0.8116563993521394
414,,0.0,0.0,0.6555150217670012,0.5854943998982095,0.3766320982312005,1.5201347122200946,1.3380910933928516,,,0.6038851895711802,inf,,,0.8883916761527773
415,,0.0,0.0,0.665616161533873,0.644376019410447,0.5757383190185582,1.228461562078522,1.4992970422747078,,,0.6233814453054027,inf,,,0.8644999203803347
416,,0.0,0.0,0.6934772907311113,0.677352003491432,0.47058959160434544,1.4270956703849305,1.396579812816069,,,0.6333676938231112,inf,,,0.7080149141511324
417,,0.0,0.0,0.6958069048582053,0.5967209805973517,0.5330214517983372,1.7269392817137523,1.8529571100500812,,,0.6425374456860184,inf,,,0.6249568089030774
418,0.0,0.0,0.0,0.6336228850276753,0.59798713315387,0.46790673776718417,2.0283719733094068,1.9380607147107844,,,0.6097226960127671,5.703782474656201,inf,,0.644009996287007
419,,0.0,0.0,0.3986402894099303,0.34305592690100956,0.5512863536621456,1.4447840181234082,1.2388412392903705,,,0.6380535849069913,inf,,,0.6358270648685534
420,,0.0,0.0,1.254516944591827,1.220939992698323,0.820290912440234,2.5013406900070927,2.216314890605736,,,0.6233814453054027,inf,,,0.8419970032665525
421,,0.0,0.0,1.5300719755780514,1.4952498246829744,0.8790020448060364,2.0713084220433675,2.5819939556628664,,,0.6547956803312163,inf,,,0.743335566384461
422,,0.0,0.0,1.578561013041886,1.56390620275076,0.9113194889982575,2.5279075093290877,2.048152391597049,,,0.6447042257417027,inf,,,0.7691296310738893
423,,0.0,0.0,1.2781300579269237,1.2704928398587638,0.8235199562809915,2.6477583501615407,4.087517509080086,,,0.6180765742263259,inf,,,0.7719413608165494
424,,0.0,0.0,1.5858292053223306,1.5615810035827495,0.93506496524002,2.8389946589111683,2.7455874199718866,,,0.6008849035917525,inf,,,0.8186157134797529
425,,0.0,0.0,0.4033001583853135,0.3657529674562538,0.502619974955336,1.775309921993412,1.9763104761930024,,,0.6153451465759925,inf,,,0.7153475273600209
426,,0.0,0.0,0.7903492610202196,0.7526121888897739,0.7006318468463665,2.0428783513359616,2.131927951364583,,,0.6125606311107803,inf,,,0.8558971458095994
427,0.5447271754416722,-0.0018157572514722405,0.0,0.7108051685845607,0.5499241745698873,0.6152490815910122,1.9680459901430136,1.8248497905427383,,,0.5978297680564633,6.248509650097873,inf,,0.7967826940751784
428,0.6608779199911597,-0.004405852799941065,0.0,0.8814599214415809,0.8416490097917061,0.672321231126707,1.9171134011546904,1.3582549879042112,,,0.5883313578629602,5.467393696591971,inf,,0.8140203944775233
429,0.0,0.0,0.0,0.7152050292008323,0.6499752646911585,0.5887206411742701,1.9607271802698432,2.076759688010644,,,0.6153451465759925,5.703782474656201,inf,,0.8752139238707417
430,,0.0,0.0,0.7821929958576425,0.7346215068731834,0.4072122882239429,1.9088244446084643,2.1404791603069557,,,0.6447042257417027,inf,,,0.8081042253786643
431,0.12028616587450193,-0.00040095388624833975,0.0,0.7485966797198648,0.7101393181417763,0.584029814681283,2.0297726705957397,1.9374266842536287,,,0.6284777104787076,5.824068640530703,inf,,0.9229395759571636
432,,0.0,0.0,0.7662420915010743,0.7465415825006737,0.5911932093390178,1.7376010097166945,2.2168400639488253,,,0.6284777104787076,inf,,,0.8693734368922635
433,1.168852632439994,-0.011688526324399939,0.0,0.7766805684947222,0.7205469881850032,0.5232853396292851,1.809475210493857,1.7655499271328192,,,0.6468212168108125,4.995746681602505,inf,,0.659121070346782
434,0.0,0.0,0.0,0.14228428290499973,0.12231014218003543,0.1902430538755667,1.24486878854288,1.6090069895245014,,,0.5978297680564633,5.703782474656201,inf,,0.8424228767034709
435,,0.0,0.0,0.9750780938242077,0.9544697703283338,0.8638037754624224,1.3883849571339333,1.6631075988909811,,,0.6357360191111145,inf,,,0.8347338652329193
436,,0.0,0.0,0.6675789352197956,0.5925997261088073,0.4757799542444757,1.8551144154835701,2.1478368939082593,,,0.6309483474627791,inf,,,0.7408515866651277
437,0.0,0.0,0.0,0.9726719677451104,0.9806267872926036,0.6708950477275692,2.435431962275239,1.2807604512033883,,,0.6180765742263259,3.912023005428146,inf,,0.6646666977969021
438,0.3115545390909639,-0.018690410072502904,-0.001041377403258146,1.0159240734672441,0.9907663459586872,0.677109258378243,1.4005442886553519,0.13720829944113744,,,0.6333676938231112,2.9030518110535395,3.115441408442362,inf,0.8314475058776143
439,0.09884014978476036,-0.008236679148730029,0.0,1.3894918339726323,1.3445136475568136,0.9249519888711155,4.9872050589020205,31.375811092882444,,,0.663668482632973,2.5377449968040016,inf,,0.6674850849149906
440,0.35499459001674,-0.0201163601009486,0.0,1.0022015315645993,0.9612547766134955,0.6874580256614589,3.4263513465253053,1.934250041594923,2.65365189622322,,0.6380535849069913,3.0467916771674664,2.6603296987542495,inf,0.47792240293608473
441,0.2341866372162305,-0.00986000377861342,-0.0018493280821981052,0.9903146858717956,0.950932011344805,0.6526186707857311,3.4482821960635994,3.45426730079128,,,0.6425374456860184,3.131424729753942,3.128645742745007,inf,0.8199756419866201
442,0.31706535456321233,-0.012682614182528492,0.0,0.9382405213499975,0.8666818208333026,0.6830077273629909,4.026686732873624,1.8829561047999848,,,0.6547956803312163,3.4385531682059245,inf,,0.6792852947531033
443,0.2449917603889093,-0.014699505623334557,0.0,1.1441314913921412,1.0885648348060455,0.729000179993002,4.7233755071002745,6.213469797445989,,,0.648888643467878,2.900220093950979,inf,,0.5872792737776493
444,0.008573698133749209,-0.0003143689315708043,0.0,1.09638686035663,1.067718123015269,0.7196643291576932,3.835132321778409,1.855571306045959,2.3863408985794647,,0.6778444222523095,3.3141026748112217,2.393018701110494,inf,0.7568391721868875
445,0.04314053931574972,-0.0037388467406983088,0.0,1.2265742757544242,1.232440866216409,0.8027264326988636,4.7449570685954505,34.090665999144875,3.221253883931915,,0.6097226960127671,2.4791896894587713,3.2279316864629446,inf,0.7554839307971136
446,0.00016694506327572992,-1.1129670885048663e-05,0.0,1.1507172149525284,1.1385636435416524,0.7870507750532081,6.623310051714606,31.778464842373417,,,0.6584896970785714,2.7082168816593093,inf,,0.6295899944010306
447,0.0713349887877465,-0.0011889164797957749,0.0,0.9777850825102575,0.9259404686751742,0.7232763450773932,2.9005605719537613,2.075563572646161,,,0.62595550513784,4.156219965940188,inf,,0.49243448468382617
448,0.1318337950857797,-0.01010725762324311,0.0,1.2474665600612702,1.2307000403849448,0.8215722861827258,3.6620911372256457,5.0437032562313755,2.359870813544966,,0.6097226960127671,2.647425579285775,2.366548616075995,inf,0.4876110746232863
449,0.1380503694326667,-0.008283022165960002,0.0,0.888547734174293,0.8268601830203208,0.7771913316177872,3.8232305772092814,7.541322272000929,2.834764428084893,,0.6566669596287297,2.8656791453057933,2.8414422306159226,inf,0.7819970868250777
450,0.19711697020254348,-0.01182701821215261,0.0,1.1966674734512075,1.162788661307409,0.8007770965457522,3.7273753801920924,3.5370151085483705,,,0.6528756675646988,2.9095545773129388,inf,,0.6744788664576139
451,0.001988124044130775,-0.00011266036250074392,0.0,1.1645916179329592,1.1452340695407552,0.7703902189927927,4.171443307326483,3.628525337829668,,,0.6602640781246099,2.872531839767834,inf,,0.6087082249519083
452,0.0,0.0,0.0,1.2226953896640431,1.1906485145225418,0.8392240857637546,3.50453073386086,2.256333736550725,,,0.6566669596287297,3.138833117194664,inf,,0.49241415736909405
453,0.2218464070249,-0.005915904187330666,0.0,1.103865604593182,1.0603349139939873,0.7119075939017857,3.098461820892036,2.6835717489413913,,,0.6309483474627791,3.766480700137488,inf,,0.43614435239107074
454,0.16633351608294733,-0.009425565911367015,0.0,1.2989367582723221,1.2607532611443428,0.8208294936772813,3.654220005728487,2.2407090802684793,,,0.62595550513784,2.992847549485401,inf,,0.7086171951489872
455,0.42510747186369885,-0.017004298874547952,0.0,0.8611849364688842,0.8418070314746724,0.6335106653292218,3.2540578525392396,3.5181366425915894,,,0.6380535849069913,3.313186504339442,inf,,0.7913805694240374
456,0.0,0.0,0.0,1.2963748361663188,1.2571091013841926,0.7937952418257157,4.198526009032768,6.0677108911661435,,,0.6447042257417027,3.2188758248682006,inf,,0.5537399077840501
457,0.15035705549520434,-0.011527374254632333,0.0,1.275261251246785,1.2341982883526916,0.8090538072024134,5.0824916999253995,23.608209876907303,1.9476377564110774,,0.6309483474627791,2.6541935283114992,1.9543155589421066,inf,0.6806903658875348
458,0.3769588663634662,-0.021361002427263086,0.0,1.3821187951851561,1.35207974277732,0.9122302980898727,4.792060356228973,48.0401239854264,2.705599793897811,,0.6584896970785714,2.994843779492876,2.71227759642884,inf,0.5555724486721477
459,0.33605928434551574,-0.029113933672647214,-1.120430396415376e-05,1.0808588860397064,1.0539698587773896,0.6562528794165182,4.95242685826584,16.661405724234484,7.051220134880827,,0.6668815377411301,2.5579075426724907,3.152563920134507,inf,0.5598539246996526
460,0.3282676988125711,-0.01178135410412551,-0.0024435795110859058,1.230153342332613,1.193421978010177,0.8028185725844598,4.215032382640165,19.25011960866374,,,0.6778444222523095,3.349554148510317,3.0881975012260847,inf,0.6044000835174399
461,0.7426840172839584,-0.027220542996447657,-1.120430396415376e-05,0.9200885403841107,0.9210152853587176,0.5360105278823496,1.5808771637038286,0.9267250075712223,2.2005635530486614,,0.6566669596287297,3.503230107227307,2.207241355579691,inf,0.5239626930150991
462,,0.0,0.0,1.3153441266416925,1.31647970827333,0.7681453449603557,1.3530244236159925,1.0427553447968554,,,0.6699045166045591,inf,,,0.9286548281417621
463,,0.0,0.0,1.3635832887158201,1.3655221587542552,0.7845699912411864,1.4823069211754765,1.1312972168979134,,,0.6153451465759925,inf,,,0.9354315086243851
464,0.8757949534689717,-0.033977873199044314,-0.01565050749753075,0.8811190228304886,0.865185165437129,0.7257386509009008,2.8497119746740216,1.4437510501740505,2.882418932879513,,0.6602640781246099,3.133973151112771,2.3627951541591043,inf,0.7545282737625681
465,0.0953740021636949,-0.007874618878905996,-0.0003911279752808943,1.3104429811914622,1.2977047521286504,0.8465417919731683,4.003557927446365,11.505446381955087,3.8227887899889383,,0.6284777104787076,2.5155033237654676,3.308565316765235,inf,0.7781721877748372
466,0.014199415494056731,-0.0005679766197622693,0.0,0.9353713741072562,0.8415638246749263,0.7098191235095463,4.13417486825929,5.1809587049039205,,,0.6468212168108125,3.232017353291375,inf,,0.7215709011249927
467,0.0332128957166257,-0.0008856772191100187,0.0,1.3528998691592444,1.3240503354435917,0.855588169336815,4.149324911143804,10.340395919059631,,,0.6153451465759925,3.6539414027526558,inf,,0.6559139538932293
468,0.1180992714259488,-0.005511299333210944,0.0,0.9501208581351953,0.8775605659125749,0.6689337990732581,4.030074895295251,5.466514830929961,,,0.676637947632344,3.124829069110648,inf,,0.7793564957426201
469,0.0006080898318906047,-2.2296627169322174e-05,0.0,1.1773935885074809,1.1763668934832288,0.7630695500321962,3.6958624062795637,4.846330172606209,2.499682320986676,,0.6873705427232264,3.306493446192858,2.400627929728858,inf,0.7573307190246041
470,0.07955938320139211,-0.0034475732720603246,0.0,1.026610843698141,0.9215389089221651,0.7262512903891178,3.427125707775647,3.514255125365166,,,0.6547956803312163,3.2089254940150327,inf,,0.5570394900853523
471,0.2744368457017603,-0.0009147894856725344,0.0,0.6936040347790821,0.5792670852657016,0.5416566858280022,3.363938641643403,3.905384800063046,,,0.62595550513784,5.978219320357962,inf,,0.8069324148375046
472,0.09589456905414626,-0.005434025579734954,0.0,1.313901293251292,1.2696873042990384,0.8462346790809374,3.7174282367112355,3.844107174056593,2.7673730609614067,,0.6509067234006624,2.93307051242928,2.7740508634924357,inf,0.8492525526269107
473,0.20521521946199034,-0.01231291316771942,0.0,1.2917452164166616,1.234685873644787,0.8015192563795002,4.2245893922162,1.9731180636464707,,,0.6125606311107803,2.9395620020869364,inf,,0.7977943846925412
474,0.32563266691665316,-0.01953796001499919,0.0,1.0322292101216457,1.0020427541331742,0.7108629752150851,4.263326054470895,4.082673873711592,,,0.6403206450210053,2.9433506826870515,inf,,0.49732489278782555
475,0.15571100525414908,-0.009342660315248944,0.0,1.165320802748714,1.1579851388576186,0.813719955562704,4.15388007729785,32.6695649041128,,,0.6619902821573977,2.876666110840053,inf,,0.6497464838361237
476,0.4272392161080112,-0.027058483686840707,0.0,1.2438804406562316,1.2165277720500578,0.7850532246866445,4.1894022066355925,16.080881870745877,2.7953641866222476,,0.6333676938231112,2.9050793867684392,2.8020419891532766,inf,0.716641426974734
477,0.1984523757552313,-0.004630555434288731,0.0,0.5323817178759054,0.42984614555669187,0.5700306635731817,3.5312084437172224,5.778847587269577,,,0.6547956803312163,3.9231963060262713,inf,,0.7080356292560448
478,0.015796501318156284,-0.0008424800703016685,0.0,1.0282131804716366,0.9932797838793925,0.7837711650333501,4.183930791468097,4.479278667156378,,,0.6380535849069913,2.9452504194061544,inf,,0.6477811225875246
479,0.22553874051048012,-0.014284120232330407,0.0,1.4121410499636804,1.3766709666330177,0.8624962837944621,4.594705813342318,7.977941299229149,,,0.6528756675646988,2.858485569033843,inf,,0.7082369263173798
480,0.2278066830587859,-0.00987162293254739,0.0,1.1826364387447554,1.1225384397682694,0.7615126880528191,4.05192664736197,23.581196101211304,,,0.62595550513784,3.2851937059058494,inf,,0.7626447576852712
481,0.20976484657530134,-0.01398432310502009,0.0,1.2152835121014791,1.1966159206118518,0.7785216087575453,4.15402900555234,39.32362121539316,,,0.6425374456860184,2.8279604977747677,inf,,0.7852814997265468
482,0.0,0.0,0.0,1.1788354781549721,1.11228868728454,0.7814752263130771,4.350362046876899,2.274469704997154,,,0.6547956803312163,4.0943445622221,inf,,0.7006941726206745
483,0.0,0.0,0.0,0.9857187212458501,0.9507820228647278,0.7682380002885453,4.166400928741457,19.165249990547714,,,0.6602640781246099,4.0943445622221,inf,,0.8190315802174856
484,0.08916873598468311,-0.0011889164797957749,0.0,0.9450338775977488,0.9164890735330082,0.677017942688707,2.8919938877917586,3.0848382632631393,,,0.6547956803312163,4.395449655006022,inf,,0.716842217099461
485,1.535056728662697,-0.01535056728662697,0.0,1.0136272136052744,0.9869776574077085,0.6190148849851205,3.3519390281371866,4.802075927994681,,,0.6425374456860184,5.005647752585217,inf,,0.7769709142051975
486,0.0,0.0,0.0,1.1117029310847604,1.0331850134502705,0.7294652766228577,3.501368313137761,5.057507753799328,,,0.648888643467878,4.0943445622221,inf,,0.6231932858111049
487,0.0,0.0,0.0,0.9248286887966201,0.8657911194479609,0.6200881568252093,3.4525089906443394,5.16078493524579,,,0.62595550513784,4.0943445622221,inf,,0.7439882834720468
488,0.2299452912908134,-0.009197811651632536,0.0,1.1463062967585549,1.1389980744825858,0.766057428976594,3.9171494011001635,5.652964776127508,,,0.648888643467878,3.3001461375924275,inf,,0.45270713428848125
489,0.45120431349657464,-0.018048172539862985,0.0,0.9453048863122236,0.9164027922992166,0.7727600731359698,3.881708912980116,14.508012021502047,,,0.6357360191111145,3.377480855044839,inf,,0.46911490987849724
490,0.5127553667640772,-0.01880103011468283,0.0,1.397444666665453,1.3563267199739197,0.8315661055838823,4.037803167015158,6.630445588120513,,,0.6619902821573977,3.519605612712457,inf,,0.5863913335731142
491,0.14784045734095289,-0.005420816769168272,0.0,1.285282879716039,1.2647072568606175,0.8296417855985478,4.140057293254656,21.311178504770528,,,0.6357360191111145,3.381721605161499,inf,,0.5728482708403982
492,0.36732080020642566,-0.011019624006192769,0.0,1.0863191348718426,1.0681332603649665,0.7728889852126476,4.292298667287655,16.43338131510803,,,0.6447042257417027,3.6197680711312312,inf,,0.6149720318598075
493,0.0,0.0,0.0,1.177072683438621,1.1566780900468216,0.7863303513947815,3.733031993416171,2.567548763559901,,,0.6447042257417027,4.31748811353631,inf,,0.885734344729561
494,0.0,0.0,0.0,1.2079749278856047,1.178723748547463,0.8000738269632066,3.473939819740988,4.304600715240923,,,0.6425374456860184,4.0943445622221,inf,,0.8390895116251572
495,0.1032793337630892,-0.00172132222938482,0.0,1.120636856625999,1.0840962264948568,0.7538537550237626,3.106029111864882,4.135760749209911,,,0.6008849035917525,4.178451071519101,inf,,0.765484767529743
496,1.3040076684760487,-0.013040076684760487,0.0,0.8547998657231616,0.8302545836214198,0.5645806930262921,2.9850473582414536,3.351573146605155,,,0.6425374456860184,5.000684963243088,inf,,0.7771072695688224
497,0.0,0.0,0.0,1.0543834433562438,1.0286123782909429,0.7340841385343133,3.306497880964794,5.048084901595777,,,0.6619902821573977,5.0106352940962555,inf,,0.7674718092749865
498,0.0,0.0,0.0,1.0101335748994515,0.9309461464765869,0.693832770566908,3.571537172957258,5.8237178303229165,,,0.6790044388599258,5.703782474656201,inf,,0.8372560940014276
499,0.030218122756043613,-0.0003021812275604361,0.0,1.1591080347050644,1.0330899249164045,0.7608685592714515,3.303785896455038,10.504645590959514,,,0.6841113288387766,4.6344845736568665,inf,,0.8786796168772644
500,0.0,0.0,0.0,1.1121806647020205,1.1080280713998745,0.7487677451843824,3.725709841347653,2.7904309916726366,,,0.6425374456860184,4.31748811353631,inf,,0.7697283140202343
501,0.0,0.0,0.0,0.6512323328598562,0.600219382988057,0.6237546678848258,3.0636810749910137,2.966271095350435,,,0.6447042257417027,4.605170185988091,inf,,0.7539945763700181
502,0.2294111833405165,-0.007647039444683883,0.0,1.2581990436076456,1.1941159546100566,0.7681106207021969,3.578038716359304,5.272431662834357,,,0.6668815377411301,3.5843192586268793,inf,,0.8282782825879829
503,0.43602609483147314,-0.011627362528839284,0.0,0.8565838958071386,0.853897639029703,0.5993101645939124,3.390684896203426,3.193646717997163,,,0.648888643467878,3.776618368421943,inf,,0.8227682217566871
504,0.0,0.0,0.0,1.232395349585171,1.1932116757201727,0.8233161517795998,3.9925464500405434,16.21247012013659,2.3604458116005875,,0.6509067234006624,3.624340932976365,2.0827804429453507,inf,0.6318305100330828
505,0.5685412862526095,-0.01137082572505219,0.0,1.2958837937400574,1.2704073804271545,0.8134035717709851,3.776033841876913,7.580956862842115,,,0.6547956803312163,4.089688750685907,inf,,0.949864623501342
506,,0.0,0.0,0.996136561581884,0.9602249193108925,0.7387403380870912,3.3885966928637323,3.2671610799340858,,,0.6468212168108125,inf,,,0.7592864450945339
507,0.4226661746280861,-0.011271097990082296,0.0,1.1140038141213948,1.0879731101451007,0.7273410435711245,4.2139766490563835,2.615194015994984,,,0.6309483474627791,3.8987777786781255,inf,,0.7728633594768142
508,1.5606477482646683,-0.005202159160882228,0.0,0.9475776226872469,0.8835375445586876,0.5861498046170055,3.7188340540615497,8.827808939291268,,,0.6566669596287297,7.264430222920869,inf,,0.7510198635306686
509,2.7323954829518216,-0.16958347151466793,-0.003468242405614111,0.9607507305886449,0.9497457758455007,0.6854935950421177,3.594925293708113,5.451650123060422,,,0.6284777104787076,3.5819202170924127,3.1622056381079218,inf,0.7384033115276234
510,,0.0,0.0,0.8267125175006151,0.7843445100500535,0.737897770958264,3.964085777547482,8.314876313382126,,,0.6468212168108125,inf,,,0.91000481933384
511,0.0,0.0,0.0,1.167765955838966,1.1436450784830623,0.8427266499801844,3.7998628875214875,3.1526370069352185,,,0.6357360191111145,5.703782474656201,inf,,0.8898398504064856
512,0.0,0.0,0.0,0.9684993417403148,0.8996728092722371,0.6735112498258334,3.4808584547870804,2.890767369736133,,,0.6740851607140061,4.0943445622221,inf,,0.6119673809378632
513,,0.0,0.0,0.5925247636926131,0.5535645049343718,0.7057090025571968,3.0118229284210787,3.2869991923506947,,,0.5783247308855777,inf,,,0.7850634915049295
514,,0.0,0.0,0.8156271547070011,0.7935916583236262,0.7873708906010588,3.0232537947363025,3.3127463412009126,,,0.5978297680564633,inf,,,0.742766637983464
515,,0.0,0.0,0.2730027592884021,0.23889068163230845,0.5290234056751482,1.7876960322819844,2.1839286074839412,,,0.6357360191111145,inf,,,0.6705442617710088
516,0.7135581778200729,-0.004757054518800486,0.0,0.6073066852751005,0.5672607718221838,0.590842122014314,2.793916706308788,2.440531443998983,,,0.6602640781246099,5.488671095039256,inf,,0.6977083965566527
517,0.6603573577369544,-0.0022011911924565146,0.0,0.7394701109027153,0.6626390493104918,0.6343769023973659,2.21198646479896,2.959266434935443,,,0.6153451465759925,6.364139832393156,inf,,0.6248558428036302
518,0.6129450290081885,-0.010215750483469808,0.0,0.8618647692618918,0.8494587837034956,0.6351514356923177,2.137435088098958,2.080003785200608,,,0.6233814453054027,4.305888977692959,inf,,0.73495898031068
519,0.004373887880756692,-0.0002770128991145905,0.0,1.186453519060988,1.1510046846383684,0.7929975824195352,3.1000292744044846,2.873752399730638,,,0.62595550513784,2.763562911032469,inf,,0.719272157717823
520,,0.0,0.0,0.4403381126089187,0.42278255223864325,0.5071176569901134,1.8980151885601848,1.6828400479769083,,,0.6068309995095971,inf,,,0.8327036043372689
521,0.0,0.0,0.0,0.6783606466644517,0.6380398766581291,0.5308044663357429,1.6337939810315298,1.6815773693030749,,,0.6125606311107803,5.0106352940962555,inf,,0.8620212957341289
522,0.0,0.0,0.0,0.6462546659786865,0.6203234683082783,0.5997608918128079,1.536730825918115,1.4428668643780957,,,0.6008849035917525,5.703782474656201,inf,,0.9294546862023471
523,,0.0,0.0,0.3836621751678099,0.3588929999682493,0.43765383050036677,1.2567904270740768,1.4824163465881193,,,0.5978297680564633,inf,,,0.7805138256211552
524,,0.0,0.0,1.066970460777452,1.046775148524102,0.7571954327429498,1.4009413900285077,1.2822507126090932,,,0.6380535849069913,inf,,,0.8073715685307175
525,,0.0,0.0,0.6772161197312677,0.5909895198938981,0.5788943757712032,1.4817323905985944,1.1614415740558035,,,0.5883313578629602,inf,,,0.5922551568676623
526,0.0,0.0,0.0,0.8729746221893387,0.8730820289726622,0.566105694865018,1.7961805890294167,1.39544420676164,,,0.6284777104787076,5.0106352940962555,inf,,0.5317502277123966
527,0.0,0.0,0.0,0.6135730942174217,0.5675261650584367,0.6884117684060971,2.162485337350651,1.8287506140599166,,,0.6309483474627791,5.0106352940962555,inf,,0.6257091973722524
528,0.0,0.0,0.0,0.34626398084081667,0.2797869810027353,0.495833153554309,2.161879130884693,2.457899889679133,,,0.6008849035917525,5.703782474656201,inf,,0.862750795633822
529,,0.0,0.0,0.9812603955345313,0.9615180753617154,0.6943881035570817,2.136460100890486,2.1047898223959733,,,0.6425374456860184,inf,,,0.8948287085868504
530,,0.0,0.0,1.431954186617999,1.4187252501368333,0.8873565874408539,1.9404863862460446,2.522030762985445,,,0.5947193981915972,inf,,,0.8443908127873889
531,,0.0,0.0,1.4017275532038371,1.3766952354679438,0.8563826676545143,1.7938548693356666,2.4377150399119767,,,0.6284777104787076,inf,,,0.7956998981921989
532,,0.0,0.0,1.3136556710552325,1.2951999985042286,0.841832998720411,1.692030019796753,2.4703784227697416,,,0.6333676938231112,inf,,,0.767300520123046
533,0.0,0.0,0.0,0.4280065177462624,0.3881893460471171,0.3777943717636228,1.6041034481985361,1.5301414735705772,,,0.6309483474627791,5.703782474656201,inf,,0.8033373364895378
534,,0.0,0.0,1.4643069305929057,1.4455659474684879,0.8763195721250808,1.221010316433588,1.4172154391913947,,,0.6447042257417027,inf,,,0.8153669902701951
535,,0.0,0.0,1.39585128471741,1.363325338622214,0.8125899945723631,0.8900907955666579,1.378948591153753,,,0.6180765742263259,inf,,,0.7520505623211383
536,0.0,0.0,0.0,0.5622728660870293,0.5283646877680641,0.49045718755920475,2.0478312182977376,1.7799299954061722,,,0.6284777104787076,5.0106352940962555,inf,,0.8038842358558611
537,,0.0,0.0,0.482495319652585,0.44897029706180586,0.5680261577618972,1.900413002861889,1.8263366155581076,,,0.6602640781246099,inf,,,0.7715995871986797
538,,0.0,0.0,0.5294528425001993,0.5100858990335252,0.4657767898943566,1.2022995586863758,0.9183320136360889,,,0.6468212168108125,inf,,,0.727472511672956
539,0.0,0.0,0.0,0.4316978444379619,0.40647416102954215,0.4935655880137223,1.315825998780601,0.9662065790555454,,,0.6403206450210053,5.0106352940962555,inf,,0.8255885284793992
540,,0.0,0.0,0.3762878005870885,0.33424580173026736,0.2876067741505546,1.219129531375423,1.0167156741878156,,,0.6425374456860184,inf,,,0.7832430964517856
541,,0.0,0.0,0.650392342023296,0.6300964164484634,0.7333040118309097,1.4426019323910164,1.3177864520649574,,,0.6447042257417027,inf,,,0.6271575659040665
542,,0.0,0.0,0.7320021945891267,0.6873247228314273,0.4462712398497674,2.0299099913821856,1.9461020248944108,,,0.6602640781246099,inf,,,0.6027938404655014
543,0.0,0.0,0.0,0.6909448898646868,0.6465019339412088,0.6220689734832315,2.560165813938773,1.8716067945084762,0.6898082792944307,,0.6468212168108125,5.0106352940962555,0.6964860818254599,inf,0.6011042234622618
544,0.0,0.0,0.0,0.8955574983598136,0.8435911190305905,0.7613065144061353,2.127615207973368,1.869521956797123,,,0.6357360191111145,4.31748811353631,inf,,0.6466126487877975
545,0.6890521524683468,-0.025265245590506052,0.0,1.0394074786187124,0.9900039423648976,0.648657874176392,2.431459515082332,1.5444213792906125,,,0.6207552362147116,3.6197680711312312,inf,,0.8736586544158185
546,0.7201758529478646,-0.002400586176492882,0.0,0.9236132246184776,0.8580214423434441,0.6813317817330206,1.802646322601888,1.5065085490504277,,,0.5567373465730988,6.4239583276040655,inf,,0.8805642109553469
547,,0.0,0.0,0.8723315756046227,0.8403912319388402,0.7027446479808624,2.3921353660293834,2.619222891457374,,,0.6528756675646988,inf,,,0.5126779222501732
548,0.924900854369228,-0.012332011391589707,0.0,1.0538439049173223,1.0034767241940423,0.625209687870093,2.142600759209533,1.906019603474141,,,0.6333676938231112,4.75728590072498,inf,,0.7569304509519157
549,,0.0,0.0,0.6573481798971657,0.6371076920737256,0.5353550736368443,1.8733216319267831,1.9564220675095465,,,0.6233814453054027,inf,,,0.9287658501964157
550,0.0,0.0,0.0,0.767600715230462,0.7419695544430286,0.6478149888030739,2.061967476700723,2.1949199326501376,,,0.6425374456860184,5.703782474656201,inf,,0.6784877166455263
551,0.0,0.0,0.0,0.47006200210652305,0.4318035025728367,0.473755476771482,1.9899508809306636,1.8161908421945119,,,0.5978297680564633,5.0106352940962555,inf,,0.8350593692504056
552,,0.0,0.0,1.2007918746275796,1.1674708643474911,0.7473103248115561,1.7662484639845264,1.7209365212425223,,,0.6357360191111145,inf,,,0.8809996818025043
553,,0.0,0.0,0.17868665972649114,0.10483705519457454,0.3748873250735514,1.8426689539973296,3.2562023833736053,,,0.6233814453054027,inf,,,0.9098985337453462
554,,0.0,0.0,0.3726057379698649,0.33807975988051103,0.4910902548668005,2.0121486434617593,1.9384142359072203,,,0.5978297680564633,inf,,,0.6553072139046242
555,,0.0,0.0,1.3972057947425462,1.3763400767495502,0.835695153780723,2.136888363994876,2.833162932767117,,,0.6097226960127671,inf,,,0.8757012723842014
556,,0.0,0.0,0.6026804022360248,0.46375451976241777,0.5527478803559558,2.16816895428311,3.1432501840201237,,,0.6233814453054027,inf,,,0.8985939228693891
557,,0.0,0.0,1.5075361491256625,1.4838660133844261,0.8937747494503495,1.7187360389544184,2.6503577120902504,,,0.6153451465759925,inf,,,0.843474155204263
558,,0.0,0.0,1.3609702010855125,1.3266834948452495,0.8585886851437365,1.4327647638613885,2.1988117840706947,,,0.6284777104787076,inf,,,0.8570165417253537
559,0.0,0.0,0.0,0.9234208555149621,0.8695081873227236,0.5678333253693024,1.9204033260447646,2.1420806832956707,,,0.6447042257417027,5.0106352940962555,inf,,0.8786522997518574
560,,0.0,0.0,0.44833709430341884,0.41557137108214665,0.44402214423515196,1.439714412527055,2.108444471060056,,,0.648888643467878,inf,,,0.8309430142193608
561,0.0,0.0,0.0,0.8284725170071344,0.7935374344458958,0.49790742069649785,2.075176844689349,2.34095679745769,,,0.6284777104787076,4.605170185988091,inf,,0.7616050849027722
562,0.026618511170213355,-0.0006210985939716449,0.0,1.0241950741080736,0.9931737582091118,0.6102960540200657,2.909776491734768,2.5649578084975686,,,0.6233814453054027,3.782457801073502,inf,,0.5875337460562404
563,0.47810131376829795,-0.011155697321260285,0.0,0.9813912504173485,0.9327291340577296,0.7541265679586154,3.219030497756813,5.0100841059915355,,,0.6357360191111145,4.011843340710357,inf,,0.5553201850181984
564,0.0,0.0,0.0,0.9581053367845551,0.9342414429838066,0.6408079442315122,2.605545334862903,2.0316485649671603,,,0.6547956803312163,3.624340932976365,inf,,0.7733356997631435
565,,0.0,0.0,0.14516110362951753,0.1252206582639976,0.3474520723177499,2.054872123132888,2.493924580337462,,,0.6447042257417027,inf,,,0.6653017239814397
566,,0.0,0.0,0.8010417909270707,0.7664777645774313,0.6140222928663587,1.8349795863671001,2.296203081119008,,,0.581717464821069,inf,,,0.7142174883498222
567,0.0,0.0,0.0,0.940255512545402,0.890960334458885,0.6286695178647925,2.47825563055937,2.454567815852047,,,0.581717464821069,5.703782474656201,inf,,0.8743699936878314
568,,0.0,0.0,1.5060562984962733,1.3803228561981244,0.91973149747284,1.3897710708283726,1.4340025935833853,,,0.6180765742263259,inf,,,0.835329271823847
569,,0.0,0.0,1.2809755228488187,1.2312403124398799,0.7840985863433414,1.2019518547985313,1.8517220836854476,,,0.5978297680564633,inf,,,0.8188847968692659
570,0.0,0.0,0.0,0.7118095636501367,0.661658259355804,0.4854058025942756,2.0931361717994603,1.8866669400203753,,,0.6038851895711802,5.703782474656201,inf,,0.8177229701255354
571,,0.0,0.0,0.8912537054218366,0.869164972560717,0.46327445612755425,1.6320860319786354,2.1284724817585206,,,0.6153451465759925,inf,,,0.750916631721379
572,,0.0,0.0,1.1423980002425533,1.1137025553685536,0.7778267644042649,1.8219801213247713,1.9847852716187362,,,0.5748741956352443,inf,,,0.8349763444528696
573,0.6178782909820475,-0.006178782909820475,0.0,1.0502690511102002,0.9855274568438133,0.7336619838987316,2.8932280232261833,2.2315236169420483,,,0.6509067234006624,4.935218654811502,inf,,0.7844935201807207
574,0.018178515842393668,-0.00036357031684787337,0.0,0.8300496469097606,0.816857294654061,0.7271639674900899,2.8605524564863885,2.5627597742284967,,,0.5915533975974677,3.929395255152617,inf,,0.6266973085588214
575,0.49505157565635205,-0.02145223494510859,0.0,1.072196075758629,1.0299728965951735,0.7865115914186191,3.8332252040442514,4.205277810201659,,,0.6713451011121618,3.3034658931688203,inf,,0.49416175728832634
576,0.15666977587579414,-0.005222325862526471,0.0,0.9737498676963771,0.9335119339205274,0.7015841437142816,3.8594453258280277,3.836665106403097,,,0.6602640781246099,3.5084114659693046,inf,,0.8043781119432971
577,0.0,0.0,0.0,0.6628634612219974,0.5747746735732508,0.5313504627856581,2.7986361738466137,3.497054096981997,,,0.6566669596287297,5.0106352940962555,inf,,0.7622877536066007
578,,0.0,0.0,0.9434785378234203,0.8987894332066527,0.6612854109686365,1.9944698974092845,1.4919797314823326,,,0.6380535849069913,inf,,,0.9329686813888703
579,0.0,0.0,0.0,0.5841740811774008,0.5455503999492677,0.5181432949810534,2.3388599593596484,1.7381086487143769,,,0.6180765742263259,3.757872325600888,inf,,0.6520344647222385
580,0.14392164432444748,-0.006716343401807549,0.0,1.0337689938133487,1.0099069931792943,0.7106379490277469,3.5021412208349263,3.5484530454817116,,,0.6547956803312163,3.1286289470204225,inf,,0.8144217230647935
581,0.15969054054429452,-0.009049130630843356,0.0,0.9915650077514478,0.9250397661398773,0.7915290751896802,3.6262611794228583,4.46493599870602,,,0.6699045166045591,2.9274507661375853,inf,,0.6190485666342255
582,0.0,0.0,0.0,1.1203580162345814,1.0027145971281375,0.7904332353089998,2.8633236853495374,2.5952313828192124,,,0.6528756675646988,3.757872325600888,inf,,0.6473229642246412
583,0.04932211089455649,-0.002137291472097448,0.0,0.945201061648245,0.8568614335389744,0.6851402231995517,2.644535064532137,1.1488731376861385,,,0.6233814453054027,3.1759227693389915,inf,,0.8119131924059865
584,0.06785377499697724,-0.0009047169999596966,0.0,0.7438746129527174,0.7129799296580883,0.6767894180846893,1.793772205056601,1.4954299996507399,,,0.6547956803312163,4.379363517254398,inf,,0.8699532865898392
585,0.0,0.0,0.0,0.6456604105537451,0.6226089912120656,0.49637957015458606,1.9384803164825053,2.097992593557638,,,0.6447042257417027,4.605170185988091,inf,,0.7973537250049486
586,0.07409220802695243,-0.0022227662408085733,0.0,0.9472902340711639,0.8917963219135858,0.6899120584406144,2.159738101117172,1.5851436635141765,,,0.5490601803369085,3.5621489127199175,inf,,0.5466856889307824
587,0.2716086892693429,-0.019012608248854004,0.0,1.123618437441691,1.0493834590423374,0.7224289701651828,3.8505990422253573,5.928792936172647,2.9925600250677973,,0.6380535849069913,2.707883548322889,2.9992378275988263,inf,0.46127778847283474
588,0.006226906683742065,-0.0005811779571492594,0.0,0.9300725439426282,0.9213873579036961,0.6753754522587696,4.196369221653965,9.892183855200335,,,0.648888643467878,2.377308639189982,inf,,0.752069214885012
589,0.1247213844823583,-0.00706754512066697,0.0,1.4105447142096943,1.3842278768757594,0.8684913080377692,3.689499068867923,2.077713676440985,,,0.6333676938231112,2.923721737577719,inf,,0.6633892345834606
590,0.0011242793161492255,-7.869955213044579e-05,0.0,1.1677664762220685,1.1361959781052007,0.7882994169053068,4.619424375216218,15.457760355021462,3.3839291063238917,,0.6684167106117298,2.6603717657854684,3.046749610136247,inf,0.8010991620484135
591,0.17911224479186463,-0.004179285711810175,0.0,1.2361318118015423,1.2121061825453774,0.7875407158260261,3.4549847501984132,2.591475096568731,,,0.6468212168108125,3.8840836367389047,inf,,0.6684535127241368
592,0.21772833510815712,-0.008709133404326285,0.0,1.180763208429178,1.1668474631179118,0.7773465857736946,3.3125097872703138,1.5713155946698558,,,0.6584896970785714,3.299242659139162,inf,,0.7832542431778233
593,0.08954154569158193,-0.0038801336466352167,0.0,1.1222295101355624,1.1087911314823926,0.8160521066523881,3.5044744565525217,3.4750800139624483,,,0.6447042257417027,3.196625215933381,inf,,0.7474366457508327
594,0.1420617813940637,-0.0033147748991948192,0.0,0.8600495328175948,0.8082496302099245,0.6189276434362888,3.018930464405887,3.29812461824187,,,0.6207552362147116,3.8765486172344863,inf,,0.6590096189055678
595,0.12710538131789031,-0.006778953670287483,0.0,1.0866442406402967,1.06062312849992,0.7644194018194751,3.7515819504928536,2.307358855165242,,,0.6284777104787076,3.0062316439906995,2.700889731931016,inf,0.7054088288161037
596,0.3069192018809696,-0.0071614480438892915,0.0,0.8664318559588076,0.829279964635912,0.7209708068330081,3.0097633516874587,2.0900314880721176,,,0.6357360191111145,3.8927651888237316,inf,,0.6552825511521595
597,0.0,0.0,0.0,1.0496902937397008,1.0140868459996892,0.6430195720746766,2.9376936296796146,3.6139769886700512,,,0.6380535849069913,3.624340932976365,inf,,0.5709599775371849
598,0.0,0.0,0.0,0.8981337750665073,0.9019531234964411,0.7181093202764461,3.174760278466402,2.91690633623459,,,0.6207552362147116,5.0106352940962555,inf,,0.6894797470763881
599,0.0,0.0,0.0,1.0074722180681626,0.9640769449203873,0.7978179259606984,2.999569269548382,3.397543261150934,,,0.6333676938231112,3.0647251450409425,inf,,0.5856301666321286
600,0.14294617816880414,-0.005717847126752165,0.0,1.2328475163896058,1.2220139990174466,0.7956248087749029,3.438997178918898,4.526654529954207,,,0.6528756675646988,3.2998448874018678,inf,,0.7594805308263262
601,0.041693772788961414,-0.0015287716689285852,0.0,0.8839685423832783,0.86204968426989,0.7430860398863477,3.055493802839173,1.648230123594936,,,0.6333676938231112,3.3451321577292066,inf,,0.7624751163780124
602,0.006647080705738546,-0.00026588322822954183,0.0,1.0711575686918466,1.0551368209340868,0.7798810888550386,3.572003433022762,1.9056804035481778,,,0.6447042257417027,3.2252852100533844,inf,,0.7887272234171361
603,0.2346536980523229,-0.00782178993507743,0.0,0.8486707322292842,0.7299883353033484,0.5621371978306776,0.7478657866364502,0.09781403412525891,,,0.6509067234006624,3.4969743370559243,inf,,0.6625971618331556
604,,0.0,0.0,0.10060391803536385,0.0879114786933636,0.02786385397147145,0.05635727114293693,0.04160791584207334,,,0.6357360191111145,inf,,,0.9732596714990114
605,,0.0,0.0,1.5293338896259112,1.5143326884931794,0.8458023545984118,0.023117769707426957,0.03165113476903468,,,0.6509067234006624,inf,,,0.9286800090603964
606,0.5457512848784967,-0.01819170949594989,0.0,0.9946704866010483,1.0004152916326448,0.6760769515524161,1.9053407721264448,0.34449313767353673,,,0.6380535849069913,3.5915511101533744,inf,,0.886595303093479
607,0.0,0.0,0.0,1.0458993115671715,1.0058602298296948,0.71741726016637,2.902045298429142,3.0332142692090254,,,0.648888643467878,4.605170185988091,inf,,0.6895744059361713
608,0.2771656561304028,-0.003695542081738704,0.0,1.3987688996953196,1.3937299456267087,0.8688791999174172,3.853434035463947,4.013708768996432,,,0.6509067234006624,4.500810170663849,inf,,0.9180423920697912
609,0.0005564835442524331,-1.1129670885048663e-05,0.0,1.0749632414006693,1.029185840370518,0.7468518929304314,2.7913970056942077,2.8498501633647706,,,0.6619902821573977,3.912578715361869,inf,,0.9388227925059489
610,0.35677686640245787,-0.013081818434756788,0.0,1.116299638265758,0.9918301471901352,0.7468776992157388,3.1686583584069115,3.1983535818130346,,,0.6357360191111145,3.50470775803182,inf,,0.7500193643351344
611,0.6489286756268751,-0.0129785735125375,0.0,1.0899421193232175,1.0758085741256582,0.8082975763790555,3.9598621366788778,11.209174651497248,,,0.6309483474627791,4.301778819831131,inf,,0.8920186229762027
612,0.0,0.0,0.0,1.0589720303373473,1.0422437384883134,0.7645080607514385,3.354193506510484,4.548051456295445,,,0.6425374456860184,4.605170185988091,inf,,0.7572127953382696
613,0.0,0.0,0.0,0.6844789524779405,0.6398784408064206,0.7315947071677604,3.2897818418257305,4.025110233432377,,,0.6584896970785714,4.31748811353631,inf,,0.8255861036512884
614,0.01867789327188443,-0.00012451928847922954,0.0,1.2406882803355375,1.232598409257977,0.8492662916360403,3.3314748748731686,4.991891997489393,,,0.6547956803312163,5.029138765660815,inf,,0.9521833125216628
615,0.031964674716864545,-0.0009589402415059364,0.0,1.180663215847079,1.1404131808097142,0.7809966865495411,3.7859981376808833,2.290253375659957,,,0.6153451465759925,3.534728774286678,inf,,0.6847785650730928
616,0.4964310795909192,-0.00827385132651532,0.0,0.9079651460951261,0.8656661498137639,0.6047014270839713,3.3949509642609574,4.1668772337159705,,,0.6180765742263259,4.4615509582131745,inf,,0.793365476652216
617,0.0,0.0,0.0,1.0567805722628532,1.0229269732338149,0.7850399208607756,5.097787268709842,22.13526137790171,,,0.6468212168108125,3.4011973816621555,inf,,0.7727993366702571
618,0.7195813522560517,-0.014391627045121034,0.0,1.2654553086521267,1.2779024365271956,0.7992178774325706,4.120216328670909,17.72580521688249,,,0.6509067234006624,4.091681444802617,inf,,0.6807655216688752
619,0.3105983282462789,-0.005234004091948071,-0.007189929037903085,1.2107728071247528,1.1854378671330288,0.7651530272119238,3.6528285601596413,13.294532186901652,2.631377690299818,,0.6309483474627791,3.4035334414597034,2.5659521989295038,inf,0.8432955618922537
620,0.009970621058607819,-0.00026588322822954183,0.0,1.184014786118088,1.1601179697839283,0.8791405884292288,3.442295553229219,4.569593310360489,,,0.6509067234006624,3.633970481952208,inf,,0.8730556519826655
621,0.18522658528091324,-0.008026485362172908,0.0,1.3879996826604966,1.3730786306874831,0.896003841480083,4.257209726243843,30.60313296140979,,,0.6403206450210053,3.2114038100294997,inf,,0.8139901900692254
622,0.09020591496274306,-0.0030068638320914355,0.0,1.035326500808523,1.0320060799644484,0.6886756144035158,3.805864055797703,2.416519084416501,,,0.6528756675646988,3.4762801877865113,inf,,0.7100823111307013
623,0.05257234323977658,-0.0014019291530607087,0.0,1.3081621570450377,1.2853586002686268,0.8559749402573497,3.9385693929273615,10.044224553073697,,,0.581717464821069,3.668205746623304,inf,,0.8977363388288092
624,0.0,0.0,0.0,1.2280003235773893,1.1950165470543963,0.8094812126539636,3.9116743169242465,28.270594046934754,,,0.6097226960127671,3.624340932976365,inf,,0.8225363027799878
625,0.0,0.0,0.0,1.1228527917282907,1.0815611276804888,0.7414650688223962,3.2815661079662024,9.592771439377634,,,0.648888643467878,4.0943445622221,inf,,0.7888564956738459
626,0.13055814656316178,-0.005222325862526471,0.0,1.224728142281844,1.1871247630525392,0.7598375959373647,4.442618691644062,7.802148890212318,2.393040071014892,,0.6619902821573977,3.3074035023757946,2.3997178735459213,inf,0.755100080239583
627,1.4259456186640502,-0.019012608248854004,0.0,0.8954028212910216,0.8370723453297906,0.741155203287643,3.250911040920281,11.1884597626085,,,0.6233814453054027,4.604059691704064,inf,,0.8121604177415974
628,0.0,0.0,0.0,0.983686152171022,0.9544873148767323,0.6670342974394218,3.5147732719339113,3.993534771085837,,,0.663668482632973,5.703782474656201,inf,,0.7502811554080543
629,0.0,0.0,0.0,0.665175969140998,0.6025366204792268,0.6572008817037275,3.0976426732094664,6.295406136418022,,,0.648888643467878,5.703782474656201,inf,,0.5415162838481952
630,,0.0,0.0,0.9871577093723509,0.9439837592667596,0.7560434352712021,3.100735727622976,19.350828132574527,,,0.6468212168108125,inf,,,0.6438296435493188
631,0.034885280073148874,-0.0008139898683734736,0.0,0.8538418043291544,0.8016074384127436,0.6333973226625524,3.528552072448252,4.1570651994215915,,,0.663668482632973,3.7893138514357068,inf,,0.6627778980669837
632,0.06841294165528478,-0.0013682588331056956,0.0,1.0992478524817153,1.0823661082706544,0.7990923643634069,3.750302578894971,16.481660694641054,,,0.5883313578629602,3.9697698276404703,inf,,0.593851171245634
633,0.7495449276326175,-0.00499696618421745,0.0,1.0365711030531681,0.996181360639743,0.6318425303627774,3.3884941596544227,3.8507497140678613,,,0.6425374456860184,5.502203101257832,inf,,0.9291638534027842
634,0.0,0.0,0.0,1.1273493950015672,1.0779670573839204,0.7726205162660854,3.678579229007247,2.128614672547851,,,0.6309483474627791,3.912023005428146,inf,,0.5891337434469683
635,0.2986265782046758,8.808128088893565e-06,-0.00598133969218241,0.8386023636685916,0.825241540875183,0.6447519481880766,3.4497439322388637,3.6083238801421293,,,0.6528756675646988,4.06155473939911,3.4339872044851463,inf,0.6191388953162958
