,temp+bvp_XAp0,temp+bvp_XAp1,temp+bvp_XAp2,temp+bvp_XCond1,temp+bvp_XCond2,temp+bvp_XDist,temp+bvp_XFuzz1,temp+bvp_XFuzz2,temp+bvp_XK2_1,temp+bvp_XK2_2,temp+bvp_XPermEn,temp+bvp_XSamp0,temp+bvp_XSamp1,temp+bvp_XSamp2,temp+bvp_XSpec
0,,0.0,0.0,1.1933950487167932,1.1709190982425361,0.7946965943857287,1.187056846096472,1.5221884325831245,,,0.6403206450210053,inf,,,0.8170728304604605
1,,0.0,0.0,1.0595600432436827,1.0375327280521738,0.7095111869078288,1.143457909355511,1.1478887918071987,,,0.6207552362147116,inf,,,0.8243246265442372
2,,0.0,0.0,0.4593623789878373,0.27186359259026344,0.42697454227828097,1.422546634727214,1.7431026568614798,,,0.6038851895711802,inf,,,0.9234815434752072
3,,0.0,0.0,0.7099327184374518,0.6933898562677016,0.6394600207409931,1.7670904436778185,1.9122026429585188,,,0.6207552362147116,inf,,,0.8255888172634795
4,,0.0,0.0,0.9653761246650187,0.9104811196306525,0.656496917406009,1.939445802003326,2.1710956218881425,,,0.6038851895711802,inf,,,0.9315191049734433
5,0.40765152685155115,-0.01902373791973905,0.0,1.1348938249258604,1.1015457786894867,0.8362056138619476,3.2573560779169677,2.17516868344507,,,0.6233814453054027,3.138833117194664,inf,,0.6714193936870569
6,0.0,0.0,0.0,0.7783310323787238,0.7312942706440521,0.7023824975956194,2.688821243412872,2.753188632668978,,,0.6038851895711802,5.703782474656201,inf,,0.7476342934775249
7,,0.0,0.0,1.2449251496250742,1.2163755525711168,0.7945852432196133,2.539820276721579,2.3316184354129996,,,0.6528756675646988,inf,,,0.8988609610934698
8,0.0,0.0,0.0,0.604919043726881,0.5790830530899902,0.6128896862670273,2.5144413340254608,2.4694880493650335,,,0.6602640781246099,5.703782474656201,inf,,0.6349735657192952
9,0.17217754578645372,-0.005165326373593611,0.0,1.284756968065681,1.26093611671228,0.8053455442437083,3.430978557001466,4.8209491239039295,,,0.6822068148872973,3.614803228495876,inf,,0.6986524213918689
10,0.5758836067758927,-0.011517672135517854,0.0,1.1032743552568725,1.084476965155707,0.7578867737282315,3.1290979973630764,2.3190791683387455,,,0.6097226960127671,4.151267709621722,inf,,0.7627274435116139
11,0.21169652697036964,-0.004939585629308625,0.0,1.1527306711988623,1.1304166616145985,0.8048327395027389,3.424653827042573,5.60509865887959,,,0.6403206450210053,3.9198311878759577,inf,,0.6715305331670477
12,0.382348801190141,-0.005097984015868546,0.0,0.9647382142280254,0.9576686252607642,0.7311885179222896,2.810993845207416,2.1443648705925975,,,0.6233814453054027,4.535436847973417,inf,,0.8933503779274883
13,0.36290365834000665,-0.007258073166800133,0.0,0.8063638282088026,0.7700862132502451,0.6928551006002627,3.3282457766082487,3.0081338796269548,,,0.6097226960127671,4.0719309673852,inf,,0.923382110069672
14,0.0,0.0,0.0,1.2301735946296102,1.2012373824457843,0.7716386175415324,3.8775607153633036,17.384788241150222,,,0.6380535849069913,5.0106352940962555,inf,,0.8946977346013144
15,0.0,0.0,0.0,1.17581640491983,1.1561121397552185,0.7278763273472497,3.678267703590219,13.664783050847399,,,0.6425374456860184,3.624340932976365,inf,,0.8739910846390823
16,0.11157177565710487,-0.0014876236754280648,0.0,0.9763139749489657,0.9350477849479079,0.8002715672522893,3.0494647305766343,2.1427681397483678,,,0.6233814453054027,4.411798793007552,inf,,0.7321693776744087
17,0.0,0.0,0.0,0.9435135483684933,0.9108788119040507,0.6313195218831017,2.2788158492775463,1.230855080231176,1.9425712477897987,,0.6333676938231112,3.757872325600888,1.949249050320828,inf,0.8511751524918956
18,0.0,0.0,0.0,1.045019425978761,0.9925212777106388,0.6503544768828948,2.0752648875946114,1.3551838549965982,,,0.6528756675646988,4.31748811353631,inf,,0.9421680069211023
19,0.0,0.0,0.0,0.6539087940507252,0.5473070065333702,0.6272205983205321,2.0613827175494825,1.474005619979943,,,0.5783247308855777,3.506557897319982,inf,,0.679920602522561
20,0.5185256795142,-0.019012608248854004,0.0,1.101636350531871,1.0666961137636797,0.6374489675873252,2.0826254120979137,1.6972340865066662,,,0.6333676938231112,3.400864103872035,inf,,0.8306885761263455
21,,0.0,0.0,0.6493787521305844,0.6196429022030436,0.5821221804702883,1.913107012709234,2.0713310142727708,,,0.6357360191111145,inf,,,0.7057411252202055
22,0.19708101120138868,-0.005255493632037031,0.0,0.9947307434630518,0.8787712667445469,0.6952725024259039,2.911660244141908,2.974811923244351,,,0.6468212168108125,3.7287759511132483,inf,,0.597923859599127
23,0.20587179965926938,-0.004803675325382953,0.0,0.8782330446589975,0.8376114079124238,0.6951948407981933,2.4864857684514012,1.588331171780121,,,0.6509067234006624,3.8733366230383126,inf,,0.6735720912825436
24,0.0,0.0,0.0,1.0183761805828488,0.98265819564562,0.7401274756163861,2.0922216625389507,1.7650110512012547,,,0.648888643467878,5.703782474656201,inf,,0.9392766922789552
25,0.0,0.0,0.0,0.9821639011031257,0.9809059898344034,0.625808289348204,2.721477295784202,1.7527107238851634,,,0.6380535849069913,4.605170185988091,inf,,0.6077543408871515
26,1.160487692386197,-0.00386829230795399,0.0,1.010010666299668,0.989801919011956,0.7077272793811323,2.2914463571477,2.8060450312287446,,,0.6380535849069913,6.864270167042398,inf,,0.8961199459818412
27,0.3028255465259551,-0.005047092442099252,0.0,1.0905948265508212,1.0739777717829078,0.7153373560567692,2.6889733753403546,2.2134372413150625,,,0.648888643467878,4.263947346608281,inf,,0.8796125890838741
28,,0.0,0.0,0.44615507142472144,0.42441482753541715,0.605902568106052,2.2076003310454944,2.299477029795313,,,0.6284777104787076,inf,,,0.7806731507980071
29,0.0,0.0,0.0,0.6440910916199964,0.546732704586858,0.43861882314043565,2.2533782567759615,2.0686834684242656,,,0.6333676938231112,5.703782474656201,inf,,0.7804430632225605
30,0.0,0.0,0.0,1.0656259410564357,1.0159255617045748,0.7757733252710288,2.351573226463575,2.2160055328519768,,,0.6309483474627791,3.912023005428146,inf,,0.835328233994792
31,0.0,0.0,0.0,0.6312374018708281,0.5726724179279042,0.6316913885549814,1.924005653835677,1.9374173374157184,,,0.6403206450210053,5.0106352940962555,inf,,0.680946578634363
32,0.15026760008444684,-0.011019624006192769,0.0,1.2071412528634753,1.1981333160454868,0.8195282440982735,3.87144804608696,2.349159841732121,3.042928045662524,,0.6740851607140061,2.6575155277281626,3.049605848193553,inf,0.5908832060398242
33,0.10768584852064218,-0.007962847894424975,-0.0010109728156285408,1.3314789539263223,1.2999059713563568,0.8581407054905958,4.462894339611601,42.393162332418335,3.133748248169679,,0.6380535849069913,2.5666953252210076,2.587040812515921,inf,0.8099549066402516
34,0.2098439365056005,-0.016787514920448037,0.0,1.4237813536803934,1.3986818081692498,0.8913957512475946,4.94093990780522,7.48670761772775,,,0.6309483474627791,2.6603717657854684,inf,,0.654488531443525
35,0.017424317608960502,-0.0008712158804480251,0.0,1.0128679153983935,0.9385352938043293,0.7860530520019682,5.442017051141055,31.064187465769372,2.689259195277774,,0.6284777104787076,3.0111843781129126,2.6959369978088032,inf,0.7318739413392908
36,0.04538572217437608,-0.0034795720333688327,0.0,1.294277695031745,1.2554131120982295,0.8430218215493368,3.7115953595454054,18.684947102921633,3.0981038267105907,,0.6547956803312163,2.6023397466800957,3.1047816292416197,inf,0.6703463043521004
37,0.11646694973567102,-0.006599793818354691,0.0,1.4057667671202128,1.3592752539071988,0.9242288296906593,4.1778641011445785,28.533927433970383,,,0.6153451465759925,2.924549209697751,inf,,0.5844189593537237
38,0.21945281367874314,-0.01536169695751202,0.0,1.269228950951701,1.253177303471802,0.82391019354223,3.9102091952210873,8.338138820038491,,,0.6284777104787076,2.7077169233120895,inf,,0.7568068733355503
39,0.0001964059567949764,-1.1129670885048663e-05,0.0,1.432058359085127,1.3734605889201943,0.8559209639274471,4.504118756373949,59.39572231321884,2.82967834513344,,0.6425374456860184,2.8707652282572464,2.8363561476644694,inf,0.7487392477767159
40,0.2916305139922669,-0.009721017133075565,0.0,1.0602632127578577,1.0133983631499848,0.758581053724152,3.2384585939897503,3.647943960051646,,,0.6468212168108125,3.545452737649654,inf,,0.7766255038290892
41,0.013633886881795251,-0.00036357031684787337,0.0,1.0044275334675634,0.9488142440004181,0.6934830436015427,3.0716022448445957,2.302529310160169,,,0.6566669596287297,3.6373417451536167,inf,,0.8489758414825979
42,0.0034195529591700387,-0.00017097764795850193,0.0,0.8675765914825785,0.8453887087547665,0.6465865400995935,3.14286437491299,3.651324869938044,2.0082252180112357,,0.6068309995095971,2.999071174819506,2.0149030205422647,inf,0.8973207276303298
43,0.37477246381630874,-0.00499696618421745,0.0,1.0476766394679655,1.007505921061506,0.7364200119549557,3.1575338181140133,2.7987544774711317,,,0.5915533975974677,4.533366453859108,inf,,0.7156218198969588
44,0.14398920632624873,-0.0009599280421749916,0.0,1.1482972034549992,1.1299528110355956,0.7431224298047868,2.8441644430823536,3.1130682344835265,,,0.6207552362147116,5.151814907559035,inf,,0.901406368863208
45,0.1766425502230215,-0.00235523400297362,0.0,1.1462703290203191,1.102420233849344,0.7190459056181373,2.6312332092133524,1.331352521014669,,,0.6699045166045591,4.4529260844314145,inf,,0.840085327812061
46,0.0,0.0,0.0,0.9399766300633755,0.8850530348438266,0.6029465207427624,2.322741429039717,2.547501168320607,,,0.6668815377411301,4.605170185988091,inf,,0.7109163053562545
47,,0.0,0.0,0.5189161107455827,0.4673992934416499,0.5836373041363677,1.618410885246704,1.7434488844566463,,,0.6357360191111145,inf,,,0.9130935566349124
48,,0.0,0.0,1.0840898211316121,1.0816773066121117,0.7536576563694438,1.628315032879985,1.8017325987106114,,,0.5978297680564633,inf,,,0.8710455427001274
49,0.6167840162194729,-0.014391627045121034,0.0,1.0281968931730041,1.0095459828328417,0.7411482128919584,2.9797961321208857,2.18663067509657,,,0.6447042257417027,3.9098032486898333,inf,,0.8896490965552858
50,,0.0,0.0,0.9833575266807234,0.9701902516410157,0.7079041563574456,3.262321837221293,4.837006459645929,,,0.6403206450210053,inf,,,0.9475060718708858
51,0.5972531564093516,-0.005972531564093516,0.0,1.0828931365916974,1.0714391122068432,0.7940567099056738,2.967084689392027,10.942733654038662,,,0.6509067234006624,4.930592586422719,inf,,0.9354738786601857
52,0.2484613592984996,-0.0008282045309949986,0.0,0.9098413758324565,0.8588919060200597,0.7060380530168089,2.781408855717928,2.3767754455152854,,,0.6357360191111145,5.952243833954701,inf,,0.7151397733821042
53,0.0,0.0,0.0,0.48452274582591054,0.46606076173749617,0.5338120148789917,3.3274730380437925,5.277540228352812,,,0.6668815377411301,4.605170185988091,inf,,0.9209765462690721
54,0.0,0.0,0.0,1.1305264106143764,1.1167999199549474,0.7409874077033995,3.7095261029964806,5.436671231932553,,,0.663668482632973,4.605170185988091,inf,,0.9158001859308518
55,0.0,0.0,0.0,0.8823377624217535,0.8525144069502452,0.7199671348325146,2.9812769255662714,2.864643127924234,,,0.62595550513784,5.0106352940962555,inf,,0.9334595808534333
56,0.0,0.0,0.0,1.0300081742250768,1.0071485600468943,0.7138974096444453,2.8940389338025496,2.312138315350781,,,0.6309483474627791,3.757872325600888,inf,,0.8047492080143636
57,0.06003248706699585,-0.0022011911924565146,0.0,1.1021805674227618,1.1025796460708799,0.7104761871074484,3.150337175994116,3.3565168361658095,2.349622399053598,,0.6038851895711802,3.3508211743370886,2.3563002015846273,inf,0.7559153945009162
58,0.07814503529069179,-0.002865317960658699,0.0,1.0334298604638559,0.991436186912727,0.7254236984550713,3.111135297091234,2.7043950933538823,,,0.648888643467878,3.3597355918545606,inf,,0.858448469304307
59,,0.0,0.0,0.6919622403597623,0.6611284343837687,0.6101277879385495,2.2325706897333144,1.8393013195072503,,,0.6668815377411301,inf,,,0.8495170131488866
60,,0.0,0.0,0.5564279434318565,0.530225764995305,0.5585900761109196,1.7776747190674067,1.3884808518682015,,,0.6713451011121618,inf,,,0.8111418003482119
61,0.0,0.0,0.0,0.897099850826512,0.8737991806177482,0.516656992728859,1.7595699430557183,1.3671927248035556,,,0.5915533975974677,5.703782474656201,inf,,0.7971953404936493
62,,0.0,0.0,0.9536518817324535,0.9112055053280412,0.6045065096869087,2.1042280123232797,1.8185234423952532,,,0.6403206450210053,inf,,,0.9277061861774728
63,0.0,0.0,0.0,0.8508414133358628,0.784622474772928,0.5797519523083131,2.2426123705720893,1.6347326633884434,,,0.6284777104787076,5.0106352940962555,inf,,0.6781562607099039
64,0.0,0.0,0.0,1.2156939733356582,1.1677724907631555,0.7642846150144282,3.2056606925651416,9.790343727514253,,,0.6425374456860184,3.912023005428146,inf,,0.9517277877733534
65,0.183258146374831,-0.0030543024395805166,0.0,1.2110149834436692,1.1621977998844477,0.7272537536450471,2.7169781277783307,2.315233380701301,,,0.6008849035917525,4.222177933731985,inf,,0.8855177331253336
66,0.0,0.0,0.0,0.938777565403182,0.8376771033308733,0.6328566507807465,1.7764622431903985,1.316689657717532,,,0.6509067234006624,4.605170185988091,inf,,0.8878713992023023
67,,0.0,0.0,0.9452267241519132,0.9162563156102193,0.6965220326345436,2.4697322733563136,2.8301662748908916,,,0.6125606311107803,inf,,,0.9229055775232092
68,1.9425823589626385,-0.006475274529875462,0.0,1.0411939106284662,1.024736852233847,0.76873525824665,2.0897873030578906,2.845085133021483,,,0.6097226960127671,7.64636483361884,inf,,0.9196545058593537
69,,0.0,0.0,1.0183931036275473,1.0084926818235873,0.7996771069015125,2.57555842695462,2.449860241788808,,,0.6584896970785714,inf,,,0.9260984404985023
70,0.0,0.0,0.0,1.0776185185764744,1.078128791188493,0.683103295842576,2.658446992488591,2.3783993384716497,0.6898082792944307,,0.5915533975974677,5.0106352940962555,0.6964860818254599,inf,0.7942222880994565
71,0.005025167926750725,-3.3501119511671504e-05,0.0,1.0894259566196132,1.0204868006829326,0.7377271310133565,2.6773307319532194,2.799352729788034,,,0.6357360191111145,5.0156478359198005,inf,,0.9411935523841432
72,,0.0,0.0,1.0999833989371117,1.0402642846007795,0.7455928340900881,2.9046276135119955,4.749007360010864,,,0.6125606311107803,inf,,,0.9472253215551072
73,,0.0,0.0,1.1307258083819867,1.0877484672447526,0.7860357795363574,3.748304033426928,9.49775030156557,,,0.6357360191111145,inf,,,0.9234282587299487
74,0.0,0.0,0.0,0.9424576106029959,0.8899189841333358,0.8281987922196608,3.5833949642673493,9.133931102578117,,,0.6068309995095971,5.703782474656201,inf,,0.8820715937948083
75,0.0,0.0,0.0,0.7324284548324653,0.7099749461285141,0.7088366519542986,3.775764661856707,7.089876917028982,,,0.6468212168108125,3.3058872018578307,inf,,0.7393789041790828
76,0.020703286465721497,-0.0006210985939716449,0.0,1.1050813794529903,1.0847981188640332,0.782588996395171,3.6611626811265343,2.9315715368958264,,,0.6699045166045591,3.5256274600403326,inf,,0.8888286890031573
77,,0.0,0.0,0.8037864649350488,0.7084841662988236,0.6054966169196458,3.426453753880797,3.566793547593239,,,0.6357360191111145,inf,,,0.894700440435631
78,0.0,0.0,0.0,0.7923774202722144,0.7638245378736314,0.6306547607782692,2.927692498259777,4.9152715095257005,,,0.6125606311107803,5.703782474656201,inf,,0.9101850221321179
79,,0.0,0.0,0.7560626176350087,0.7034796028140187,0.6445718151538353,2.5878733576749706,2.6087637543154867,,,0.663668482632973,inf,,,0.9444149452912105
80,0.0,0.0,0.0,0.6654616928512856,0.6059689703151818,0.6450955519987737,2.1069902779325007,1.591482561105622,,,0.6309483474627791,4.31748811353631,inf,,0.7025502224146175
81,0.0,0.0,0.0,1.172937600239685,1.1467098347549838,0.740675187267859,2.7180484151608395,1.746086198976521,,,0.6547956803312163,4.0943445622221,inf,,0.7811008562676462
82,0.07438118377140324,-0.0007438118377140324,0.0,1.0752308101380035,1.004816768702837,0.7069980601094892,2.4442776955441095,1.7636390745978785,,,0.5567373465730988,4.674163057475043,inf,,0.9133956188999808
83,,0.0,0.0,0.6982869765306765,0.6669035065089968,0.49165177802251897,1.7130073170601967,1.8133740513597851,,,0.6284777104787076,inf,,,0.7336232932393548
84,0.2882205195229771,-0.004803675325382953,0.0,1.021661357546245,1.0146664475071256,0.7728422550715082,2.59393011139068,1.4978685131849736,,,0.6180765742263259,4.2600056781229485,inf,,0.7315196987270539
85,0.3471961999841886,-0.001157320666613962,0.0,0.7630304171878853,0.7460915893621133,0.48290072933620154,1.5405968166306,1.392293400122718,,,0.648888643467878,6.0509786746403895,inf,,0.883769086181454
86,,0.0,0.0,0.8224942189640959,0.7937208288309631,0.64213514711919,1.3834865634673321,1.6036665195092608,,,0.6153451465759925,inf,,,0.9444736146204273
87,,0.0,0.0,0.7797854939164041,0.7305993316924658,0.7358055488797116,2.46633649505724,2.029673502929008,,,0.62595550513784,inf,,,0.9337027940032995
88,,0.0,0.0,1.1491397369354026,1.130806011663206,0.8190563705196241,2.7129366122129084,4.25425759438553,,,0.6380535849069913,inf,,,0.9213931106082132
89,0.04009538862483398,-0.00040095388624833975,0.0,1.1962473136404113,1.095127442934073,0.74691352666441,3.798152644703172,4.711329005973537,,,0.6153451465759925,4.643680040749967,inf,,0.928811252854576
90,0.006688988150796652,-2.2296627169322174e-05,0.0,0.9626317916869286,0.8857618264391504,0.7424884981956629,2.552083052311185,4.459939451163448,,,0.5713653840954815,5.710471462806998,inf,,0.9194686414925161
91,,0.0,0.0,0.922209937657092,0.8859442093134148,0.751421446819469,2.5925587737666502,5.466031636794828,,,0.6038851895711802,inf,,,0.8912253337584104
92,,0.0,0.0,1.010784638164852,0.9879134938974797,0.7921484979473847,3.3818805343675185,10.842078888698667,,,0.6097226960127671,inf,,,0.9257038902846093
93,0.0,0.0,0.0,0.7373873282724619,0.7086883859726991,0.5470867658094453,3.0694388923510663,5.6076605799740875,,,0.6038851895711802,5.703782474656201,inf,,0.7674547751354795
94,0.21476108973493951,-0.0028634811964658603,0.0,0.7209045230576994,0.6831735169696683,0.6890891553360549,2.615176468143249,2.6664743488975993,,,0.6528756675646988,4.478048178548752,inf,,0.7151534677816922
95,0.939873992253105,-0.0187974798450621,0.0,0.9501843057622633,0.9225605539782091,0.7369445957230047,3.017489655348479,2.8195147937847826,,,0.675384900321601,4.287929311294766,inf,,0.7008451266169344
96,0.5134687942766234,-0.01711562647588745,0.0,1.2630753489336948,1.262915859994756,0.7838964404446066,3.779372298040876,21.492027155862225,,,0.6619902821573977,3.579128590154817,inf,,0.8864125939731801
97,,0.0,0.0,1.3573639538710605,1.3226934852784182,0.728472186429628,3.900583795074185,13.567649220617199,,,0.6547956803312163,inf,,,0.9067576715311034
98,0.5518686990979521,-0.009197811651632536,0.0,1.2384657492002429,1.179596397330259,0.7693251112854399,4.202241736883523,10.93923084719978,,,0.6509067234006624,4.301778819831131,inf,,0.7605285958968893
99,0.0,0.0,0.0,0.9511971081528519,0.9347265615256743,0.7854545514141528,3.4867533208097385,6.464410759060284,,,0.6180765742263259,4.31748811353631,inf,,0.6433851377788167
100,0.32527372630034157,-0.008673966034675774,0.0,1.0125965406259447,0.9846223567576855,0.7863135170286434,3.516580781622349,2.953560226212105,,,0.6566669596287297,3.7517009316963454,inf,,0.761828648184157
101,0.0,0.0,0.0,1.2548284390335955,1.2235810225252408,0.7910683354550423,3.9908346521989024,2.578363963613147,,,0.6468212168108125,3.2188758248682006,inf,,0.7936339680797407
102,0.0,0.0,0.0,1.1882992958750898,1.1651556424971365,0.8100597915853395,2.9100703259401834,3.483548422117204,,,0.62595550513784,5.0106352940962555,inf,,0.8611394784645164
103,0.0,0.0,0.0,1.2934653177122202,1.2726302405588008,0.7802358006503478,3.3477921502389036,5.848406889815793,,,0.5883313578629602,4.0943445622221,inf,,0.8191081396090837
104,0.0,0.0,0.0,1.0784892177206185,1.0518080204744784,0.6957621100205387,2.318354479542929,1.465914905003979,,,0.5947193981915972,4.605170185988091,inf,,0.9399016827523221
105,0.0,0.0,0.0,0.8254709852756138,0.7524801646289814,0.6770248375089014,2.589154082822008,1.6638442815836672,,,0.6008849035917525,5.0106352940962555,inf,,0.8543423066107059
106,1.9902104079518934,-0.006634034693172978,0.0,0.45942882036789257,0.3678698364736493,0.4981395537048418,2.591507883406735,3.0702482794161448,,,0.6180765742263259,7.693992882608094,inf,,0.8937486103653023
107,,0.0,0.0,0.9284682085691743,0.8614088979025102,0.7353403289448285,4.346882402243612,31.123492495016958,,,0.5915533975974677,inf,,,0.7960005617147532
108,1.3093333199837622,-0.0043644443999458745,0.0,1.170418913630478,1.1416658384945975,0.8687604550881252,2.859365574147492,4.385226569807559,,,0.5947193981915972,7.013115794639964,inf,,0.8889276174916972
109,,0.0,0.0,1.159403289130343,1.1368435128919776,0.7715302158948807,3.5248628867273664,4.097204150274976,,,0.5915533975974677,inf,,,0.8800556998232872
110,,0.0,0.0,1.7354605611779346,1.700537015615177,0.964966119656045,2.998703427299933,2.826629591501923,,,0.5490601803369085,inf,,,0.8450549109822438
111,0.14052972953838533,-0.001873729727178471,0.0,1.076986237108886,0.9883286480651452,0.6844730504457961,2.870551888843516,1.9600673990311432,,,0.6447042257417027,4.431216878864653,inf,,0.6250510375501493
112,,0.0,0.0,1.2655103837903576,1.2387288191929609,0.8438258376846202,2.9296596990220825,4.8356277265781635,,,0.6153451465759925,inf,,,0.9075972810432208
113,,0.0,0.0,1.686515800788433,1.656158865342799,0.9660245664458934,2.8414184723501372,2.2237335202809447,,,0.524519217297268,inf,,,0.8641947913894678
114,,0.0,0.0,1.662592601503781,1.6462445421389087,0.963198188661864,2.3448151480739448,2.34762919574704,,,0.6097226960127671,inf,,,0.7864234423701909
115,,0.0,0.0,1.6279134469016587,1.6102386643197304,0.9595895907006056,2.0806403574615286,2.5601892066339396,,,0.552929491858785,inf,,,0.7936824267606869
116,,0.0,0.0,1.4247006009248495,1.3880516895357267,0.9228329769348016,1.8200094831767066,2.2230629942964475,,,0.5883313578629602,inf,,,0.784032562748432
117,,0.0,0.0,1.5233329588603042,1.5069193918627652,0.9319128252475452,1.7984997575335455,2.1146339016632156,,,0.6008849035917525,inf,,,0.7606563792803633
118,,0.0,0.0,1.6010609907625843,1.5798658743267888,0.9465978719333686,2.114757135368721,2.6739549065672144,,,0.6068309995095971,inf,,,0.783392759678374
119,,0.0,0.0,1.5774004922866602,1.574097613778094,0.9416452139687496,1.856665577364317,1.9765425713058067,,,0.581717464821069,inf,,,0.8033264462503078
120,0.8208789796151204,-0.013681316326918672,0.0,1.2902048504316632,1.1945377959700765,0.818943782640478,3.340153719105205,4.292515436785374,,,0.6790044388599258,4.315822834217249,inf,,0.8235380851177908
121,,0.0,0.0,1.0421309083111505,0.9949190115174321,0.746910050690364,2.3170461165113023,1.682538864902471,,,0.585052858160615,inf,,,0.7692545856410287
122,,0.0,0.0,1.280105198499898,1.2706456640201398,0.8265133180315537,1.4720368328623297,1.9362319417019342,,,0.585052858160615,inf,,,0.7872140069034318
123,,0.0,0.0,1.1615233520163346,1.107634689109627,0.8107295196571059,1.4307712538746107,1.8104060007298903,,,0.6447042257417027,inf,,,0.7918025352791099
124,,0.0,0.0,1.487446200899558,1.450920502925128,0.911607856187648,1.4868108483081548,2.0909840879498436,,,0.5915533975974677,inf,,,0.7583321552907739
125,,0.0,0.0,1.4749320397629848,1.4440603800074092,0.870262578628383,1.3473117016880212,1.7883961615309554,,,0.6125606311107803,inf,,,0.7106969605268242
126,,0.0,0.0,1.5218427027589316,1.51327412588648,0.9521098977016718,1.5316503157625503,1.8482128352580505,,,0.6425374456860184,inf,,,0.7585119411264163
127,,0.0,0.0,1.5158048274696152,1.4881356726774855,0.9105684391246562,1.4820294760621393,1.7262441530066013,,,0.585052858160615,inf,,,0.7785567686933208
128,,0.0,0.0,1.5702472862682593,1.5353155181162519,0.9156503395297517,1.5292904072932785,1.9765600932802108,,,0.6038851895711802,inf,,,0.778422011233344
129,,0.0,0.0,1.3961472801342616,1.3695607579966245,0.91192928582448,1.6096150082574818,2.062238337149984,,,0.5915533975974677,inf,,,0.7997989891846609
130,,0.0,0.0,1.3060545984395244,1.2962395790815717,0.8867263646643452,1.896630717313137,1.765164358997941,,,0.6309483474627791,inf,,,0.9063061940770005
131,,0.0,0.0,1.7881466426270336,1.7280609035624253,0.9380542500538842,4.6428604627324646,46.64641852561554,,,0.6125606311107803,inf,,,0.9012286043765463
132,,0.0,0.0,1.7888892925737987,1.7531721427293585,0.9676217357146125,3.3845244311859197,17.617991000594373,,,0.5748741956352443,inf,,,0.8827398684151987
133,,0.0,0.0,1.7194629105791943,1.6945776798926797,0.9610350155908741,3.440394983390981,9.463870002598949,,,0.6468212168108125,inf,,,0.8828458140108303
134,,0.0,0.0,1.7216665855294149,1.720376082890531,0.9553558592094328,2.9805146611935798,4.371613195742704,,,0.6309483474627791,inf,,,0.862131399000945
135,,0.0,0.0,1.4948876565518914,1.4702741464811349,0.944677435699836,3.041956817906607,3.403965516537371,,,0.5883313578629602,inf,,,0.8559164505875064
136,,0.0,0.0,1.382529143412573,1.3490009295699894,0.8989835669790012,2.6144434834459727,1.987307384225525,,,0.585052858160615,inf,,,0.8674427782236594
137,,0.0,0.0,1.7444980696702062,1.7443745512909914,0.97921053541636,3.9392897057419383,9.643200482554121,,,0.6180765742263259,inf,,,0.9025070429993369
138,,0.0,0.0,1.751743405268674,1.7417686219769375,0.9754822579231626,3.6207093867396187,3.079764717889859,,,0.6207552362147116,inf,,,0.8746737065893306
139,,0.0,0.0,1.709671420894128,1.6824570410166413,0.955366676071713,3.4953376801746447,5.190618565436648,,,0.6125606311107803,inf,,,0.850675749056989
140,,0.0,0.0,1.3944445235294156,1.3791430453799454,0.8978585468237122,3.0546609488734244,1.9828492927615087,,,0.5883313578629602,inf,,,0.8770541619269585
141,,0.0,0.0,1.702816957051703,1.6864564915823046,0.9818279497719111,2.970391026991713,3.7631106926376106,,,0.6233814453054027,inf,,,0.8589005930054333
142,,0.0,0.0,1.701944664234457,1.6838897502818881,0.9677445348681866,3.2985766795918465,3.847693560898922,,,0.5947193981915972,inf,,,0.8737024893697681
143,,0.0,0.0,1.1945116796811692,1.1697410927668752,0.9249048416990212,2.5033724350887465,2.324024397889772,,,0.6068309995095971,inf,,,0.8691637525135544
144,,0.0,0.0,1.5782072542981336,1.5389942702603547,0.9605825116501745,2.056529627395784,2.162473236684863,,,0.6008849035917525,inf,,,0.784186245587594
145,,0.0,0.0,1.5386216790274365,1.500015653541773,0.932062408256133,2.049045502978804,2.3231788127755237,,,0.5947193981915972,inf,,,0.7834789628733219
146,1.049973330368058,-0.010499733303680581,0.0,0.9920351489264888,0.9627294576510724,0.7267613288652074,3.152968699710759,7.163415434985635,,,0.675384900321601,5.149897361429764,inf,,0.928386223739108
147,0.0,0.0,0.0,0.5853799335738186,0.46832514036503503,0.5246031402560816,1.1335716537924863,0.8859528935642402,,,0.581717464821069,5.703782474656201,inf,,0.7808570751644486
148,,0.0,0.0,0.8660366256478286,0.819882121353789,0.8134299631113826,0.8926692547090512,0.9894346765284011,,,0.6403206450210053,inf,,,0.7975528779033069
149,1.9012608248854004,-0.019012608248854004,0.0,1.4726576037409185,1.4337326665031829,0.9198654626326669,2.8814109255598495,3.416913129829473,,,0.5677978065141052,5.008970014777194,inf,,0.7912849073850976
150,0.0,0.0,0.0,1.1185043650183044,1.0759519604021983,0.7645602203878471,2.8884059891236995,2.563534939884038,,,0.62595550513784,4.605170185988091,inf,,0.7252694023569504
151,0.2802360880573451,-0.009341202935244838,0.0,1.33726499788786,1.303473897953266,0.882425380949646,2.530783262336042,1.8946395616727854,,,0.5947193981915972,3.5396934589160804,inf,,0.8247052036323088
152,3.138833117194664,-0.010462777057315548,0.0,0.9946161743486615,0.9864219538082302,0.7416250209418123,2.2479201916216422,2.348745530057203,,,0.6207552362147116,8.842615591850866,inf,,0.8695317985790968
153,,0.0,0.0,0.4994690021232517,0.46411590459113405,0.6573296408542277,1.6262039314364858,1.7567202896060383,,,0.5783247308855777,inf,,,0.9296133614406064
154,,0.0,0.0,1.0907476476157378,1.0637058294869686,0.7296445210422048,1.3608070009226176,1.470848375485081,,,0.581717464821069,inf,,,0.7850888769995716
155,,0.0,0.0,1.045196543031371,0.9894804320439048,0.6789281370076174,1.3641213890910604,1.671101828721411,,,0.6380535849069913,inf,,,0.8457992552814825
156,,0.0,0.0,0.6157549009289381,0.5880680939474168,0.5113836475004034,1.519624668700323,1.2014016644092032,,,0.6333676938231112,inf,,,0.7782231875513598
157,,0.0,0.0,0.9442827611381353,0.8810919653669236,0.7229983122373022,2.550342516608374,2.315302256774189,,,0.6447042257417027,inf,,,0.861652448956462
158,,0.0,0.0,1.2707901997125892,1.2414424911717314,0.8547419423543111,1.9857873517657243,2.5388662512522626,,,0.6468212168108125,inf,,,0.7624542476088083
159,0.0,0.0,0.0,0.8800828588502314,0.7893216629651869,0.6785035826785425,2.038093019765272,2.00877447615703,,,0.6233814453054027,5.0106352940962555,inf,,0.8248457335490159
160,,0.0,0.0,1.0874146773547884,1.0312092059849383,0.7489643927965907,2.7239248675457004,4.101603240974054,,,0.6284777104787076,inf,,,0.8339811465532562
161,0.0,0.0,0.0,0.9032488155403504,0.7903690804212192,0.7247441820103551,2.062921493102908,1.3220299202128865,,,0.581717464821069,4.605170185988091,inf,,0.924261807712872
162,0.0,0.0,0.0,0.9953997904353589,0.9519733428850552,0.7503846114690813,2.1889828712113286,2.241782068352778,,,0.5677978065141052,5.703782474656201,inf,,0.8631698956469039
163,1.1682433223348636,-0.007788288815565757,0.0,1.4612129837445975,1.444996145808229,0.8911288077006744,2.5148233366778308,2.93606116081596,,,0.6180765742263259,5.61150719854703,inf,,0.8135297546688607
164,,0.0,0.0,1.461552850554268,1.4487538201787424,0.8624374749811966,2.1698933639008087,2.851356405016748,,,0.6233814453054027,inf,,,0.807096742216712
165,0.0,0.0,0.0,1.070576425695613,1.036657136274427,0.7848670111381109,2.06906053031996,2.369891708109063,,,0.648888643467878,5.703782474656201,inf,,0.8267028540737404
166,,0.0,0.0,1.1777606178200972,1.1293896471299765,0.8086048711365282,1.7500418327091363,2.025169181373508,,,0.5677978065141052,inf,,,0.7585295024438073
167,,0.0,0.0,1.3044215072434429,1.2029718979680093,0.8345183126658733,2.017801738843344,2.266684535031143,,,0.6008849035917525,inf,,,0.7956179400637808
168,,0.0,0.0,1.5972954617665192,1.5646711770822954,0.9289396118649671,2.1684490166899257,2.2684401172918918,,,0.5883313578629602,inf,,,0.7590460460028156
169,,0.0,0.0,1.4012535478656343,1.3240369403258716,0.8742021116669867,2.230358286243291,3.5573031589226853,,,0.5677978065141052,inf,,,0.8238589743240442
170,,0.0,0.0,0.8974909935576085,0.858335188181947,0.6922299667903982,2.1328678484374652,2.5041813853044603,,,0.6207552362147116,inf,,,0.8422547371526545
171,,0.0,0.0,0.4470811969481615,0.380596281331809,0.4971974259888448,2.4803399636654544,3.9304894873243676,,,0.6425374456860184,inf,,,0.7334483059324802
172,,0.0,0.0,1.0034554768444084,0.994285929172553,0.6610020309966096,2.575048082839526,4.640014336556462,,,0.5978297680564633,inf,,,0.9269109611412051
173,,0.0,0.0,1.1625961338638453,1.1384647094142422,0.818799819143827,2.6700434672428512,3.790431156156394,,,0.648888643467878,inf,,,0.8747788568883701
174,,0.0,0.0,1.345237142814702,1.32167628604208,0.8737755321707604,2.4341253549913175,2.7230342521185524,,,0.6038851895711802,inf,,,0.8407849248726669
175,,0.0,0.0,0.7748033246096889,0.7515237135481351,0.6118743396371163,2.062534547657995,2.391631500506034,,,0.581717464821069,inf,,,0.8769898366795169
176,,0.0,0.0,0.8858852884485894,0.8436769127139966,0.6481797400510573,1.6656500477008598,1.7486486422527412,,,0.6180765742263259,inf,,,0.7942566056290437
177,,0.0,0.0,1.438314828385432,1.4271756904340605,0.8172389915350975,1.621304347429761,2.131349154846184,,,0.6153451465759925,inf,,,0.7359887559386977
178,,0.0,0.0,1.4220161863703447,1.4001474441543096,0.8155976049161415,1.7213302726099777,2.061544820048459,,,0.6357360191111145,inf,,,0.8160910025356577
179,0.4803675325382952,-0.004803675325382953,0.0,0.9079011098223067,0.8235292336186233,0.6357549098880382,2.346637243773953,2.7856971613182875,,,0.6008849035917525,4.898795812340721,inf,,0.8658705988906177
180,,0.0,0.0,1.146626151008575,1.0936589415433189,0.7602511861548183,2.30593562631501,2.828316419279907,,,0.6233814453054027,inf,,,0.727317488126384
181,,0.0,0.0,1.3595091906076138,1.3306086404076851,0.876770138558368,2.500397488055278,4.294233916647789,,,0.6068309995095971,inf,,,0.7270402061280552
182,,0.0,0.0,1.2037919327191486,1.1916144399535764,0.8041090742842011,2.586538144641727,5.966480384589899,,,0.6068309995095971,inf,,,0.7341619225167536
183,,0.0,0.0,1.3453047065158292,1.3112892641223903,0.7961521201460385,2.1489390160312705,2.8989715154928173,,,0.5978297680564633,inf,,,0.721373762861256
184,,0.0,0.0,1.461618050661819,1.4225819821155827,0.9029456685377227,2.705281346076198,3.952740049834386,,,0.6333676938231112,inf,,,0.7236862068296993
185,,0.0,0.0,1.068872999756431,1.0455627391613511,0.7748768823883824,2.55074079165221,2.8239127258999126,,,0.6097226960127671,inf,,,0.7897645773894953
186,,0.0,0.0,1.533533872039414,1.521951837225535,0.8878499876185191,1.9521348032460697,2.435453776222949,,,0.6380535849069913,inf,,,0.7892963430117034
187,,0.0,0.0,1.2464208572679092,1.1979370824503413,0.7921955574077936,2.3677212550237616,2.8346799999257204,,,0.6357360191111145,inf,,,0.8056498340050092
188,,0.0,0.0,0.3075202309649917,0.2642968291514333,0.5420021172879136,1.629006251776311,1.6540501432423103,,,0.5641709578113449,inf,,,0.7894166093395136
189,,0.0,0.0,1.336471493597662,1.2880817946290333,0.8083730356817601,1.696087172154339,2.0286642003450024,,,0.6180765742263259,inf,,,0.7921898220250488
190,,0.0,0.0,1.3196320453175976,1.2826469145541814,0.8576456060212613,1.7161384964306388,2.391796173354219,,,0.6447042257417027,inf,,,0.7616004518782903
191,,0.0,0.0,0.5457831850268248,0.5083029757144722,0.6833221634909338,1.7977308946391801,1.6989930903910175,,,0.6425374456860184,inf,,,0.8912703478366863
192,,0.0,0.0,1.3421068552696487,1.3177667735782708,0.8468133170140175,1.4898117824477626,1.7331237827900798,,,0.6309483474627791,inf,,,0.7641959302330701
193,,0.0,0.0,1.3218744844761854,1.2960903923965412,0.87161488072395,1.6787019127067435,1.9977077334008788,,,0.6284777104787076,inf,,,0.7710158648077031
194,,0.0,0.0,1.2225909610693164,1.0867738743556499,0.7888352096889947,1.6596275572022199,1.9104200138472451,,,0.6125606311107803,inf,,,0.8005697899000419
195,,0.0,0.0,1.2962862193996907,1.2638127588706372,0.8168235866462839,1.5440258702840874,1.8842507854612296,,,0.6180765742263259,inf,,,0.7434281505663594
196,,0.0,0.0,1.1793266787388503,1.1240901216812444,0.757795857799142,1.3853605221251595,1.425115238455593,,,0.6309483474627791,inf,,,0.7160493644305723
197,,0.0,0.0,1.2114215099797037,1.1203081157831136,0.7788582765228824,1.5241284979329897,1.7544298177489228,,,0.6447042257417027,inf,,,0.8225939876377033
198,,0.0,0.0,1.5260486051378501,1.4318536545846023,0.9200812750747738,1.8919602019575426,1.757669042583242,,,0.6284777104787076,inf,,,0.8044661603750285
199,,0.0,0.0,1.5408290660882733,1.469032880837005,0.9016721796961221,1.613374180153569,1.8542082153501487,,,0.5713653840954815,inf,,,0.7977170716167402
200,,0.0,0.0,1.3385854825011556,1.3153340024568765,0.8402882808949835,1.5298642459211558,1.7568024980290649,,,0.6038851895711802,inf,,,0.7571637954247432
201,,0.0,0.0,1.4090563695079887,1.3961534457653066,0.8900042823702822,1.901646585017811,2.2616558722291,,,0.6380535849069913,inf,,,0.792915451153025
202,,0.0,0.0,1.4393815818903761,1.4065623639351055,0.8720375464887393,1.648230533641974,2.2740450423448983,,,0.6008849035917525,inf,,,0.7658491627816034
203,,0.0,0.0,1.5433454765963894,1.4438430326391212,0.921022869913401,1.812956628656256,1.7667190070635796,,,0.6233814453054027,inf,,,0.7704115959013985
204,,0.0,0.0,1.471307374941743,1.4538207091657256,0.9067071431291105,1.9060555841727123,1.7657257756520568,,,0.6447042257417027,inf,,,0.7913601271397569
205,,0.0,0.0,1.5612128574146253,1.5595421775524425,0.933743133034599,2.109308161180157,2.4963638979382505,,,0.6068309995095971,inf,,,0.7897113084955603
206,,0.0,0.0,1.4735269905366528,1.4369387514486514,0.902734511388783,1.8366611961243524,1.6903611969320431,,,0.5947193981915972,inf,,,0.8031235163326715
207,,0.0,0.0,1.6886547137823285,1.6663791101428802,0.9724633233722654,2.37941484266994,2.3597891465679415,,,0.6207552362147116,inf,,,0.8549487496169518
208,0.0,0.0,0.0,0.9906646357806514,0.9237778089590397,0.7874801607670993,2.23086030993311,1.6041686002571214,,,0.5915533975974677,5.703782474656201,inf,,0.9091133830203516
209,,0.0,0.0,0.7995870306515537,0.5446223150848837,0.7315512734251215,2.1982183970863707,1.6758682971721637,,,0.6125606311107803,inf,,,0.8878915711870231
210,,0.0,0.0,1.3789982108487502,1.3577677933619792,0.8578057940112165,1.8837314000368148,2.3485129984012043,,,0.6447042257417027,inf,,,0.8560747947463703
211,,0.0,0.0,1.1857821498992418,1.1827231953967,0.9034436698093525,2.12437689479693,2.540858312158888,,,0.6068309995095971,inf,,,0.8607315899191335
212,3.506557897319982,-0.011688526324399939,0.0,1.3382809428157183,1.316686447332664,0.9195044750360318,2.3258066116009366,1.5090711762302198,,,0.6153451465759925,9.210340371976182,inf,,0.8663759162098131
213,,0.0,0.0,1.3677484366350086,1.3635327384730114,0.912698837692188,2.537618212428969,2.179165133916686,,,0.5748741956352443,inf,,,0.8973648526688393
214,,0.0,0.0,0.792037274852911,0.7132277681934399,0.6839548459411956,2.144320607241977,2.4647627090873794,,,0.6180765742263259,inf,,,0.8950499911609363
215,,0.0,0.0,1.559836860927274,1.5459006096748895,0.9333547795281898,2.000125618972716,1.8473413235009877,,,0.6125606311107803,inf,,,0.8472867198764763
216,1.4655968762082099,-0.009770645841388067,0.0,1.396067856058221,1.3713788417552484,0.929932302842881,3.912054420983834,12.76531214066607,,,0.6309483474627791,5.65182273572549,inf,,0.8625901343299541
217,1.2514843787993137,-0.02301302133024276,-0.00618828084174123,1.0010852806816626,0.9523220356056445,0.6123880324131623,3.634676139083502,3.1191720765628257,,,0.6468212168108125,4.240527072400182,3.3168902752021614,inf,0.7176449415427023
218,0.0,0.0,0.0,0.9215919466411568,0.8722132587895662,0.602187294089126,1.672453953771572,0.9359343510313916,,,0.6380535849069913,5.703782474656201,inf,,0.8405147051170847
219,0.006711510166070331,-4.474340110713554e-05,0.0,0.5629871005157768,0.4553732408731369,0.35745286042207747,0.7396929483220697,0.36772282719740035,,,0.6284777104787076,5.017324282247053,inf,,0.9485212786620386
220,,0.0,0.0,0.5002653610906933,0.3869902905757919,0.3635497077726044,0.5210501251092049,0.22312649363032577,,,0.6380535849069913,inf,,,0.9334933481846668
221,0.031054929698582246,-0.0006210985939716449,0.0,1.0119601956860524,0.9497998120719062,0.6633939679443259,2.0422893816627266,0.7227050318352948,,,0.6284777104787076,3.9407654742938,inf,,0.9552680260039552
222,0.9140734333402222,-0.006093822888934814,0.0,0.683870903340726,0.634124181313975,0.3896517024851459,0.8035793055636228,0.2574988474957257,,,0.6602640781246099,5.922768015821747,inf,,0.9464240174521296
223,,0.0,0.0,0.7988163533699161,0.7496739167567579,0.5581387713811594,0.8476806778324506,0.3151666332862114,,,0.6547956803312163,inf,,,0.9539109965794518
224,,0.0,0.0,0.5818056221536396,0.5451660472510552,0.3927317680155122,1.0205333465029998,0.5790029335544309,,,0.6468212168108125,inf,,,0.7708373383041981
225,0.0,0.0,0.0,0.6706982900964739,0.5831079274334932,0.3809477876308421,0.6788279736594581,0.3159849227256737,,,0.6233814453054027,5.703782474656201,inf,,0.9475227429411184
226,0.0,0.0,0.0,0.5316199732995237,0.486405094069206,0.5031604348121609,1.1570239408378211,0.7139930471978699,,,0.6699045166045591,5.703782474656201,inf,,0.7433124223337
227,,0.0,0.0,0.6542655759014198,0.612197517606884,0.5111919607489872,0.9212292275173575,0.4789536631379213,,,0.648888643467878,inf,,,0.9491704922688915
228,0.9020822548311633,-0.03006940849437211,0.0,0.8279336100110244,0.785984548875786,0.7202333541394774,2.5453309435898053,1.0755940182109742,,,0.6566669596287297,3.8345476932598554,inf,,0.8855003800734279
229,1.6018075592412253,-0.02669679265402042,0.0,1.0709582668167092,1.0070608417418374,0.8170806135215491,3.7681028605882205,22.395571719795026,,,0.6097226960127671,4.9062752787720125,inf,,0.7354684818574019
230,,0.0,0.0,1.1534422008076397,1.0930203930888673,0.7935718670729501,3.7864775753549065,4.212151866683833,,,0.6153451465759925,inf,,,0.6513667723759047
231,0.764872307781623,-0.00764872307781623,0.0,0.8635937520443917,0.8522090136980562,0.665852787332432,3.8216594945809637,7.662181624427751,,,0.6380535849069913,5.030838001413775,inf,,0.8761146023871897
232,0.0,0.0,0.0,1.0380004542251735,0.977688520042084,0.7503448651395175,2.8805332727352977,4.499639794099259,,,0.6333676938231112,5.0106352940962555,inf,,0.853591571469578
233,0.0,0.0,0.0,1.134511450425364,1.1094755303793742,0.8531371752510104,3.7473179036294932,5.0391820016161954,,,0.6652988471865258,4.31748811353631,inf,,0.8889031439570576
234,0.0,0.0,0.0,1.3150166111614556,1.2869959351453537,0.8280735764244254,3.660862001092473,5.296224727903628,,,0.6425374456860184,4.31748811353631,inf,,0.7008019758107786
235,0.5815849834287509,-0.009693083057145847,0.0,1.0834593681144302,1.0479266889011438,0.7747558177826785,3.6322905344651644,3.4415339584286544,,,0.6380535849069913,4.312500572025272,inf,,0.8416779179716118
236,0.0,0.0,0.0,1.2058666544782535,1.1484165195662774,0.8328863221269096,3.35484271050121,4.64656174551892,,,0.6333676938231112,5.703782474656201,inf,,0.9131462269143197
237,0.10386410460508952,-0.0024234957741187555,0.0,1.12377476645707,1.1006861295933439,0.850904313280904,4.235060600814629,12.391811368204364,,,0.6602640781246099,3.8345476932598554,inf,,0.9161928157156388
238,0.0,0.0,0.0,1.090235491473539,1.0254836351369254,0.7745709673543314,3.5067144484593578,2.746610035208136,,,0.6468212168108125,4.0943445622221,inf,,0.8210971988801478
239,0.0,0.0,0.0,1.0196505398413054,0.9869972970413435,0.7987998538780294,3.882813958305322,93.83459276089553,,,0.6207552362147116,3.912023005428146,inf,,0.7549503680823704
240,3.0596489593089333,-0.020397659728726224,0.0,1.2988435851685551,1.2744642822873464,0.8533184429364212,4.061001712086546,36.62820814016594,,,0.6125606311107803,6.792444432471143,inf,,0.9196199899578488
241,0.9985774245179969,-0.00998577424517997,0.0,1.0153578887033998,0.9782268627784622,0.680484954871523,3.470457256153005,2.9234439131609946,,,0.62595550513784,4.985942681505884,inf,,0.9369769800199249
242,,0.0,0.0,1.3418349123061803,1.3296680474651532,0.8195747007062496,3.7055480821321596,100.67365478280524,,,0.5915533975974677,inf,,,0.9096132637046104
243,0.0,0.0,0.0,1.2274756700453,1.1836503850321436,0.7914874973660405,3.8142156865556145,6.604451057391825,,,0.6309483474627791,3.506557897319982,2.200563478601734,inf,0.718950689162702
244,0.2991601744745323,-0.014958008723726615,0.0,1.3635497465152933,1.338818788846656,0.8612537839458264,4.399617516115256,12.712516980623805,2.7337538080742205,,0.6528756675646988,3.199073197572021,2.5080481783496946,inf,0.7537065909773112
245,0.3143550885877489,-0.012574203543509957,0.0,1.3940829385585254,1.364648881334282,0.879160644707407,4.161355400636242,12.741890977707246,,,0.6547956803312163,3.3687301915246537,inf,,0.8042275563629808
246,0.03195834287747122,-0.00042611123836628294,0.0,0.8788184594450499,0.8468870877481065,0.6729843562141455,3.401761609257762,9.076744573738065,,,0.6125606311107803,4.347947321021019,inf,,0.9337247329662378
247,0.0,0.0,0.0,1.1396182755990873,1.0759961883770566,0.8286782385993012,3.532208840594744,15.173086299436598,,,0.6008849035917525,3.912023005428146,inf,,0.9055892245224492
248,0.16772206911928117,-0.003913514946116561,0.0,1.125312566015634,1.0705845253519313,0.8448866971574575,3.7137889645158624,5.128768177416127,,,0.6333676938231112,3.8754768057706794,inf,,0.9442642640288132
249,0.1505030155365237,-0.001505030155365237,0.0,1.08933680724455,1.0707554972232707,0.7321959079873307,2.733125392707849,2.7372705067250993,,,0.6333676938231112,4.7342669815447485,inf,,0.9290393475467054
250,0.4197861147687119,-0.012593583443061359,0.0,1.479900442727822,1.418209099770596,0.8895921547046141,3.405349958135409,4.285259833812704,,,0.6528756675646988,3.623924353091149,inf,,0.9383405521219083
251,0.8134333464344472,-0.002711444488114824,0.0,1.225113048793271,1.1946235946934656,0.8759375835327237,3.3945416286798697,8.48485719366807,,,0.6284777104787076,6.517215821090648,inf,,0.9157893722025038
252,0.0,0.0,0.0,1.3336496588124689,1.314003226533106,0.7939153217867535,4.39492652379306,8.085686814597285,,,0.6652988471865258,2.995732273553991,inf,,0.8656803540105651
253,,0.0,0.0,0.8495237308707978,0.7920972336721909,0.581028650785482,1.9945257904830789,2.0555243623700075,,,0.6380535849069913,inf,,,0.9392441099755651
254,0.0,0.0,0.0,0.9643613772903443,0.9197961495169376,0.5587373634530146,2.192189418385638,1.5236750267455577,,,0.6547956803312163,5.703782474656201,inf,,0.9536588717927201
255,0.0,0.0,0.0,0.885057573912229,0.8458064059173843,0.5177492006735677,1.68385758604232,1.978512167686612,,,0.6357360191111145,5.703782474656201,inf,,0.9391526873582545
256,,0.0,0.0,0.5048718384602945,0.47465365097890483,0.5416469825402024,2.2771434273871596,2.057311913702544,,,0.6233814453054027,inf,,,0.9451440063741245
257,0.3981046747338112,-0.009289109077122262,0.0,0.7969989093409942,0.7052219518043679,0.5412540224473882,2.9380457844920427,3.08418047488638,,,0.6547956803312163,3.989984546897858,inf,,0.9005839302667847
258,0.5843044541989709,-0.019476815139965697,0.0,1.3379651605508707,1.3033266069017297,0.8095633859956723,4.085972131404679,26.724792225807995,,,0.6547956803312163,3.6946739878222727,inf,,0.8927360395570576
259,0.31869099480611457,-0.009560729844183437,0.0,1.0662385778821357,1.0138472423800011,0.7538449332007267,4.009351946900038,14.336815079268408,,,0.6333676938231112,3.704557266833166,inf,,0.8993278042400291
260,0.4995677624365606,-0.011656581123519747,0.0,1.1899144210020582,1.1815196130828327,0.8132517615761445,3.638764656775473,14.247801023326211,,,0.648888643467878,4.015533381797811,inf,,0.9420469716702391
261,0.10536051565782628,-0.0003512017188594209,0.0,1.2863622644163037,1.268795045551945,0.8064552601348867,4.22012571771325,4.7316442966700984,,,0.6207552362147116,5.809142990314028,inf,,0.8738088546952059
262,1.4352845652999926,-0.009568563768666617,0.0,1.3081621516561592,1.2931340915288507,0.7998750274080478,3.641837612041447,37.703944469250466,,,0.6153451465759925,5.6486631754351215,inf,,0.9211464260669963
263,0.0,0.0,0.0,1.2003844451877854,1.1936589879605075,0.8038651247768281,3.7312346809908274,49.628263893374466,,,0.6547956803312163,3.912023005428146,inf,,0.9419227133914496
264,0.3154789599065756,-0.0042063861320876745,0.0,0.9705058664679865,0.9514658678644823,0.8303392590587385,2.8720543081208225,2.749849906976111,,,0.6284777104787076,4.576690714666222,inf,,0.8272721542117714
265,0.019643527793422485,-0.0007857411117368994,0.0,1.3696953322018606,1.3803123265218828,0.8732005845303621,3.670702323945993,4.480969633201498,,,0.6153451465759925,3.2365307601069215,inf,,0.8374558684821358
266,0.597075426022132,-0.00597075426022132,0.0,1.298495143304667,1.280704771774157,0.8783854766935734,4.091728781256994,3.7569628322831967,,,0.6447042257417027,4.971414580942975,inf,,0.8809680304741897
267,,0.0,0.0,1.4270595711335565,1.3989635851267934,0.857440365044785,3.910504793117214,21.75770004546281,,,0.5783247308855777,inf,,,0.8297157756935968
268,0.0,0.0,0.0,1.0620892062296132,1.0156737075516966,0.7581584616678286,4.066826868645616,15.542491196322217,,,0.6357360191111145,5.0106352940962555,inf,,0.9112873019491473
269,0.0,0.0,0.0,1.5279600296034916,1.5263245589194987,0.8813828695509337,4.71533939581769,6.459615057593293,,,0.5783247308855777,4.31748811353631,inf,,0.9078511064959178
270,0.0,0.0,0.0,1.1613464759427938,1.1187810923654447,0.7869179404189722,3.407429357827955,8.824063415538548,,,0.6284777104787076,5.0106352940962555,inf,,0.8461033525030314
271,0.5807148629214348,-0.00841860680683192,-0.003195690451596777,1.0991617312304156,1.055833930216036,0.751156403441088,3.844277400640643,46.45748747188807,2.3872570690512447,,0.585052858160615,4.268697949366879,2.3939348715822737,inf,0.8237156601861083
272,0.012823323596887645,-0.00017097764795850193,0.0,0.8505580214087605,0.8149436137569613,0.7263668093620093,3.540296952839094,24.274292364885465,,,0.581717464821069,4.330066895743171,inf,,0.9367305043639423
273,0.0,0.0,0.0,1.1927177511517453,1.1758201752530786,0.7847741140320209,3.2833770417479604,6.373686443112488,,,0.62595550513784,3.624340932976365,inf,,0.9000873613682441
274,0.0,0.0,0.0,0.8633356444727759,0.8489942532736092,0.7210581175936537,2.9932638327221084,1.5549207319716523,,,0.6284777104787076,4.31748811353631,inf,,0.7420480495584801
275,,0.0,0.0,1.1972137912749123,1.1590620186179745,0.8444117583232468,3.3177453917890243,4.939447338210017,,,0.6153451465759925,inf,,,0.9348312196434702
276,1.9034904876023324,-0.019034904876023325,0.0,1.2217033826156989,1.2083962374174209,0.8305248885118249,3.7323225873380044,23.71717856682175,,,0.6233814453054027,5.296097609809724,inf,,0.9189493666358969
277,0.0,0.0,0.0,0.7979655647690194,0.7773906404124016,0.5462087385122719,3.81693319036894,5.743626210380249,,,0.6309483474627791,5.703782474656201,inf,,0.9142069934534126
278,0.0,0.0,0.0,1.0632033496637439,1.0207242863190116,0.6775112324918313,3.5215983690600923,14.047484559837432,,,0.6233814453054027,5.703782474656201,inf,,0.9368511836345566
279,0.0,0.0,0.0,1.2593949994323013,1.2380439825501541,0.8301554148186875,4.497312332121075,4.812563915612415,,,0.6233814453054027,4.0943445622221,inf,,0.8149916301391418
280,0.0,0.0,0.0,1.1604167971709836,1.119651706923131,0.8294054332756599,4.376579992321562,15.482833105380385,,,0.62595550513784,3.2188758248682006,inf,,0.8264641610773016
281,0.21618574334989282,-0.0072061914449964275,0.0,1.13794373908183,1.1012622484136176,0.7171395882668079,4.151063374226457,17.16458361082875,,,0.6822068148872973,3.5069283362943975,inf,,0.9193477527287429
282,0.7637470142009178,-0.01272911690334863,0.0,0.9690777126967474,0.9405823154275239,0.763880007958417,4.438492509606391,47.1712426422516,,,0.6357360191111145,4.509860006183766,inf,,0.7810614586236421
283,1.002127058819251,-0.016702117646987518,0.0,1.139178088123513,1.1160382849495254,0.7580867457740258,3.9543581461605464,84.8133682540702,,,0.6468212168108125,4.315822834217249,inf,,0.7961522439346125
284,,0.0,0.0,0.9084407731625848,0.8672260980279004,0.6492667017305295,4.176779496845959,19.023491524133693,,,0.6309483474627791,inf,,,0.9360566934412546
285,0.0,0.0,0.0,1.1024949140340197,1.0877428036529795,0.6906633615070825,3.5451589321388077,29.416060563812458,,,0.6447042257417027,4.31748811353631,inf,,0.8188567383295909
286,0.0,0.0,0.0,1.0013222248876563,0.9757052385752562,0.8171809172887355,3.2097611175149243,5.167420057989675,,,0.62595550513784,5.703782474656201,inf,,0.8296496024908133
287,,0.0,0.0,0.7886024595082134,0.7787512656470998,0.6795810200660224,3.478650089394219,8.841692137278473,,,0.6153451465759925,inf,,,0.7291093096313813
288,0.06750808803715803,-0.0006750808803715803,0.0,0.8698354400643938,0.839855248523293,0.7078927225316556,4.040100482383807,2.4358148147445364,,,0.5490601803369085,4.668228321955228,inf,,0.922725624088728
289,,0.0,0.0,1.0973450201457557,1.0360614544129072,0.7678945112051093,4.100639063132873,12.363519456264424,,,0.6038851895711802,inf,,,0.9075016205277462
290,0.44344714597670465,-0.005912628613022729,0.0,1.292354575621147,1.260008680975225,0.9064678260610318,3.975342925314405,8.762845528535761,,,0.5978297680564633,4.6529608498244395,inf,,0.8315903888008339
291,0.0,0.0,0.0,1.2916912712720505,1.2792081025682769,0.8877595801672854,4.570332015978121,50.778923157219296,,,0.6233814453054027,4.0943445622221,inf,,0.8855330978397147
292,0.19388683342662671,-0.006462894447554224,0.0,1.1460553600924506,1.1222924325349437,0.7827168008000661,4.5157642503899185,31.610439296229014,,,0.6008849035917525,3.5061875955197865,inf,,0.7276848271866873
293,,0.0,0.0,1.098951019072421,1.0800272967653133,0.7930208034502555,4.565946116584708,114.13402180867969,,,0.6284777104787076,inf,,,0.9160227280110305
294,,0.0,0.0,1.5061986453224634,1.461622884197712,0.8290755865857012,4.088275568868089,121.99570030696394,,,0.6403206450210053,inf,,,0.8489099293677507
295,0.0004769858950735141,-1.1129670885048663e-05,0.0,1.3942334066203048,1.3733726173112932,0.7811866313600971,5.677980667027001,101.84351939420331,,,0.6619902821573977,3.758348629491769,inf,,0.926467708357064
296,0.10769572902311356,-0.001435943053641514,0.0,1.2865912976604417,1.2477473493685658,0.7271217805350964,4.665385746213894,7.650981322387849,,,0.6652988471865258,4.409055307061801,inf,,0.8636946076407325
297,,0.0,0.0,1.1753244570652999,1.1375259111221718,0.7001934353611899,4.176027897599943,88.58982166852643,,,0.6403206450210053,inf,,,0.8524658634075761
298,0.49277153114981376,-0.0093647296832491,-0.002133272710246554,1.3018049873491857,1.2841488609640703,0.7392498601891032,4.341616577939107,33.18637425103525,2.894346519481343,,0.6125606311107803,4.0877000195034325,2.2572698967820033,inf,0.9113431835692523
299,0.0,0.0,0.0,1.086366195113695,1.036012484695995,0.7551815912553909,4.120537337999467,2.4254517091432186,2.481567748522486,,0.6566669596287297,3.2188758248682006,1.7950983704935697,inf,0.6306002456733902
300,0.2948452887518777,-0.004150931721573941,-0.012556967974365797,1.2516419232778497,1.1949520064512944,0.8418265452632784,5.206447875024447,11.593476852531971,8.414444920134475,,0.6468212168108125,2.9864422266468984,6.47521257361019,inf,0.9355426752713727
301,0.02666078923860351,-0.0009564849262198429,-0.0010875089154064263,1.254246563015595,1.2144546426502822,0.8288216280569449,3.640233541484279,5.909945008055511,7.710525112707214,,0.6380535849069913,2.5917497454060494,3.4405367962221876,inf,0.6255264007682864
302,0.03962948323571573,-0.0014530810519762434,0.0,1.1840008990564543,1.1326671602652032,0.766003785720995,4.092967667549889,18.009845820136384,,,0.6068309995095971,3.3385356205374443,inf,,0.7714991913939913
303,0.0,0.0,0.0,1.1781947408672786,1.0922215828862194,0.8091881006410464,3.7860623124693116,14.001505791742344,,,0.6547956803312163,4.605170185988091,inf,,0.8548731680154871
304,0.3118927444638886,-0.017673922186287022,0.0,1.3862290951570995,1.362046346621365,0.7986050094540345,5.285719263247397,60.91475354618475,2.7120178750191335,,0.6566669596287297,2.988425698371553,2.718695677550163,inf,0.5639662209736224
305,0.5361201046066053,-0.03496413819253994,-0.0007772021145670743,1.3395364612129468,1.302082009749432,0.8568820380377622,3.7632661445683397,55.79705523601476,,,0.6509067234006624,2.9683332993658764,2.9711715088113944,inf,0.8175982645829036
306,0.002801186386063548,-5.602372772127096e-05,0.0,1.1559415541524605,1.1419284269093668,0.7973200459324821,3.0385916995372537,2.4200801479747254,,,0.5978297680564633,3.9148046483900227,inf,,0.9305633471338315
307,0.5849063660317286,-0.013647815207407002,0.0,1.0470095060481517,1.0118032445481482,0.7887354793904107,3.938802619837942,1.8905651711888916,,,0.6284777104787076,3.909249078545421,inf,,0.8577415599320152
308,0.017097764795850193,-0.00017097764795850193,0.0,1.1705819863053972,1.1434879302460483,0.7934489325091622,3.03573682756629,3.3364242843714376,,,0.6468212168108125,4.6219773043044725,inf,,0.7826369725233918
309,0.9854430675627452,-0.006569620450418302,0.0,0.8359701910629951,0.7825825434723452,0.6314208752731395,3.014952292557413,2.847118638227443,,,0.6233814453054027,5.995918897457362,inf,,0.8470418032384678
310,0.0,0.0,0.0,1.0625637556584138,1.0195933299263547,0.8082009845115788,2.9357543641403776,5.1089963678595645,,,0.6309483474627791,5.0106352940962555,inf,,0.8731127704919425
311,0.0,0.0,0.0,0.8894754792566081,0.8358990124143214,0.6632098368279392,3.356175411023159,4.51128526349729,0.6898082792944307,,0.5567373465730988,5.0106352940962555,0.6964860818254599,inf,0.8933054810203453
312,0.0,0.0,0.0,0.777795636794395,0.7191228590164763,0.7073288636030239,3.141690747782323,6.9691262336935615,,,0.5947193981915972,4.605170185988091,inf,,0.8663991865274754
313,0.06860921142544008,-0.0009147894856725344,0.0,0.9053468120101283,0.8187630448963295,0.7119247372750136,2.903098858047281,2.3245767883976045,,,0.5641709578113449,4.379363517254398,inf,,0.8723728731073486
314,,0.0,0.0,0.9014471168987872,0.795382026736344,0.641209209955043,1.5561982330928468,1.6118338073564467,,,0.6038851895711802,inf,,,0.880972987654885
315,,0.0,0.0,1.3384118965164897,1.3141392481162049,0.8834493471980027,1.4718392740064465,1.591443921072338,,,0.5604843169999094,inf,,,0.7923655033822512
316,,0.0,0.0,1.5613276769579327,1.5247968462649744,0.9128748366010271,1.5626721232261955,1.6111808951549085,,,0.5947193981915972,inf,,,0.824246289986472
317,,0.0,0.0,1.3956858990135237,1.3594671600355255,0.8660259235758166,1.568064926892017,1.6363618646870013,,,0.5677978065141052,inf,,,0.8387763419735204
318,,0.0,0.0,1.308327254317637,1.2949527824063114,0.8183568800640888,1.391923996282611,2.0358351679291764,,,0.6180765742263259,inf,,,0.7971940588941948
319,,0.0,0.0,0.3203668846205393,0.298379888191612,0.5955366314504923,1.6544411917542603,1.9092918742467038,,,0.5490601803369085,inf,,,0.883516293528048
320,,0.0,0.0,1.3635706017799087,1.3267745997238107,0.810519206861135,1.4767293192540252,1.9772743726292148,,,0.6284777104787076,inf,,,0.7601482392019707
321,,0.0,0.0,1.4949352662167414,1.4814433952111488,0.878682919389344,1.4817962970504064,1.72965676356668,,,0.6284777104787076,inf,,,0.8094034599681623
322,,0.0,0.0,0.5416423079444139,0.5262629164134486,0.5880609968785739,1.6028257977157767,1.797448252592711,,,0.6425374456860184,inf,,,0.9000824069608094
323,,0.0,0.0,1.1946260444434693,1.1638586816213603,0.7889391184687513,1.4940083674612399,1.7113019220838714,,,0.62595550513784,inf,,,0.8399674832576267
324,,0.0,0.0,1.501288661023753,1.4792666388578577,0.8855678647243744,1.4205159910297998,1.877932938530242,,,0.6403206450210053,inf,,,0.8076121132092922
325,,0.0,0.0,0.3522065979966885,0.30512256764500495,0.5423383851658511,1.2172967503362635,1.2204544540972844,,,0.581717464821069,inf,,,0.7455358584680563
326,,0.0,0.0,0.8780712793336547,0.8223445582429739,0.6408433455805861,1.6459382838531922,1.6752868052005234,,,0.62595550513784,inf,,,0.7381502190125222
327,,0.0,0.0,0.2256559932866077,0.1777953741106152,0.4476000226776399,1.8669710798379868,2.0976485587277605,,,0.6547956803312163,inf,,,0.7886589401037772
328,,0.0,0.0,0.887139644343751,0.8748507692570984,0.6401373407000244,3.0167715419395877,4.6202539721211435,,,0.6153451465759925,inf,,,0.692956337533131
329,0.1928312404059923,-0.0012855416027066154,0.0,0.8950323842187337,0.8688515705464956,0.7299721523547137,2.6875528246506706,3.3557469443425134,,,0.6207552362147116,5.184988681241033,inf,,0.6581417433664225
330,,0.0,0.0,1.302385766977413,1.2830045879015075,0.8467924567785168,1.6353256847570317,1.6838700233306454,,,0.5978297680564633,inf,,,0.8232757462067344
331,,0.0,0.0,1.493069421693872,1.4602076727434445,0.9060025272536,1.798976689444983,1.7717230986207748,,,0.6153451465759925,inf,,,0.8109583617133566
332,,0.0,0.0,1.6198208943898385,1.489619543938316,0.9448143712136101,2.0253882869372544,2.0877973201261764,,,0.6038851895711802,inf,,,0.8545740074778307
333,,0.0,0.0,1.4137303511165074,1.3524019794278992,0.8870791078926171,2.2581959443784263,2.2698145935342477,,,0.5713653840954815,inf,,,0.8918535910225188
334,,0.0,0.0,1.168605589307367,1.173328712830625,0.873999298442586,1.8667012807085224,2.114199788287457,,,0.6233814453054027,inf,,,0.8155254060965781
335,,0.0,0.0,1.4803791388803376,1.3883770155289163,0.9078851367575584,1.914275411481687,2.081735455353429,,,0.5748741956352443,inf,,,0.8067461632301987
336,,0.0,0.0,1.3791796449186298,1.335625528561867,0.8845655497441284,2.1369965810575975,2.348238031753739,,,0.5978297680564633,inf,,,0.8313818354565111
337,,0.0,0.0,1.1855168838110075,1.1632295648565831,0.771870850207744,1.7838553962929689,1.9084683900519135,,,0.62595550513784,inf,,,0.7650857879667489
338,,0.0,0.0,0.42646955582966134,0.37487342280034325,0.5913509675838127,1.7887765230997064,2.215659675260008,,,0.6333676938231112,inf,,,0.8473441312732767
339,,0.0,0.0,1.2317031642255347,1.2145835468623376,0.7768378265946566,1.613323755406166,2.00653472580544,,,0.6180765742263259,inf,,,0.7539236912459618
340,,0.0,0.0,1.3590569239558536,1.3583707016651057,0.857265532373734,1.3222882023369587,1.7069012353922115,,,0.6333676938231112,inf,,,0.7000555749886633
341,,0.0,0.0,1.0370512761773447,0.9163134079720955,0.8209109695376979,1.6190659006362564,1.3788614271648933,,,0.6357360191111145,inf,,,0.857085930773306
342,0.0,0.0,0.0,0.7828488641579059,0.7709842168632021,0.708631439832649,2.0822814933578044,1.8466487390887343,,,0.6180765742263259,5.703782474656201,inf,,0.881623910385105
343,,0.0,0.0,1.3066744851255858,1.2970918648551186,0.8556449915283514,2.6150973627741005,3.53930465929683,,,0.6125606311107803,inf,,,0.8645491140704294
344,,0.0,0.0,1.1675806203024213,1.1144211811720093,0.759614621337565,2.6505292490139194,1.879082836234716,,,0.6180765742263259,inf,,,0.7943421899929589
345,,0.0,0.0,0.16921395908888537,0.09986399871278279,0.4327572683065079,1.3853191949978658,1.5134419615986348,,,0.6584896970785714,inf,,,0.8248110555577391
346,1.499089855265235,-0.00499696618421745,0.0,1.0165802098912766,0.9510688571415312,0.7462181638176651,2.1277481363269066,2.066119138088778,,,0.6357360191111145,7.202872329921436,inf,,0.80898102278817
347,,0.0,0.0,1.1918846716749532,1.1643000713024625,0.8434348744973004,2.2342559000981703,3.1366962518406107,,,0.6008849035917525,inf,,,0.6845925542498915
348,,0.0,0.0,0.8829110605332747,0.8736182914535889,0.6943777412693518,2.371920077684932,2.3998717934488174,,,0.6380535849069913,inf,,,0.7662115839927589
349,,0.0,0.0,1.4037676800220007,1.3855174692136363,0.8512298726877278,2.313445317268505,2.3400229899169194,,,0.6068309995095971,inf,,,0.7264968245033383
350,0.0,0.0,0.0,1.019657514196876,0.988342537490412,0.7162582347480704,2.706028973780296,2.8923824328892835,,,0.6207552362147116,5.703782474656201,inf,,0.8579644166609391
351,0.004504778731319876,-9.009557462639753e-05,0.0,1.1603153992006918,1.116593423425464,0.7422513658402017,3.8049730739982515,3.2204222691015,,,0.5713653840954815,3.916477355777526,inf,,0.8749880032035057
352,0.0,0.0,0.0,1.090313701654041,1.0123570876035166,0.7638405845419319,2.509732706445935,2.479857436821367,,,0.6097226960127671,4.0943445622221,inf,,0.8350114795986
353,0.0,0.0,0.0,1.1644180582217742,0.9899039458571406,0.8820845648487139,2.636027467372993,3.069461449540609,,,0.6333676938231112,5.703782474656201,inf,,0.8533206254195619
354,0.0,0.0,0.0,0.8913805928028156,0.8677886675438923,0.739879254375939,2.2243569136961616,2.6032531056221067,,,0.6207552362147116,5.703782474656201,inf,,0.837159893157883
355,,0.0,0.0,1.155283013750223,1.0875839185088818,0.7784736800149143,2.2814310092044967,3.084710758361439,,,0.6309483474627791,inf,,,0.8021379425498574
356,,0.0,0.0,1.5967209966344071,1.5685353351903202,0.9220079977697988,1.9604591823739768,1.9954303615419637,,,0.5915533975974677,inf,,,0.7603713973704679
357,,0.0,0.0,1.4844328850865776,1.4808300026407444,0.9243335669192795,2.162221178655836,1.7448009481238773,,,0.5783247308855777,inf,,,0.813039617090942
358,,0.0,0.0,1.6330307476694252,1.578157330486908,0.9609294877458566,2.480221173514064,2.7049492818852743,,,0.6403206450210053,inf,,,0.8679680644319699
359,,0.0,0.0,1.4126120318997692,1.3870398007428806,0.8887632429820753,2.5405384739447707,2.2704389155011415,,,0.5947193981915972,inf,,,0.8185441487990652
360,,0.0,0.0,1.560218379231992,1.5412300486199715,0.9105919215307957,2.3566417342913915,3.3744738672813654,,,0.6068309995095971,inf,,,0.8304019155312518
361,,0.0,0.0,1.4292776623569812,1.436694737099704,0.8910292786872642,2.246558313022939,2.1224107264766836,,,0.6207552362147116,inf,,,0.8396586873818561
362,,0.0,0.0,1.490497583041477,1.4525417990551734,0.8998720155136402,2.419018905265056,3.6168184097290834,,,0.6333676938231112,inf,,,0.7967408092627738
363,,0.0,0.0,1.0982007050901526,1.053994926383469,0.7991704651249817,2.2268952058737836,2.5578313615778447,,,0.6309483474627791,inf,,,0.7065483954310108
364,,0.0,0.0,1.4822400961383682,1.469266146724104,0.9158886160401902,3.305002765956315,4.129276498315238,,,0.6357360191111145,inf,,,0.8011251575858486
365,,0.0,0.0,1.3864415317292962,1.3768920774371822,0.8861864744011145,2.8892714542957685,3.5053774159838365,,,0.6068309995095971,inf,,,0.8185785095473112
366,0.0,0.0,0.0,0.8002789952956343,0.7431369150117544,0.6861590939124733,2.874303573015723,3.2805887727761793,,,0.6097226960127671,5.703782474656201,inf,,0.7050103668994788
367,,0.0,0.0,1.3927425401716242,1.4089179575495931,0.8488406869040134,2.638451960810399,2.486153013057529,,,0.6008849035917525,inf,,,0.8287370277566604
368,,0.0,0.0,0.5303715214026262,0.3732836079893679,0.6547649893606329,2.450380480030429,2.965615710874035,,,0.6180765742263259,inf,,,0.8859157261748636
369,0.11596369905058841,-0.0019327283175098067,0.0,1.236033837739494,1.2026692371382084,0.7753791281066265,3.249465044844547,2.922674145959505,,,0.585052858160615,4.186459851129906,inf,,0.7008303176815855
370,0.0,0.0,0.0,1.1000055315593333,1.0392314829288833,0.7754123196389964,2.2911244019343204,2.27083903890484,,,0.6097226960127671,5.703782474656201,inf,,0.7912213356308019
371,0.0,0.0,0.0,0.9448172387706851,0.8797791833183344,0.7112998285170287,2.3823488814503295,1.6494904064812594,,,0.6153451465759925,5.0106352940962555,inf,,0.7715866602939723
372,,0.0,0.0,1.2858694912196786,1.2555671749850763,0.8673115012669693,2.0688453498291604,2.730256107600312,,,0.6038851895711802,inf,,,0.8300077180713229
373,,0.0,0.0,1.4954971698903183,1.4850006980407275,0.918404754035697,1.7697784596252235,2.2672171846298705,,,0.5883313578629602,inf,,,0.7850081978442519
374,,0.0,0.0,0.9669833200660201,0.9126628602285058,0.6493954655516059,1.9532456882474019,2.1498716033117065,,,0.6233814453054027,inf,,,0.8398019526809987
375,,0.0,0.0,1.3563724512477837,1.3394181198686286,0.8314589777283399,1.7482001610117213,1.757747009181872,,,0.6309483474627791,inf,,,0.7785709421669057
376,,0.0,0.0,1.3327432886344819,1.3098613182379912,0.8290038963561169,1.6511346666732596,2.0168681867736025,,,0.6068309995095971,inf,,,0.7405856443665164
377,,0.0,0.0,0.5139426457520242,0.3862317797866163,0.5271316085588794,1.5155333912980726,1.4745534904335467,,,0.585052858160615,inf,,,0.8386803231643757
378,,0.0,0.0,1.1715428048318157,1.154534839788721,0.8647135657165476,2.188351714298008,2.5952161200246406,,,0.6468212168108125,inf,,,0.8411711648042328
379,0.0,0.0,0.0,0.7194386406531681,0.5952284720742843,0.6463900782221391,2.0354769831523987,1.9963282961856637,,,0.6357360191111145,5.703782474656201,inf,,0.8854236558926225
380,,0.0,0.0,1.2431996452328713,1.1847511046789825,0.8427716707818969,1.772130832000221,2.25221442774726,,,0.6380535849069913,inf,,,0.804588705675701
381,,0.0,0.0,1.3364507948462294,1.3211978645525273,0.8415905807449345,1.8764760038554318,2.486437963311067,,,0.6180765742263259,inf,,,0.8082760669664005
382,,0.0,0.0,1.3451940997341119,1.3447803459977106,0.8363798461738782,1.7850695120663733,2.0109784126146923,,,0.5883313578629602,inf,,,0.8291994328630615
383,,0.0,0.0,1.4079249648937597,1.3767694056010646,0.8658932409073208,1.894260323851533,2.536811285032755,,,0.6008849035917525,inf,,,0.7985499083967202
384,,0.0,0.0,1.539634250984639,1.5017949861413724,0.9040297118360038,2.128184455341354,3.0188909676520517,,,0.6309483474627791,inf,,,0.8201838703019594
385,,0.0,0.0,0.6161729814871243,0.44607302703452273,0.5913802097911204,2.3010821723476402,3.2427517027508586,,,0.6153451465759925,inf,,,0.8960713994179306
386,0.0,0.0,0.0,1.0025955332802403,0.9343925413914154,0.83520534225636,2.565703731036357,2.3334451737369175,,,0.5604843169999094,5.703782474656201,inf,,0.8484041845062908
387,,0.0,0.0,1.5562638362773256,1.5243799284690687,0.9350166191902158,2.4498620486114007,1.6219807481371986,,,0.6207552362147116,inf,,,0.8019370759155028
388,,0.0,0.0,1.622836948856669,1.552447423947415,0.9575944777660194,2.539784372217984,2.750044082642252,,,0.6038851895711802,inf,,,0.8479054856696496
389,,0.0,0.0,1.6346788167162758,1.6219036012410457,0.9653789379570872,2.6955518051795497,2.0672291744517177,,,0.5947193981915972,inf,,,0.8825251651629604
390,,0.0,0.0,1.6925857586942217,1.6675139371250687,0.969752742663295,2.8318847684100446,3.0554265171697423,,,0.6068309995095971,inf,,,0.8510203955348307
391,,0.0,0.0,0.823638049144636,0.7888220783445713,0.707134691007415,2.372715943314318,2.3532707795880046,,,0.6468212168108125,inf,,,0.8003186124433517
392,,0.0,0.0,1.6524781076634012,1.6121878827019211,0.9620499361066207,2.4445565700652647,2.815267950413904,,,0.6233814453054027,inf,,,0.8504789174962342
393,,0.0,0.0,1.63237473523039,1.5251480239628765,0.9468266991980462,2.6207293941766276,2.083618992202278,,,0.6180765742263259,inf,,,0.8677757674637697
394,,0.0,0.0,1.4533982412951447,1.419249560254976,0.9326427454563381,2.8268636317608045,3.9522132527662377,,,0.6357360191111145,inf,,,0.8341504633521828
395,,0.0,0.0,1.3218077187657418,1.2864784102576063,0.8257692380489448,2.4932122953782705,4.4705423695464885,,,0.6207552362147116,inf,,,0.8165539734189997
396,,0.0,0.0,1.493305010097803,1.4605330652039248,0.8987217694467707,2.4013331486580296,3.9794380737488773,,,0.5947193981915972,inf,,,0.8020742319275362
397,,0.0,0.0,1.3646635759014631,1.3337185897908745,0.9012571283914299,2.2728061120280563,2.5618097168244116,,,0.6125606311107803,inf,,,0.7934941776974536
398,,0.0,0.0,1.510381671880398,1.474442650966225,0.9511920494585641,2.3402035316893297,2.321858552009496,,,0.6097226960127671,inf,,,0.8362045473655244
399,,0.0,0.0,1.5160282114828592,1.5083416125318097,0.8791404208008999,2.4660990713058837,2.7160262140527034,,,0.6125606311107803,inf,,,0.8107739275812726
400,,0.0,0.0,1.3987897763185222,1.360096835113867,0.8944968839648582,2.383887193944329,2.8161384201573565,,,0.6602640781246099,inf,,,0.8032495519459498
401,,0.0,0.0,1.5165527699361614,1.4867261812378212,0.9447691773054945,2.441894087481107,2.418073647424122,,,0.5883313578629602,inf,,,0.8503158858854978
402,,0.0,0.0,0.8020591190264722,0.770145207014702,0.6487252104618714,2.049785546429688,1.7157483576571462,,,0.5947193981915972,inf,,,0.8909290656607934
403,,0.0,0.0,1.5160736482278399,1.4295843688886454,0.9521532184998263,2.1170731827524842,1.993254553760384,,,0.5677978065141052,inf,,,0.8830244548250287
404,,0.0,0.0,1.650722116632652,1.6210434572106218,0.9368165445935782,2.390823992977874,2.691699764020261,,,0.6284777104787076,inf,,,0.8864075460251754
405,,0.0,0.0,1.5633785440224621,1.5128414931029093,0.9257985892195647,1.875291534977545,1.5337989791144522,,,0.5947193981915972,inf,,,0.8271316064613692
406,,0.0,0.0,0.9890719756043435,0.9586672314560519,0.7342560938382481,1.6719280029313641,1.9210380502587951,,,0.648888643467878,inf,,,0.8474269421090918
407,0.0,0.0,0.0,0.7957727143134594,0.7644643596795295,0.6893722057331116,1.770487163343888,1.7427604903045413,,,0.5567373465730988,5.0106352940962555,inf,,0.6049010424924607
408,,0.0,0.0,0.9089781715799786,0.8766906195775616,0.8178471562636266,2.9008040794079526,4.536891237453622,,,0.6207552362147116,inf,,,0.8726962439762109
409,0.3531666702146178,-0.009417777872389808,0.0,1.493958016446463,1.285809427013087,0.8992067878835531,2.6718277132225308,3.0699370596845506,,,0.5748741956352443,3.825845309187094,inf,,0.8701120938244169
410,,0.0,0.0,1.230883113037948,1.2149023406685058,0.8108593423922358,2.5471767479472605,3.032526612136975,,,0.6008849035917525,inf,,,0.75980601523711
411,,0.0,0.0,1.4249075963836626,1.4199581231812706,0.8185393644633937,2.5606797856328196,2.7575605796977025,,,0.6233814453054027,inf,,,0.8189858835603137
412,,0.0,0.0,0.7792249054842719,0.7508738173132413,0.8420450224969711,2.5794816364764848,2.999998492502711,,,0.6284777104787076,inf,,,0.584042370160125
413,,0.0,0.0,1.464814601876376,1.4259818461006122,0.874106358809157,2.481147627863424,2.422669547874855,,,0.6097226960127671,inf,,,0.8231192594608753
414,,0.0,0.0,1.2531753952213893,1.2017750770492108,0.8489525538944969,2.275565125213827,3.0031657810224104,,,0.6425374456860184,inf,,,0.8385764561766705
415,0.0,0.0,0.0,1.1752096930369715,1.118276049774515,0.796832225606011,2.913597207982874,2.941270629426847,,,0.6380535849069913,5.703782474656201,inf,,0.8932654729373951
416,,0.0,0.0,1.2271493620065332,1.1921707144355689,0.8181513233621497,1.9242115986855481,2.1342858697951788,,,0.6333676938231112,inf,,,0.8233087684733815
417,,0.0,0.0,1.1367908766928334,1.1154287428891778,0.8214451039194721,2.0705705084313646,1.8132276754248733,,,0.5915533975974677,inf,,,0.7975631301206207
418,0.0,0.0,0.0,0.9632232446059644,0.90093030387155,0.7806400178371775,2.8439065085887796,3.0057409911265833,,,0.6584896970785714,5.0106352940962555,inf,,0.8408206077597227
419,,0.0,0.0,1.570118843095586,1.5012036911752071,0.948066139873632,2.1759725722276784,2.4261830517921017,,,0.6207552362147116,inf,,,0.7949549561598569
420,,0.0,0.0,1.444787748813112,1.4264911522436372,0.8999474964006061,2.09915652989215,2.2079901841523015,,,0.5978297680564633,inf,,,0.8064224945427657
421,0.17659171272555996,-0.0063612606195194024,-0.00011376884708446235,1.409825747783342,1.386267563972825,0.8707846867904907,3.4118213423984924,3.5541066536966075,,,0.6528756675646988,3.431656589146864,2.309481672053106,inf,0.7505644165734547
422,0.567784228630546,-0.013248298668046074,0.0,1.2255182860506655,1.1442576114964325,0.7907853776071004,3.842017419847126,10.93325446582802,,,0.6447042257417027,4.024818499573491,inf,,0.9172738360623999
423,0.31235879460067334,-0.004164783928008978,0.0,1.0408246299257,0.9900552236641827,0.6972566284498013,3.4766109024410157,18.618959492560585,,,0.6468212168108125,4.513908594709767,inf,,0.7089033739533488
424,0.5849063660317286,-0.013647815207407002,0.0,0.8371818576583044,0.7923159328060949,0.7539687537141507,3.271197027689431,3.904951495576043,,,0.6125606311107803,3.909249078545421,inf,,0.8281583992646303
425,0.22337423496832276,-0.00297832313291097,0.0,1.1006047660678633,1.115550509635374,0.8044369064631762,3.947325638629647,13.833431150055072,,,0.5783247308855777,4.482952553263842,inf,,0.8029489684596504
426,0.0,0.0,0.0,0.7799959913048731,0.7279802035006409,0.5479378563444798,3.8743594074485705,3.5964567992111367,,,0.6684167106117298,3.912023005428146,inf,,0.864897571482615
427,0.021780397011200627,-0.0008712158804480251,0.0,1.2066344093757904,1.198342429302137,0.8352237047317175,4.6853615871015775,13.322117183595484,,,0.6602640781246099,3.238228553384016,inf,,0.7339196872308336
428,0.0,0.0,0.0,1.2020524921016433,1.1598193711213862,0.7515721285144716,3.499297273723072,2.128796934547485,,,0.6584896970785714,3.757872325600888,inf,,0.7316220335810311
429,0.21116252730105137,-0.00774262600103855,0.0,1.3132263712231607,1.2626025570871895,0.8268534748991588,4.491279386630129,27.74069926709811,,,0.6468212168108125,3.4210600107584073,inf,,0.8084736730740676
430,0.17808922120970602,-0.00712356884838824,0.0,1.2972730629051652,1.2008340431725295,0.8079040421176593,4.579680756548098,21.83021439558282,2.403906462271964,,0.648888643467878,3.2965371111187225,2.4105842648029934,inf,0.6862373014806387
431,0.05912943707837032,-0.004533256842675058,0.0,1.4195621611817002,1.3823473538332631,0.8704003955826427,4.546588856937591,15.062404574863049,3.099302687936153,,0.6403206450210053,2.6011408854545333,3.105980490467182,inf,0.8506109936185919
432,0.16738535844672792,-0.011159023896448529,0.0,1.3621542688628545,1.3380468902192864,0.8221466879458694,4.593920773661794,18.43725780047648,,,0.6333676938231112,2.7910695568223023,inf,,0.870798316458833
433,0.05443857514620691,-0.0025404668401563225,0.0,1.4140102573657598,1.4368063246439131,0.8768738147336076,4.2732121326372114,7.839240202617851,,,0.6841113288387766,3.1035649783572063,inf,,0.7946855418249754
434,0.03903464931839585,-0.0020818479636477787,0.0,0.8967409938142656,0.8630843327516566,0.6335621714089755,4.104496424501549,2.2134697260383067,,,0.6447042257417027,2.96423360649462,inf,,0.8580574192147069
435,0.0002086813290946624,-1.1129670885048663e-05,0.0,1.166726763718987,1.143059226398971,0.7136236604406792,4.421948461731201,13.632651401830955,,,0.676637947632344,2.9314021074541565,inf,,0.8495121424188279
436,0.12520239637756245,-0.005008095855102498,0.0,1.2124802171281794,1.1986056717822855,0.7567560077665345,4.710560437153026,13.360130921782012,,,0.6425374456860184,3.286084574561651,inf,,0.6921890719889775
437,0.06935622536960893,-0.0034678112684804465,0.0,1.1229693747982892,1.0672607216572745,0.7792623754643966,4.203455817341114,41.43353436595034,,,0.6425374456860184,3.039800271388094,inf,,0.8544255937608536
438,0.03000671901132905,-0.0009002015703398716,0.0,1.2553853196103377,1.1799981412648053,0.7981851734101408,4.516037392910415,62.85664088211771,,,0.648888643467878,3.533206124582521,inf,,0.8406801490015903
439,0.4234394661970019,-0.018349043535203415,0.0,1.1831566339536388,1.1283727730783666,0.8588637586461138,4.376081560922179,4.049248571659089,,,0.6699045166045591,3.3587766657782034,inf,,0.5221643719669615
440,0.5874515072655667,-0.013707201836196555,0.0,1.2674237436300464,1.2432781945611835,0.8373059865584209,3.1503013803084294,2.741417346452061,,,0.6207552362147116,4.168349975532596,inf,,0.8871262405384129
441,0.10233351711495534,-0.008527793092912945,0.0,1.1170447505320675,1.1184900386988637,0.7715920199104443,4.3224288116833405,4.060656085788321,,,0.6740851607140061,2.5439491904217837,inf,,0.6572415142867352
442,0.016330068060033964,-0.00032660136120067927,0.0,1.1571359388491729,1.1025360092863805,0.7406966729055828,3.4381212391517053,2.36967766645548,,,0.6333676938231112,3.927700818147376,inf,,0.777755304932911
443,0.5229694107268089,-0.0470672469654128,0.0,1.3305920286228345,1.2879068915746825,0.8817021105178339,3.910092934448266,8.875643611636624,3.088157994272856,,0.6547956803312163,2.612285579117831,3.094835796803885,inf,0.7666932784161935
444,,0.0,0.0,0.8980324088247686,0.8719926931397558,0.7660933017929032,3.086217326803162,4.683713842867096,,,0.6333676938231112,inf,,,0.650190108571734
445,0.0,0.0,0.0,1.0076000343631184,1.001468654668175,0.6701854372222805,3.2103687583701306,3.4665806881570522,,,0.62595550513784,5.0106352940962555,inf,,0.9368145448996986
446,0.0,0.0,0.0,0.9639470869985783,0.955520251077034,0.7235663108666093,3.8582300824646025,10.186911504557095,,,0.62595550513784,5.0106352940962555,inf,,0.9112558492675565
447,,0.0,0.0,0.717305792965248,0.6800518902818429,0.713994942984815,2.8590707170678265,4.386575066354567,,,0.6233814453054027,inf,,,0.681131450168694
448,0.0,0.0,0.0,0.8101407905599333,0.8007928568394315,0.6449911062546553,3.511224937764982,3.6657633384805326,,,0.5947193981915972,4.31748811353631,inf,,0.8127419063977246
449,0.5296957877574142,-0.003531305251716095,0.0,1.049281975576734,1.0139005658637832,0.7581109283163964,3.413356726642925,9.009882579260518,,,0.6425374456860184,5.406150071351252,inf,,0.8610298804201872
450,0.20029085756938964,-0.006676361918979654,0.0,1.1457439928270479,1.1619340084896248,0.7624876390756029,4.046669146940264,5.875853015681518,,,0.62595550513784,3.5485379695608645,inf,,0.7814205262284702
451,0.0,0.0,0.0,0.5112472664613799,0.41912538134398053,0.5404352731511843,2.1949698134122753,2.4459525717814845,,,0.6309483474627791,5.703782474656201,inf,,0.7671704968910257
452,0.30869290186448023,-0.011318739735030942,0.0,1.0458971152011889,1.0083132361369678,0.7428644950464892,3.0485718342390697,1.9033783446446875,,,0.6468212168108125,3.5252500303321344,inf,,0.7370058668099122
453,0.0,0.0,0.0,1.0346661033705216,0.9192841014562363,0.5654235583559775,1.8458578586694685,1.4822910788829697,,,0.6357360191111145,5.0106352940962555,inf,,0.7124298083447916
454,0.0,0.0,0.0,1.0387206032929461,1.0117443776068757,0.7152093222230903,3.323813487517946,5.179744186669275,2.7047112998366956,,0.6668815377411301,2.995732273553991,2.7113891023677246,inf,0.8079000806440066
455,0.3785319331574439,-0.005047092442099252,0.0,0.6094249760902907,0.5081019742141464,0.604698350610665,2.7127874040368227,4.178433761831423,,,0.6699045166045591,4.534401115099884,inf,,0.7762885079263843
456,0.024690545395813383,-0.0007407163618744015,0.0,1.330631226894638,1.3114303640092935,0.847716414929598,3.9326689232744454,8.154536602696297,,,0.6309483474627791,3.5305470536900043,inf,,0.8034289346313797
457,0.0,0.0,0.0,1.0235530507485286,0.9534309237189411,0.7372493527501461,3.746065046473216,2.0996782053113425,,,0.6284777104787076,5.0106352940962555,inf,,0.905576976626261
458,0.0008347253163786497,-1.1129670885048663e-05,0.0,1.2461535173147325,1.232490155928737,0.8517903540146327,3.0513755567591576,9.249760545870766,,,0.62595550513784,4.318321794284888,inf,,0.8562363998471305
459,0.0,0.0,0.0,1.1844987605007666,1.14407497884946,0.8646748540028041,2.512009617855039,2.709546138748416,,,0.6008849035917525,4.605170185988091,inf,,0.9240031326177361
460,0.0,0.0,0.0,1.0143761752455949,0.996700586625159,0.7257280401697723,3.0641459768667394,2.3036666066137186,,,0.6233814453054027,3.912023005428146,inf,,0.9164809952833376
461,0.0,0.0,0.0,0.9368466512428443,0.7693279775339386,0.6859632850492996,3.1198325471179102,2.3127303599512476,,,0.684994737851132,3.4011973816621555,inf,,0.8429969535496546
462,0.0,0.0,0.0,0.7332681952257393,0.7099016808279527,0.6290569674510913,2.16803080125936,1.746125747115062,,,0.6233814453054027,4.31748811353631,inf,,0.9494830988927131
463,0.0,0.0,0.0,1.1737751600803725,1.1272843151101022,0.7185345030234074,2.1046197576225416,1.4395646337130752,,,0.6468212168108125,5.0106352940962555,inf,,0.9511589231475299
464,0.13543797089510426,-0.00045145990298368086,0.0,0.7388367173081878,0.7292812616300848,0.3903269126746437,1.9609205184224117,2.088141067809471,,,0.6727386042041725,5.839220445551305,inf,,0.7716216689569351
465,0.33563681080899904,-0.01006910432426997,0.0,0.9769061822064213,0.9498157025406196,0.6810594915685637,2.699259505360891,2.739030947654933,,,0.6447042257417027,3.7569203978755055,inf,,0.7766413935872327
466,0.21986918968785968,-0.000624538094518963,-0.0023070511013191662,1.1207738900611126,0.9955185070116324,0.7782163046640462,4.084414728061831,1.620990012125934,1.896130670172065,,0.6038851895711802,4.500810170663849,1.8961194845522977,inf,0.9286275171079517
467,0.7270487322356266,-0.0024234957741187555,0.0,0.8313445366607916,0.7725490427848082,0.767971521678517,3.4876317257106186,2.4901044508720678,,,0.648888643467878,6.430831206891828,inf,,0.9265108634628582
468,0.0,0.0,0.0,0.9491357803761092,0.9060782900371295,0.669508472751318,2.596591615779929,3.7074103417760536,,,0.6584896970785714,4.31748811353631,inf,,0.7537887897994022
469,0.30897987825930584,-0.005149664637655097,0.0,0.7256630363808215,0.6833344348307024,0.6657227313107635,3.108085752083273,2.596925742030512,,,0.6207552362147116,4.2655283746056,inf,,0.5487150560027196
470,0.0,0.0,0.0,0.978616905113142,0.9556774609909257,0.718221967130547,2.884950730103406,3.102932184618983,,,0.6727386042041725,3.4011973816621555,inf,,0.7917615284996984
471,,0.0,0.0,0.6235511206127412,0.595816943413874,0.6110824978660059,2.8601050664287393,2.375696030623308,,,0.6528756675646988,inf,,,0.7762587629022419
472,0.0,0.0,0.0,1.1721599968518819,1.1393699372126926,0.7722888954281173,2.906745828253336,1.7478676735577845,,,0.62595550513784,4.605170185988091,inf,,0.7481778334994723
473,0.0,0.0,0.0,0.5388066347970618,0.4649573063372862,0.5912581526233277,3.1023676710458776,6.0181472540473795,,,0.6153451465759925,5.703782474656201,inf,,0.8183269446116624
474,,0.0,0.0,0.7014312491321346,0.6191568516473829,0.48977631868104177,2.282952901430722,3.344957072471362,,,0.6207552362147116,inf,,,0.8798695720443098
475,0.0,0.0,0.0,0.6682924401488594,0.6267355142370545,0.6273810376949048,1.7734307191889953,1.71793469723971,,,0.6357360191111145,4.31748811353631,inf,,0.77564714921181
476,0.16851226117692206,-0.006178782909820475,0.0,0.5635949290021018,0.543120268187213,0.5474101197342146,2.292762216315609,2.27713629098035,,,0.6233814453054027,3.385652170326693,inf,,0.5245817505397492
477,0.03566590710488343,-0.0005944317850813905,0.0,0.8870875872148367,0.8103386373714344,0.7309289788510456,3.1337105641732887,2.494042758708596,1.5728868769624722,,0.6425374456860184,4.127556696428214,1.5795646794935014,inf,0.6004679260065765
478,0.6799019538099246,-0.0022663398460330817,0.0,0.8112984791785276,0.7642696000092406,0.5947323201029899,3.087384208733928,3.5796573085924543,,,0.648888643467878,6.383684428466125,inf,,0.79624600822734
479,1.9476815139965697,-0.019476815139965697,0.0,0.9621958764414458,0.8859967393227982,0.6964363509137969,2.0560625260047614,1.2284052329803918,,,0.6584896970785714,5.584519053829383,inf,,0.7234235609683203
480,0.0,0.0,0.0,0.8167328894130713,0.7236679322456296,0.7361484629846781,3.4584707394699556,2.55140889689996,,,0.6008849035917525,4.31748811353631,inf,,0.6759209470248912
481,0.0,0.0,0.0,1.0043507381076444,0.9480476457704895,0.6566747269361601,2.7508043590712505,2.3530142169693824,,,0.6619902821573977,3.624340932976365,inf,,0.8000582432583324
482,,0.0,0.0,1.1111208783493556,1.0966152521128556,0.798665569826857,3.0477162138741805,4.228829108705783,,,0.6584896970785714,inf,,,0.9251509197727438
483,0.014695441295666337,-0.0004898480431888779,0.0,1.2345069126548545,1.181511946536032,0.7950107619590295,4.056895765822789,16.394597612209154,,,0.6097226960127671,3.4149582969121925,inf,,0.805889713561554
484,0.017039298592868075,-0.0005679766197622693,0.0,1.1212077520061405,1.0445675838882966,0.7779286027299748,3.721674184934885,4.714347143149203,,,0.6468212168108125,3.4169880675684796,inf,,0.8454681209766401
485,0.011300517225227113,-0.00011300517225227113,0.0,1.1776416475511229,1.130797415312202,0.767430179580756,3.190564259531075,3.726022282889892,,,0.6233814453054027,4.616343486586216,inf,,0.8914165958220174
486,0.0,0.0,0.0,1.2536013624368583,1.1062437873053688,0.8432212464840495,3.984748324400851,4.513475436994821,,,0.6357360191111145,3.624340932976365,inf,,0.8096130833694237
487,0.0,0.0,0.0,0.9063291364001094,0.8755754105241895,0.7011236888614139,3.31836215583247,3.3722057133415206,,,0.6180765742263259,4.605170185988091,inf,,0.5592407004670813
488,0.0,0.0,0.0,0.9908989217206866,0.9829414759323365,0.855424740657608,2.963677462016817,4.162030146309068,,,0.6380535849069913,4.605170185988091,inf,,0.7226691382840669
489,0.26998954714513484,-0.0053997909429026976,0.0,1.226489064961103,1.0969038160772349,0.8274013368599309,3.662798255653394,3.403496847930071,,,0.6207552362147116,4.08307496996387,inf,,0.852133400808186
490,0.29750213581089197,-0.012891759218471984,0.0,0.9128858116889933,0.873810443022008,0.739735158136252,3.5480083198444032,4.583814957709959,,,0.6333676938231112,3.286678928219563,inf,,0.6399947854568082
491,0.0038074009355885717,-0.00010153069161569524,0.0,0.9442615321591126,0.8135495716826143,0.5997825970768911,0.7507841007116759,0.05083972054309027,,,0.62595550513784,3.6280979818540775,inf,,0.7390922112625655
492,,0.0,0.0,1.440603396522841,1.4339749338058267,0.8003597071692465,0.015073032202551486,0.02100140333830898,,,0.6566669596287297,inf,,,0.9305599874619501
493,,0.0,0.0,1.4003624017228669,1.3900974068206315,0.7978145834791699,0.023228515378860982,0.028233553027438477,,,0.6468212168108125,inf,,,0.9211600791144426
494,0.0036046048749228204,-0.00018023024374614103,0.0,1.3905736249297984,1.3857278283992003,0.8863161555232767,4.720046744570871,54.552594652831175,,,0.6566669596287297,2.9992941651203515,inf,,0.8309686225780212
495,0.0,0.0,0.0,1.376599226295358,1.3352672318432919,0.8747646489241515,3.212760245895722,2.972793995869721,,,0.6468212168108125,3.138833117194664,inf,,0.7727406498383214
496,0.09431067947124129,-0.0003143689315708043,0.0,0.810369036613934,0.7715724249253629,0.6110118872712719,3.4216459345643515,2.4159772708198846,,,0.6125606311107803,5.798093154127442,inf,,0.6908796666025159
497,,0.0,0.0,0.8704844095452127,0.8363465862580327,0.7529774555825259,2.7332627766565163,2.2840002721258927,,,0.6713451011121618,inf,,,0.70342744856155
498,0.0,0.0,0.0,0.8068857725986287,0.7328899813247506,0.5400063189369717,3.0039594605224185,2.873709211524362,,,0.6547956803312163,4.605170185988091,inf,,0.6097412650106699
499,0.2576012203706869,-0.00944537808025852,0.0,0.9892984158141763,0.9587256097527325,0.6913256218894469,3.335273508250235,6.587213710311321,,,0.5567373465730988,3.4292539794446806,inf,,0.8831817647203376
500,0.1201974801663263,-0.004006582672210876,0.0,1.3534614740366884,1.2783762130193181,0.8670442098139572,4.184542683572041,10.47577723886941,,,0.6153451465759925,3.4958744286040635,inf,,0.7013309321981785
501,0.0,0.0,0.0,1.2049064930850766,1.1632854129414134,0.7858033107159301,3.824810327293888,4.513068941936229,2.0761026404143212,,0.6425374456860184,3.624340932976365,2.0827804429453507,inf,0.6773602145676194
502,0.012783337150988488,2.9507723792752743e-06,-0.0004290620107455582,1.1119840378700188,1.0921407261836573,0.7690049020771839,4.080405856035284,3.079299773295321,,,0.6684167106117298,3.4132699628964245,2.422140954238213,inf,0.6300106844993699
503,0.0,0.0,0.0,1.166784696316618,1.1270971928077442,0.7146894025272282,3.5494442754123865,5.523626435512858,,,0.6528756675646988,3.757872325600888,1.949249050320828,inf,0.8970276078140275
504,,0.0,0.0,0.9330862611822168,0.8999699414939799,0.7206865330869543,2.536715806085883,2.363815188136578,,,0.6468212168108125,inf,,,0.9292865461277404
505,0.5075159751213648,-0.013533759336569728,0.0,1.0844353721014612,1.0520228907013887,0.739300895716769,3.156294409173832,1.7402897346002217,1.7744343259878004,,0.6566669596287297,3.926009247402886,1.7811121285188298,inf,0.7498879507679829
506,0.3666212845923897,-0.003800476948539052,-0.0035319487433087414,0.8974459493188108,0.8622181076732048,0.5337993968129473,2.501010687742441,2.242876997593207,2.7157611360232803,,0.6528756675646988,4.163337433709052,2.5998366164619773,inf,0.5763770702873975
507,0.0,0.0,0.0,0.8992325860441204,0.7484387991197041,0.6436330571464925,3.106668343179395,2.7379249249662903,,,0.648888643467878,5.703782474656201,inf,,0.7674966029581077
508,0.342490308946776,-0.0011416343631559201,0.0,0.7977143690074602,0.7786588675331796,0.6537558229223724,2.0553907012933363,1.6894971069297586,,,0.6425374456860184,6.046272783602977,inf,,0.9103448769267142
509,0.44793986730701374,-0.005972531564093516,0.0,0.8021143787182937,0.769538614853906,0.6001145187102008,2.9501713925370376,2.1799764644777966,,,0.6509067234006624,4.551102964717815,inf,,0.9031867686368158
510,,0.0,0.0,0.9530152790688602,0.9370108816780298,0.6288882320502325,2.619688081965644,1.912488881307799,,,0.6619902821573977,inf,,,0.8682907727290944
511,,0.0,0.0,1.0840331191070014,0.9913776146640646,0.7119094246887381,2.71473829888324,3.210449172853351,,,0.6038851895711802,inf,,,0.899173650256113
512,,0.0,0.0,0.5078299102772684,0.4630555683732378,0.6568873832954402,3.1054116533860934,5.6492380523466315,,,0.6008849035917525,inf,,,0.9139576614158055
513,0.0,0.0,0.0,0.83481358993396,0.823530482448136,0.6132479216965716,3.2091848575329065,7.448988083230326,,,0.6153451465759925,5.703782474656201,inf,,0.7047572221284072
514,,0.0,0.0,0.8864818972147573,0.8649057025598281,0.6839298468088096,3.201884427928531,4.8153573137991685,,,0.6447042257417027,inf,,,0.8538570094236426
515,2.0661963149298153,-0.006887321049766051,0.0,0.5662825342281799,0.4104887212941453,0.6025721396346279,3.103386960065528,8.245871557288044,,,0.6180765742263259,7.769978789586016,inf,,0.6210720057057237
516,,0.0,0.0,1.3564970913658914,1.1064013235992987,0.8021966140926776,3.9668586760887536,26.967874090109955,,,0.6008849035917525,inf,,,0.840814837216514
517,0.015468850929521882,-0.00020625134572695844,0.0,1.2311822412513242,1.2186071454811431,0.7374427433919123,4.011354014640903,84.0120140243632,,,0.6068309995095971,4.332601751346359,inf,,0.7603171556066763
518,0.24931847235164675,-0.0024931847235164675,0.0,1.0908652727453978,1.0391527478710831,0.802032287625789,3.684806482988385,56.07500653239464,,,0.6468212168108125,4.7982157061450215,inf,,0.8644227866402974
519,0.15767011966073635,-0.00998577424517997,0.0,1.1902446308178838,1.1668160295598837,0.7876191855831363,4.506556866096305,26.223842869643683,,,0.6468212168108125,2.8106367898773112,inf,,0.5692741582849419
520,0.8405074181197028,-0.03922367951225279,0.0,1.1632873446202305,1.1225160797852498,0.823938308447606,3.751966287580054,6.307853605082309,,,0.6403206450210053,3.500649460633815,inf,,0.5090436736746857
521,0.0,0.0,0.0,1.1426552381956707,1.1280576151913018,0.8253240538481755,3.213557283524926,5.3047762746498375,,,0.6038851895711802,4.0943445622221,inf,,0.7956054592161679
522,0.843970070294529,-0.00281323356764843,0.0,1.2299245833247956,1.1851473174085794,0.8519701198039948,2.995241111153419,4.794824706412228,,,0.663668482632973,6.54775254495073,inf,,0.8019115863322546
523,,0.0,0.0,1.381886714555826,1.3674315181684626,0.8747330239664383,3.386915801172077,6.928085738887958,,,0.6233814453054027,inf,,,0.8794496304878415
524,0.0,0.0,0.0,0.9088966160486183,0.8709776440603333,0.7132392306874968,3.5058416913415074,3.0345378710741233,,,0.581717464821069,3.912023005428146,inf,,0.750167879588984
525,1.168852632439994,-0.011688526324399939,0.0,0.6583773451769364,0.5984815893216111,0.7051469824498678,2.7210335088118875,2.0942245271769626,,,0.581717464821069,4.995746681602505,inf,,0.6616043389498047
526,,0.0,0.0,0.8966822332934179,0.8654008642166141,0.8302558235907778,3.5306552550009958,11.870653515185523,,,0.6357360191111145,inf,,,0.9213626175541897
527,0.0,0.0,0.0,0.9983421160649236,0.9805253574377729,0.8682447472061559,3.1113818982653685,3.4325719841005213,,,0.6619902821573977,5.703782474656201,inf,,0.7783845247408601
528,0.0,0.0,0.0,1.0012918585608994,0.972504152899605,0.8538328955187061,3.410413753591551,3.843981628675886,,,0.6068309995095971,5.703782474656201,inf,,0.8277484080365269
529,0.0,0.0,0.0,1.1265714564778833,1.0941056550864467,0.7158507195590612,3.3099585532521307,2.338281486436312,,,0.6207552362147116,3.912023005428146,inf,,0.8530606082617325
530,0.0,0.0,0.0,1.4296041836140194,1.381281077739141,0.7761233018841719,4.173081672805321,42.96918668057837,,,0.6284777104787076,5.703782474656201,inf,,0.9338695812091257
531,0.6114214841586797,-0.008152286455449062,0.0,1.3999568360308643,1.3584386631377083,0.9058978870117524,4.056804292520429,87.2109597302903,,,0.648888643467878,4.576690714666222,inf,,0.9114051269539758
532,0.0,0.0,0.0,1.3571654641225206,1.2988834939913625,0.8008717468827985,3.7433774363947063,11.338712683639066,,,0.6699045166045591,5.703782474656201,inf,,0.9142199065646699
533,0.005025167926750725,-3.3501119511671504e-05,0.0,0.8536671490953951,0.763541856467076,0.5987237780893178,3.166887812018888,4.423128442799323,,,0.6207552362147116,5.0156478359198005,inf,,0.8947765664300729
534,,0.0,0.0,1.0468982714211361,0.991275083415731,0.7544134179635721,2.3255891699407063,2.8591344657585553,,,0.6233814453054027,inf,,,0.7789839920087503
535,,0.0,0.0,1.0022906913223701,0.97055263268602,0.7481594022273171,1.9625563309229752,1.6625667503083725,,,0.6207552362147116,inf,,,0.8550706021705824
536,,0.0,0.0,0.5988902498074129,0.5622142169496378,0.679124500443804,2.2757745353579857,1.6241439505233153,,,0.6403206450210053,inf,,,0.9420896662527867
537,,0.0,0.0,0.8730968128947281,0.8302996322272339,0.646120753286847,2.2544293478381623,2.3429291098768115,,,0.6528756675646988,inf,,,0.7470281870332104
538,,0.0,0.0,1.0387629627958723,0.9918173051732497,0.8058015036504557,2.8844663128874095,4.655212030244027,,,0.6233814453054027,inf,,,0.9267879083444027
539,,0.0,0.0,1.0862033992371196,1.0506920924235539,0.7573206242520818,2.0840739891134827,2.379773083707335,,,0.5978297680564633,inf,,,0.8397760157067264
540,,0.0,0.0,1.3300639016784297,1.3009654903779295,0.9304028907495286,2.4331309792711657,3.422179039035068,,,0.6008849035917525,inf,,,0.8505271377604987
541,0.0,0.0,0.0,0.9782700380332793,0.8934005867391983,0.5987158840824239,2.681829693465885,2.524105504249084,,,0.6380535849069913,4.31748811353631,inf,,0.640990298648322
542,0.22575452330478554,-0.001505030155365237,0.0,0.5952974453694478,0.48322518048418184,0.6543746945836064,2.272292437161482,2.8149070300218684,,,0.5947193981915972,5.2111208215178815,inf,,0.8221613361971054
543,,0.0,0.0,1.212924949588415,1.1940417429982602,0.9210736358899475,2.5239155401724704,2.4017627967629305,,,0.62595550513784,inf,,,0.8634658897244737
544,0.5178698137014619,-0.008631163561691031,0.0,0.9385652390497152,0.9467532054968932,0.7062082395969227,3.728722379886567,3.157044547632015,,,0.6180765742263259,4.42470219784346,inf,,0.9188288716096091
545,0.012200386936664502,-0.0005286834339221284,0.0,1.0073507045124137,0.9861516182693355,0.7478430516338155,2.3788035963653935,1.4606222996504936,,,0.6333676938231112,3.150179293581966,inf,,0.8074897683758872
546,0.40813021822691914,-0.00952303842529478,0.0,0.7057633803016582,0.6198936383697895,0.6395897000241805,3.6471883841904758,4.390005146000197,,,0.6509067234006624,4.069326799246813,inf,,0.6739264481644136
547,0.0011129670885048663,-1.1129670885048663e-05,0.0,1.1656263940880982,1.1389023948625505,0.7850258379850201,3.595576873419447,2.3129944863683494,,,0.6333676938231112,4.606281914840782,inf,,0.940579337219684
548,,0.0,0.0,1.5898034214796215,1.5800850953600651,0.8408844709596386,3.4772410075668754,1.6175136225974902,,,0.6509067234006624,inf,,,0.9021710213750539
549,1.3670111834576322,-0.013670111834576322,0.0,1.40151860359914,1.365775868896861,0.871642612084214,3.485068350595575,5.27534052001063,,,0.6125606311107803,5.005647752585217,inf,,0.8626230066850975
550,0.6357234402464609,-0.006357234402464609,0.0,0.9144608710690973,0.8609808126968889,0.6756040889896181,2.227497576030981,2.9596251801259683,,,0.6153451465759925,5.155661066146513,inf,,0.860216322931506
551,,0.0,0.0,1.0384425103112274,0.9955367926167714,0.7336329198485859,2.640218775773223,1.959941432967324,,,0.6333676938231112,inf,,,0.8755030351628595
552,,0.0,0.0,1.367091695707988,1.354798041915413,0.765466312976131,2.4931017170079226,3.008668115255959,,,0.62595550513784,inf,,,0.9160512108780049
553,0.0,0.0,0.0,1.2466501741331424,1.1828508863606129,0.7974684142520658,3.255011958452162,2.648572351724532,,,0.62595550513784,5.0106352940962555,inf,,0.934430857745759
554,2.70805020110221,-0.009026834003674034,0.0,1.0961862038068078,1.053034534983045,0.7666291225252465,3.114443334233728,2.6072940860686815,,,0.6153451465759925,8.411832675758411,inf,,0.9153827060497118
555,0.04961273468095958,-0.000661503129079461,0.0,1.2449169519624292,1.2108585991564458,0.8176828347436179,2.94018682988573,1.9180575064527168,,,0.6038851895711802,4.363532052037717,inf,,0.7446553686971014
556,,0.0,0.0,0.8262309539269346,0.8061504657114098,0.6512200438483153,3.4931106683100586,6.6871272615073565,,,0.6038851895711802,inf,,,0.9058442522014587
557,0.0,0.0,0.0,0.8132186041674947,0.7927807079546121,0.5926507259823443,2.319578201695484,1.6811071716646948,,,0.6233814453054027,5.0106352940962555,inf,,0.7588685801462448
558,0.0,0.0,0.0,0.37380229785751296,0.3318428537525395,0.4829287663993184,1.8697122747866066,1.941877729190396,,,0.6125606311107803,5.703782474656201,inf,,0.9118244474899491
559,,0.0,0.0,0.7411401721852967,0.6960465100287012,0.799752764689364,2.028612202068299,2.187709468037328,,,0.6180765742263259,inf,,,0.8396408155341701
560,,0.0,0.0,1.459256893401513,1.4312351925746931,0.87473433714316,2.665719333814452,2.74727442965567,,,0.6233814453054027,inf,,,0.8183884522950126
561,,0.0,0.0,1.6318519105789981,1.6040581216500032,0.9515752414753987,2.4807995604506132,2.584703941690559,,,0.5947193981915972,inf,,,0.7909021722802502
562,0.07537610601176743,-0.00175877580694124,0.0,1.5028204534393685,1.4342481176688497,0.9239674064650767,2.9238109728026447,2.56856110469746,,,0.5783247308855777,3.818229126141785,inf,,0.9051960778264724
563,,0.0,0.0,0.4054887846261116,0.3634853223970998,0.6231683143573232,2.398515547986226,2.356930482728973,,,0.5978297680564633,inf,,,0.8355283678551582
564,,0.0,0.0,1.478989987620128,1.452494572084382,0.8805681964385167,2.0959864698729676,2.4811556342569965,,,0.6233814453054027,inf,,,0.7628802748172628
565,,0.0,0.0,1.435150876456269,1.4344550632795792,0.8675129779377561,2.1171654206963697,2.9584848198783322,,,0.6357360191111145,inf,,,0.7514197078004418
566,,0.0,0.0,1.4187271338620402,1.4078918213637888,0.8623427804835903,2.2913673177251033,3.38448546545103,,,0.585052858160615,inf,,,0.775791529041696
567,,0.0,0.0,1.377176504354444,1.3754855820590646,0.8624785143581835,2.5365979774629013,3.141822255212231,,,0.6008849035917525,inf,,,0.7721661131100886
568,,0.0,0.0,1.391558544050777,1.3638213937413501,0.8378267088076214,2.429256547507914,3.147418117047707,,,0.6403206450210053,inf,,,0.7712005477617533
569,,0.0,0.0,1.4462743338309014,1.4158119515314092,0.8915940378519839,2.695070017856304,3.8898052484365824,,,0.5915533975974677,inf,,,0.7747610639036178
570,0.0,0.0,0.0,1.0289224903607657,1.00200149540223,0.7339606182042108,2.6183655520640583,3.3270199987116107,,,0.6008849035917525,5.703782474656201,inf,,0.8572678248069286
571,,0.0,0.0,1.3252727602270011,1.3078741551428756,0.8242476266774837,2.2856012623379187,4.1731254773589175,,,0.6566669596287297,inf,,,0.7720877880272576
572,,0.0,0.0,0.4738218329754899,0.4474276056271442,0.5315423161351,2.739383310889366,3.1458756536507666,,,0.6509067234006624,inf,,,0.7944232679270093
573,,0.0,0.0,1.470776558097651,1.4636749121230574,0.8935355127343177,2.171375060534464,2.2110412956583154,,,0.6125606311107803,inf,,,0.7313322961192413
574,,0.0,0.0,0.4910088889908819,0.48155607032646414,0.7697400800973475,2.7187908818761204,2.789714244488799,,,0.5978297680564633,inf,,,0.7792451818564949
575,0.0025125839633753626,-3.3501119511671504e-05,0.0,1.7147850995720457,1.6474801248814661,0.9621758666473965,3.240029974919883,2.7533379802582525,,,0.6509067234006624,4.319991243754429,inf,,0.8965234837492044
576,0.0,0.0,0.0,1.7734528776477978,1.743212846689539,0.9717877243225832,4.054335675335882,44.17778479093399,,,0.6068309995095971,5.0106352940962555,inf,,0.8966484306013678
577,0.2107911094317646,-0.006323733282952938,0.0,1.7733186988097123,1.7459017280815847,0.9840477147329001,4.3878178154971845,8.640887974857144,,,0.6125606311107803,3.60576454740343,inf,,0.8766818289701754
578,0.0,0.0,0.0,1.708231267190438,1.6976418637993143,0.9733810995405295,3.4607082682763908,2.7672722806241135,,,0.581717464821069,5.0106352940962555,inf,,0.8429037527463308
579,0.0,0.0,0.0,1.733402479274301,1.6473271608507984,0.9795786692632146,3.6864414480604224,7.256963783516299,,,0.6180765742263259,3.2188758248682006,inf,,0.8721446504812407
580,0.0,0.0,0.0,1.6741525047540653,1.6430082814765,0.9713465714518312,3.2015307999688747,4.189695250419758,,,0.5947193981915972,5.703782474656201,inf,,0.8164254195494218
581,0.0,0.0,0.0,1.5731510492303489,1.5622864522936495,0.9575493936479728,2.457962949556194,2.121789526798314,,,0.6207552362147116,5.703782474656201,inf,,0.8469148208994778
582,,0.0,0.0,1.5077474788745124,1.481765934992834,0.9352615527626292,2.7015870495593384,2.260808490384474,,,0.6333676938231112,inf,,,0.8474289182293533
583,,0.0,0.0,1.601541479589508,1.5970107343327629,0.9579939983944178,2.3347208490500893,3.081706800462274,,,0.6038851895711802,inf,,,0.8476412058584042
584,,0.0,0.0,1.4695927149762869,1.4309736177355274,0.8866928460689898,2.2220960677299866,3.0086662998622025,,,0.6357360191111145,inf,,,0.7430415709555667
585,,0.0,0.0,1.2030695605603883,1.169404038615763,0.7911084107321035,2.0130670494874767,2.6438994968860743,,,0.5713653840954815,inf,,,0.7737407890673713
586,0.0,0.0,0.0,0.5487463784595403,0.4586491255763041,0.5445611933889539,2.087527967301637,2.660509990982143,,,0.6357360191111145,5.703782474656201,inf,,0.843581658050381
587,0.5741138261199971,2.0834991649336387e-05,-0.009589398760315953,1.1095712128864594,1.0075094529316122,0.7070584761642787,3.219091676805371,2.2210590654188196,,,0.6357360191111145,4.303420856324875,4.270930748931311,inf,0.7382052499555207
588,,0.0,0.0,1.0235148976902386,0.976086685757939,0.6893285226482094,1.7354467518409546,2.106800171992378,,,0.6403206450210053,inf,,,0.7808973164201812
589,,0.0,0.0,1.433593444005284,1.4234238835478314,0.8785311629994494,2.0178511686287437,1.7380510202366932,,,0.6380535849069913,inf,,,0.7381083916106321
590,,0.0,0.0,1.3915704212576094,1.3689644293948606,0.8199249138793683,1.8042890896789165,2.4955083215802345,,,0.648888643467878,inf,,,0.7608615513531248
591,,0.0,0.0,1.2004911007306716,1.1918739082025298,0.7709999104257919,1.8814939677819311,2.140572349306731,,,0.6233814453054027,inf,,,0.72999821160526
592,,0.0,0.0,1.2416827355459146,1.2151056702944594,0.8337162511706863,1.793134920842139,2.3308202807802405,,,0.5947193981915972,inf,,,0.6663220531184454
593,,0.0,0.0,0.9203428943306802,0.8252781532182777,0.6467071852027679,2.0023572410043182,2.317506571547148,,,0.5677978065141052,inf,,,0.7876467975562281
594,0.40152753058535645,-0.005353700407804753,0.0,0.6672670720087026,0.6149742204653261,0.70500419084783,2.369728272655058,2.212579291713529,,,0.6684167106117298,4.631057956940219,inf,,0.6557905061772992
595,,0.0,0.0,0.9346355222044082,0.8616538793292422,0.7457618920563528,1.7375183386672322,2.256649798361927,,,0.6309483474627791,inf,,,0.7627823812694821
596,,0.0,0.0,1.1685346348999648,1.1583897330400428,0.7887984028609425,1.6331353317996036,1.9279181756932786,,,0.6125606311107803,inf,,,0.7415397456423094
597,,0.0,0.0,1.0590803936947983,1.0555964663056174,0.7488379386850452,1.5562338169947396,1.7388023344946024,,,0.6468212168108125,inf,,,0.708416082136673
598,,0.0,0.0,1.1436775621412425,1.1191608926173684,0.7704781962943337,1.9223781325660192,2.4394915752944795,,,0.6357360191111145,inf,,,0.7104846454278414
599,,0.0,0.0,1.402916723191272,1.3779027188337796,0.8676503222565084,1.886138357186946,2.4678551833297044,,,0.5947193981915972,inf,,,0.725489028674477
600,,0.0,0.0,1.243861051914577,1.2330684430550403,0.8397767090294674,1.9809087393901608,1.9699324348036662,,,0.5883313578629602,inf,,,0.7563061264334985
601,0.0,0.0,0.0,0.37929829800541004,0.31584393021305807,0.45089391905613674,1.934646838255664,2.1598969599187363,,,0.62595550513784,5.0106352940962555,inf,,0.7361407070285692
602,,0.0,0.0,0.6164370689405089,0.5871247406484077,0.587994513617483,1.6014354785944298,1.6603086090331418,,,0.6153451465759925,inf,,,0.7863351613289374
603,,0.0,0.0,0.8128393691264597,0.7877443763267122,0.5909829380349265,1.9392503717316454,2.7727833655297687,,,0.6380535849069913,inf,,,0.8333599516091823
604,,0.0,0.0,1.1381353144962254,1.1021126847954825,0.7987744877767968,1.7199601714302448,2.2256260045365392,,,0.6097226960127671,inf,,,0.7367135253283557
605,,0.0,0.0,1.1941166503048772,1.1718257594545156,0.8072593506693059,1.7022740005398813,2.167589032716681,,,0.6153451465759925,inf,,,0.7295513347754091
606,,0.0,0.0,0.6218082024829037,0.5831609880437824,0.4454881554231024,1.4067343476088932,1.469768430061532,,,0.6038851895711802,inf,,,0.8368172433917798
607,,0.0,0.0,1.1917122450694395,1.1510703286833888,0.7780916113810362,1.2783749611162034,1.9149037542393552,,,0.6097226960127671,inf,,,0.7784373977521312
608,,0.0,0.0,1.2377703359497447,1.2092732348111521,0.7514714491577691,1.1956832889383846,1.4399928208984376,,,0.6309483474627791,inf,,,0.7345234202558322
609,0.0,0.0,0.0,0.8155501755621747,0.7340214141174657,0.6799941233789414,1.9160973504440406,1.6571632070851998,,,0.62595550513784,5.0106352940962555,inf,,0.769214007584626
610,,0.0,0.0,0.767107764917866,0.7094599988174604,0.6400210165072449,1.6079075792649555,1.555122917726623,,,0.6380535849069913,inf,,,0.8214153647343526
611,,0.0,0.0,0.4160285505509062,0.354640734670625,0.5002990158418938,1.8754423633878428,1.8729628478317146,,,0.6038851895711802,inf,,,0.8918378916511192
612,,0.0,0.0,1.424029992366344,1.366961078870447,0.8138602292193663,2.1309400012949515,2.244887230511919,,,0.6425374456860184,inf,,,0.8565387867050208
613,0.0,0.0,0.0,1.231118309272784,1.1851973202988042,0.8725157347332911,2.7281442339811943,2.6615400425327014,,,0.6207552362147116,5.703782474656201,inf,,0.8795942802603676
614,,0.0,0.0,1.3307489313849041,1.3143087577994423,0.8999338862136635,2.503395023341152,2.331860299618613,,,0.6153451465759925,inf,,,0.8431392221583348
615,0.0,0.0,0.0,0.8643676076078066,0.8244007008341797,0.6206300875528215,2.209470990457257,1.7266557502979447,,,0.6566669596287297,5.703782474656201,inf,,0.8909097082956984
616,,0.0,0.0,1.3393393729437193,1.315985200827568,0.8326448627871516,2.3446058357122013,2.5774980559779856,,,0.6425374456860184,inf,,,0.8498437286410864
617,,0.0,0.0,0.9943617420424394,0.9329194235830625,0.7523498015922978,2.095543466070363,2.2033215914762274,,,0.6357360191111145,inf,,,0.8662620252685519
618,0.013423020332140661,-4.474340110713554e-05,0.0,0.9965139517794327,0.9680682698569271,0.705861650802988,2.4558539090129825,3.259450699642836,,,0.5748741956352443,5.717205494988342,inf,,0.9007150614977616
619,,0.0,0.0,0.9279150926178646,0.8917593712342679,0.6327865766289343,2.085398480786476,2.119169326943961,,,0.6284777104787076,inf,,,0.8908364385227601
620,,0.0,0.0,1.01158580939353,0.9841349798295884,0.8381988033577226,2.0911891283098236,2.0240980859548254,,,0.5783247308855777,inf,,,0.8453506525621831
621,,0.0,0.0,0.6272236851344732,0.5369541204848075,0.6596904277074749,2.641310951656986,3.0212685943518687,,,0.6038851895711802,inf,,,0.7372459515352735
622,0.0,0.0,0.0,1.4294474182037837,1.4026589601050317,0.9048395762094068,2.8957483358391687,2.910255846778586,,,0.5915533975974677,5.0106352940962555,inf,,0.7957751973316899
623,0.0,0.0,0.0,1.3810724975864026,1.369726908712011,0.9147700892934667,2.929198045408154,4.082237990939606,,,0.6125606311107803,5.703782474656201,inf,,0.8325507109078075
624,0.0,0.0,0.0,1.5704987989127182,1.5536868139340176,0.914938002674475,2.673457274579459,3.3202541214742842,,,0.6097226960127671,4.605170185988091,inf,,0.7854468732758723
625,0.013702059123748757,-0.00018269412164998342,0.0,1.6029784913608716,1.5943566623521543,0.9505971229554939,3.006380145382112,3.02857283288379,,,0.6284777104787076,4.330911133868451,inf,,0.800596720412894
626,,0.0,0.0,1.6271547870608865,1.5825714714765402,0.9272230985070922,2.6377128450450544,4.123081793995313,,,0.5883313578629602,inf,,,0.8212978431914263
627,0.0,0.0,0.0,0.7465047388321087,0.7363628731049255,0.4778641794166471,2.5287289139281404,2.3409635880005215,,,0.6425374456860184,5.703782474656201,inf,,0.8226467690974166
628,,0.0,0.0,1.3449110954241985,1.2892333020408562,0.8448991433480267,2.2499050719571634,2.727065389480879,,,0.6068309995095971,inf,,,0.8364298651061128
629,,0.0,0.0,1.4490830883679797,1.3794655358587575,0.8837321237918213,2.0014293724883325,2.482816978328562,,,0.5915533975974677,inf,,,0.8037553469795348
630,,0.0,0.0,0.782873468954718,0.7559166048441025,0.6560347747539577,1.8687661415882162,2.0342359135168184,,,0.6284777104787076,inf,,,0.8469025846534262
631,,0.0,0.0,1.1546158835511142,1.1218536409559494,0.7504556737042124,1.97130487758037,2.4052904375319555,,,0.581717464821069,inf,,,0.839837652900752
632,,0.0,0.0,1.2727631741472574,1.2125688080925348,0.8487978976113509,1.9552530948907252,1.919800683619772,,,0.5677978065141052,inf,,,0.8346698263445901
633,,0.0,0.0,0.46035680524116984,0.4083121893782897,0.684166695875628,1.5721166827291546,1.7709134702447569,,,0.6333676938231112,inf,,,0.9023667571316311
634,,0.0,0.0,1.4194547982732575,1.2830288172004378,0.8532124045858538,1.8658060667166252,1.8339709483393731,,,0.6153451465759925,inf,,,0.883694039126122
635,,0.0,0.0,1.3065998500700395,1.2781417360312108,0.8799355951584329,2.2799789278553515,2.698005951814786,,,0.62595550513784,inf,,,0.888754848749991
636,,0.0,0.0,1.3449007889701625,1.2878829144131905,0.8476922433845946,1.982352414717437,2.2537352834860265,,,0.62595550513784,inf,,,0.8314542776638657
637,,0.0,0.0,1.3349980012430427,1.3080159783234817,0.8038594611967672,1.8085398238136168,2.7781741246853615,,,0.6333676938231112,inf,,,0.7927492162759836
638,,0.0,0.0,0.49310306022396455,0.42937956649990294,0.6604932709710163,1.9493071132420043,2.447027513421134,,,0.6125606311107803,inf,,,0.6667238604022268
639,0.0,0.0,0.0,1.0114689715329253,0.9343427838992694,0.7259678808213077,3.2635903415632113,2.0138747873962557,,,0.6566669596287297,3.624340932976365,inf,,0.792273180999569
640,,0.0,0.0,1.1741668024795076,1.1566129106396144,0.8088447778445543,1.718573205657817,1.9604764554950367,,,0.585052858160615,inf,,,0.7630460545148097
641,,0.0,0.0,0.9501922610322513,0.9213905334967142,0.7557929202639767,2.205022207293716,2.480051202878235,,,0.6447042257417027,inf,,,0.634184248599496
642,,0.0,0.0,1.584898057988391,1.57294604227018,0.8739382883967791,2.6334359452612093,2.397595257131786,,,0.6357360191111145,inf,,,0.8542280668260648
643,,0.0,0.0,1.4256145749858378,1.4161945037719517,0.8869846875223998,3.3133012084713345,3.5516774950112504,,,0.62595550513784,inf,,,0.8831338814141114
644,,0.0,0.0,0.7049416658941019,0.6799183021733645,0.7195886694322977,2.5225357486668862,1.6697025536081656,,,0.6284777104787076,inf,,,0.8829013581716313
645,,0.0,0.0,1.3960768878186811,1.382870930658632,0.8978166431022334,2.4317032428302054,3.0429888233980003,,,0.5783247308855777,inf,,,0.7793567532052146
646,0.0,0.0,0.0,1.265365747299086,1.229436380072523,0.8528357677339939,2.367226169010428,2.446291836568379,,,0.6403206450210053,5.703782474656201,inf,,0.8142228797579979
647,0.0,0.0,0.0,1.344190095453502,1.2886542770902578,0.8871369566541566,2.497751594734007,2.514406157506559,,,0.5883313578629602,5.703782474656201,inf,,0.8466257205694838
648,,0.0,0.0,1.3432588275205941,1.2985320413571548,0.8829958242642104,2.611435549802897,2.9839136307159997,,,0.6207552362147116,inf,,,0.7954162882890157
649,,0.0,0.0,1.5621316184915524,1.483395529657315,0.9233479869172534,2.713112847370749,2.74593884529973,,,0.6068309995095971,inf,,,0.8041745038607833
650,0.0,0.0,0.0,1.6728001067474996,1.6020795772076335,0.9784082788639595,3.4083728464335086,3.029204372075902,,,0.6068309995095971,3.4011973816621555,inf,,0.8589053238282186
651,0.0,0.0,0.0,1.4940585401439441,1.444944455649304,0.9195896904294093,3.1808239920148127,4.916107008350142,,,0.6284777104787076,3.624340932976365,inf,,0.8426452309105555
652,,0.0,0.0,1.440580067751815,1.4169149472895568,0.8696506415757297,2.6975066556291725,2.5506853969223573,,,0.6333676938231112,inf,,,0.7874908383252728
653,,0.0,0.0,0.8561123315641153,0.8341024540365459,0.647786132284086,2.992640763059845,5.7886514797744635,,,0.6153451465759925,inf,,,0.8450816640796136
654,,0.0,0.0,1.4466838025667244,1.414768192973455,0.8360545624336756,2.2317146976594606,2.956386437560407,,,0.6284777104787076,inf,,,0.74934799967655
655,,0.0,0.0,1.3946605503910203,1.3983915127186186,0.8682735284555586,2.4274566588701707,2.7758601968276886,,,0.62595550513784,inf,,,0.7895258868799484
656,,0.0,0.0,0.8961304855754683,0.8246565109624191,0.6496737545149718,2.1627825276030253,1.7315926935820665,,,0.6447042257417027,inf,,,0.7753881979709343
657,,0.0,0.0,1.188110315000769,1.1655807778869858,0.7813394235512114,1.7533462248957448,1.9369345205446185,,,0.5783247308855777,inf,,,0.79452298062898
658,,0.0,0.0,1.2388662324236286,1.2199722129288144,0.8339588219304844,1.8770425391488035,1.8305134868187856,,,0.6153451465759925,inf,,,0.8374119342561555
659,,0.0,0.0,1.3635136967528367,1.3319289610686633,0.8640866978337879,1.623801157831768,1.7206176233337587,,,0.648888643467878,inf,,,0.8101706966249557
660,,0.0,0.0,1.2135672108135402,1.1876927990682205,0.8280842650240422,1.7733425496979351,1.8731745226724985,,,0.6403206450210053,inf,,,0.8383048729415239
661,,0.0,0.0,1.374347286231723,1.3515736405719458,0.8277110676191686,1.7826828338921097,2.0064903861945105,,,0.6357360191111145,inf,,,0.7899012531007523
662,,0.0,0.0,1.180442406859881,1.141598330941981,0.7976340360664124,1.6123883293375956,1.7199693695203515,,,0.6528756675646988,inf,,,0.8016885051444004
663,,0.0,0.0,0.5191206199603208,0.476217169085211,0.53298086522907,1.4011147228351764,1.490836859997361,,,0.6284777104787076,inf,,,0.8839357399848556
664,,0.0,0.0,1.4485496569510068,1.4231622696256656,0.8435144687616226,1.2082123482525466,1.2274151692000654,,,0.6284777104787076,inf,,,0.8279089731484259
665,0.0,0.0,0.0,0.252677993871798,0.2180947090859551,0.5925281388324704,1.669716544426267,1.6242957550968709,,,0.6097226960127671,5.703782474656201,inf,,0.6629568313221265
666,0.0,0.0,0.0,0.8464207996049191,0.8192808737385937,0.6819569571380143,1.8387841113544408,1.8848953551577976,,,0.6528756675646988,5.0106352940962555,inf,,0.5350582581847972
667,,0.0,0.0,1.0792316417716818,1.0711206638761344,0.7643490078656111,1.5044720477369233,1.7882206412892379,,,0.6284777104787076,inf,,,0.8493892472650332
668,,0.0,0.0,1.213842924878235,1.191295970551533,0.86833547614847,1.7508163507533256,2.428384817913142,,,0.5883313578629602,inf,,,0.846224930115899
669,,0.0,0.0,1.2992833753128163,1.2411962090732447,0.8420240292699183,1.8967094379006657,2.5768192012163986,,,0.6380535849069913,inf,,,0.8261971286222235
670,,0.0,0.0,1.3787022068289643,1.367069128390815,0.8490906441044447,1.944790498320424,1.9339692738328471,,,0.6008849035917525,inf,,,0.8107936540814851
671,0.0016694506327572993,-1.1129670885048663e-05,0.0,0.8978655442047311,0.586355682627246,0.700197487949867,2.242539956884017,2.872412836308615,,,0.62595550513784,5.012303351196953,inf,,0.8982078586629615
672,,0.0,0.0,0.6076154700147853,0.47073087088770643,0.6990062526553715,1.7143452412335707,1.378136966357531,,,0.6038851895711802,inf,,,0.8499142864436454
673,0.5642337959605858,-0.011284675919211715,0.0,1.0955087242911223,1.0190667166970881,0.8446680958885104,2.4642027227902434,1.4008066194649835,,,0.6180765742263259,4.31748811353631,inf,,0.8797429302243323
674,0.0,0.0,0.0,0.9219431186590348,0.8670864890691125,0.6795750806138215,4.04886877031397,5.811494013980609,,,0.6403206450210053,4.31748811353631,inf,,0.7175278688545008
675,0.05492181353497557,-0.001647654406049267,0.0,1.1603970730357305,1.0969376009576033,0.8145090838878773,3.2926791842242857,2.5299860916770713,,,0.6403206450210053,3.5508581562165618,inf,,0.8660751614945174
676,0.3110326167301788,-0.003110326167301788,0.0,1.5825278624493773,1.5187802164139268,0.9109443373933284,3.0726068533167297,3.385490611331997,,,0.6180765742263259,4.831095380264178,inf,,0.8997625732790455
677,,0.0,0.0,1.3742077159799573,1.331709119067929,0.8417235622968179,2.7477657445475776,3.584028624273832,,,0.6153451465759925,inf,,,0.8945868278372253
678,0.0,0.0,0.0,1.4849613440159588,1.4737497300586828,0.9080356866019438,3.3989107111332575,14.348774052526297,,,0.62595550513784,4.605170185988091,inf,,0.8981865966839064
679,0.0,0.0,0.0,1.5831779791295282,1.5591525467634322,0.9253749313326964,3.909130986651831,3.636402350929804,,,0.6468212168108125,4.31748811353631,inf,,0.8957575926871257
680,0.6250470260557021,-0.0062504702605570206,0.0,1.2983855647763345,1.2257122057023113,0.8067201319235611,3.319378006805221,6.483363317245924,,,0.6068309995095971,4.9367654455298,inf,,0.8098490662504723
681,,0.0,0.0,1.6096966397486385,1.546228670663336,0.8953090189216318,2.956943261161675,6.2455410943544285,,,0.6038851895711802,inf,,,0.8360389635736141
682,,0.0,0.0,1.6056069747584818,1.6225499448508964,0.9128147718096291,2.3457629877872566,3.3050371594027435,,,0.5978297680564633,inf,,,0.7995191758438858
683,,0.0,0.0,1.5336498968216672,1.5160492610499872,0.9280185494871908,2.7065628175661747,3.1506586859834185,,,0.5883313578629602,inf,,,0.8348953269077241
684,,0.0,0.0,1.2813084470657334,1.2677577292608162,0.8117129864583512,2.2948991614886745,3.552540875297248,,,0.648888643467878,inf,,,0.8672250501752319
685,,0.0,0.0,1.1493117236533792,1.116977334813112,0.7756698581422284,2.040998894075821,1.827153135351086,,,0.6468212168108125,inf,,,0.7364279508989867
